"cx-rfile"
"Iteration" "cx"
("Iteration" "cx")
1 2.288618839602591
2 2.058993210143478
3 1.565549113903299
4 1.268939391746932
5 0.9567050728053502
6 0.7420794990756387
7 0.5753367031730457
8 0.4482322790224104
9 0.3408447639589403
10 0.2431712367975094
11 0.1572822567444963
12 0.09096477143972204
13 0.03968763098843467
14 0.001918567513620635
15 -0.02363611254306616
16 -0.03747904455634996
17 -0.04448367993440117
18 -0.04569871147376301
19 -0.04272844913558924
20 -0.03753852266260264
21 -0.03025471333572653
22 -0.02101798340408965
23 -0.01176172088647936
24 -0.002009378555747921
25 0.006825468796970938
26 0.01481868124766369
27 0.02246305938806735
28 0.02849264353484693
29 0.03375054516593341
30 0.03790487448119984
31 0.04150526678778246
32 0.04417419325732649
33 0.04640724804536624
34 0.04792777199716778
35 0.04909239564171395
36 0.04992432054868924
37 0.05051807946842007
38 0.05071023413238615
39 0.05052560360435276
40 0.04992484281635776
41 0.04900622412578684
42 0.04792155024507633
43 0.04661376389201437
44 0.04522137610706899
45 0.04389930385911613
46 0.04251281502380564
47 0.0413054965462001
48 0.04006098883018706
49 0.03904213521893409
50 0.03801349261297912
51 0.03697732655175064
52 0.03598015419130075
53 0.0348280466655835
54 0.03381276205759894
55 0.03290769024531055
56 0.03202867105521563
57 0.03140480057483543
58 0.03081189639103758
59 0.03039504057895647
60 0.03004438293765187
61 0.02974770045096998
62 0.02952231637492666
63 0.02930265710306984
64 0.02909928126957046
65 0.02891280085992872
66 0.0287199211158284
67 0.02851358614030543
68 0.02830363212138045
69 0.02808254614960852
70 0.02788837023842796
71 0.02763527555478044
72 0.02738163592898979
73 0.02711806102677956
74 0.02685094092367113
75 0.02657819972062123
76 0.02630554778407742
77 0.0260254575280291
78 0.02574795901414487
79 0.02546302457731764
80 0.02518346404181351
81 0.02489769118350155
82 0.02461447358991764
83 0.02432926661650405
84 0.02404766215691643
85 0.02376464410380126
86 0.02355527565272981
87 0.02326190497566689
88 0.02305134264157406
89 0.02282739895133032
90 0.02260790492622554
91 0.02237861837903671
92 0.02215190585370794
93 0.02191837056561398
94 0.02169009877603269
95 0.02145649256699305
96 0.02123104880416285
97 0.02100207863091551
98 0.02078394582009558
99 0.02056408955693991
100 0.02035374650098918
101 0.02014671317467682
102 0.01994972661345625
103 0.0197539986481874
104 0.01956857308900751
105 0.0193851962106704
106 0.01921377514033377
107 0.01904562146516946
108 0.01888785866455793
109 0.01873109959204164
110 0.01858585735566249
111 0.01844148876679038
112 0.01831098417698919
113 0.01817863564291229
114 0.01805734197498381
115 0.01793803146863063
116 0.01782915365846188
117 0.01772138398292106
118 0.0176227041627603
119 0.01752530940385005
120 0.01743398878095842
121 0.01734481362659261
122 0.01726229671753395
123 0.01718218404062936
124 0.01710818847885512
125 0.01703567991953494
126 0.01696942379207015
127 0.01690273486119585
128 0.01684275614764291
129 0.01678394641719566
130 0.01672966067882191
131 0.01667580553964554
132 0.016628046795653
133 0.01657984253433998
134 0.01653731745669724
135 0.01649334760686369
136 0.01645588446497925
137 0.01641709549302134
138 0.01638498035144891
139 0.01635091077979115
140 0.01632164936929584
141 0.01629250579511262
142 0.01626969393023727
143 0.01624328852565326
144 0.0162220750463127
145 0.01619971672469378
146 0.01618339873291156
147 0.01616385696926793
148 0.01615044177224258
149 0.01613543904560842
150 0.0161262166513578
151 0.01611435328012228
152 0.01610802991275065
153 0.01610134234463133
154 0.01609848951406037
155 0.0160955472104186
156 0.0160931930627769
157 0.01609096275668887
158 0.0160922098099011
159 0.01609315608390374
160 0.01609497185322164
161 0.01609775192342433
162 0.01610162990246647
163 0.01610547732304703
164 0.01611128976687715
165 0.01611581703464995
166 0.01612225284877878
167 0.01612627043454178
168 0.01613353683245617
169 0.01614294063783671
170 0.01615077362866994
171 0.01615416848732346
172 0.01616000934401303
173 0.01616312951236161
174 0.01617173980981017
175 0.01617504678619895
176 0.01617966820474055
177 0.01618027758835516
178 0.01618282284052128
179 0.01618403213390456
180 0.01618710580926003
181 0.01618440918975617
182 0.01618475282183805
183 0.01618045664665949
184 0.01617888477266192
185 0.01617337110546837
186 0.01616786716768021
187 0.01616283092139596
188 0.01615813884675717
189 0.01615007285008353
190 0.01614269916322679
191 0.01613331685388966
192 0.01612503644230877
193 0.01611391887283622
194 0.01610259703967343
195 0.01608925219680555
196 0.01607690894875939
197 0.01606295026069068
198 0.01604765007775295
199 0.01603092984522896
200 0.01601447930554899
201 0.0159964200173524
202 0.01597827676792416
203 0.01595816288733003
204 0.01593829716701024
205 0.01591566777609836
206 0.01589288639063177
207 0.01586814858122879
208 0.01584404890380768
209 0.0158181965009549
210 0.01579391518807758
211 0.01576489842181098
212 0.0157393639925579
213 0.01571107358480602
214 0.01568444577135242
215 0.01565511181026562
216 0.01562810610184775
217 0.01559789131073666
218 0.01557110152963619
219 0.01554196605739082
220 0.01551542577033205
221 0.01548669207395189
222 0.01545977938386661
223 0.01543206421480538
224 0.01540727070509246
225 0.01537930482325597
226 0.0153542590338084
227 0.0153282064636827
228 0.01530473837694317
229 0.01527974984469584
230 0.01525674522112806
231 0.01523295465440581
232 0.01521155349999709
233 0.015188372561653
234 0.01516738902157004
235 0.01514462676666837
236 0.01512444843261768
237 0.01510331621626066
238 0.01508343765113796
239 0.01506265121346817
240 0.01504395184537699
241 0.01502518285081801
242 0.01500893425497544
243 0.01498990396864706
244 0.01497456213015707
245 0.01495769435854402
246 0.01494286441422987
247 0.01492666808044003
248 0.01491439798587466
249 0.01489878596576533
250 0.01488633430697844
251 0.01487130156416896
252 0.01486077433921775
253 0.01484676877446291
254 0.01483681860059345
255 0.01482347260425871
256 0.01481657919440957
257 0.01480523296853272
258 0.01479910251258284
259 0.0147896091793083
260 0.01478459324369949
261 0.01477519732556705
262 0.01477101301201545
263 0.01476312946698124
264 0.01476011118666668
265 0.01475316898466712
266 0.01475132724869876
267 0.01474494828060079
268 0.01474400624824817
269 0.01473880930771863
270 0.01473813503312628
271 0.01473301326757844
272 0.01473297269494833
273 0.01472571726762911
274 0.01472528469586812
275 0.01471944702871642
276 0.01471967081346729
277 0.01471206936742413
278 0.01471100453272451
279 0.01470408626063233
280 0.01470404248620311
281 0.01469541856446647
282 0.01469397983395062
283 0.01468593091345327
284 0.01468369106977567
285 0.01467371783255704
286 0.01467188704740483
287 0.01466184877611412
288 0.01465809555546663
289 0.01464871915559568
290 0.01464636127808648
291 0.01463725938140763
292 0.01463556458293454
293 0.01462660121364063
294 0.01462363035846251
295 0.01461613084243921
296 0.01461375973425125
297 0.01460694186248966
298 0.014605473511711
299 0.01459992645158568
300 0.01459917408072536
301 0.01459400314014611
302 0.01459325344429121
303 0.01458861628611519
304 0.01458986824873741
305 0.01458615355894823
306 0.01458682424783942
307 0.01458550840224077
308 0.01458609182127778
309 0.01458347380340323
310 0.01458389942944793
311 0.01458256335670064
312 0.01458304664050988
313 0.01457957081088523
314 0.01457986661801785
315 0.01457688016690896
316 0.0145761093851249
317 0.01457147739397726
318 0.01457039945262121
319 0.01456387635124015
320 0.01456143789480532
321 0.01455494024630453
322 0.01455178669408341
323 0.01454296047047463
324 0.01453832288752491
325 0.01452973154349816
326 0.01452520330485423
327 0.01451603858188169
328 0.01451060376279622
329 0.01450158703534234
330 0.01449737533955729
331 0.01448937874435837
332 0.01448590169942716
333 0.01447865743688969
334 0.01447437551036877
335 0.01446910024769917
336 0.01446743501142332
337 0.01446344388917496
338 0.01446346094409478
339 0.01446106665998672
340 0.01446101504852128
341 0.01445956424776787
342 0.01445914382488599
343 0.01445804587966128
344 0.01445861247286259
345 0.01445714390126204
346 0.0144558280037129
347 0.01445509762709792
348 0.01445464454980006
349 0.01445079298671021
350 0.01444855509619743
351 0.01444472763550031
352 0.01444224177873646
353 0.01443633314720244
354 0.014432810576307
355 0.01442813770532686
356 0.01442436448836699
357 0.01441644279010934
358 0.01441042962810783
359 0.01440322542749677
360 0.01439636789943841
361 0.01438844142326845
362 0.01438276844085467
363 0.01437479406903437
364 0.01436999476091943
365 0.0143622358994669
366 0.0143579651572499
367 0.01435061769457176
368 0.01434753562715923
369 0.01434314291205627
370 0.01434147162655216
371 0.01433719872999873
372 0.01433684568116796
373 0.01433461068847733
374 0.01433594001326484
375 0.01433488987084179
376 0.0143374211558573
377 0.01433709377361686
378 0.01433929108363194
379 0.01433854817727884
380 0.01434088134784552
381 0.01433960718056658
382 0.01434136906416456
383 0.01433993175696139
384 0.01434090261886092
385 0.01433861274846172
386 0.01433851492184493
387 0.0143353516906459
388 0.01433457332468246
389 0.01433090891590279
390 0.01432824840598258
391 0.01432187914804702
392 0.01431838143610269
393 0.01431048560978123
394 0.01430494767616874
395 0.01429535239878693
396 0.01428953107843301
397 0.01428091792684281
398 0.0142746918692206
399 0.0142648084360144
400 0.01425928921214379
401 0.01425032697406182
402 0.01424512647409012
403 0.01423629893966342
404 0.01423304624896771
405 0.01422566253402403
406 0.01422327376643716
407 0.01421713384229373
408 0.01421646981458384
409 0.01421263913223742
410 0.01421316036784722
411 0.01420942007336485
412 0.01421098683415317
413 0.01420928171029962
414 0.01421298548204518
415 0.01421220149728585
416 0.01421625180970638
417 0.01421559653124813
418 0.0142187644289417
419 0.01421751475202995
420 0.01422038558815856
421 0.01422015307304164
422 0.01422281101067328
423 0.01422187794209698
424 0.01422391240594896
425 0.01422254509562599
426 0.0142233848197713
427 0.01422106315152582
428 0.01422017356450719
429 0.01421617258562436
430 0.01421280624931875
431 0.01420742947831709
432 0.01420299344944832
433 0.01419777076538755
434 0.01419312375013595
435 0.01418697992177027
436 0.01418154526244054
437 0.01417466959084117
438 0.01416847353606128
439 0.01416038514111969
440 0.01415439386720193
441 0.01414712227894632
442 0.01414058308494686
443 0.01413372665441796
444 0.01412771706827531
445 0.01412201001341827
446 0.01411810686215622
447 0.01411312592823903
448 0.01411099405799229
449 0.014107513630621
450 0.01410711921090096
451 0.01410407712329973
452 0.01410522127376006
453 0.01410388521962189
454 0.01410619511081946
455 0.01410471017291845
456 0.01410666556680639
457 0.01410688650447614
458 0.01411138469287561
459 0.0141108052819788
460 0.01411410042035049
461 0.0141134106930393
462 0.01411596653120797
463 0.0141155319310244
464 0.01411700847334426
465 0.01411572070857795
466 0.01411549107221338
467 0.01411424462133725
468 0.01411113696015008
469 0.01410880738928907
470 0.01410630196281695
471 0.01410238631720767
472 0.01409840904795259
473 0.01409479866182108
474 0.01409117579413612
475 0.0140861287529741
476 0.01408216004312915
477 0.0140773477328092
478 0.01407357289050201
479 0.01406887959100352
480 0.01406463987706282
481 0.01406002144967754
482 0.01405780881241504
483 0.01405380231733372
484 0.0140516277166186
485 0.01404733650264568
486 0.01404671600079419
487 0.01404234180594697
488 0.01404188402056074
489 0.01403922662367986
490 0.01403994043900188
491 0.01403530989662621
492 0.01403574057110963
493 0.01403300355018886
494 0.01403384687869533
495 0.01403018132790168
496 0.01403112503415388
497 0.01402877222924226
498 0.01402938204240875
499 0.01402655206294455
500 0.01402622355503618
501 0.0140230381489968
502 0.01402230508294349
503 0.0140194274137217
504 0.01401666436312452
505 0.01401343409607043
506 0.01401039198106922
507 0.01400648124486882
508 0.01400322564905602
509 0.01400099768232307
510 0.0139989758049231
511 0.01399669477553922
512 0.01399530058662498
513 0.01399451850845728
514 0.01399350335261243
515 0.01399252634301441
516 0.01399201760627395
517 0.01399281059595253
518 0.01399211143998673
519 0.01399206568589802
520 0.01399144736732123
521 0.01399096509346492
522 0.01399230768010128
523 0.01399130881259004
524 0.01399212159698716
525 0.01399069547696982
526 0.01399137886730877
527 0.01398851711271403
528 0.01398990051899889
529 0.01398660991888439
530 0.0139870732933084
531 0.01398273536451856
532 0.01398238720868935
533 0.01397866522347375
534 0.01397756748246475
535 0.01397288180697442
536 0.01397130043293868
537 0.01396621530061356
538 0.01396339244448681
539 0.01395774337417389
540 0.01395570308850874
541 0.0139499967301855
542 0.01394773780396912
543 0.01394235889748936
544 0.01393935100837314
545 0.01393454439740483
546 0.01393261187062557
547 0.01392903052606643
548 0.01392815852451913
549 0.01392626180918886
550 0.01392553720391685
551 0.0139244918542801
552 0.01392509990163614
553 0.01392544048623882
554 0.01392724070015803
555 0.013927661558651
556 0.01392990708146347
557 0.01393196316493042
558 0.01393491643534575
559 0.01393617534485233
560 0.01393949798597416
561 0.01394077616444424
562 0.0139439718825852
563 0.01394443755390521
564 0.01394666408793758
565 0.01394661896520379
566 0.01394870209417532
567 0.01394827433050278
568 0.0139486353156986
569 0.01394840197341507
570 0.0139478779799298
571 0.01394613646681131
572 0.01394410777606829
573 0.01394217796331421
574 0.01393836190110366
575 0.01393464629128763
576 0.01393050689781559
577 0.01392707112842382
578 0.01392363149411931
579 0.0139192843760687
580 0.01391534381405089
581 0.01391096140310809
582 0.01390876213916109
583 0.01390491119184465
584 0.01390335528117667
585 0.01390064148576315
586 0.01389877347746884
587 0.01389552723928401
588 0.01389433346322761
589 0.01389264676712239
590 0.01389297414376134
591 0.01389062620609536
592 0.01389070124163346
593 0.01388950329116856
594 0.01389080173426617
595 0.01389023038467515
596 0.01389240836317743
597 0.01389280199842468
598 0.01389405999098042
599 0.01389396087456353
600 0.01389563324070319
601 0.01389625265142293
602 0.01389738532575146
603 0.01389654874702057
604 0.01389634164420791
605 0.01389621156350111
606 0.01389567256651282
607 0.01389424886284588
608 0.01389252901139242
609 0.01389158783130308
610 0.01388890788101668
611 0.013886375757106
612 0.01388332277112584
613 0.01388156539869443
614 0.01387949070565176
615 0.01387698601617328
616 0.01387419892054355
617 0.01387221965276792
618 0.01387032564343458
619 0.01386913233491813
620 0.01386688764818592
621 0.01386690886048095
622 0.01386570459914165
623 0.01386490148778916
624 0.01386372155766269
625 0.01386439235144033
626 0.01386542197397054
627 0.01386567106791796
628 0.01386607744857355
629 0.01386759849054779
630 0.01387021570977153
631 0.01387063782048197
632 0.01387395156232952
633 0.0138762623136424
634 0.01388043327323218
635 0.01388089175200834
636 0.01388414869812941
637 0.01388375147445413
638 0.0138875524197558
639 0.01388587295562264
640 0.01388746583837924
641 0.01388473153609715
642 0.01388508467772663
643 0.01388056613326409
644 0.01387933964835787
645 0.01387409369320644
646 0.01387198802595551
647 0.01386630795312196
648 0.01386248158055406
649 0.01385642118252389
650 0.01385261932980828
651 0.01384586627535405
652 0.01384172166294794
653 0.01383639983457321
654 0.01383355979395656
655 0.01382885701899383
656 0.01382531167022608
657 0.01382214829037914
658 0.01381983187415444
659 0.01381745610836399
660 0.01381743189014631
661 0.01381718376725861
662 0.01381851418975442
663 0.01381892460246441
664 0.01382115100469065
665 0.01382457898091681
666 0.01383034134265115
667 0.01383355348932785
668 0.01383905943618582
669 0.01384417231341369
670 0.01385008519173382
671 0.01385364625330166
672 0.01385904819789124
673 0.0138633931034274
674 0.01386823627563412
675 0.01387034327124946
676 0.01387358936519738
677 0.0138748948028888
678 0.01387729721033041
679 0.01387722641214509
680 0.01387683887855678
681 0.01387495351120025
682 0.01387355002097005
683 0.01386954730498323
684 0.01386642400158576
685 0.01386075059185369
686 0.01385699133838359
687 0.01384948944289651
688 0.01384401309705896
689 0.01383689760454742
690 0.01383234369898835
691 0.01382491038835989
692 0.01381978055102007
693 0.01381400894512554
694 0.01380973728522748
695 0.01380450488049669
696 0.01380021791680966
697 0.01379705256367449
698 0.0137952239398228
699 0.01379300480420258
700 0.01379139193408789
701 0.01379173341786258
702 0.0137932860853511
703 0.01379512441043776
704 0.01379716045642182
705 0.01380091862444865
706 0.01380501153943353
707 0.01380818035648832
708 0.01381229311283599
709 0.0138165026750627
710 0.01382161359427178
711 0.01382373267674478
712 0.01382746027919754
713 0.01383078010309304
714 0.01383537353128529
715 0.01383746890804472
716 0.01384064282610926
717 0.0138423346940453
718 0.01384487425896334
719 0.01384497927333195
720 0.01384661332123058
721 0.0138448174672528
722 0.0138455920222409
723 0.01384175767580111
724 0.01384019956228674
725 0.01383654319322331
726 0.01383461779706209
727 0.01382951437821134
728 0.01382655963092528
729 0.0138212103072116
730 0.01381759393896022
731 0.01381246029605834
732 0.0138084209875595
733 0.01380451612261128
734 0.01380190956560488
735 0.01379849328882236
736 0.01379582745288867
737 0.01379496617568566
738 0.01379513912177165
739 0.01379536830979997
740 0.01379606709109149
741 0.01379683184170268
742 0.01379773882955397
743 0.0137993637327343
744 0.01380066684949922
745 0.01380209264857235
746 0.01380498539018879
747 0.01380606158653681
748 0.01380743241270635
749 0.01380860334180385
750 0.0138111999842219
751 0.0138114220731435
752 0.0138137986966726
753 0.01381401505293904
754 0.0138160029936768
755 0.01381499124832806
756 0.01381518308840153
757 0.01381387108751555
758 0.01381455729796063
759 0.01381192017574687
760 0.01381131001731606
761 0.01380817007664983
762 0.01380677614798125
763 0.01380247067434126
764 0.01380144430022298
765 0.01379728985936961
766 0.01379656514744664
767 0.0137920473147708
768 0.01379072496645515
769 0.01378770613160406
770 0.01378732164471109
771 0.01378411304896246
772 0.0137850538989349
773 0.01378374089857364
774 0.01378530381213171
775 0.01378490592909901
776 0.01378704435151554
777 0.01378882958305938
778 0.01379209982731159
779 0.01379435667070573
780 0.01379727259458157
781 0.01379928747289584
782 0.01380274963918626
783 0.01380493133163172
784 0.01380778172294763
785 0.01381017999784077
786 0.01381334530161729
787 0.01381501337273486
788 0.01381700876802617
789 0.01381787686290657
790 0.01381979046112765
791 0.01381944690708753
792 0.01381891862527505
793 0.01381722643452649
794 0.01381551211383843
795 0.01381205790136471
796 0.01380894403110697
797 0.01380451891429662
798 0.01380133870036502
799 0.01379569068332001
800 0.01379127789966542
801 0.01378577512120257
802 0.01378110240118603
803 0.01377534872801329
804 0.01377145946850463
805 0.01376701718965642
806 0.01376507130313074
807 0.01376203498220514
808 0.01376142681823865
809 0.01376072649514887
810 0.01376159848893618
811 0.01376148547868619
812 0.01376236070943055
813 0.0137648877658693
814 0.01376749489422364
815 0.01377065946346233
816 0.01377394735643886
817 0.01377838760910866
818 0.01378214132349475
819 0.01378611317727039
820 0.01379053302399088
821 0.01379494637027761
822 0.01379948946602668
823 0.01380247256614968
824 0.01380586597280043
825 0.01380860923276361
826 0.01381196298405539
827 0.01381218232646139
828 0.01381426429954861
829 0.01381421415552332
830 0.01381538555293707
831 0.01381259618056691
832 0.01381236074853053
833 0.01380849793909022
834 0.01380740939244028
835 0.01380190742281811
836 0.01379910811604149
837 0.0137944265005009
838 0.01379136956803087
839 0.01378540676675463
840 0.01378275157790317
841 0.01377890049111638
842 0.01377675663790886
843 0.01377386376993419
844 0.01377205210411483
845 0.01377015021974328
846 0.01376883565254056
847 0.01376723206647419
848 0.01376628609578749
849 0.01376662065407879
850 0.01376674943383642
851 0.01376679111264294
852 0.01376674972517802
853 0.0137690498670087
854 0.01376934041878733
855 0.01377078325604179
856 0.01377163328278849
857 0.01377390440116727
858 0.01377454261840854
859 0.01377586539667908
860 0.01377475435125434
861 0.01377646435257008
862 0.01377698777422646
863 0.01377704273163
864 0.01377662748683371
865 0.0137773981161967
866 0.01377693724101447
867 0.01377713521146539
868 0.01377624422269241
869 0.01377651563053377
870 0.01377597069573768
871 0.01377532596124746
872 0.01377338992203294
873 0.01377341480011732
874 0.01377338915258445
875 0.01377315758491296
876 0.01377267593643994
877 0.01377305985260267
878 0.01377391378828074
879 0.01377424851971441
880 0.01377500523060494
881 0.01377625927351486
882 0.01377741883526706
883 0.01377840494387414
884 0.01377842882754791
885 0.01378012040699811
886 0.01378149033224681
887 0.01378307801041426
888 0.01378305382837672
889 0.01378478986664701
890 0.01378700540367435
891 0.01378714917655418
892 0.01378919021595913
893 0.01378947617768752
894 0.0137924887771951
895 0.01379136779683215
896 0.01379217507249637
897 0.01379145474427071
898 0.0137920423718648
899 0.01378955142399037
900 0.01378846854056858
901 0.0137856427976716
902 0.01378368189005755
903 0.01377988438242965
904 0.01377802525939891
905 0.01377439238488828
906 0.01377153635222268
907 0.01376712386129104
908 0.01376345197642188
909 0.01376044093873463
910 0.01375885882813685
911 0.01375576878748032
912 0.01375405114269176
913 0.01375289707835967
914 0.01375237982174195
915 0.01375191662539518
916 0.0137518308303508
917 0.01375227625013883
918 0.01375478789264942
919 0.01375563189946923
920 0.0137576795028733
921 0.01375990526730241
922 0.01376387933342133
923 0.01376587859468687
924 0.01377030531548956
925 0.01377310152412557
926 0.01377837100010211
927 0.013780392127237
928 0.01378423633390247
929 0.01378646894116971
930 0.01378940604280069
931 0.0137896572269954
932 0.0137909121976709
933 0.01379235783493194
934 0.01379212492764692
935 0.01379092369117155
936 0.01378933412106163
937 0.01378855917266624
938 0.01378687607530413
939 0.01378536998648922
940 0.01378136148680004
941 0.01377953468593285
942 0.01377577826645775
943 0.01377388927195004
944 0.01376888706141187
945 0.01376709054664503
946 0.01376371530796984
947 0.01376228689605982
948 0.01375898809644842
949 0.01375863555280912
950 0.01375590528929881
951 0.01375541664925157
952 0.01375241753311992
953 0.01375213827415458
954 0.01375112476456995
955 0.01375117903863722
956 0.01374946463165926
957 0.01375008112963279
958 0.01375056081939507
959 0.01375223928592803
960 0.01375374902451748
961 0.01375626229546511
962 0.0137593426902982
963 0.0137623379539617
964 0.0137652823222275
965 0.0137684419932644
966 0.01377263580461775
967 0.0137751257512901
968 0.01377788773866396
969 0.0137811040129449
970 0.01378403156108972
971 0.01378553581065553
972 0.01378683881572695
973 0.01378839796235567
974 0.01378969384681399
975 0.0137898430228183
976 0.01378969707277645
977 0.01378913862484985
978 0.0137881707079551
979 0.01378646792542586
980 0.0137840662091639
981 0.01378204369497405
982 0.01377989358324129
983 0.01377580602238799
984 0.01377309930147061
985 0.01376980487328697
986 0.01376695941930408
987 0.013763912543743
988 0.0137610024596151
989 0.013758397735505
990 0.01375635271806784
991 0.01375383064976499
992 0.0137524227020104
993 0.01375187886904242
994 0.01375247737002116
995 0.01375136615621785
996 0.01375330144616483
997 0.01375456667795472
998 0.01375849107990084
999 0.01376024503518186
1000 0.01376443747131269
1001 0.01376604171308034
1002 0.01376943819785754
1003 0.01377088000347555
1004 0.01377381220668826
1005 0.0137758024782948
1006 0.0137789186809685
1007 0.01377889759272624
1008 0.0137796930179904
1009 0.01377971452001963
1010 0.01378032705116751
1011 0.01377947144891329
1012 0.01377855823597126
1013 0.01377724254524674
1014 0.01377539133427532
1015 0.01377342587673506
1016 0.01377036723057711
1017 0.01376907330975264
1018 0.01376556192981656
1019 0.01376240565969297
1020 0.01375803609673701
1021 0.01375581135830038
1022 0.01375194719845054
1023 0.01374987720530135
1024 0.01374643484918004
1025 0.01374511096799592
1026 0.01374324060624049
1027 0.01374275308459331
1028 0.01374142874509165
1029 0.01374281804020211
1030 0.01374419588615027
1031 0.01374552438106019
1032 0.013747449981389
1033 0.01375031875145356
1034 0.01375423594630503
1035 0.01375773901321705
1036 0.01376172582301699
1037 0.01376602372905936
1038 0.01377018581839057
1039 0.01377431079418662
1040 0.01377784581637156
1041 0.013781228867291
1042 0.01378494661368381
1043 0.0137866916296936
1044 0.01378883297262719
1045 0.01379059107255237
1046 0.01379327380778095
1047 0.01379285776412226
1048 0.01379435270374436
1049 0.01379367090625584
1050 0.01379507971262016
1051 0.01379255323475795
1052 0.01379162763653525
1053 0.01378787258276838
1054 0.01378623242795506
1055 0.01378069965267087
1056 0.01377657479230586
1057 0.01377081694928881
1058 0.01376672280248833
1059 0.0137609175180206
1060 0.01375553065442246
1061 0.01375097137435742
1062 0.01374604465683227
1063 0.01374150050640284
1064 0.01373755235585712
1065 0.01373486562514767
1066 0.01373314290642157
1067 0.0137315895620208
1068 0.01373013777768852
1069 0.01373169822702563
1070 0.0137324832531634
1071 0.01373466951533442
1072 0.01373631859335083
1073 0.01374075460757936
1074 0.01374408169658077
1075 0.01374886313027768
1076 0.01375221787974243
1077 0.01375737123152835
1078 0.01376159079485935
1079 0.01376540084355748
1080 0.01376891099176648
1081 0.01377347482504433
1082 0.01377833629479601
1083 0.01378172427180376
1084 0.01378448487601494
1085 0.01378752197056573
1086 0.01379075432736001
1087 0.01379188191181323
1088 0.01379175394318155
1089 0.0137921759077655
1090 0.01379095189508718
1091 0.01378871897456229
1092 0.01378528848836944
1093 0.01378287329308051
1094 0.0137794478823501
1095 0.01377495318759216
1096 0.01377051688829041
1097 0.01376584293280746
1098 0.01376262377261353
1099 0.01375746087331542
1100 0.01375391151573712
1101 0.01374921904842524
1102 0.01374753242284448
1103 0.013743113665113
1104 0.01374187028853299
1105 0.01373908102168469
1106 0.0137397074766568
1107 0.01373829247138667
1108 0.0137395110555247
1109 0.01373934241319871
1110 0.0137418512335144
1111 0.01374251558168318
1112 0.01374512205039153
1113 0.0137478214161814
1114 0.01375088201532562
1115 0.01375373837291803
1116 0.01375650873874102
1117 0.01376008922273763
1118 0.01376383030246447
1119 0.013766933002862
1120 0.01376995398560523
1121 0.01377313418545423
1122 0.01377579955089385
1123 0.01377814538454476
1124 0.01377821240040627
1125 0.01377986911920163
1126 0.0137786674932592
1127 0.01377876817391885
1128 0.01377769406699325
1129 0.01377685935425333
1130 0.01377515626955915
1131 0.01377247414625473
1132 0.01377053327466697
1133 0.01376721160537011
1134 0.01376632570768696
1135 0.0137623805895191
1136 0.01376098248407903
1137 0.01375822449201685
1138 0.01375722697171469
1139 0.01375397590891271
1140 0.01375256432931338
1141 0.01375086561577512
1142 0.01375074746155987
1143 0.01375046481270728
1144 0.01375081738742663
1145 0.01375138067527245
1146 0.01375296874561194
1147 0.01375382014292473
1148 0.01375510768837242
1149 0.01375832440401323
1150 0.01376071154065509
1151 0.01376284678610679
1152 0.0137651292128115
1153 0.01376785700060537
1154 0.01377035800241414
1155 0.01377242928035531
1156 0.01377379611163414
1157 0.01377693570559572
1158 0.01377737338073107
1159 0.01377919048482506
1160 0.01377812117736633
1161 0.01377832759069711
1162 0.01377679778699546
1163 0.01377624466800753
1164 0.0137730622190678
1165 0.01377183483262464
1166 0.01376858317295175
1167 0.01376528738025655
1168 0.01376239342274857
1169 0.01375965849300741
1170 0.0137564625029494
1171 0.01375274406825414
1172 0.01374967991952171
1173 0.01374782822173824
1174 0.01374544164596423
1175 0.01374306812558574
1176 0.01374207326794258
1177 0.01374089151703568
1178 0.01374065252433363
1179 0.01373973389754669
1180 0.01374023777150629
1181 0.01374058187304285
1182 0.01374295660227408
1183 0.01374453021916409
1184 0.01374718559759873
1185 0.01374928826499038
1186 0.01375413517280262
1187 0.01375644538632613
1188 0.01376079765317647
1189 0.01376419648287624
1190 0.01376897442639443
1191 0.01377144375129295
1192 0.01377548364638117
1193 0.01377772690879289
1194 0.01377988332102145
1195 0.01378095354544408
1196 0.01378191490025594
1197 0.01378339905850876
1198 0.0137832670764761
1199 0.01378258651758645
1200 0.01378166029682558
1201 0.01377985609167461
1202 0.01377791845389511
1203 0.01377462445984154
1204 0.01377170957391258
1205 0.0137686184044634
1206 0.01376608705824058
1207 0.01376265219288358
1208 0.01375873197655048
1209 0.01375683717847737
1210 0.0137533278396676
1211 0.01375105859033201
1212 0.01374698819714858
1213 0.01374579493766125
1214 0.01374386154499547
1215 0.01374315376481447
1216 0.01374146707192452
1217 0.01374101377764151
1218 0.01374063761390676
1219 0.01374080466741045
1220 0.01374161751238184
1221 0.01374351606049424
1222 0.01374643248309629
1223 0.01374787680267906
1224 0.01375063565909459
1225 0.01375310210467345
1226 0.01375634209290135
1227 0.01375820926663256
1228 0.01376109933309159
1229 0.0137623907954639
1230 0.01376529393217146
1231 0.01376623737958708
1232 0.01376818866648197
1233 0.01376803673477092
1234 0.01377040011493765
1235 0.01376971917257896
1236 0.01377104986401923
1237 0.01376923995977051
1238 0.01377052004236034
1239 0.0137672686521555
1240 0.0137670756310595
1241 0.01376411084772516
1242 0.01376384966804044
1243 0.01376095117392761
1244 0.01376047243752972
1245 0.01375904431281821
1246 0.01375818848809245
1247 0.01375576781891904
1248 0.0137545725760956
1249 0.01375411255018077
1250 0.01375352996598699
1251 0.0137529941234102
1252 0.01375206709822944
1253 0.01375286367837949
1254 0.01375454579903867
1255 0.01375600857781251
1256 0.01375670005863258
1257 0.01375884111471001
1258 0.01376034355171998
1259 0.01376218479994104
1260 0.01376273323063835
1261 0.013765141291546
1262 0.01376653568985592
1263 0.01376765332827232
1264 0.01376723618701135
1265 0.0137687767321437
1266 0.0137687840557117
1267 0.01376857333844906
1268 0.01376722933551007
1269 0.01376715137083968
1270 0.01376657959587849
1271 0.01376466070198472
1272 0.01376302381974372
1273 0.01376065985877568
1274 0.01375951362114213
1275 0.01375670807775381
1276 0.01375430936487565
1277 0.01375253150610892
1278 0.01375084311050147
1279 0.0137485412984646
1280 0.01374668815553427
1281 0.0137451833905967
1282 0.01374380783242901
1283 0.01374200472403721
1284 0.01374179296462278
1285 0.01374144382656902
1286 0.0137423207159262
1287 0.01374311592501577
1288 0.01374347464888227
1289 0.01374640494727189
1290 0.01374900410775165
1291 0.01375194743872608
1292 0.01375442554382398
1293 0.01375913301378842
1294 0.01376229830115897
1295 0.01376643386983751
1296 0.01376863538489152
1297 0.0137728283825182
1298 0.01377523363023253
1299 0.01377821652705093
1300 0.01377900272679058
1301 0.01378117877347424
1302 0.01378231290741964
1303 0.01378307345476949
1304 0.0137828088929672
1305 0.01378233783220647
1306 0.01378138063313746
1307 0.01377872994735619
1308 0.01377644512164469
1309 0.01377386101787748
1310 0.01377152746752384
1311 0.01376751969087142
1312 0.0137638674744704
1313 0.0137605508070178
1314 0.01375772086319149
1315 0.01375357529005563
1316 0.01375042079771295
1317 0.01374742328148954
1318 0.01374460726026335
1319 0.01374176912045596
1320 0.01373858679488879
1321 0.01373701803984224
1322 0.0137357455538807
1323 0.01373550620085696
1324 0.01373425917861498
1325 0.01373549757170722
1326 0.01373609770325485
1327 0.01373846201041386
1328 0.01374016845265274
1329 0.0137450609366044
1330 0.01374772731227047
1331 0.01375147420825315
1332 0.01375401658973718
1333 0.01375870466852009
1334 0.01376203574799861
1335 0.01376526998785193
1336 0.01376814373694883
1337 0.01377145051942467
1338 0.01377414360341147
1339 0.01377511913099232
1340 0.01377750833517953
1341 0.01377789937524677
1342 0.01377939721112388
1343 0.01377782654794502
1344 0.01377730010578254
1345 0.01377568345127668
1346 0.01377462742290119
1347 0.01377226949888162
1348 0.01376881148102492
1349 0.01376574989648722
1350 0.01376247479524484
1351 0.01375818190535947
1352 0.01375437242080414
1353 0.01375112689879783
1354 0.01374758567680814
1355 0.01374358686716633
1356 0.01374039675706909
1357 0.01373844780177416
1358 0.01373715348918727
1359 0.01373597293749252
1360 0.01373612557145503
1361 0.01373693958417615
1362 0.01373898040127714
1363 0.0137410483315872
1364 0.01374331126102212
1365 0.01374772855599516
1366 0.01375164761592217
1367 0.01375514542272465
1368 0.0137591391419031
1369 0.01376386762555207
1370 0.01376771891658661
1371 0.01377084389781034
1372 0.01377425248626374
1373 0.01377653916362487
1374 0.01378012604894263
1375 0.01378101690688381
1376 0.01378315335493122
1377 0.01378392326003585
1378 0.01378529467861472
1379 0.01378373420873454
1380 0.0137825538575714
1381 0.01378124861048085
1382 0.01377907279787161
1383 0.01377614608484785
1384 0.01377181769250406
1385 0.01376724736010446
1386 0.01376318563773772
1387 0.01375826029881563
1388 0.01375341741945114
1389 0.01374963572306664
1390 0.01374601208633613
1391 0.0137405770155435
1392 0.01373800649491518
1393 0.01373494757366826
1394 0.01373420882583175
1395 0.01373176330097538
1396 0.01373207270502439
1397 0.01373180449332221
1398 0.01373320014236102
1399 0.01373451767922151
1400 0.0137367259159777
1401 0.01373958608708263
1402 0.01374286943037902
1403 0.0137456582825748
1404 0.01374928682683001
1405 0.01375347449491202
1406 0.01375779240281794
1407 0.01376146230744397
1408 0.01376559474977297
1409 0.01376889487974929
1410 0.0137729776743988
1411 0.01377537555107491
1412 0.01377754324950511
1413 0.01378039891498004
1414 0.01378249011710147
1415 0.01378469114394985
1416 0.01378493510082306
1417 0.01378709332248639
1418 0.01378634785406057
1419 0.01378667979035165
1420 0.0137842114105061
1421 0.01378259827930087
1422 0.0137794071266468
1423 0.01377656420467263
1424 0.01377110602141086
1425 0.01376722361934507
1426 0.01376153065792321
1427 0.01375677310709728
1428 0.01375071326131644
1429 0.01374654581065577
1430 0.01374117255725779
1431 0.01373675522828285
1432 0.01373203442716631
1433 0.01372886252712817
1434 0.01372677568302346
1435 0.01372525754008339
1436 0.01372406247308027
1437 0.01372382854789537
1438 0.01372465722910323
1439 0.01372522643182564
1440 0.01372815481824299
1441 0.01373073494704399
1442 0.01373572231693559
1443 0.01373833209304208
1444 0.01374408843860051
1445 0.01374734876236134
1446 0.01375419622349907
1447 0.01375749597428309
1448 0.01376379011047799
1449 0.0137676852047707
1450 0.01377377738865315
1451 0.01377668315019835
1452 0.01378113405352279
1453 0.01378331864663677
1454 0.01378754640137998
1455 0.01378843513939451
1456 0.01378987649519696
1457 0.01379013538377101
1458 0.01378966738585823
1459 0.01378773418430184
1460 0.01378580232796062
1461 0.01378346339008323
1462 0.01378089081604004
1463 0.01377702329500138
1464 0.01377383266062315
1465 0.01376970051602626
1466 0.01376584128576479
1467 0.01376109991923396
1468 0.013757511896611
1469 0.01375400890682447
1470 0.01375089147118751
1471 0.01374683588757615
1472 0.01374422502075004
1473 0.01374152854053083
1474 0.01373988415246519
1475 0.01373774216991189
1476 0.01373762192726288
1477 0.01373656026068731
1478 0.01373850165303413
1479 0.01373842576593239
1480 0.01374035657060336
1481 0.0137418555642588
1482 0.01374455918586889
1483 0.01374649780077695
1484 0.01374879944780554
1485 0.0137520958320218
1486 0.01375416548764336
1487 0.0137571459639835
1488 0.01375846685370162
1489 0.01376202075033217
1490 0.01376351219832759
1491 0.01376651845166106
1492 0.0137665176937977
1493 0.0137695853925045
1494 0.01376852248570108
1495 0.01376975387013668
1496 0.01376734492164849
1497 0.01376871872063192
1498 0.01376622557886361
1499 0.01376608423549703
1500 0.01376306261024237
1501 0.01376172518611666
1502 0.01375900444872865
1503 0.01375634889673303
1504 0.01375357122359086
1505 0.0137512484593005
1506 0.01374908322678225
1507 0.01374618470531056
1508 0.01374470517868138
1509 0.01374359224722695
1510 0.01374412079018321
1511 0.01374226928420628
1512 0.01374323508089527
1513 0.01374310909906756
1514 0.01374621795367223
1515 0.01374584294998114
1516 0.01374936030929923
1517 0.01375082658337325
1518 0.01375473804085565
1519 0.01375630037985373
1520 0.0137604682658335
1521 0.01376292975387268
1522 0.01376715951570264
1523 0.01376864117034938
1524 0.01377179592151241
1525 0.01377321263219465
1526 0.01377621530375604
1527 0.01377605819898094
1528 0.01377686221969755
1529 0.01377602789554018
1530 0.0137770886141937
1531 0.01377543582801223
1532 0.01377490509604989
1533 0.01377179098625896
1534 0.01377043676615091
1535 0.01376663012871969
1536 0.013764139681731
1537 0.01376156987358149
1538 0.01375982589522834
1539 0.0137560028757719
1540 0.01375321296198256
1541 0.01375069195157611
1542 0.01374843736039071
1543 0.01374665272450205
1544 0.01374485793502052
1545 0.01374460789663503
1546 0.01374301887468352
1547 0.01374290642185802
1548 0.01374235572825792
1549 0.01374357224128975
1550 0.01374487625938357
1551 0.01374648809785018
1552 0.01374775122394027
1553 0.01374986192753523
1554 0.01375262362974225
1555 0.01375569746512101
1556 0.01375739862448056
1557 0.01376074448733333
1558 0.01376256383010498
1559 0.0137651597085003
1560 0.01376629466566115
1561 0.01376885366074286
1562 0.01377008013798339
1563 0.01377113898767303
1564 0.01377230138616084
1565 0.01377291994876489
1566 0.01377403685881715
1567 0.01377397682801711
1568 0.01377385968084677
1569 0.01377326086263461
1570 0.01377245220191283
1571 0.01376986930023284
1572 0.01376817855321576
1573 0.01376671055748838
1574 0.01376554329523106
1575 0.01376247416629055
1576 0.01376125554698821
1577 0.01375926939975738
1578 0.01375802176286365
1579 0.01375532303822344
1580 0.01375425394792873
1581 0.0137514245345965
1582 0.01375182793057087
1583 0.01374864497852259
1584 0.01374832544336017
1585 0.01374638476709933
1586 0.01374698713141808
1587 0.0137453449534726
1588 0.01374517651213512
1589 0.01374558752607842
1590 0.01374587547949584
1591 0.01374622212383444
1592 0.01374607762236031
1593 0.0137466537829522
1594 0.01374726480571711
1595 0.01374795548266799
1596 0.01374793026039857
1597 0.01374972644534721
1598 0.01375090715225695
1599 0.01375210878588418
1600 0.01375357405090476
1601 0.01375595473344704
1602 0.01375744018314099
1603 0.01375813975166964
1604 0.01375969595155734
1605 0.01376106208428936
1606 0.01376167376187181
1607 0.01376184277495646
1608 0.01376133991471148
1609 0.01376227018574988
1610 0.01376271744922726
1611 0.01376251817607125
1612 0.01376257354466403
1613 0.01376286042057664
1614 0.01376423935467834
1615 0.01376330080445507
1616 0.01376417072468299
1617 0.01376368052708022
1618 0.01376540252087146
1619 0.01376487951468499
1620 0.01376498683818001
1621 0.01376511732588181
1622 0.01376580164095714
1623 0.01376611038615757
1624 0.01376550019743599
1625 0.01376646137977414
1626 0.0137664712543443
1627 0.01376658677081058
1628 0.01376536820314936
1629 0.01376664777544155
1630 0.0137659832345774
1631 0.01376603892279294
1632 0.0137638803739934
1633 0.01376462378236617
1634 0.01376353873833967
1635 0.01376305319613826
1636 0.01376137583364084
1637 0.01376155676112808
1638 0.01375976785591771
1639 0.0137586031318067
1640 0.01375584813108754
1641 0.01375561407639361
1642 0.01375361878928913
1643 0.01375211199554973
1644 0.01374918464561667
1645 0.01374785612413379
1646 0.01374684420778574
1647 0.01374574263160155
1648 0.01374453465665303
1649 0.01374401596627337
1650 0.01374393535457999
1651 0.01374186102086599
1652 0.01374254132309147
1653 0.01374202260087695
1654 0.01374415611947486
1655 0.0137432423130193
1656 0.01374448819861825
1657 0.01374600814433402
1658 0.01374881556814743
1659 0.01375058639396206
1660 0.01375317431570504
1661 0.01375597211214712
1662 0.01375929644707139
1663 0.01376115348727182
1664 0.01376367677346942
1665 0.01376611061488503
1666 0.01376870965363667
1667 0.01376964254282504
1668 0.01377153799232347
1669 0.0137734160050998
1670 0.01377554739152927
1671 0.01377569753132634
1672 0.01377639175086563
1673 0.01377587967543512
1674 0.01377625440099184
1675 0.01377535438646821
1676 0.01377500559107816
1677 0.01377371224329682
1678 0.01377265442552759
1679 0.01376947602787885
1680 0.01376711626061493
1681 0.01376349042555315
1682 0.0137619892910775
1683 0.01375811150955754
1684 0.01375650887391671
1685 0.01375317895700625
1686 0.01375178956701657
1687 0.0137490612439945
1688 0.01374688761144968
1689 0.01374513142682685
1690 0.01374412927004799
1691 0.01374227680095398
1692 0.0137412947512338
1693 0.01374104220726784
1694 0.01374137430192627
1695 0.01374119149671719
1696 0.01374226865561457
1697 0.01374393338798097
1698 0.0137464796611108
1699 0.01374834752788746
1700 0.01374992851251157
1701 0.01375212033235008
1702 0.01375542683018709
1703 0.01375744120854202
1704 0.01375959098324687
1705 0.01376137980290164
1706 0.01376402183971371
1707 0.01376460529088543
1708 0.01376563932367204
1709 0.01376662075899026
1710 0.01376798873957659
1711 0.01376775427469191
1712 0.01376775322525969
1713 0.01376835542450561
1714 0.01376764681175936
1715 0.01376664953428872
1716 0.01376543082711326
1717 0.0137648814370086
1718 0.01376415088704681
1719 0.01376234078430135
1720 0.01376110247835274
1721 0.01375971191130681
1722 0.01375902639101477
1723 0.01375752655642988
1724 0.01375618832950687
1725 0.01375556545423215
1726 0.01375494761189293
1727 0.0137545058956759
1728 0.01375318986609359
1729 0.01375450925329899
1730 0.01375424865900089
1731 0.01375485303051875
1732 0.01375476765547171
1733 0.01375564793609805
1734 0.01375697883640152
1735 0.01375830347493243
1736 0.01375908318752514
1737 0.01376057168158118
1738 0.01376198914709933
1739 0.01376222013064952
1740 0.01376350443041835
1741 0.01376358798060931
1742 0.01376530642013024
1743 0.01376461615009291
1744 0.01376545861656793
1745 0.01376462952032039
1746 0.0137651197085898
1747 0.01376352637695078
1748 0.01376292962898615
1749 0.01376160250855755
1750 0.01376146988316528
1751 0.01375874421127675
1752 0.01375814701860704
1753 0.01375537453477127
1754 0.01375480556929238
1755 0.01375101755079998
1756 0.01374960049578327
1757 0.01374712686013341
1758 0.01374587420729696
1759 0.01374409011494054
1760 0.01374208864479402
1761 0.01374190926533022
1762 0.01374100651928415
1763 0.01374177673981234
1764 0.0137409970524792
1765 0.01374298696987768
1766 0.01374355815969049
1767 0.01374584281847478
1768 0.0137460725012504
1769 0.01374960817971925
1770 0.01375206317395072
1771 0.01375557435919929
1772 0.01375825030667958
1773 0.01376228177955015
1774 0.01376559028173961
1775 0.01376859959594503
1776 0.0137707177875097
1777 0.013773582614116
1778 0.01377585050849648
1779 0.01377761183654616
1780 0.01377991730393688
1781 0.01378030607642279
1782 0.01378243724736571
1783 0.01378287815431895
1784 0.01378376261715985
1785 0.0137827811166618
1786 0.01378323363358226
1787 0.01378053987819489
1788 0.01377847016692273
1789 0.01377504648559595
1790 0.01377258234390722
1791 0.01376796514811055
1792 0.01376392991014927
1793 0.01375990566488758
1794 0.0137556873986855
1795 0.01375153643757121
1796 0.0137462480208254
1797 0.01374263823564888
1798 0.01373771202594621
1799 0.01373417021282559
1800 0.01373000640182098
1801 0.0137284387076685
1802 0.01372635539309452
1803 0.01372574429606778
1804 0.01372413585062316
1805 0.01372444504988623
1806 0.01372560226143191
1807 0.01372782166016315
1808 0.01373074555247609
1809 0.01373384688080246
1810 0.01373848108348794
1811 0.01374096568844579
1812 0.01374547872781785
1813 0.01374927542357005
1814 0.01375456817612944
1815 0.01375732561112427
1816 0.01376181128465545
1817 0.01376498348436002
1818 0.0137697486890909
1819 0.01377302483506334
1820 0.01377699856496674
1821 0.01377998950337313
1822 0.01378355138210499
1823 0.01378473543745118
1824 0.01378664974731879
1825 0.0137865937819708
1826 0.01378766372225423
1827 0.01378589344437881
1828 0.0137844216583705
1829 0.01378259436705207
1830 0.01378065793903434
1831 0.01377713719197063
1832 0.01377375402220325
1833 0.01377004794924753
1834 0.0137663292359948
1835 0.01376175116435111
1836 0.01375793249022903
1837 0.01375475686071164
1838 0.01375158746799793
1839 0.01374859743601241
1840 0.01374592978214307
1841 0.01374283160139924
1842 0.01374197957910134
1843 0.01374108595927694
1844 0.01374110970854813
1845 0.01374102363534199
1846 0.01374152023929386
1847 0.01374162451239767
1848 0.01374194321216233
1849 0.01374337478988253
1850 0.01374467571403784
1851 0.01374513500368724
1852 0.0137456484463589
1853 0.01374713725449225
1854 0.01374886312176554
1855 0.01374990687547967
1856 0.0137522660740528
1857 0.01375403808361138
1858 0.01375632347839918
1859 0.01375693189461289
1860 0.01375879390821116
1861 0.0137603164797594
1862 0.01376259416772333
1863 0.01376309507854599
1864 0.01376420371813862
1865 0.01376435430585591
1866 0.01376578613180493
1867 0.01376566912542314
1868 0.01376572513392225
1869 0.01376581729579645
1870 0.01376574756889705
1871 0.01376499835034427
1872 0.01376366280646171
1873 0.01376350070197704
1874 0.0137617527892828
1875 0.01376043818848262
1876 0.01375913854888153
1877 0.01375872601975011
1878 0.01375808451930095
1879 0.01375756084997426
1880 0.01375667192048392
1881 0.01375676257281448
1882 0.01375636281678728
1883 0.01375563476063567
1884 0.01375499456263453
1885 0.01375511620180589
1886 0.01375559139853631
1887 0.01375511898838639
1888 0.01375548415373756
1889 0.01375634127483874
1890 0.01375818832335456
1891 0.01375801642029163
1892 0.01375939167726881
1893 0.01375938248744176
1894 0.01376103782881846
1895 0.01375989275727446
1896 0.01376084582977774
1897 0.01376082190137678
1898 0.01376133857717546
1899 0.01376031020678677
1900 0.01375896792391398
1901 0.01375796913119824
1902 0.01375685948651518
1903 0.0137552238898728
1904 0.01375378576421286
1905 0.01375271635407067
1906 0.01375165279978229
1907 0.01375104540736939
1908 0.01374988199939206
1909 0.01375049431136109
1910 0.01375112987312162
1911 0.01375058513581616
1912 0.01375129339931708
1913 0.01375201604109052
1914 0.013753701248077
1915 0.01375360544996636
1916 0.01375425844174259
1917 0.01375457665143798
1918 0.01375610438459757
1919 0.01375556193403577
1920 0.01375642659393858
1921 0.01375736259317277
1922 0.01375890994767712
1923 0.01375863869426563
1924 0.01376030619644386
1925 0.01376082453278914
1926 0.01376263334079401
1927 0.01376245952736155
1928 0.013762733261953
1929 0.01376398591772426
1930 0.01376450844524955
1931 0.01376459045904832
1932 0.01376394071290591
1933 0.01376537579430456
1934 0.01376501407747464
1935 0.01376523328269473
1936 0.01376458833532677
1937 0.01376553656990249
1938 0.01376485461206635
1939 0.01376463292554013
1940 0.01376343391733366
1941 0.01376325975519456
1942 0.01376323681471022
1943 0.01376263441660778
1944 0.01376155809986271
1945 0.01376077783019659
1946 0.01376034858285009
1947 0.01375888630005292
1948 0.01375777124816506
1949 0.01375674044136517
1950 0.01375591015534482
1951 0.01375353551027333
1952 0.01375234759736209
1953 0.01374971676945654
1954 0.01374912149309479
1955 0.01374682576588743
1956 0.01374614327501572
1957 0.013745272162722
1958 0.0137452929020688
1959 0.01374391094298548
1960 0.01374432621193171
1961 0.01374351054566587
1962 0.01374515174037935
1963 0.0137450616190246
1964 0.0137461724422505
1965 0.01374738495602268
1966 0.01374887414344396
1967 0.01375085660848525
1968 0.0137513818460998
1969 0.01375366257190569
1970 0.01375564084074809
1971 0.0137569908594224
1972 0.01375729278849444
1973 0.0137588465101491
1974 0.01376031721000898
1975 0.01376110159944342
1976 0.0137619582871855
1977 0.01376242453686635
1978 0.01376417716959865
1979 0.0137641360003264
1980 0.01376544927295422
1981 0.01376585303199285
1982 0.01376773490562112
1983 0.01376681390511157
1984 0.01376748187547884
1985 0.01376646269224272
1986 0.0137676949366086
1987 0.01376682439880136
1988 0.01376742077240975
1989 0.01376756445344159
1990 0.01376962298146252
1991 0.01376961371406815
1992 0.01377059358149699
1993 0.01377103059643441
1994 0.01377354467921397
1995 0.01377361745207644
1996 0.01377462331341911
1997 0.01377455144700085
1998 0.01377423646872182
1999 0.01377263630026465
2000 0.01377191104225266
2001 0.01377016313448758
2002 0.01376831708056949
2003 0.01376556900685597
2004 0.01376247027169902
2005 0.01375940868858823
2006 0.01375638204995453
2007 0.01375276671049809
2008 0.01374871006721476
2009 0.01374547444204887
2010 0.01374157420339255
2011 0.01373758156253911
2012 0.01373471907979982
2013 0.01373324959613869
2014 0.01373247460637006
2015 0.01373023410883334
2016 0.01373003555943509
2017 0.01372996552098403
2018 0.01373212353185373
2019 0.0137328413265514
2020 0.01373489598470458
2021 0.01373682790639767
2022 0.01373991593181879
2023 0.01374236136365754
2024 0.01374620292241034
2025 0.01374992018287832
2026 0.01375452114261958
2027 0.01375787900640004
2028 0.01376246991873068
2029 0.01376680757726783
2030 0.0137716999495659
2031 0.0137749011121516
2032 0.01377801300919842
2033 0.01378037061613798
2034 0.01378297014236662
2035 0.01378316869984433
2036 0.01378336577592402
2037 0.01378290325954246
2038 0.01378175369446245
2039 0.01377977449090379
2040 0.01377770429250016
2041 0.01377499842108794
2042 0.01377264706744777
2043 0.01376929534717668
2044 0.01376585242697362
2045 0.01376226636376743
2046 0.01375912150359581
2047 0.01375477778593904
2048 0.01375193940147203
2049 0.01374789524985809
2050 0.01374616842417742
2051 0.01374205864313527
2052 0.01374038075117134
2053 0.01373731703031228
2054 0.01373685843541926
2055 0.01373422166813981
2056 0.01373373026580041
2057 0.01373253514353696
2058 0.01373334312911635
2059 0.01373329924337756
2060 0.01373456368890209
2061 0.01373595060129246
2062 0.01373924529002846
2063 0.01374242223157146
2064 0.01374607354075918
2065 0.01374959382749756
2066 0.01375450112563887
2067 0.01375903489360367
2068 0.01376323316480889
2069 0.01376810889466139
2070 0.0137720078238091
2071 0.01377480308367117
2072 0.01377671728442779
2073 0.01377896611120465
2074 0.01378097130420641
2075 0.01378188708318759
2076 0.01378163488293473
2077 0.01378150197998911
2078 0.01377995107329744
2079 0.01377868213812163
2080 0.01377690709440327
2081 0.01377481464544528
2082 0.01377292153585009
2083 0.01376933415625392
2084 0.01376674703941035
2085 0.01376320716983713
2086 0.01376069502489817
2087 0.01375647983472587
2088 0.01375370673846776
2089 0.01375103139272018
2090 0.01374935134971071
2091 0.0137463480199785
2092 0.01374449464557848
2093 0.01374389234591525
2094 0.01374358605394469
2095 0.01374286372294032
2096 0.01374354312928439
2097 0.01374485320645894
2098 0.01374746125122445
2099 0.01374840059239021
2100 0.01375138310837126
2101 0.01375324798694073
2102 0.01375677671686365
2103 0.01375854315527422
2104 0.01376060624232429
2105 0.01376198136861205
2106 0.01376427347650854
2107 0.01376557692631212
2108 0.01376655370755567
2109 0.01376650235204693
2110 0.01376745872612098
2111 0.01376610505673241
2112 0.01376627880918379
2113 0.0137652882949763
2114 0.01376547708311272
2115 0.01376321442316671
2116 0.01376298215591396
2117 0.01376059165303417
2118 0.0137605739296316
2119 0.0137570221596281
2120 0.01375575335062798
2121 0.01375325559673489
2122 0.01375151850314504
2123 0.01374789015565813
2124 0.01374584986404213
2125 0.01374284241485826
2126 0.01374240707527389
2127 0.01374039656005137
2128 0.01374012610598796
2129 0.0137399702330063
2130 0.01374095939921548
2131 0.01374013135379469
2132 0.01374222615319218
2133 0.0137437455499384
2134 0.01374712936192469
2135 0.01374879037746687
2136 0.01375174592144871
2137 0.01375523157673846
2138 0.01375901161583611
2139 0.01376256543570913
2140 0.01376600848450994
2141 0.01376930299454466
2142 0.01377233374011434
2143 0.01377477021730428
2144 0.01377713267791108
2145 0.01377875720075175
2146 0.0137805468631262
2147 0.01378189652015592
2148 0.01378212001344479
2149 0.01378268488628553
2150 0.01378356931009755
2151 0.01378230733254879
2152 0.01378224438525245
2153 0.01378065140328475
2154 0.01377934441174621
2155 0.01377540171833821
2156 0.01377270253019864
2157 0.01376862877875484
2158 0.01376549607017583
2159 0.01375970817593877
2160 0.01375544732211248
2161 0.01374955277529473
2162 0.01374630308397165
2163 0.01374144124433269
2164 0.01373845965544884
2165 0.0137344207073207
2166 0.01373338653844724
2167 0.01373020107087658
2168 0.01372971641074907
2169 0.013729219778346
2170 0.01372981501346901
2171 0.01372971964986548
2172 0.01373150450783223
2173 0.01373389549727414
2174 0.01373699283594643
2175 0.01374093203665314
2176 0.01374388623046542
2177 0.01374846556139639
2178 0.01375290921987027
2179 0.01375699486602522
2180 0.01376035970351772
2181 0.01376422629110452
2182 0.01376791238609423
2183 0.01377090042126496
2184 0.01377386987720041
2185 0.01377668646338771
2186 0.01377999185511979
2187 0.01378207134078719
2188 0.01378323337205706
2189 0.01378385855567588
2190 0.01378502189561243
2191 0.01378432079007231
2192 0.0137831440805471
2193 0.01378116854923589
2194 0.01377906665068884
2195 0.01377511994971406
2196 0.01377191968908315
2197 0.01376851680241746
2198 0.01376494305660917
2199 0.01376007228724904
2200 0.01375654407682823
2201 0.01375234164133807
2202 0.01374985448210649
2203 0.01374506893933116
2204 0.01374359881116354
2205 0.01373997283992329
2206 0.01373868694656285
2207 0.01373563765750547
2208 0.01373532426688586
2209 0.01373467610049725
2210 0.01373578143620199
2211 0.01373500517588326
2212 0.01373639028889287
2213 0.01373825057081813
2214 0.01374089767020045
2215 0.0137430552080207
2216 0.01374636954286471
2217 0.0137499289589458
2218 0.01375388781056453
2219 0.01375622529667434
2220 0.01376066645279438
2221 0.01376365137987444
2222 0.01376779707706798
2223 0.01376964759752343
2224 0.01377271546161058
2225 0.0137746270631577
2226 0.01377665189638113
2227 0.01377736442026655
2228 0.01377752440704435
2229 0.0137772070231888
2230 0.01377550456936605
2231 0.01377339010699983
2232 0.01377089641981744
2233 0.01376956136016008
2234 0.01376810256362918
2235 0.01376510499642417
2236 0.01376259140221445
2237 0.01376082391034839
2238 0.01375868499941148
2239 0.01375544949183357
2240 0.01375304276576902
2241 0.0137514009670353
2242 0.01374898280758042
2243 0.01374833917074969
2244 0.01374640703463017
2245 0.01374619537054169
2246 0.01374597895356759
2247 0.01374665159580575
2248 0.01374640476922575
2249 0.01374740792722305
2250 0.01374932509657674
2251 0.01374968065076804
2252 0.01375178662911333
2253 0.01375284287667918
2254 0.01375660468316286
2255 0.01375723771111159
2256 0.01376073203184004
2257 0.01376230815273785
2258 0.01376604603992365
2259 0.01376634112132005
2260 0.01376808154829656
2261 0.01376885429293627
2262 0.0137696402080274
2263 0.01376947873427575
2264 0.01376905455787436
2265 0.01376854612279012
2266 0.01376721771999249
2267 0.01376552927807639
2268 0.01376290385409932
2269 0.01376074894262463
2270 0.01375881360491478
2271 0.01375599748031226
2272 0.01375231434058244
2273 0.01375004348056896
2274 0.01374761628378892
2275 0.01374522724171253
2276 0.01374305011237972
2277 0.01374258546479457
2278 0.01374098229963078
2279 0.01373991291078051
2280 0.013738954821526
2281 0.01373845877814001
2282 0.01373891807294571
2283 0.01373932664797919
2284 0.01374055027544856
2285 0.01374157071862844
2286 0.0137445738432783
2287 0.01374601030725024
2288 0.01375019986866607
2289 0.01375309116593047
2290 0.01375831115806082
2291 0.0137599219648141
2292 0.01376397729282107
2293 0.01376646752620099
2294 0.0137711157489948
2295 0.01377261311704071
2296 0.01377589904656547
2297 0.01377711827816983
2298 0.01378004107450985
2299 0.01377986853328137
2300 0.01378112568923819
2301 0.01377998093902304
2302 0.01378036647558173
2303 0.01377795998969889
2304 0.01377682282148044
2305 0.01377381587646169
2306 0.01377270658409804
2307 0.01376923995065613
2308 0.01376623534204038
2309 0.0137629029198171
2310 0.01376114760799308
2311 0.01375754462395556
2312 0.01375473344388949
2313 0.01375269807956948
2314 0.01375016240236088
2315 0.01374766081961329
2316 0.01374517489772828
2317 0.01374412598997678
2318 0.01374329144852498
2319 0.01374273468618809
2320 0.01374138806664107
2321 0.01374232145512918
2322 0.01374190741833788
2323 0.01374258591743243
2324 0.01374366102348366
2325 0.01374647331834678
2326 0.01374811777366171
2327 0.01375054193774815
2328 0.01375180927382586
2329 0.01375451811276179
2330 0.01375588842482906
2331 0.01375764443109407
2332 0.01375787077179355
2333 0.01375934049923191
2334 0.01376049650472975
2335 0.01376175586870775
2336 0.01376256398724882
2337 0.01376317803667851
2338 0.01376453929802473
2339 0.01376391497284186
2340 0.01376411695134795
2341 0.01376353602730764
2342 0.01376347588850808
2343 0.01376171970465021
2344 0.01376078253991994
2345 0.01375874444752445
2346 0.01375796987029669
2347 0.01375588375276608
2348 0.01375506547180754
2349 0.01375371701105023
2350 0.01375333946864591
2351 0.01375117272687463
2352 0.0137516059024821
2353 0.01375060656929841
2354 0.01375298396377564
2355 0.01375204078867583
2356 0.01375409542922073
2357 0.01375427792993214
2358 0.01375870919237314
2359 0.01375871092142824
2360 0.01376252395875822
2361 0.01376324442998635
2362 0.01376762985534497
2363 0.01376844104827257
2364 0.01377045867791236
2365 0.01377129519010231
2366 0.0137727779066245
2367 0.01377312066875514
2368 0.01377227629687678
2369 0.0137724962021307
2370 0.01377205443116101
2371 0.01377007302055331
2372 0.01376792534898705
2373 0.01376623790748429
2374 0.01376459276700419
2375 0.01376253824137564
2376 0.01375903654137603
2377 0.01375721470223385
2378 0.01375422862066396
2379 0.01375201235394306
2380 0.01374812206712901
2381 0.01374663604681288
2382 0.01374353611927396
2383 0.01374230109990535
2384 0.013739693027002
2385 0.01373867664003824
2386 0.01373805307843488
2387 0.01373754099303297
2388 0.01373704876694692
2389 0.01373858337363713
2390 0.01374045418227156
2391 0.01374157930642237
2392 0.01374445491325922
2393 0.01374788171013394
2394 0.01375203327835271
2395 0.01375444123126206
2396 0.01375879903198321
2397 0.01376259094361987
2398 0.0137675341806924
2399 0.01376993935301391
2400 0.0137731218786145
2401 0.01377512356830995
2402 0.01377746956395399
2403 0.01377778183179628
2404 0.01377860606720476
2405 0.01377827060471518
2406 0.01377788093135109
2407 0.01377612296221118
2408 0.01377422548487298
2409 0.01377269242012113
2410 0.0137709598554737
2411 0.01376821326198034
2412 0.0137645419021853
2413 0.01376251284295949
2414 0.01375969550604627
2415 0.0137567427739654
2416 0.01375229626350869
2417 0.01374898867038486
2418 0.01374617607866166
2419 0.01374295143311472
2420 0.01374019098332784
2421 0.01373722629677242
2422 0.01373599021975735
2423 0.01373386406417317
2424 0.01373208609339118
2425 0.01373086143099968
2426 0.01373298115569949
2427 0.01373247905961877
2428 0.01373533583059006
2429 0.01373676045675173
2430 0.01374070727302843
2431 0.0137427111312254
2432 0.01374702579935038
2433 0.01375049084218132
2434 0.01375599692422036
2435 0.01375941157056466
2436 0.0137630336369523
2437 0.01376729395096528
2438 0.01377196169449892
2439 0.01377559758873887
2440 0.01377853217953768
2441 0.01378128943399217
2442 0.01378248631242006
2443 0.01378387913834482
2444 0.01378540874382238
2445 0.01378601491746363
2446 0.01378639488351227
2447 0.01378562489220424
2448 0.01378299219257159
2449 0.01378145062000447
2450 0.01377847255202283
2451 0.01377472747146768
2452 0.0137700423739778
2453 0.01376578727576293
2454 0.01376142195944387
2455 0.01375635926619743
2456 0.0137527105610654
2457 0.01374796312556271
2458 0.0137453643720326
2459 0.0137415860873217
2460 0.01373956520994235
2461 0.01373717942371963
2462 0.01373706105206848
2463 0.01373585604570972
2464 0.01373677901434933
2465 0.01373710676661576
2466 0.01373888963258923
2467 0.01374098232631436
2468 0.01374346890117943
2469 0.01374608898256089
2470 0.01374972911157203
2471 0.01375288130994915
2472 0.01375608871690861
2473 0.0137599718419295
2474 0.01376373708051684
2475 0.01376617092436208
2476 0.01376901789570557
2477 0.01377133130599365
2478 0.01377322737312354
2479 0.01377402382048578
2480 0.01377475396765359
2481 0.01377511293578369
2482 0.01377514924995933
2483 0.01377425550905793
2484 0.0137724884852844
2485 0.0137708783988993
2486 0.01376862468351661
2487 0.01376519167960072
2488 0.01376137997818182
2489 0.01375740293401637
2490 0.01375452484915291
2491 0.0137495486345631
2492 0.01374579939425147
2493 0.0137408219382607
2494 0.01373881438210458
2495 0.01373457675988018
2496 0.01373385164140761
2497 0.01373146203959597
2498 0.01373251046071966
2499 0.01373066010282124
2500 0.0137322398492465
2501 0.01373219632962929
2502 0.01373500473849594
2503 0.01373588356307238
2504 0.01373918253340438
2505 0.0137416716868919
2506 0.01374610181908591
2507 0.01375040698352902
2508 0.01375516987921739
2509 0.01375991269793037
2510 0.01376557964648373
2511 0.01376907235361462
2512 0.0137739174882523
2513 0.01377773100751755
2514 0.01378268912002266
2515 0.01378519586422071
2516 0.01378833227695321
2517 0.0137908359059192
2518 0.01379281606337836
2519 0.01379445105876047
2520 0.0137946503730571
2521 0.01379420811575022
2522 0.0137936091065495
2523 0.013790783454559
2524 0.01378733116820198
2525 0.0137831872949222
2526 0.01377872446759643
2527 0.01377248305276252
2528 0.01376581945889464
2529 0.0137596910780109
2530 0.01375460393196053
2531 0.01374763734710657
2532 0.01374192333455889
2533 0.01373781785998534
2534 0.01373380301693948
2535 0.0137297924760675
2536 0.01372664939227716
2537 0.01372536198035623
2538 0.01372399617750548
2539 0.01372307984348333
2540 0.01372315063711381
2541 0.01372522833217595
2542 0.01372789350977852
2543 0.01373075041368427
2544 0.01373406060751899
2545 0.01373876830458408
2546 0.01374360861221754
2547 0.01374742565099431
2548 0.01375253742457569
2549 0.0137572168908294
2550 0.01376277122432104
2551 0.01376721630896668
2552 0.01377096894115272
2553 0.01377473507227389
2554 0.01377773857858481
2555 0.01377966126305125
2556 0.01378060580272376
2557 0.01378194769488586
2558 0.0137824440885494
2559 0.01378142722500559
2560 0.01378080298237074
2561 0.01377860890841455
2562 0.01377691037564019
2563 0.01377340624092784
2564 0.01377169265816703
2565 0.01376715448488935
2566 0.01376532776578758
2567 0.0137603913329407
2568 0.01375826608776494
2569 0.01375426067075012
2570 0.01375321556896073
2571 0.01374900521038632
2572 0.01374795333465788
2573 0.01374475814492774
2574 0.01374423477123627
2575 0.01374265849201285
2576 0.01374186078267382
2577 0.01374214132503512
2578 0.01374239446521616
2579 0.01374305802732616
2580 0.01374387143611142
2581 0.01374580219160576
2582 0.01374765826932673
2583 0.01374967720481812
2584 0.01375082464600393
2585 0.01375368309946837
2586 0.01375510632368716
2587 0.0137578651125243
2588 0.01375890160081297
2589 0.01376212117968026
2590 0.01376320977425745
2591 0.01376425838012745
2592 0.01376507812460471
2593 0.01376634409803946
2594 0.01376792344553574
2595 0.01376779084001156
2596 0.01376859941609088
2597 0.01376761701066754
2598 0.01376876403894643
2599 0.01376669003330449
2600 0.01376763588541786
2601 0.01376507163341068
2602 0.01376553884424089
2603 0.01376316867141025
2604 0.01376226006501142
2605 0.01376001795140735
2606 0.0137591901392369
2607 0.01375675080041337
2608 0.01375494605936224
2609 0.0137541330394492
2610 0.01375186389707719
2611 0.01375067782656274
2612 0.0137493126511146
2613 0.01374934366904076
2614 0.01374939388003025
2615 0.01374970287396924
2616 0.01375016606315664
2617 0.01375208790109808
2618 0.01375337211866534
2619 0.0137553333816264
2620 0.01375637709619538
2621 0.01375913601322443
2622 0.01376009238388972
2623 0.0137629053570103
2624 0.01376419751586672
2625 0.01376632230916904
2626 0.01376772158559557
2627 0.01376898002947172
2628 0.01376970082970778
2629 0.01377084709858351
2630 0.01377231095917062
2631 0.01377090505162634
2632 0.01377063323013624
2633 0.01376878166382935
2634 0.01376850637824774
2635 0.01376513798886615
2636 0.0137637562837055
2637 0.01376137628438214
2638 0.01375948231280023
2639 0.01375576355587159
2640 0.01375388065470392
2641 0.01375178717192417
2642 0.01375023230939263
2643 0.01374712887057371
2644 0.0137449914663938
2645 0.01374294765839552
2646 0.01374158981483668
2647 0.01373961627238917
2648 0.01373847389278936
2649 0.01373744407522872
2650 0.01373737825237196
2651 0.01373621242187689
2652 0.01373682907285112
2653 0.01373836393398158
2654 0.01374023270144525
2655 0.0137423252162773
2656 0.0137445041998811
2657 0.01374785319780458
2658 0.01375152985933045
2659 0.01375517010559801
2660 0.0137582892265211
2661 0.01376254452338519
2662 0.01376574523628062
2663 0.01376939111704161
2664 0.01377201436167642
2665 0.01377595330910875
2666 0.01377865514448406
2667 0.01378086163626554
2668 0.01378176941768744
2669 0.01378384773973635
2670 0.01378500379956916
2671 0.01378470498832795
2672 0.01378395397185997
2673 0.01378391001329435
2674 0.0137822292556683
2675 0.01377994207020904
2676 0.01377646463569257
2677 0.01377415406805011
2678 0.01377099777633183
2679 0.01376762088440716
2680 0.01376345951488207
2681 0.01376027463609851
2682 0.01375701109048209
2683 0.01375257598132925
2684 0.01375009542341896
2685 0.0137462074059004
2686 0.01374413007884702
2687 0.01374038593784023
2688 0.01373831779856093
2689 0.01373716617647066
2690 0.01373703685917801
2691 0.01373629328952679
2692 0.01373648928314379
2693 0.01373777302819143
2694 0.01373929815439145
2695 0.013740199975866
2696 0.01374241501644975
2697 0.01374408726766309
2698 0.01374683536309835
2699 0.0137489963574984
2700 0.01375177475469524
2701 0.01375402783015942
2702 0.01375791015865666
2703 0.01375940469777845
2704 0.01376267878505686
2705 0.01376498845488353
2706 0.01376795768230487
2707 0.01376901417580161
2708 0.01377040747577169
2709 0.01377111104498247
2710 0.01377214987355703
2711 0.01377179273378288
2712 0.01377082901585028
2713 0.01377028425698818
2714 0.01376935483051354
2715 0.01376769522596012
2716 0.01376564296963553
2717 0.01376424334057209
2718 0.01376288670206867
2719 0.01376072649113539
2720 0.01375882357215298
2721 0.01375767946043158
2722 0.01375603092402982
2723 0.01375503891711049
2724 0.01375376020596879
2725 0.01375327650892965
2726 0.01375295793672936
2727 0.01375268300855704
2728 0.01375227692097167
2729 0.01375316931867811
2730 0.01375370883190026
2731 0.01375344502457642
2732 0.0137544020882337
2733 0.01375543482918725
2734 0.01375641645953832
2735 0.01375660662544579
2736 0.01375762923769124
2737 0.01375838874273112
2738 0.01376003752859729
2739 0.0137596817657787
2740 0.0137601553458881
2741 0.01376066210286656
2742 0.01376044243146956
2743 0.01375993442646266
2744 0.01375907650550388
2745 0.01375846544514056
2746 0.0137568182785926
2747 0.01375534074155866
2748 0.01375305405418301
2749 0.01375234887555568
2750 0.01374990428501731
2751 0.01374873800121034
2752 0.01374693251430995
2753 0.01374597244777888
2754 0.01374525941397757
2755 0.01374415896592352
2756 0.01374394210919247
2757 0.01374423397468269
2758 0.01374596118375875
2759 0.01374676302158409
2760 0.01374794220738776
2761 0.01374967215138479
2762 0.01375258454186013
2763 0.01375429061735507
2764 0.0137573946633414
2765 0.01375968237852655
2766 0.01376323099599111
2767 0.01376452349762026
2768 0.01376842990444203
2769 0.01376940189064992
2770 0.01377361640428704
2771 0.01377339819808962
2772 0.01377619705976277
2773 0.01377623853798907
2774 0.01377828867859246
2775 0.01377810795887582
2776 0.01377880571237753
2777 0.01377830856201322
2778 0.01377809938739731
2779 0.01377625937410834
2780 0.01377378645191796
2781 0.01377118463645591
2782 0.01376875221374224
2783 0.01376478620833123
2784 0.01376073275750023
2785 0.01375757344713322
2786 0.01375401426571938
2787 0.01375055617597092
2788 0.01374737044793195
2789 0.01374482318654598
2790 0.01374164240196143
2791 0.01373868262029069
2792 0.01373630532735723
2793 0.0137351561673817
2794 0.01373387547677077
2795 0.01373380167656801
2796 0.01373310979160444
2797 0.01373412391662459
2798 0.01373534719230175
2799 0.01373613249329823
2800 0.01373798853904814
2801 0.01373997932373031
2802 0.01374371921613122
2803 0.01374610723103347
2804 0.0137500673218156
2805 0.01375287237057572
2806 0.01375767493306349
2807 0.0137600981167898
2808 0.01376415513518559
2809 0.01376738507158301
2810 0.01377132327525001
2811 0.01377310540237294
2812 0.01377526397192082
2813 0.01377781203445051
2814 0.01378015559019869
2815 0.01378096202940663
2816 0.01378100926992263
2817 0.01378106676596654
2818 0.01378003350946312
2819 0.01377827918511904
2820 0.01377563528414515
2821 0.01377355520917542
2822 0.01377135539745976
2823 0.0137679926384222
2824 0.01376477537044477
2825 0.01376204614684859
2826 0.01375969539609534
2827 0.01375664417011611
2828 0.01375377352972874
2829 0.01375135365224059
2830 0.01374935481361496
2831 0.0137470370332958
2832 0.01374534660018887
2833 0.01374365078768111
2834 0.01374378545134431
2835 0.01374212602503954
2836 0.01374207661858746
2837 0.013742585075421
2838 0.01374462439381154
2839 0.01374495720928821
2840 0.01374822105387248
2841 0.01374995224896611
2842 0.01375342667051332
2843 0.01375516844615006
2844 0.01375798855669305
2845 0.01376048865977622
2846 0.01376316141632002
2847 0.0137649915352985
2848 0.01376584845167119
2849 0.01376774836518487
2850 0.01376828577842262
2851 0.01376841925894748
2852 0.01376752143200405
2853 0.01376767652411828
2854 0.01376576352438953
2855 0.01376379416985666
2856 0.01376122522735186
2857 0.0137597723581906
2858 0.01375618126125616
2859 0.01375341273234467
2860 0.01374983668589189
2861 0.01374789651733425
2862 0.01374534046515084
2863 0.01374435275564321
2864 0.01374173409626456
2865 0.0137405423702392
2866 0.01373995024369183
2867 0.01373895451925903
2868 0.01373906143700965
2869 0.01373938633607175
2870 0.01374110445223046
2871 0.01374204952523535
2872 0.01374396163099984
2873 0.01374572498838999
2874 0.01375078634673868
2875 0.01375289904963136
2876 0.01375734986618059
2877 0.01376033308140109
2878 0.01376606965338455
2879 0.01376924198651693
2880 0.01377327751042822
2881 0.01377621193554256
2882 0.01377991524640261
2883 0.01378272947232796
2884 0.01378431809245413
2885 0.01378623185187261
2886 0.01378757648882497
2887 0.01378799706077266
2888 0.01378747018787253
2889 0.01378779560373738
2890 0.01378577217717191
2891 0.01378307718087685
2892 0.01377849118061448
2893 0.01377533419083267
2894 0.01377064395204372
2895 0.0137661921226007
2896 0.01376048169704854
2897 0.01375548830181331
2898 0.01374948596588509
2899 0.01374410926111414
2900 0.01373916950792469
2901 0.01373563976761519
2902 0.01373252780678981
2903 0.01372959781016915
2904 0.01372673485790875
2905 0.01372521946118527
2906 0.01372455600469717
2907 0.01372502121558068
2908 0.01372604482499937
2909 0.01372782043549462
2910 0.01373062565353075
2911 0.01373354920610638
2912 0.01373698720984461
2913 0.01374172610075518
2914 0.01374613659151335
2915 0.01375016089413428
2916 0.0137541902753569
2917 0.01375904149732438
2918 0.01376340168006569
2919 0.01376824687897616
2920 0.0137716610707379
2921 0.01377538684071844
2922 0.01377914726515181
2923 0.01378180196562077
2924 0.01378481448802183
2925 0.01378631952537289
2926 0.01378895914793968
2927 0.01378837136928435
2928 0.01378853410572377
2929 0.01378675786327998
2930 0.01378649916265011
2931 0.01378283827000111
2932 0.01378068531181559
2933 0.01377636554412478
2934 0.01377395605655366
2935 0.01376875454541133
2936 0.01376587626536096
2937 0.01376073068182372
2938 0.01375823409970993
2939 0.01375239801442292
2940 0.0137489122429727
2941 0.01374414952819672
2942 0.01374210715539797
2943 0.01373812881278475
2944 0.01373611691650941
2945 0.01373292581938841
2946 0.01373219808261596
2947 0.01372991265876251
2948 0.01373074601566175
2949 0.01373137396909084
2950 0.01373260813553766
2951 0.01373337416213501
2952 0.0137343111341405
2953 0.01373714767938637
2954 0.01373972946434593
2955 0.01374356472304643
2956 0.01374590960453934
2957 0.01374978900573517
2958 0.01375362875241579
2959 0.01375750411137496
2960 0.01376112827643607
2961 0.0137652647226085
2962 0.01376848302313319
2963 0.01377123453563569
2964 0.0137730909101961
2965 0.01377574769355398
2966 0.01377664125192847
2967 0.01377764758738527
2968 0.0137766228506459
2969 0.0137771811826288
2970 0.01377708659025836
2971 0.01377649319729558
2972 0.01377495621487513
2973 0.01377356835336404
2974 0.01377203014165838
2975 0.01377000780913049
2976 0.01376778566058672
2977 0.01376611246901261
2978 0.01376518473976388
2979 0.01376196945247884
2980 0.01376050765082576
2981 0.01375779688586142
2982 0.01375769241367257
2983 0.01375581833795726
2984 0.01375529052066772
2985 0.01375462716535621
2986 0.01375557833639719
2987 0.01375522624718965
2988 0.01375466579893143
2989 0.0137558060563158
2990 0.01375689862061233
2991 0.01375726583982028
2992 0.01375720652165437
2993 0.01375839260520593
2994 0.01375937719250242
2995 0.01375952187165148
2996 0.01375917745017758
2997 0.01375925782211789
2998 0.01375919632411952
2999 0.01375814298480714
3000 0.01375617801190145
3001 0.01375584700354633
3002 0.01375406558398025
3003 0.01375265294262166
3004 0.01374995691614132
3005 0.01374855187108971
3006 0.01374674577756724
3007 0.01374534259795643
3008 0.01374314394453339
3009 0.01374281397476092
3010 0.01374195077708589
3011 0.01374104892407711
3012 0.01374101722210903
3013 0.01374156701135049
3014 0.01374291103994052
3015 0.01374280456507124
3016 0.01374445779203357
3017 0.01374573279564313
3018 0.01374802310577788
3019 0.01374924795635498
3020 0.01375076251155716
3021 0.01375258981143137
3022 0.01375591577240709
3023 0.01375790462606464
3024 0.01375968792204232
3025 0.01376220133371789
3026 0.01376438483726118
3027 0.01376598709604833
3028 0.01376772349517538
3029 0.01376922520620443
3030 0.01377109425688802
3031 0.01377117691873394
3032 0.01377185726373367
3033 0.01377243337633093
3034 0.01377390029118195
3035 0.01377301906372127
3036 0.01377230859058001
3037 0.01377172353431791
3038 0.01377152698704471
3039 0.01376952269743844
3040 0.01376839638832507
3041 0.01376582833694207
3042 0.01376541485864968
3043 0.01376264815925871
3044 0.01376132254889182
3045 0.01375843170081417
3046 0.01375835009295732
3047 0.01375609726073307
3048 0.01375483048562629
3049 0.01375342393257305
3050 0.01375388167744706
3051 0.01375234771566284
3052 0.01375103758727012
3053 0.01375110144838801
3054 0.01375069185360301
3055 0.01375079378875756
3056 0.01375013770559422
3057 0.01375146133935651
3058 0.01375132525763763
3059 0.01375309226690017
3060 0.01375198669722997
3061 0.01375354422456998
3062 0.01375437087552486
3063 0.01375469838850667
3064 0.01375506229193849
3065 0.01375533836501865
3066 0.01375696754349357
3067 0.0137567564465375
3068 0.01375793805968859
3069 0.01375857385992693
3070 0.01375999189180866
3071 0.01375962284205374
3072 0.01376002641687345
3073 0.01375989690882041
3074 0.01376145289530567
3075 0.01376053740115739
3076 0.01376070068955965
3077 0.01375964604596772
3078 0.01376070402709754
3079 0.01375858760825868
3080 0.01375885886968551
3081 0.01375801828356825
3082 0.01375889666147161
3083 0.01375771956724342
3084 0.01375741060933438
3085 0.01375690573109842
3086 0.01375714692562107
3087 0.01375706262829081
3088 0.01375646038701285
3089 0.0137578862265048
3090 0.01375758297251829
3091 0.01375787700124678
3092 0.01375766636650488
3093 0.01375985073352379
3094 0.01376010054423885
3095 0.01376164526334005
3096 0.01376135091528484
3097 0.01376260211140641
3098 0.01376194792416584
3099 0.01376210434317311
3100 0.01376087283819536
3101 0.01376047625147521
3102 0.01375931606932707
3103 0.01375833262016396
3104 0.0137564883138093
3105 0.01375596568222878
3106 0.01375430202763931
3107 0.01375339127901016
3108 0.01375188564012385
3109 0.01375136596537749
3110 0.0137507949657245
3111 0.01374951123788543
3112 0.01374865562065194
3113 0.01374829589210666
3114 0.01374851827780386
3115 0.01374775710612697
3116 0.01374871187906713
3117 0.01374927415726972
3118 0.01375088802554487
3119 0.01375097117901363
3120 0.0137522849131928
3121 0.01375330929216384
3122 0.0137550346181436
3123 0.01375584641591001
3124 0.01375666825864806
3125 0.01375748678507688
3126 0.01375963951981744
3127 0.01376074524063547
3128 0.01376244212635987
3129 0.01376432038113634
3130 0.01376682208976587
3131 0.01376727294580238
3132 0.01376915149817967
3133 0.01377049125662093
3134 0.01377228742413778
3135 0.013772658805521
3136 0.0137736563922222
3137 0.01377375045511213
3138 0.01377439689628899
3139 0.01377353595569222
3140 0.01377260387632927
3141 0.01377171142910721
3142 0.01377147648175268
3143 0.01376970321366918
3144 0.01376869560386619
3145 0.013767470188803
3146 0.01376628459256352
3147 0.01376405266571442
3148 0.01376224649550967
3149 0.01375977865375882
3150 0.01375836541480758
3151 0.0137552052219038
3152 0.01375299457984062
3153 0.01375095804308023
3154 0.01375005666078925
3155 0.0137476396693301
3156 0.01374568940754816
3157 0.01374464141684311
3158 0.01374351844358148
3159 0.01374207316852732
3160 0.01374034340912228
3161 0.01374015799863865
3162 0.0137400388736248
3163 0.01374033597592627
3164 0.01374038963398936
3165 0.01374113861177499
3166 0.01374325040933674
3167 0.01374497019273835
3168 0.01374642560626131
3169 0.01374924017722847
3170 0.01375286680310376
3171 0.01375493815825883
3172 0.01375796996342466
3173 0.01376092156157874
3174 0.01376368370458845
3175 0.01376559052338527
3176 0.01376721446408244
3177 0.01376867583984256
3178 0.01377059722589328
3179 0.01377099320571617
3180 0.01377117195899729
3181 0.01377187308491725
3182 0.0137716826199326
3183 0.01377120452427939
3184 0.01376998648189355
3185 0.01376908263860287
3186 0.01376742699559585
3187 0.01376477524941232
3188 0.01376268158671765
3189 0.01376053150722755
3190 0.01375911156593945
3191 0.01375599097937653
3192 0.01375373373654629
3193 0.01375129753890662
3194 0.01374991715426946
3195 0.01374775813171389
3196 0.0137462710636966
3197 0.01374547562665279
3198 0.01374579071896292
3199 0.01374596980002696
3200 0.01374639922894786
3201 0.01374727091479696
3202 0.01374903088471563
3203 0.01375055705771071
3204 0.0137516935151294
3205 0.01375465025755401
3206 0.01375643679646269
3207 0.01375951263971945
3208 0.0137609763702837
3209 0.01376388756992968
3210 0.01376567828798456
3211 0.01376704198740212
3212 0.01376832076708617
3213 0.01376991463394412
3214 0.0137715778341344
3215 0.01377180480732603
3216 0.01377144175082536
3217 0.01377162174110838
3218 0.01377141315702405
3219 0.01376992351693127
3220 0.01376860904741408
3221 0.01376646004558858
3222 0.01376447123133142
3223 0.0137617619433928
3224 0.01375907478427581
3225 0.01375644646073238
3226 0.01375355561745641
3227 0.0137502114262428
3228 0.01374666876784823
3229 0.01374468935817636
3230 0.01374288400844029
3231 0.01374137882858546
3232 0.01373974955579353
3233 0.01373936801620032
3234 0.01374053667682964
3235 0.01374134612500194
3236 0.01374319450108596
3237 0.01374527626762734
3238 0.01374760229350716
3239 0.01375007897819003
3240 0.01375332749174599
3241 0.01375699798715406
3242 0.01376060574495032
3243 0.01376419780690965
3244 0.01376721086975051
3245 0.01377024591845795
3246 0.01377281646647813
3247 0.01377478217216181
3248 0.01377645714317001
3249 0.01377844813722633
3250 0.01377916624802551
3251 0.01377932311157049
3252 0.01377877768532658
3253 0.01377861990038702
3254 0.01377892551951936
3255 0.0137769047608055
3256 0.01377504501437975
3257 0.01377164984034974
3258 0.01376973760924828
3259 0.01376600971441829
3260 0.01376250280288373
3261 0.01375741448200623
3262 0.01375403339366552
3263 0.0137486254841386
3264 0.01374520278158578
3265 0.01374123486225191
3266 0.01373936397223029
3267 0.01373633044115709
3268 0.01373505934374659
3269 0.01373304009595082
3270 0.01373361962979656
3271 0.01373248342317041
3272 0.01373442623383809
3273 0.01373464340783767
3274 0.01373815880358587
3275 0.01373927993470337
3276 0.01374294254945135
3277 0.01374555788623091
3278 0.01375080322725199
3279 0.01375332825951162
3280 0.0137576279891593
3281 0.01376042332238471
3282 0.01376475011850879
3283 0.01376669281204747
3284 0.01377001435182624
3285 0.01377263211792411
3286 0.0137753863283746
3287 0.01377627558340846
3288 0.01377779703240609
3289 0.0137796029675649
3290 0.01378189247955366
3291 0.01378156285979127
3292 0.01378097349478286
3293 0.0137809833011508
3294 0.0137788554638535
3295 0.01377759735337062
3296 0.01377372395927305
3297 0.01377202480938757
3298 0.0137671312273728
3299 0.01376438619448368
3300 0.01375932201880291
3301 0.0137570916388812
3302 0.01375377936996141
3303 0.01375111399744383
3304 0.01374826622981224
3305 0.01374609113586253
3306 0.01374408540748662
3307 0.01374276719213633
3308 0.01374130535214972
3309 0.01374144157087529
3310 0.01374029252991086
3311 0.01374094663381449
3312 0.01374054652599475
3313 0.01374225370081324
3314 0.01374321639158687
3315 0.01374455227255154
3316 0.01374551368804005
3317 0.01374804439133616
3318 0.01374995208596354
3319 0.01375252645716668
3320 0.01375360007853423
3321 0.01375742011684689
3322 0.01375927205518562
3323 0.01376194997747634
3324 0.01376304647074482
3325 0.01376503365146643
3326 0.01376579163076455
3327 0.01376699747533574
3328 0.01376692665226946
3329 0.01376808454379757
3330 0.01376742729565114
3331 0.01376658145333166
3332 0.01376482767565064
3333 0.01376415521923773
3334 0.01376273009211344
3335 0.0137612183471699
3336 0.01375916954369045
3337 0.01375865273597707
3338 0.01375818189422673
3339 0.01375591361124117
3340 0.01375572364939472
3341 0.01375437241973299
3342 0.01375453721214676
3343 0.01375247885791487
3344 0.01375213987668051
3345 0.01375119339067592
3346 0.01375168090982832
3347 0.01375042813265693
3348 0.01375070353765718
3349 0.01375052674004814
3350 0.01375201339210259
3351 0.01375196906430817
3352 0.01375293570436757
3353 0.01375376722532622
3354 0.01375583646982137
3355 0.01375697112699343
3356 0.01375874554766835
3357 0.01376090498065677
3358 0.01376361055517702
3359 0.01376473315489902
3360 0.0137665445113367
3361 0.0137680554521942
3362 0.01376865485443263
3363 0.01376857619844733
3364 0.0137682960207874
3365 0.01376751706434974
3366 0.01376577497188553
3367 0.01376384630196077
3368 0.01376145801625867
3369 0.01376051314018643
3370 0.01375857030289728
3371 0.01375628635920213
3372 0.01375391118704462
3373 0.01375246581144852
3374 0.01375187646419749
3375 0.0137493057687976
3376 0.01374863814193629
3377 0.01374770037601568
3378 0.01374798530219733
3379 0.01374714013685145
3380 0.01374755931439894
3381 0.0137478468231372
3382 0.01374921161594225
3383 0.01374858113417006
3384 0.01374966857509566
3385 0.01374987483052415
3386 0.01375165240682271
3387 0.01375240848456724
3388 0.01375455668873225
3389 0.01375601116346881
3390 0.01375793956869478
3391 0.0137591728751462
3392 0.0137611924601559
3393 0.01376278526213773
3394 0.01376518780786517
3395 0.01376574826940359
3396 0.01376689976306479
3397 0.01376832127179292
3398 0.01376886271494544
3399 0.0137686939924912
3400 0.01376826839164742
3401 0.01376805068701633
3402 0.01376723829928965
3403 0.01376658996015682
3404 0.01376487399768628
3405 0.01376330080955734
3406 0.01376317362714556
3407 0.0137611604298086
3408 0.01376026355261001
3409 0.0137584657798262
3410 0.01375921777753793
3411 0.01375680056659313
3412 0.01375733192574182
3413 0.01375611283555751
3414 0.01375682621098702
3415 0.01375506212725707
3416 0.01375499302739527
3417 0.01375415094392794
3418 0.01375520531835733
3419 0.01375378696526807
3420 0.01375360379877279
3421 0.01375354478197999
3422 0.01375346534253479
3423 0.01375361597338078
3424 0.01375279362967157
3425 0.01375331653105153
3426 0.01375459816708722
3427 0.01375493058016191
3428 0.01375508093107818
3429 0.01375668784507639
3430 0.0137571937536872
3431 0.01375731732144812
3432 0.01375680561987195
3433 0.01375808389866084
3434 0.01375797411426886
3435 0.01375766910142216
3436 0.01375666216389517
3437 0.01375764393946368
3438 0.01375707944382509
3439 0.01375725470546203
3440 0.01375666895915219
3441 0.01375687953349702
3442 0.01375653010214921
3443 0.01375615653578793
3444 0.01375511701109903
3445 0.01375506182808781
3446 0.01375440392952709
3447 0.01375386185990272
3448 0.01375200024698657
3449 0.01375226214544069
3450 0.0137524279017066
3451 0.01375241574502127
3452 0.01375248589235608
3453 0.01375341477495612
3454 0.0137537722686561
3455 0.01375410104894551
3456 0.01375503029443372
3457 0.01375675628962527
3458 0.01375922185187793
3459 0.01376051957440308
3460 0.01376355873609363
3461 0.01376638971933193
3462 0.01377010290935601
3463 0.01377198341356557
3464 0.01377438397210347
3465 0.0137750511273193
3466 0.01377672823628987
3467 0.01377608611547879
3468 0.01377590246556845
3469 0.01377418037816833
3470 0.01377348359426034
3471 0.0137696198155265
3472 0.01376754969164888
3473 0.01376368513132352
3474 0.01376299143396275
3475 0.01375844752373257
3476 0.01375681137275608
3477 0.01375273940184203
3478 0.01375115837884445
3479 0.01374615124799442
3480 0.01374386842472125
3481 0.01374039694348828
3482 0.01373889781898249
3483 0.01373558565418172
3484 0.01373434736326452
3485 0.01373290058272842
3486 0.01373242426998793
3487 0.01373157797376569
3488 0.01373202101535977
3489 0.01373326413665137
3490 0.01373509014728058
3491 0.01373726056802953
3492 0.01373889778929826
3493 0.013743057691116
3494 0.01374630594315175
3495 0.01375045472349286
3496 0.01375416124402105
3497 0.01375955080544975
3498 0.01376399085516935
3499 0.01376918819369158
3500 0.01377224711835049
3501 0.01377797232270538
3502 0.01378141653592021
3503 0.01378484503057076
3504 0.01378635003276145
3505 0.0137892640063626
3506 0.01379014744948381
3507 0.01379017668891687
3508 0.01378884815903767
3509 0.01378924105665649
3510 0.01378789010325823
3511 0.01378504939571292
3512 0.01378229138972631
3513 0.01377938458532433
3514 0.01377637346676914
3515 0.01377128229744675
3516 0.01376689150487454
3517 0.01376138408511254
3518 0.01375743912748687
3519 0.01375067847643537
3520 0.01374574607164911
3521 0.01373943361592662
3522 0.01373648493192088
3523 0.01373120780861063
3524 0.0137280726058977
3525 0.01372515006949971
3526 0.01372338681292764
3527 0.01372153130945926
3528 0.01372128616977695
3529 0.01372309545673996
3530 0.01372525902488659
3531 0.0137276837433106
3532 0.01373100467564717
3533 0.01373554473308016
3534 0.01373978971627984
3535 0.0137454853946582
3536 0.01375054780832799
3537 0.01375701943882977
3538 0.01376205373261084
3539 0.01376731798908853
3540 0.01377129016041754
3541 0.01377599299987872
3542 0.01377981998074931
3543 0.01378251540358231
3544 0.01378566025844563
3545 0.01378662504092264
3546 0.01378814685689106
3547 0.01378726043576999
3548 0.01378728180118499
3549 0.01378488274533583
3550 0.01378307421793972
3551 0.0137785057607711
3552 0.01377396169986092
3553 0.01376941268613369
3554 0.01376503597806857
3555 0.01375942619294957
3556 0.01375472670429768
3557 0.01374984227538453
3558 0.01374507870785941
3559 0.01374069948910212
3560 0.01373759190944924
3561 0.0137349799883235
3562 0.01373311620744411
3563 0.01373156844530118
3564 0.01373138296241502
3565 0.01373228182842584
3566 0.01373500758812101
3567 0.01373667509496936
3568 0.01374015243228489
3569 0.01374360719191665
3570 0.01374802749039655
3571 0.01375126453879638
3572 0.01375502191113696
3573 0.01375884885256671
3574 0.01376269789038859
3575 0.01376573531914222
3576 0.01376934856558322
3577 0.01377214948999502
3578 0.01377513716055136
3579 0.01377612126977428
3580 0.01377785920034523
3581 0.0137778277528339
3582 0.01377936727963364
3583 0.01377835619134397
3584 0.0137785947972241
3585 0.01377719256212797
3586 0.01377525296055222
3587 0.01377210056557482
3588 0.01376868948524688
3589 0.01376544707887304
3590 0.01376102174490631
3591 0.01375590052402662
3592 0.01375100087132966
3593 0.01374717887754192
3594 0.01374272705769861
3595 0.01373908312866004
3596 0.01373485123705476
3597 0.01373264669001341
3598 0.01373053037304909
3599 0.01372950414414359
3600 0.01372860800444473
3601 0.01372918228895255
3602 0.01373051609491334
3603 0.01373252031479414
3604 0.0137344250456165
3605 0.01373845889461819
3606 0.01374191920218147
3607 0.01374635794447065
3608 0.01375043522604705
3609 0.01375632782596656
3610 0.01376111888998678
3611 0.01376510368355807
3612 0.01376935678975024
3613 0.01377374677133393
3614 0.01377851595600617
3615 0.01378122447728898
3616 0.01378456718312557
3617 0.01378671254279635
3618 0.01378923866492879
3619 0.01378979056528397
3620 0.0137909708160601
3621 0.01379060789011768
3622 0.01379079145486488
3623 0.01378859837814102
3624 0.01378635218133669
3625 0.01378278051800415
3626 0.01377987254607863
3627 0.01377430466190078
3628 0.01376945967520356
3629 0.01376389627908949
3630 0.01375874352502539
3631 0.01375217801455957
3632 0.01374722316946141
3633 0.01374124603006149
3634 0.01373766009097299
3635 0.01373259533524984
3636 0.01372945806110946
3637 0.01372709108204559
3638 0.0137251160602337
3639 0.01372425352023078
3640 0.01372316117678198
3641 0.0137240499920379
3642 0.01372470496637023
3643 0.01372696782705826
3644 0.01372880053771386
3645 0.01373327474392857
3646 0.01373707049655226
3647 0.01374152939155176
3648 0.01374628012412667
3649 0.01375140862393744
3650 0.01375740124318792
3651 0.01376129910470847
3652 0.01376679033399282
3653 0.01377220503229579
3654 0.01377630998512391
3655 0.01378018758666216
3656 0.01378275536729228
3657 0.01378616641378833
3658 0.01378803278628361
3659 0.01378920544829025
3660 0.01378890743476178
3661 0.0137888581755433
3662 0.01378690925919477
3663 0.01378474802946951
3664 0.01378220774141503
3665 0.01377891050813871
3666 0.01377645764984275
3667 0.01377183541323655
3668 0.01376848762978903
3669 0.01376450920386821
3670 0.01376198702743375
3671 0.01375756893805604
3672 0.01375344494228218
3673 0.0137492931450846
3674 0.0137465377262225
3675 0.01374271794777857
3676 0.01373925791782735
3677 0.01373753125765844
3678 0.01373546362756374
3679 0.01373444180648796
3680 0.01373360748995191
3681 0.01373386748594358
3682 0.01373479792694133
3683 0.013736072590362
3684 0.01373733302914755
3685 0.01373952447456361
3686 0.01374288558481281
3687 0.01374578785112788
3688 0.0137488022151231
3689 0.01375225423926209
3690 0.01375521603641334
3691 0.01375807751031048
3692 0.01376061916558305
3693 0.01376375960447818
3694 0.01376555312915245
3695 0.01376734119353337
3696 0.01376825478093079
3697 0.0137694212635673
3698 0.01377039482554321
3699 0.01377016646169453
3700 0.01376890121423875
3701 0.01376803677558584
3702 0.01376724186486206
3703 0.01376496851155774
3704 0.01376450624529368
3705 0.01376237828960659
3706 0.01376149684607928
3707 0.0137582410094834
3708 0.01375651875439477
3709 0.01375397644253995
3710 0.0137531054649786
3711 0.01375022852051197
3712 0.0137488829375447
3713 0.01374687118900912
3714 0.01374742756182049
3715 0.01374546906862483
3716 0.01374721490000361
3717 0.01374675850893767
3718 0.01375002956327757
3719 0.01374949771762363
3720 0.01375289367505008
3721 0.01375382397581818
3722 0.01375799898615476
3723 0.01375902433975219
3724 0.01376232927220539
3725 0.01376462300260916
3726 0.01376769070633994
3727 0.01376936751188848
3728 0.01377110394711763
3729 0.01377290374266042
3730 0.01377366960260835
3731 0.01377459580317618
3732 0.01377424468570008
3733 0.01377493976119164
3734 0.01377342476018268
3735 0.01377226869620424
3736 0.01376823119861286
3737 0.01376655604420205
3738 0.01376295516665031
3739 0.01375990226402789
3740 0.01375615601098184
3741 0.01375325912313397
3742 0.01374951111994305
3743 0.0137459754055321
3744 0.01374266723317153
3745 0.01373948325263458
3746 0.01373708162815695
3747 0.01373395484075037
3748 0.01373248283981521
3749 0.01373098009623649
3750 0.01373202575095796
3751 0.01373039098770855
3752 0.01373219336321351
3753 0.01373301383631817
3754 0.01373697340360338
3755 0.01373891621663109
3756 0.01374293836252594
3757 0.01374735172622969
3758 0.01375253601215812
3759 0.01375653476752549
3760 0.01376122204449861
3761 0.0137655874060429
3762 0.01376988273868832
3763 0.01377304508225878
3764 0.01377657936086325
3765 0.01377903857919885
3766 0.01378149011174159
3767 0.01378255900332606
3768 0.01378418761562047
3769 0.01378511691730174
3770 0.01378584312205288
3771 0.01378482361403471
3772 0.01378365372291044
3773 0.01378224106842264
3774 0.01378021069877238
3775 0.01377766587121944
3776 0.01377346635674548
3777 0.01377121836825006
3778 0.01376715020404951
3779 0.0137640679146695
3780 0.01375877228238415
3781 0.0137569107436176
3782 0.01375230680785281
3783 0.01374892711454612
3784 0.01374479989442592
3785 0.01374242653573698
3786 0.01373941290734429
3787 0.01373687949525216
3788 0.01373505854650656
3789 0.01373388643994005
3790 0.0137336346062539
3791 0.01373333643791726
3792 0.01373291673917993
3793 0.01373490539041194
3794 0.0137367748002791
3795 0.01373863452734365
3796 0.01373982803945926
3797 0.01374275183477249
3798 0.01374508085638192
3799 0.01374758424846073
3800 0.01375001109271082
3801 0.01375268113662145
3802 0.01375548599723018
3803 0.01375786506559466
3804 0.01376040572381387
3805 0.01376336118758041
3806 0.01376625811619611
3807 0.01376836288972828
3808 0.01376970154761699
3809 0.01377162262394546
3810 0.013772043904946
3811 0.01377198943203059
3812 0.0137714427391021
3813 0.01377097294325126
3814 0.0137701445696252
3815 0.01376812139757688
3816 0.01376639672890998
3817 0.01376504709530555
3818 0.0137640724390101
3819 0.01376192492667663
3820 0.01376054842470958
3821 0.01375853954303301
3822 0.01375796646147618
3823 0.01375594492072917
3824 0.01375520024616458
3825 0.01375384531586514
3826 0.01375398843968391
3827 0.01375262795672886
3828 0.01375277815861262
3829 0.01375275249102528
3830 0.01375402152370097
3831 0.01375321724568644
3832 0.01375288623979962
3833 0.01375341269501999
3834 0.01375462078322404
3835 0.01375482588200682
3836 0.01375596811581896
3837 0.01375752942058681
3838 0.01375911023679127
3839 0.01375902900191934
3840 0.01376049381393628
3841 0.01376073612740417
3842 0.01376233578654062
3843 0.0137624273625668
3844 0.01376210853313577
3845 0.01376198929290623
3846 0.01376199049050678
3847 0.01376032731806866
3848 0.01375940541895877
3849 0.01375888074672085
3850 0.01375831247456634
3851 0.01375636780812638
3852 0.0137551743154155
3853 0.01375339480198053
3854 0.01375360785569894
3855 0.01375108369373979
3856 0.01375067801860201
3857 0.01374929991922133
3858 0.01375153080045622
3859 0.01375035996836998
3860 0.01375258446794865
3861 0.01375269567465735
3862 0.0137549951879571
3863 0.01375514803358904
3864 0.01375735629899257
3865 0.01375883370296126
3866 0.01376177069632419
3867 0.01376312193995851
3868 0.01376387897724156
3869 0.013766126081271
3870 0.01376755781850747
3871 0.01376831054858467
3872 0.01376883638566909
3873 0.01377142630578709
3874 0.01377224688852987
3875 0.01377328045684724
3876 0.0137729122481263
3877 0.01377424288378009
3878 0.0137739143738267
3879 0.01377369456072005
3880 0.01377080097060028
3881 0.0137697065777193
3882 0.01376731074894841
3883 0.01376538753514357
3884 0.01376148748414159
3885 0.01375880310547617
3886 0.01375543694840458
3887 0.01375175143450544
3888 0.0137487795514254
3889 0.01374625232681485
3890 0.01374391266486025
3891 0.01373950906891411
3892 0.0137367297378344
3893 0.01373442625570612
3894 0.01373284129278934
3895 0.01373099952120023
3896 0.01372987873441634
3897 0.01373059763232112
3898 0.01373086586837551
3899 0.01373189385715339
3900 0.01373275438195476
3901 0.01373554630144691
3902 0.01373837050755677
3903 0.01374240216378478
3904 0.01374451409661419
3905 0.01374940479005357
3906 0.01375231047176512
3907 0.01375689534008456
3908 0.01375974087968277
3909 0.01376462676332157
3910 0.01376737621323816
3911 0.01377097934302986
3912 0.01377293787317248
3913 0.01377615300308255
3914 0.0137778728126982
3915 0.01377991329154339
3916 0.01378024034388392
3917 0.01378130653153931
3918 0.01378096857379876
3919 0.01378002227363268
3920 0.01377827083615614
3921 0.01377639751517617
3922 0.01377543142439161
3923 0.01377155792194424
3924 0.01376948164028015
3925 0.01376606488374431
3926 0.01376469314946568
3927 0.01376053618383416
3928 0.01375894866441757
3929 0.01375585034053891
3930 0.01375429110291401
3931 0.01375105973472576
3932 0.01375048528460024
3933 0.01374938901967712
3934 0.01374995613747914
3935 0.01374881695977946
3936 0.01374897889363496
3937 0.0137497095692859
3938 0.01375041712513464
3939 0.01375116967405574
3940 0.01375144238893729
3941 0.01375277307928962
3942 0.01375446070938538
3943 0.01375532711529146
3944 0.01375606041143376
3945 0.01375710137942261
3946 0.01375836011931018
3947 0.01375893576366111
3948 0.01375845718191289
3949 0.01375976229471532
3950 0.01375986684673026
3951 0.01376004052924054
3952 0.01375926494083453
3953 0.01375981626098707
3954 0.0137587891240189
3955 0.01375746726040243
3956 0.01375618563024417
3957 0.01375522032665231
3958 0.0137550856530983
3959 0.01375197083507768
3960 0.01375138790282006
3961 0.01374857797469946
3962 0.01374901079573133
3963 0.01374635697634962
3964 0.0137465268733461
3965 0.01374533927857286
3966 0.0137463484697764
3967 0.01374624787272468
3968 0.01374717684194987
3969 0.01374820894148454
3970 0.01374946539487765
3971 0.01375049196921779
3972 0.01375162696952329
3973 0.01375404574968828
3974 0.01375618627237316
3975 0.0137578088670092
3976 0.01376035005614758
3977 0.01376315954367448
3978 0.01376612927547916
3979 0.0137675332222714
3980 0.013770338805774
3981 0.01377247191161396
3982 0.01377471319088316
3983 0.0137760784816134
3984 0.01377702321535556
3985 0.01377714992410294
3986 0.01377805157622597
3987 0.01377762849078921
3988 0.01377676071426098
3989 0.01377580242601443
3990 0.0137743803924
3991 0.01377102714303373
3992 0.01376893807025173
3993 0.01376489864805836
3994 0.0137625296861172
3995 0.01375736447572374
3996 0.01375386847192425
3997 0.01374884817711935
3998 0.01374625612106483
3999 0.01374215471350415
4000 0.0137387811674484
4001 0.01373625367444805
4002 0.01373505504162665
4003 0.01373307748247698
4004 0.01373257338468707
4005 0.01373289618575965
4006 0.01373340330488695
4007 0.01373493159563775
4008 0.01373609415266024
4009 0.01373882786584
4010 0.01374205598860038
4011 0.01374532753353806
4012 0.01374922048491432
4013 0.01375336719207179
4014 0.01375801942644314
4015 0.01376129318165323
4016 0.01376588331989072
4017 0.01377021254139152
4018 0.01377430691982046
4019 0.01377813733880366
4020 0.01378048559097451
4021 0.01378313545084271
4022 0.01378507376859692
4023 0.01378681260937231
4024 0.01378701712318693
4025 0.01378725220090214
4026 0.01378739205841319
4027 0.01378645697653673
4028 0.01378418464793609
4029 0.01378185862586542
4030 0.01377933122582051
4031 0.01377475292998641
4032 0.01377049579727551
4033 0.01376701680483425
4034 0.01376295039316849
4035 0.01375988853546276
4036 0.01375499402156653
4037 0.0137523046438656
4038 0.01374818134139034
4039 0.01374498250457198
4040 0.01374143747823207
4041 0.01373928152525327
4042 0.01373696056633861
4043 0.0137352798630525
4044 0.0137337670384526
4045 0.01373439441123792
4046 0.01373502547106717
4047 0.01373579487304548
4048 0.01373697505324166
4049 0.01373884584920293
4050 0.01374123698529324
4051 0.01374321960404165
4052 0.01374607339727962
4053 0.0137493250891035
4054 0.01375284363468137
4055 0.01375494946140326
4056 0.01375755406159549
4057 0.01376124987012628
4058 0.01376465594577835
4059 0.01376706666289858
4060 0.01377006667685844
4061 0.01377193704925626
4062 0.01377505917763729
4063 0.01377542635321542
4064 0.01377738664270798
4065 0.01377680031953935
4066 0.01377745626347868
4067 0.01377557588769116
4068 0.01377391335366735
4069 0.01377263057230523
4070 0.01377077710217844
4071 0.01376754786261495
4072 0.01376469308828169
4073 0.01376234455183266
4074 0.01375939445605982
4075 0.01375644866946762
4076 0.01375345352990475
4077 0.01375177005572748
4078 0.01374901723514767
4079 0.01374755618143868
4080 0.01374591453179153
4081 0.0137453561169318
4082 0.01374524095445019
4083 0.01374553069898284
4084 0.01374570176368366
4085 0.01374744284464019
4086 0.01374867133011743
4087 0.01375108698539741
4088 0.01375255093564831
4089 0.01375573633843991
4090 0.01375796945303991
4091 0.01376025401655156
4092 0.01376265600929198
4093 0.01376481313717106
4094 0.01376732343153442
4095 0.01376782104342657
4096 0.01377017159462544
4097 0.0137702005050173
4098 0.01377244847272961
4099 0.01377077943527784
4100 0.01377130329011599
4101 0.01376956009026664
4102 0.01376851898852845
4103 0.0137657058857241
4104 0.01376398001322401
4105 0.01376143307059438
4106 0.01375955968650063
4107 0.01375666578161645
4108 0.01375438366527425
4109 0.01375234591456963
4110 0.01374994584804918
4111 0.01374708817553142
4112 0.01374465540473637
4113 0.01374259074762522
4114 0.01374198712497925
4115 0.01374024909986138
4116 0.01373995240960376
4117 0.01374004772575187
4118 0.01374013617785459
4119 0.01374061595843396
4120 0.01374161412441733
4121 0.01374377151667944
4122 0.01374547321495663
4123 0.01374757150453326
4124 0.01374942006069173
4125 0.01375288799160199
4126 0.01375566955030186
4127 0.01375810220220966
4128 0.0137613454723073
4129 0.01376509098273471
4130 0.01376846922284748
4131 0.01377094161911599
4132 0.01377328255079411
4133 0.0137758157266876
4134 0.01377776044922476
4135 0.01377898896675928
4136 0.01377939309415836
4137 0.01378102473339984
4138 0.01377995447949224
4139 0.01378024553468077
4140 0.01377768620779861
4141 0.01377659589475976
4142 0.01377358163479734
4143 0.01377128678041177
4144 0.01376760267599866
4145 0.01376542447242674
4146 0.01376195581030628
4147 0.01375866090580138
4148 0.01375501895310692
4149 0.01375246648307107
4150 0.0137492831674126
4151 0.01374578223039521
4152 0.01374250261872078
4153 0.01374004563451835
4154 0.01373805857110658
4155 0.01373525354939131
4156 0.01373428317608227
4157 0.01373278204229226
4158 0.01373293867462481
4159 0.01373218234490389
4160 0.01373406790889911
4161 0.01373484805091409
4162 0.01373855598395118
4163 0.01373913089942946
4164 0.01374288100764171
4165 0.01374437507892127
4166 0.01374950789776678
4167 0.01375198299109765
4168 0.013755644926488
4169 0.01375870930171132
4170 0.01376320597165949
4171 0.01376536669124997
4172 0.01376873524547064
4173 0.01377210465577649
4174 0.01377445616343993
4175 0.01377573058366701
4176 0.01377677152481451
4177 0.01377780694324058
4178 0.01377779306015931
4179 0.01377658140550284
4180 0.01377524612422523
4181 0.01377310249368554
4182 0.01377128269013971
4183 0.01376850970291602
4184 0.01376751967905985
4185 0.01376474246199907
4186 0.01376354036042672
4187 0.01375962501707234
4188 0.01375763952784846
4189 0.01375465060582338
4190 0.01375332510051536
4191 0.01374986019156973
4192 0.01374803727405889
4193 0.01374540211323069
4194 0.01374543178520064
4195 0.01374435923111134
4196 0.01374520286150995
4197 0.01374620581881977
4198 0.01374795967049769
4199 0.01374879642375808
4200 0.01375044608175325
4201 0.01375207031401641
4202 0.01375472570918248
4203 0.01375657430283859
4204 0.01375778285227599
4205 0.01376032708966911
4206 0.0137613653287056
4207 0.01376338882708333
4208 0.01376344643217438
4209 0.01376587014834624
4210 0.01376544990173516
4211 0.01376640879304022
4212 0.01376470312384402
4213 0.01376601240664254
4214 0.01376412992367749
4215 0.01376394892590573
4216 0.01376090654238587
4217 0.01375946076511424
4218 0.01375717622251006
4219 0.01375529790561308
4220 0.01375327878268507
4221 0.01375144776884772
4222 0.01375063278276751
4223 0.01374899246562045
4224 0.01374820365943053
4225 0.01374739832100999
4226 0.01374783067388279
4227 0.01374761004514569
4228 0.01374761927114133
4229 0.01374841791110815
4230 0.01375047259615144
4231 0.01375081806949159
4232 0.01375330040057362
4233 0.01375423727349311
4234 0.01375780456582019
4235 0.0137585710728696
4236 0.01376194790470322
4237 0.01376345513502391
4238 0.01376692698734916
4239 0.01376784941915335
4240 0.01376993410524164
4241 0.01377130472532252
4242 0.01377276111757072
4243 0.0137729988319099
4244 0.01377353915039594
4245 0.013773352933894
4246 0.01377342958094032
4247 0.01377196725329265
4248 0.01377028640267564
4249 0.01376892383907464
4250 0.01376703566084815
4251 0.01376431808072499
4252 0.01376178074618101
4253 0.01376022943172791
4254 0.01375803805376458
4255 0.0137554796479248
4256 0.01375201521628313
4257 0.01375068588414857
4258 0.0137474984006398
4259 0.01374603291186686
4260 0.01374271550571186
4261 0.0137422223660562
4262 0.01374060111413851
4263 0.01374079143410847
4264 0.01373970306180561
4265 0.01374179109187902
4266 0.01374165982819209
4267 0.01374298302707161
4268 0.01374386564567545
4269 0.01374655695961999
4270 0.01374851324577828
4271 0.01375002767505447
4272 0.01375116307266704
4273 0.01375334407691478
4274 0.01375532486234453
4275 0.01375696926705183
4276 0.0137582165170486
4277 0.0137612078819253
4278 0.01376266478934564
4279 0.01376422798426766
4280 0.01376486202749609
4281 0.01376642875372669
4282 0.01376673008112205
4283 0.01376777234098778
4284 0.01376660944549086
4285 0.0137670387408371
4286 0.0137664481632337
4287 0.01376631145189357
4288 0.01376459053337011
4289 0.01376413083710844
4290 0.01376374552347698
4291 0.01376222796662089
4292 0.0137600676272867
4293 0.0137587825010947
4294 0.01375799291527085
4295 0.01375595819081618
4296 0.01375405739579033
4297 0.01375287029996832
4298 0.01375218722129407
4299 0.01375161095119837
4300 0.01375130171696969
4301 0.01375035337895817
4302 0.01375138389885142
4303 0.01375049727684413
4304 0.01375179702568399
4305 0.01375152943872136
4306 0.01375384008061439
4307 0.01375370919776041
4308 0.01375512414260333
4309 0.01375459920026334
4310 0.01375672182274779
4311 0.01375527853240028
4312 0.01375672365369186
4313 0.01375649770013642
4314 0.01375823176259061
4315 0.01375681793208051
4316 0.013757983164206
4317 0.01375812055660505
4318 0.01375969908953527
4319 0.0137589718545731
4320 0.01375907476347006
4321 0.01375834831428887
4322 0.01375895437071811
4323 0.01375788285369414
4324 0.01375765435985549
4325 0.01375703957136082
4326 0.01375703999966134
4327 0.01375583625126871
4328 0.01375514608141084
4329 0.01375497019981486
4330 0.013754902411912
4331 0.01375365640888969
4332 0.01375283425056822
4333 0.01375281081367976
4334 0.01375317273157119
4335 0.01375329950769691
4336 0.01375336568600313
4337 0.0137538785637716
4338 0.01375450342780367
4339 0.01375433631322223
4340 0.01375559880042973
4341 0.01375632106567911
4342 0.01375800447794139
4343 0.0137586515520741
4344 0.01375923797626907
4345 0.01376047129410915
4346 0.01376142270548756
4347 0.01376197403939787
4348 0.01376242863462367
4349 0.01376293526117126
4350 0.01376369785927226
4351 0.01376348593236709
4352 0.01376353135890483
4353 0.01376417013508649
4354 0.01376515179994023
4355 0.01376479747091556
4356 0.01376541315524234
4357 0.01376611785726104
4358 0.0137659736214835
4359 0.01376397957146342
4360 0.01376323920249465
4361 0.01376080338520448
4362 0.0137597282079696
4363 0.01375739296801421
4364 0.01375539782642008
4365 0.01375291340516531
4366 0.01375139066182031
4367 0.0137491335572205
4368 0.01374661511482714
4369 0.01374555547273471
4370 0.0137446853609263
4371 0.01374336448201039
4372 0.01374267749301098
4373 0.01374295031825894
4374 0.01374327134602806
4375 0.01374383828170473
4376 0.01374419073706725
4377 0.01374683032125773
4378 0.01374785352102973
4379 0.01375082838449483
4380 0.01375155699852974
4381 0.0137553126518641
4382 0.01375612617013726
4383 0.01375925511977395
4384 0.01376028975635304
4385 0.01376343848154657
4386 0.01376481484682883
4387 0.01376745173727649
4388 0.01376736307676202
4389 0.01376946242180663
4390 0.01377062573384519
4391 0.01377119866176671
4392 0.01377211615018379
4393 0.01377224701959272
4394 0.01377399700886339
4395 0.01377259655469701
4396 0.01377247357196136
4397 0.01377013907710665
4398 0.01376960641809779
4399 0.01376602195225221
4400 0.01376478424641082
4401 0.0137610597403789
4402 0.01376042168185186
4403 0.01375670827670945
4404 0.01375580873347668
4405 0.01375286615914138
4406 0.0137526614816394
4407 0.01374937302584631
4408 0.01374813835064781
4409 0.01374672204629566
4410 0.01374616576586602
4411 0.01374496673172382
4412 0.01374470419545122
4413 0.01374515957525566
4414 0.01374554616615187
4415 0.01374700475312836
4416 0.01374655285324742
4417 0.0137491994399156
4418 0.0137497929604417
4419 0.01375187120110695
4420 0.01375203184393198
4421 0.01375550603834326
4422 0.01375512244561292
4423 0.01375814479497174
4424 0.01375807818055809
4425 0.01376085619969467
4426 0.01376127536212144
4427 0.01376361047228544
4428 0.01376307029395097
4429 0.01376529566931947
4430 0.01376478474326329
4431 0.01376442952406546
4432 0.01376390565684504
4433 0.0137636017198134
4434 0.01376316047031891
4435 0.01376054573148555
4436 0.01375999391516204
4437 0.01375833370732331
4438 0.01375789703091608
4439 0.01375517801035324
4440 0.01375499166123774
4441 0.01375306385089558
4442 0.01375474731980644
4443 0.01375176124404097
4444 0.0137529385548738
4445 0.01375133585773043
4446 0.0137535941500141
4447 0.01375189975678658
4448 0.01375399525137708
4449 0.01375379503411627
4450 0.01375626029669734
4451 0.0137558699759749
4452 0.01375774880092634
4453 0.01375868896141642
4454 0.01376195005715812
4455 0.01376227630925499
4456 0.01376453336664508
4457 0.01376624048763968
4458 0.01376900524507374
4459 0.01376918149058234
4460 0.01377169945631268
4461 0.01377257345139856
4462 0.01377363265886177
4463 0.01377329045830723
4464 0.01377260354631716
4465 0.01377165514053361
4466 0.01377082418425878
4467 0.01376873073925381
4468 0.01376562593208211
4469 0.01376412251997468
4470 0.01376025570521477
4471 0.01375714775557083
4472 0.01375321295040969
4473 0.01375086270296802
4474 0.01374797576522549
4475 0.01374512383720467
4476 0.01374203528227822
4477 0.01374051925522936
4478 0.01373916445853545
4479 0.01373742888385844
4480 0.01373641409492907
4481 0.01373673631885353
4482 0.01373662326139725
4483 0.01373760885465244
4484 0.01373823278671964
4485 0.01374021843978419
4486 0.01374200544836924
4487 0.01374454134604476
4488 0.01374641284711412
4489 0.01374997706673578
4490 0.01375308292965487
4491 0.013755722895043
4492 0.01375784924332994
4493 0.01376135938579203
4494 0.0137648108387823
4495 0.0137669969337622
4496 0.0137693609574174
4497 0.01377226975934295
4498 0.01377374269886782
4499 0.01377550325107246
4500 0.01377600088749029
4501 0.01377776490424633
4502 0.01377842678677226
4503 0.01377828764203963
4504 0.0137764227008686
4505 0.01377657701949134
4506 0.01377520935172981
4507 0.01377332422626575
4508 0.01377125767821191
4509 0.01376945769582348
4510 0.0137677200867889
4511 0.01376429637578983
4512 0.01376162374135269
4513 0.01375908904270184
4514 0.01375658465313263
4515 0.01375358860606848
4516 0.01374956660752334
4517 0.01374796630001636
4518 0.01374461335204919
4519 0.01374264962579312
4520 0.0137396804330316
4521 0.01373908532945163
4522 0.01373762734481687
4523 0.01373675027900435
4524 0.01373601800107436
4525 0.01373689061365398
4526 0.01373820114160548
4527 0.01373932076660206
4528 0.01374173248390963
4529 0.01374454007209951
4530 0.01374813274993175
4531 0.01374984575824102
4532 0.01375312531372031
4533 0.01375523497863076
4534 0.01375866315509196
4535 0.01376017444307901
4536 0.01376289938369924
4537 0.01376309981453858
4538 0.0137659814757049
4539 0.01376582426346902
4540 0.01376748364508535
4541 0.01376715452557876
4542 0.01376844259297411
4543 0.01376759030617991
4544 0.01376803779168642
4545 0.01376631109995998
4546 0.01376644839537001
4547 0.0137643771141825
4548 0.01376291262437962
4549 0.01376150160201315
4550 0.01376091973656853
4551 0.01375885849404434
4552 0.01375690917160519
4553 0.01375645115455831
4554 0.01375471787628798
4555 0.01375359610421211
4556 0.01375138499108646
4557 0.01375223022177899
4558 0.01375115676523107
4559 0.01375201457644443
4560 0.01375084791175657
4561 0.013752254997369
4562 0.01375361611215042
4563 0.01375507723362106
4564 0.01375645387791156
4565 0.01375820684233256
4566 0.01376026234472067
4567 0.01376078444682884
4568 0.01376156895001105
4569 0.01376219830774035
4570 0.01376315798857611
4571 0.01376319097338238
4572 0.01376207038708723
4573 0.01376152175896824
4574 0.01376104186237877
4575 0.01376068768390488
4576 0.01375988048981882
4577 0.01375938179103394
4578 0.01375903383377002
4579 0.01375740865353735
4580 0.01375738177616659
4581 0.01375674899558778
4582 0.0137567862574954
4583 0.01375603566682733
4584 0.01375466018008554
4585 0.01375440787072091
4586 0.01375293988688014
4587 0.01375254328312497
4588 0.01375062026253064
4589 0.01375114478161621
4590 0.01375023166266331
4591 0.01374949713347051
4592 0.01374847538121194
4593 0.01374926280864562
4594 0.01374929839884651
4595 0.01375032728981028
4596 0.01374942093090193
4597 0.01375069560509885
4598 0.01375205085487647
4599 0.01375391701125959
4600 0.01375537948497336
4601 0.01375710575972729
4602 0.0137589301560109
4603 0.01375959794814953
4604 0.01376169033018335
4605 0.01376224041622473
4606 0.0137645023695858
4607 0.01376502660780664
4608 0.01376584778572101
4609 0.01376640993835881
4610 0.01376804935707928
4611 0.01376758201552088
4612 0.01376914254834136
4613 0.01376931187099708
4614 0.01377035032666458
4615 0.01376922770069185
4616 0.0137699938014319
4617 0.01376942553046828
4618 0.01376947308670823
4619 0.01376776260727755
4620 0.01376611972418318
4621 0.01376565462224923
4622 0.01376458166936102
4623 0.01376243378646853
4624 0.01376050445147909
4625 0.01375868928650138
4626 0.01375659591888571
4627 0.01375406432890584
4628 0.01375183053537578
4629 0.01375014858736678
4630 0.01374903668052288
4631 0.01374686174863906
4632 0.0137455606044733
4633 0.01374474566106294
4634 0.01374528552770444
4635 0.01374422629209062
4636 0.01374478102862294
4637 0.01374541618382369
4638 0.01374630753026572
4639 0.01374575383382977
4640 0.01374719848779026
4641 0.01374641837712258
4642 0.01374780657378419
4643 0.0137481907069368
4644 0.01374924040847925
4645 0.01374994615891806
4646 0.0137525315301525
4647 0.01375324883872431
4648 0.01375492514485278
4649 0.01375751272740108
4650 0.01375982910490001
4651 0.01376191102162748
4652 0.01376325652345
4653 0.01376558137573835
4654 0.01376606528400315
4655 0.01376796514301226
4656 0.01376721492917207
4657 0.01376859223071522
4658 0.01376866906407981
4659 0.01376893854810099
4660 0.01376803084462142
4661 0.01376844233462194
4662 0.01376792256122892
4663 0.0137678457061457
4664 0.01376731543210962
4665 0.01376719655724194
4666 0.01376767975787744
4667 0.01376693674783435
4668 0.01376661326056034
4669 0.01376607081896245
4670 0.01376645312944354
4671 0.01376502325723384
4672 0.01376356652784825
4673 0.0137626717310139
4674 0.01376175692788919
4675 0.01375949935771596
4676 0.01375760643983367
4677 0.01375591285307476
4678 0.01375445499886244
4679 0.01375265912097157
4680 0.01375080483514379
4681 0.01374944973829922
4682 0.01374915209207019
4683 0.01374716900363875
4684 0.01374660645537338
4685 0.01374584905360271
4686 0.01374619984732923
4687 0.01374523975737643
4688 0.01374533059975243
4689 0.01374579342905775
4690 0.0137456569354124
4691 0.01374515047060804
4692 0.01374438854492031
4693 0.01374452452944656
4694 0.0137451667164842
4695 0.0137447353886711
4696 0.01374560820729607
4697 0.01374656016651328
4698 0.01374834324740545
4699 0.01374907901635324
4700 0.01375186567114504
4701 0.01375329356237838
4702 0.01375641518599308
4703 0.01375887094333267
4704 0.01376156193675924
4705 0.01376426267926231
4706 0.01376759509966993
4707 0.01376940618216572
4708 0.01377177400084543
4709 0.01377411809566156
4710 0.01377650557297573
4711 0.01377749968713559
4712 0.01377887350439213
4713 0.01378001147534686
4714 0.0137800269978591
4715 0.01377984816543282
4716 0.01377837944393407
4717 0.01377885861796684
4718 0.01377732196697116
4719 0.0137762946819267
4720 0.01377361365071506
4721 0.01377204790483667
4722 0.01376892030323992
4723 0.01376691626265232
4724 0.01376240694883664
4725 0.013759691016119
4726 0.013755650418707
4727 0.01375223062097435
4728 0.01374704634981496
4729 0.01374413957703507
4730 0.01373988797657593
4731 0.0137357890994908
4732 0.01373174644407926
4733 0.01372972481655136
4734 0.01372806305244184
4735 0.01372623247310364
4736 0.0137255056892042
4737 0.01372591600925933
4738 0.01372734086486188
4739 0.01372883269472369
4740 0.01373100112779937
4741 0.01373403820506998
4742 0.01373789123428864
4743 0.01374112936687523
4744 0.01374550953075856
4745 0.01374957819911504
4746 0.01375544899893016
4747 0.01375947735719877
4748 0.01376528544507622
4749 0.01376966156323828
4750 0.01377550467499113
4751 0.01377759294825089
4752 0.01378168156927364
4753 0.0137838219076773
4754 0.01378694321747811
4755 0.01378652016325881
4756 0.01378712240257269
4757 0.01378621622662356
4758 0.01378589138047681
4759 0.01378331574818602
4760 0.01378081018302362
4761 0.01377728025273009
4762 0.01377348849377594
4763 0.01376846855498149
4764 0.01376377161693315
4765 0.01375856219651085
4766 0.01375493953564875
4767 0.01374951825780973
4768 0.013744991010717
4769 0.01374129813434546
4770 0.01373953870168061
4771 0.01373618826900206
4772 0.0137352825036185
4773 0.01373434728539471
4774 0.01373536188732485
4775 0.01373519294291561
4776 0.01373530584502556
4777 0.01373767536371738
4778 0.0137400396484413
4779 0.01374234225751146
4780 0.01374449752698911
4781 0.01374790119231135
4782 0.01375083975706385
4783 0.0137547791118555
4784 0.01375809383905945
4785 0.01376256154140563
4786 0.01376553180124841
4787 0.01376883879403412
4788 0.01377074773814412
4789 0.01377463768895953
4790 0.01377581678200038
4791 0.01377744095401878
4792 0.01377653530802889
4793 0.01377714579585053
4794 0.01377535925213787
4795 0.01377387672734658
4796 0.01377124613941764
4797 0.0137684020472977
4798 0.01376529707603882
4799 0.01376155946941724
4800 0.0137583694600706
4801 0.01375407963265753
4802 0.01375187563533515
4803 0.01374747029329049
4804 0.01374587893541903
4805 0.01374215766930624
4806 0.0137415466534821
4807 0.01373840927939746
4808 0.01373884000482452
4809 0.01373734654981965
4810 0.01373852556990287
4811 0.01373832284913271
4812 0.01373932681148888
4813 0.0137404966329446
4814 0.01374321624311184
4815 0.0137455447055704
4816 0.01374839201918703
4817 0.01375183543598822
4818 0.01375603034495323
4819 0.01375999867560831
4820 0.01376394874648825
4821 0.01376858978638671
4822 0.01377247190606949
4823 0.01377667540969015
4824 0.0137795514032223
4825 0.01378321859483144
4826 0.01378523792434607
4827 0.01378797574039451
4828 0.01378782227731377
4829 0.01378956541370353
4830 0.01378835973751068
4831 0.01378711016730595
4832 0.01378429905060161
4833 0.01378197491368628
4834 0.01377812420674912
4835 0.0137735573047154
4836 0.01376860241281586
4837 0.01376310765842935
4838 0.01375857204632886
4839 0.0137525915400619
4840 0.01374727040754787
4841 0.01374141032073483
4842 0.01373776942477709
4843 0.01373220411609144
4844 0.01372903387915448
4845 0.01372529856608371
4846 0.01372366791561869
4847 0.01372151972969488
4848 0.01372017314795945
4849 0.01372023556368695
4850 0.0137216440314653
4851 0.01372317235066744
4852 0.01372551644486974
4853 0.01372953829741586
4854 0.01373453217132588
4855 0.01373993439672046
4856 0.01374545673610867
4857 0.01375227440728076
4858 0.01375810187622614
4859 0.01376453052052359
4860 0.01376860360490362
4861 0.0137751834011308
4862 0.01377956009012184
4863 0.0137850384066631
4864 0.01378768765639876
