"mz-rfile"
"Iteration" "mz"
("Iteration" "mz")
1 -13422.97299933827
2 -13358.40376954839
3 -12558.40794228801
4 -11374.57941639672
5 -9741.215285901864
6 -7590.06144548812
7 -5390.780127962684
8 -3814.908542850611
9 -2563.692624938706
10 -1506.768009280111
11 -541.1517095420203
12 134.4060368898624
13 593.9083270678136
14 824.5464312851625
15 921.7217493157697
16 902.261386868105
17 790.0051637780689
18 601.4679623339803
19 362.5629646374279
20 86.03847656584077
21 -209.0978342907468
22 -504.5376831149963
23 -827.4414249877663
24 -1079.309576425575
25 -1302.460222257158
26 -1466.246729930446
27 -1604.163394217446
28 -1722.053110669589
29 -1797.451519807944
30 -1859.442750723764
31 -1907.803690241826
32 -1934.858964343176
33 -1959.057432135249
34 -1972.090457363989
35 -1979.717418713846
36 -1982.00235730717
37 -1978.730975727873
38 -1973.801091618941
39 -1966.581376196512
40 -1955.819219052833
41 -1945.956768114987
42 -1936.112380187539
43 -1925.696777130215
44 -1916.077875372171
45 -1906.223150848423
46 -1898.071397732668
47 -1890.657655934868
48 -1884.568846067455
49 -1879.460384566942
50 -1876.487387067077
51 -1873.976486916472
52 -1873.412160472985
53 -1873.661848043866
54 -1875.382272899617
55 -1878.17181405034
56 -1881.696293111447
57 -1885.338966151281
58 -1890.011495292849
59 -1895.035311913168
60 -1900.540398382003
61 -1906.166850562457
62 -1911.805269540454
63 -1917.427990008444
64 -1922.341693848681
65 -1926.974025120188
66 -1931.39653190693
67 -1935.464176852519
68 -1938.854617339416
69 -1942.214635845386
70 -1945.322030925465
71 -1948.18295929613
72 -1950.978289974824
73 -1953.168108657623
74 -1954.287358344119
75 -1955.401183641548
76 -1956.755644591432
77 -1956.899981814242
78 -1957.724732443894
79 -1957.495076355721
80 -1957.117217972253
81 -1956.786557757919
82 -1955.77827488173
83 -1954.773001995587
84 -1953.393455116978
85 -1952.42638693605
86 -1951.608433688644
87 -1951.227096310145
88 -1950.33630325025
89 -1949.313379957935
90 -1948.508651651182
91 -1948.189688179942
92 -1948.072594096163
93 -1948.417736484962
94 -1948.354291149385
95 -1947.734656800951
96 -1947.779225912229
97 -1947.634437871119
98 -1947.750677474352
99 -1948.471140901171
100 -1948.252706360378
101 -1948.703714453183
102 -1949.170043303958
103 -1948.78702713989
104 -1949.008218568379
105 -1949.045109215494
106 -1949.35867876764
107 -1949.695546032449
108 -1949.987585092562
109 -1949.55753335125
110 -1949.982757103386
111 -1950.49059511634
112 -1950.897271459236
113 -1950.504214211178
114 -1951.162065105173
115 -1951.647518887495
116 -1951.914235795646
117 -1952.250841826503
118 -1952.31019170137
119 -1952.043827800245
120 -1951.90604932476
121 -1952.291381013074
122 -1952.256238680392
123 -1952.807140845508
124 -1953.872527424279
125 -1954.529438917113
126 -1955.984670269678
127 -1957.89878795826
128 -1959.689298547943
129 -1961.393777786948
130 -1963.783243738339
131 -1965.805740444233
132 -1967.666775507708
133 -1970.408300609696
134 -1972.324282702699
135 -1974.923778583189
136 -1978.94009255098
137 -1982.030053313903
138 -1986.993278349271
139 -1990.425030566685
140 -1994.986583757223
141 -1998.502953915203
142 -2003.37865348883
143 -2007.86619847033
144 -2013.027005218675
145 -2017.469786198264
146 -2022.999867565116
147 -2028.063081949706
148 -2035.079357728022
149 -2041.719539631091
150 -2047.756579496407
151 -2056.599992346271
152 -2064.429577401911
153 -2072.599723628409
154 -2081.268251234312
155 -2088.237731458169
156 -2096.809723814568
157 -2105.131297080247
158 -2113.366770880622
159 -2122.563655612014
160 -2131.953867020441
161 -2141.368011237198
162 -2150.390667710186
163 -2160.359628527257
164 -2170.413977195349
165 -2180.705036999137
166 -2192.158849327483
167 -2202.805699155624
168 -2214.716073168947
169 -2226.87645831243
170 -2239.910415796819
171 -2252.552718124192
172 -2266.136877572696
173 -2279.365740152087
174 -2293.950882133467
175 -2307.917278802418
176 -2323.224006341559
177 -2338.963881372824
178 -2354.485840150177
179 -2370.624842615813
180 -2386.838874456927
181 -2403.638431115802
182 -2420.443156309138
183 -2438.208113934877
184 -2455.232532639243
185 -2473.449332100578
186 -2492.086792939587
187 -2510.448429032583
188 -2530.180011164578
189 -2549.354713642272
190 -2569.396142427482
191 -2590.840208265459
192 -2612.686549625953
193 -2634.956413867093
194 -2657.496485248969
195 -2679.624405356627
196 -2702.537228411188
197 -2726.251716260923
198 -2751.488515900496
199 -2780.772388156432
200 -2804.631091344488
201 -2828.384295010068
202 -2854.061595527022
203 -2878.627006966252
204 -2904.411621854472
205 -2935.439597184426
206 -2962.721707370732
207 -2989.713323830074
208 -3017.094778534414
209 -3045.528281694671
210 -3078.891665483799
211 -3106.853548201362
212 -3135.802148698128
213 -3171.098986052236
214 -3201.045104358702
215 -3230.544495287098
216 -3265.625749378301
217 -3295.821338628343
218 -3326.682814645069
219 -3362.681595249605
220 -3394.250367103706
221 -3426.095538138357
222 -3466.107717222347
223 -3498.50811445915
224 -3531.528003188341
225 -3571.407273900245
226 -3604.53866667945
227 -3637.64849867925
228 -3677.682627661968
229 -3711.489579045529
230 -3745.880515928674
231 -3780.123966583065
232 -3815.11342739079
233 -3857.3648998412
234 -3893.183898434955
235 -3927.879259951143
236 -3965.019322855645
237 -4001.403152050155
238 -4038.28503653003
239 -4075.028620110177
240 -4112.786384536363
241 -4150.993632540621
242 -4189.786644564468
243 -4227.436634905201
244 -4266.401090942396
245 -4304.235192911524
246 -4342.442525008233
247 -4380.460264626211
248 -4417.992086671603
249 -4455.113506568584
250 -4493.10290344769
251 -4529.428670569118
252 -4565.766034079762
253 -4600.666732988461
254 -4636.330270498419
255 -4670.791800181258
256 -4704.286787325675
257 -4737.05912623078
258 -4769.554764250375
259 -4795.365843833227
260 -4827.410701241589
261 -4858.162165616009
262 -4881.81171860187
263 -4910.905530563481
264 -4932.878656746921
265 -4961.016451445467
266 -4983.417321153321
267 -5010.646863063748
268 -5031.688922652876
269 -5056.924365521154
270 -5075.005445469481
271 -5095.120104747646
272 -5111.925331091496
273 -5126.940235785512
274 -5144.877216889797
275 -5156.645043050719
276 -5167.934538704414
277 -5179.118416346135
278 -5187.221763540754
279 -5192.972928618732
280 -5198.630880846844
281 -5202.027091351905
282 -5203.690028261924
283 -5203.574359684194
284 -5202.476733796171
285 -5198.260294757055
286 -5192.907550513733
287 -5186.090346581382
288 -5174.839659547612
289 -5163.496217015523
290 -5150.481892447476
291 -5132.914736015168
292 -5117.073020996768
293 -5095.245675717939
294 -5076.414556935341
295 -5049.017743173235
296 -5018.935177073552
297 -4993.44997821325
298 -4958.796417563813
299 -4922.226666290363
300 -4884.77963439285
301 -4846.038212048871
302 -4805.938118187001
303 -4763.699424152938
304 -4718.422530276847
305 -4673.275066956373
306 -4626.157266424862
307 -4575.153751656027
308 -4523.806947066719
309 -4461.50626475683
310 -4408.789276868406
311 -4352.912587019766
312 -4286.936258684961
313 -4229.884756521252
314 -4161.071492950782
315 -4103.005397940256
316 -4031.050012247112
317 -3970.938274634776
318 -3897.615544972129
319 -3836.21658715281
320 -3760.440061294214
321 -3694.911972591598
322 -3618.619097352886
323 -3554.087711491989
324 -3475.405452209415
325 -3408.732253807319
326 -3330.959623654843
327 -3263.334103710054
328 -3183.626739807771
329 -3116.177393108356
330 -3048.76255120892
331 -2967.501850324472
332 -2902.036772960428
333 -2835.057334104252
334 -2767.340314842371
335 -2699.326874165557
336 -2633.071516464513
337 -2566.358917575703
338 -2500.165112420325
339 -2434.678793133639
340 -2369.486315778901
341 -2317.154168244694
342 -2251.335096576674
343 -2199.463614329256
344 -2135.193704226794
345 -2084.522905266352
346 -2021.866798824707
347 -1974.201867455487
348 -1927.330135866734
349 -1881.328894576239
350 -1836.50270949672
351 -1792.920441972021
352 -1751.081239149946
353 -1712.283417827932
354 -1674.141084333372
355 -1637.966088592473
356 -1613.259961870227
357 -1582.92386777324
358 -1562.334122488555
359 -1538.924055945453
360 -1523.114922368692
361 -1505.42176465984
362 -1495.182551405256
363 -1485.424569131712
364 -1476.685854138649
365 -1472.25803004709
366 -1472.584741870398
367 -1476.170480295153
368 -1481.416843130158
369 -1490.994495770318
370 -1505.501867804704
371 -1522.181189192265
372 -1542.979147511225
373 -1566.753787912744
374 -1601.074502593718
375 -1629.934293007641
376 -1672.674917455244
377 -1718.202927943698
378 -1764.066214410071
379 -1812.302502384192
380 -1862.723893258409
381 -1913.582825728201
382 -1966.722399565871
383 -2018.388985178661
384 -2068.755450873861
385 -2117.71916544857
386 -2164.445360120114
387 -2219.672844084342
388 -2260.483088518452
389 -2298.569518989942
390 -2333.352063381691
391 -2363.632834547113
392 -2389.847908822415
393 -2417.838149742681
394 -2434.648882434682
395 -2446.572275200135
396 -2454.125132923632
397 -2455.848880803717
398 -2453.260938531942
399 -2445.242527633656
400 -2431.920428284488
401 -2413.015612267475
402 -2391.102979283967
403 -2362.048621069424
404 -2329.580816776368
405 -2301.777979993019
406 -2258.381589692374
407 -2223.231184721098
408 -2171.885342562468
409 -2131.578925920902
410 -2074.750903934779
411 -2031.050042818778
412 -1967.618522276186
413 -1904.665979993355
414 -1842.153389296121
415 -1779.570293399714
416 -1719.504104008244
417 -1660.312093717293
418 -1603.15613536697
419 -1548.085759985922
420 -1495.63055487569
421 -1445.830706376203
422 -1398.815999879947
423 -1355.265738170182
424 -1314.226172314498
425 -1277.328852974561
426 -1243.994365855663
427 -1214.67354517248
428 -1189.337366261341
429 -1167.126408482788
430 -1148.428986947124
431 -1133.266040675413
432 -1124.681031826473
433 -1115.921625851341
434 -1111.66160368539
435 -1108.506284067853
436 -1107.369776083582
437 -1108.732725220402
438 -1112.210654245874
439 -1116.888367645515
440 -1123.170234460884
441 -1131.172990983348
442 -1141.357077136763
443 -1152.314758971366
444 -1165.135134924789
445 -1179.165182863768
446 -1193.560494552701
447 -1209.749269684494
448 -1227.024536237043
449 -1245.685444054827
450 -1264.484513693538
451 -1284.58734582558
452 -1305.334786451164
453 -1333.308699040348
454 -1354.635443774724
455 -1382.816355087118
456 -1405.27107878777
457 -1435.127912059343
458 -1457.446398412038
459 -1487.481308338874
460 -1509.256981107577
461 -1539.019888791457
462 -1560.981025235683
463 -1589.688645586543
464 -1611.27717478153
465 -1639.218627624365
466 -1660.754360104427
467 -1688.080132741792
468 -1707.999059861666
469 -1735.002944760319
470 -1754.499034341433
471 -1780.313908742765
472 -1799.523177966124
473 -1817.626143889958
474 -1841.472159719919
475 -1857.775936585109
476 -1874.094094576415
477 -1890.363663308139
478 -1906.009274465246
479 -1920.602153777639
480 -1935.217050867259
481 -1949.594883704475
482 -1962.721890702998
483 -1974.444777915151
484 -1986.376561456301
485 -1996.585762020183
486 -2005.836311710204
487 -2014.903224260739
488 -2022.606160925795
489 -2029.634223641531
490 -2034.839098130408
491 -2039.212810020114
492 -2042.945609512658
493 -2044.230543149145
494 -2045.585775791443
495 -2045.791820734031
496 -2045.204324114941
497 -2043.984792685361
498 -2041.114734826465
499 -2037.885535649006
500 -2034.444319256792
501 -2030.107294649504
502 -2025.174022970475
503 -2019.295284974486
504 -2013.019212199762
505 -2006.306679787511
506 -1998.73929532994
507 -1990.488084538922
508 -1981.907557494703
509 -1972.284033197433
510 -1962.681269815152
511 -1952.822130573204
512 -1941.726305867217
513 -1930.861732083683
514 -1918.9115335146
515 -1907.228292646552
516 -1895.795230798701
517 -1884.225673052382
518 -1872.785089782049
519 -1861.382207341426
520 -1850.495355015257
521 -1839.563404212802
522 -1829.015772918691
523 -1819.079890358681
524 -1809.302688072462
525 -1800.065023180645
526 -1791.875658735538
527 -1784.197521927544
528 -1777.434701325983
529 -1771.387875388763
530 -1766.423015898959
531 -1762.498322965745
532 -1759.345370348312
533 -1757.03069305167
534 -1755.891086047605
535 -1755.60631261305
536 -1756.833917952726
537 -1758.53193147128
538 -1761.337505252955
539 -1764.835434070561
540 -1769.520489657277
541 -1774.982428722734
542 -1781.886701978582
543 -1789.456148604166
544 -1797.779373321113
545 -1806.62402847679
546 -1816.419460025443
547 -1826.714323672857
548 -1837.759453682943
549 -1848.781336975182
550 -1860.5196074309
551 -1872.292586608343
552 -1884.869081435665
553 -1896.949737780097
554 -1909.583009524524
555 -1922.328683696165
556 -1934.868974245792
557 -1947.230769971622
558 -1959.425072274482
559 -1971.36147814903
560 -1983.642569401812
561 -1999.523179001821
562 -2011.411023294497
563 -2023.191215441918
564 -2034.52404759679
565 -2049.129513177714
566 -2059.612886675377
567 -2069.746323020661
568 -2079.858243567616
569 -2089.778691163065
570 -2099.161633316521
571 -2108.315231693485
572 -2117.904827336474
573 -2127.353009486826
574 -2137.358311814696
575 -2147.1103105476
576 -2156.470635483689
577 -2165.953283986023
578 -2175.141723825386
579 -2184.230515977323
580 -2193.021137784665
581 -2201.764868798145
582 -2210.236777987309
583 -2218.158325784443
584 -2225.575884722483
585 -2232.832778491604
586 -2239.272016938172
587 -2244.955691548106
588 -2249.645173692574
589 -2253.45391558329
590 -2256.422742932701
591 -2258.46971645036
592 -2259.554800023036
593 -2259.377338726469
594 -2258.038060891522
595 -2255.597040533939
596 -2252.093092807086
597 -2247.150366533442
598 -2241.072348266331
599 -2233.649196314181
600 -2225.40064638236
601 -2215.994726683327
602 -2204.765669013293
603 -2192.847378947277
604 -2179.350144834233
605 -2165.341011017448
606 -2145.849517029521
607 -2130.228638571314
608 -2108.980825184035
609 -2093.35334027337
610 -2071.471197378172
611 -2055.366921109357
612 -2034.269696543633
613 -2018.805177951116
614 -1998.924907535256
615 -1979.210102811417
616 -1964.5875885284
617 -1945.620128680415
618 -1927.214080801687
619 -1910.160586217279
620 -1894.091087629039
621 -1879.383070276224
622 -1865.784221837312
623 -1856.020038832359
624 -1843.819911070228
625 -1832.26671868127
626 -1822.189351340847
627 -1815.038577329683
628 -1806.477918531422
629 -1800.718981300306
630 -1793.927542287473
631 -1789.232567267132
632 -1783.988778536768
633 -1780.349630222909
634 -1776.339582828923
635 -1773.84919625766
636 -1772.152248173536
637 -1771.181106340432
638 -1770.620365013293
639 -1770.504005318675
640 -1770.92783179986
641 -1771.834577204294
642 -1773.220152561395
643 -1774.9023650334
644 -1776.357454093803
645 -1779.05150419712
646 -1781.18224054686
647 -1784.572064157395
648 -1787.107760444324
649 -1790.836584778354
650 -1793.714240187176
651 -1797.940720640017
652 -1800.913160408296
653 -1805.315012967695
654 -1809.904238161486
655 -1812.953687404
656 -1817.403185323966
657 -1821.711534866146
658 -1825.925912870449
659 -1829.669172385067
660 -1832.988538115681
661 -1835.765472768109
662 -1837.532852302132
663 -1839.569577322949
664 -1841.315476593884
665 -1842.359385269369
666 -1842.789609854739
667 -1843.114065924814
668 -1843.075186873861
669 -1842.332064107374
670 -1841.578812592396
671 -1839.523260841019
672 -1838.085816478822
673 -1835.015594408893
674 -1832.869548848091
675 -1830.091987149212
676 -1826.931104949921
677 -1821.800385866891
678 -1817.997820444719
679 -1813.770159327408
680 -1809.267644167191
681 -1804.427986286478
682 -1796.497761000379
683 -1790.963039631346
684 -1782.147994598789
685 -1776.019215139142
686 -1766.699958952594
687 -1760.036319035378
688 -1750.17997489363
689 -1739.960199561217
690 -1729.777913379897
691 -1719.579732976075
692 -1709.46623857412
693 -1699.682109904752
694 -1690.069057700348
695 -1680.751870965347
696 -1671.82004120019
697 -1662.692281713145
698 -1653.901013153328
699 -1645.409182712636
700 -1637.045828724066
701 -1628.57150923268
702 -1620.862440999328
703 -1613.214509159007
704 -1605.698669430041
705 -1598.317085963494
706 -1591.602780789874
707 -1584.787725877479
708 -1578.38879794939
709 -1572.164464768073
710 -1566.136496512383
711 -1560.522013662679
712 -1555.465615560562
713 -1550.613304291355
714 -1546.332352966967
715 -1542.006532496841
716 -1538.144864192877
717 -1534.692010839713
718 -1531.738710031285
719 -1529.185326527075
720 -1526.767402360499
721 -1524.841748568023
722 -1523.292361677095
723 -1522.497593688353
724 -1521.902314349775
725 -1521.487984388208
726 -1521.307758149123
727 -1521.332087325042
728 -1521.524456182359
729 -1521.853802489503
730 -1522.810047563844
731 -1523.566670418622
732 -1524.811148813361
733 -1525.780239581574
734 -1527.468623354371
735 -1528.835001625709
736 -1530.892638643734
737 -1532.406734324175
738 -1534.886853249797
739 -1536.64868286461
740 -1539.421169484381
741 -1541.314928626559
742 -1544.154129032035
743 -1546.054422087419
744 -1549.359360231879
745 -1551.449889137474
746 -1554.767426573053
747 -1556.924386684245
748 -1560.247609515751
749 -1562.386330823953
750 -1565.583647629711
751 -1567.591141928175
752 -1570.702188448615
753 -1572.647944869135
754 -1575.494880913565
755 -1577.360563366902
756 -1580.163710006076
757 -1581.87751797883
758 -1584.463418064739
759 -1585.975891616587
760 -1588.349837085053
761 -1589.795246111448
762 -1591.148165085285
763 -1592.984100061406
764 -1594.095461844761
765 -1595.064224513078
766 -1596.489980865582
767 -1597.295444693249
768 -1597.991211062217
769 -1598.591300714366
770 -1599.463488207042
771 -1599.909179399585
772 -1600.221483429118
773 -1600.4309150522
774 -1600.555348039961
775 -1600.518857526243
776 -1600.422275642197
777 -1600.130567142332
778 -1599.816229000387
779 -1599.35014933739
780 -1598.907479121879
781 -1598.345390999491
782 -1597.703819230534
783 -1597.04231515213
784 -1596.353991084846
785 -1595.652130478185
786 -1594.910770757881
787 -1594.097964496676
788 -1593.280283024934
789 -1592.439741339927
790 -1591.690249339815
791 -1590.886897148831
792 -1590.10692643797
793 -1589.32497573252
794 -1588.728385135996
795 -1588.184251877471
796 -1587.770916577379
797 -1587.47097938944
798 -1587.361207353164
799 -1587.336694441361
800 -1587.495234841875
801 -1587.800239692348
802 -1588.302291933489
803 -1588.902660265834
804 -1589.712000745305
805 -1590.706626280007
806 -1592.439942914099
807 -1593.695228352972
808 -1595.211649741029
809 -1596.811800918594
810 -1599.52196047976
811 -1601.434270352619
812 -1603.521249731327
813 -1606.768478918573
814 -1609.096697531967
815 -1612.648178844175
816 -1615.063519330822
817 -1618.702684394523
818 -1622.486771168338
819 -1626.235063018096
820 -1629.921919542298
821 -1633.549334660303
822 -1637.039947244096
823 -1640.366363546475
824 -1643.653577579771
825 -1646.708534486222
826 -1649.705734093692
827 -1652.615098286801
828 -1655.420616584716
829 -1658.104085125482
830 -1660.738910011201
831 -1663.226943448433
832 -1665.710732817105
833 -1668.091347747359
834 -1670.469130890086
835 -1672.750133694336
836 -1675.085475471539
837 -1677.329764660472
838 -1679.53464830128
839 -1681.679623397974
840 -1683.847209874435
841 -1685.9953701394
842 -1688.183590854882
843 -1690.372675020459
844 -1692.597983519683
845 -1694.758875708612
846 -1697.004548494312
847 -1699.192574153026
848 -1701.426362838396
849 -1703.612632109104
850 -1705.775665590424
851 -1707.198767495928
852 -1709.449416411545
853 -1711.643834328656
854 -1713.142067767909
855 -1715.444714311341
856 -1717.816354694716
857 -1719.32857872965
858 -1721.682610777475
859 -1723.199912681418
860 -1725.548512253701
861 -1727.062418097085
862 -1729.352619728279
863 -1730.8541859863
864 -1733.046082138673
865 -1734.486285588722
866 -1736.601551341769
867 -1737.945899114565
868 -1739.866101153201
869 -1741.050522970138
870 -1742.216338908188
871 -1743.82812412281
872 -1744.768324471471
873 -1745.60704980643
874 -1746.718393673596
875 -1747.338474039736
876 -1747.921360502075
877 -1748.356688273385
878 -1748.705616451283
879 -1748.949413419678
880 -1749.038363955881
881 -1748.993062321486
882 -1748.867160388301
883 -1748.635830040548
884 -1748.315690778254
885 -1747.833201425242
886 -1747.292945100752
887 -1746.617526359997
888 -1745.803098480396
889 -1744.875519419081
890 -1743.374964427494
891 -1742.278784744864
892 -1741.108913044638
893 -1739.207316399932
894 -1737.9443969876
895 -1735.958507076548
896 -1734.655999819275
897 -1732.624732307059
898 -1731.287677755933
899 -1729.271886460816
900 -1727.339259984398
901 -1725.476806795262
902 -1723.739194217605
903 -1722.047983438883
904 -1720.511359408288
905 -1719.080522146248
906 -1717.83169903288
907 -1716.682298500063
908 -1715.693409983456
909 -1714.815375050575
910 -1714.09089244686
911 -1713.51030700125
912 -1713.069696767106
913 -1712.721395830273
914 -1712.44899682717
915 -1712.244509308377
916 -1712.141215834812
917 -1712.087528276321
918 -1712.131847096679
919 -1712.202678914957
920 -1712.334298277786
921 -1712.49547071967
922 -1712.658443348012
923 -1712.762527831295
924 -1712.891919610894
925 -1712.954991754231
926 -1713.035795118601
927 -1713.029714816254
928 -1712.978284475978
929 -1712.906094918741
930 -1712.708873444688
931 -1712.537840559339
932 -1712.197063102284
933 -1711.89060751615
934 -1711.352729307971
935 -1710.929750857888
936 -1710.172998280759
937 -1709.577649114188
938 -1708.57414561568
939 -1707.829331767269
940 -1706.578179767532
941 -1705.66598981349
942 -1704.210340570706
943 -1702.665097197752
944 -1701.597840342901
945 -1699.874547197129
946 -1698.145221371032
947 -1696.910660202632
948 -1694.953500310517
949 -1693.074193926407
950 -1691.77047242221
951 -1689.709990285739
952 -1687.634784831147
953 -1685.629624715756
954 -1684.2562412337
955 -1682.17603749152
956 -1680.091793720852
957 -1678.060499141194
958 -1676.078177118382
959 -1674.110213451925
960 -1672.226871130889
961 -1670.393707347291
962 -1668.612260432376
963 -1666.832292526689
964 -1665.146624686146
965 -1663.463325349931
966 -1661.852633454419
967 -1660.322314022719
968 -1658.804071975705
969 -1657.305443264854
970 -1655.882558283537
971 -1654.51579541272
972 -1653.194407895853
973 -1651.911359032992
974 -1650.646108057974
975 -1649.400732633082
976 -1648.23655112076
977 -1647.053659206091
978 -1645.901427513804
979 -1644.748028661317
980 -1643.596300894334
981 -1642.854949895432
982 -1641.748919992437
983 -1640.635313340176
984 -1639.936058103995
985 -1638.841846996793
986 -1638.087810475985
987 -1636.916013541791
988 -1636.146291294509
989 -1634.944903687762
990 -1634.143663531014
991 -1632.877195346688
992 -1632.045058586533
993 -1631.180497599768
994 -1629.937261933005
995 -1629.085624369409
996 -1628.208414498428
997 -1626.91331650444
998 -1626.062580640673
999 -1625.19356043765
1000 -1624.299959705666
1001 -1623.376827873308
1002 -1622.019095772874
1003 -1621.093762842626
1004 -1620.215805637437
1005 -1619.314139167581
1006 -1618.465094838252
1007 -1617.556358990527
1008 -1616.703679432306
1009 -1615.821840992728
1010 -1614.597253839783
1011 -1613.815879996759
1012 -1613.061160391196
1013 -1612.310958451518
1014 -1611.581211238289
1015 -1610.561252893404
1016 -1609.932562248201
1017 -1609.295396396788
1018 -1608.464773638805
1019 -1607.929455641246
1020 -1607.472326463615
1021 -1606.743964884075
1022 -1606.355602778529
1023 -1606.003312347781
1024 -1605.506116854918
1025 -1605.148994623343
1026 -1604.713767655696
1027 -1604.41442848902
1028 -1604.032132007599
1029 -1603.80433134207
1030 -1603.443312939051
1031 -1603.233055806701
1032 -1602.976069960728
1033 -1602.811523817305
1034 -1602.647365570089
1035 -1602.507339865984
1036 -1602.311112695221
1037 -1602.250064234123
1038 -1602.14176758236
1039 -1602.046303394326
1040 -1601.938703607191
1041 -1601.810161356465
1042 -1601.746500061109
1043 -1601.697513761008
1044 -1601.603834434809
1045 -1601.562156635392
1046 -1601.561917416198
1047 -1601.603479941781
1048 -1601.657930395019
1049 -1601.748632597738
1050 -1601.909923873551
1051 -1602.029470879569
1052 -1602.222016399433
1053 -1602.515200501107
1054 -1602.738718894421
1055 -1603.047861271855
1056 -1603.573253399163
1057 -1603.950169137847
1058 -1604.376167524746
1059 -1605.046311186267
1060 -1605.566008531459
1061 -1606.361166229345
1062 -1606.928415226497
1063 -1607.816220204694
1064 -1608.390019710475
1065 -1609.256865733154
1066 -1609.86744465929
1067 -1610.824887667572
1068 -1611.522702850484
1069 -1612.573912341511
1070 -1613.249237957559
1071 -1614.248313724425
1072 -1614.864682004848
1073 -1615.719872341236
1074 -1616.340430032652
1075 -1617.216315276268
1076 -1617.795256094648
1077 -1618.602684067966
1078 -1619.370148759622
1079 -1619.848215482775
1080 -1620.527616913364
1081 -1621.167559388861
1082 -1621.567836093169
1083 -1622.121006522601
1084 -1622.422506929289
1085 -1622.950930188124
1086 -1623.239723909208
1087 -1623.64641409451
1088 -1623.88610005542
1089 -1624.210424465479
1090 -1624.407912883245
1091 -1624.67994733085
1092 -1624.841116430461
1093 -1624.99383852253
1094 -1625.092651561592
1095 -1625.189353155939
1096 -1625.234472544211
1097 -1625.247771877091
1098 -1625.232145705732
1099 -1625.214277515712
1100 -1625.139808265774
1101 -1625.006900871133
1102 -1624.849282122526
1103 -1624.692678169185
1104 -1624.418294819542
1105 -1624.178794781225
1106 -1623.903595624556
1107 -1623.630620896496
1108 -1623.349443904559
1109 -1623.014033944846
1110 -1622.65102118245
1111 -1622.276049265359
1112 -1621.905080435771
1113 -1621.553306906713
1114 -1621.184281312494
1115 -1620.8280965582
1116 -1620.33449702997
1117 -1620.014871866357
1118 -1619.751203021985
1119 -1619.504931043395
1120 -1619.283625066126
1121 -1619.069034877356
1122 -1618.825938873244
1123 -1618.701679151618
1124 -1618.66192704519
1125 -1618.655969402051
1126 -1618.792596105651
1127 -1618.971539094147
1128 -1619.213167063049
1129 -1619.638743014823
1130 -1619.999773306406
1131 -1620.413256058304
1132 -1621.153087440283
1133 -1621.720539450062
1134 -1622.33392252401
1135 -1623.390507082444
1136 -1624.129213687604
1137 -1625.296113021002
1138 -1626.134684403966
1139 -1627.443345121164
1140 -1628.355204117861
1141 -1629.761366026762
1142 -1630.721269431588
1143 -1632.180515296926
1144 -1633.172654941039
1145 -1634.658296120743
1146 -1635.613375602515
1147 -1637.004320293004
1148 -1638.329728131677
1149 -1639.177284556687
1150 -1640.387583430716
1151 -1641.49368541248
1152 -1642.181221163749
1153 -1643.118166533805
1154 -1643.968717092208
1155 -1644.462950036971
1156 -1645.14458668563
1157 -1645.682087492838
1158 -1645.973149272304
1159 -1646.325026351905
1160 -1646.494220148042
1161 -1646.633241519808
1162 -1646.675047411857
1163 -1646.645068303775
1164 -1646.594443771751
1165 -1646.454569102823
1166 -1646.340425630733
1167 -1646.16916158061
1168 -1645.906065373188
1169 -1645.703543331603
1170 -1645.49669334587
1171 -1645.232699128628
1172 -1644.98103379545
1173 -1644.718969797896
1174 -1644.464586798239
1175 -1644.185817478874
1176 -1643.91539182859
1177 -1643.670722472291
1178 -1643.461730880628
1179 -1643.290785323069
1180 -1643.143123453198
1181 -1642.949802521606
1182 -1642.855833435807
1183 -1642.807707456813
1184 -1642.816155273612
1185 -1642.847001739173
1186 -1642.911608462891
1187 -1643.007544291808
1188 -1643.161814277175
1189 -1643.396002098609
1190 -1643.615457822078
1191 -1643.841617623657
1192 -1644.11290242949
1193 -1644.396767762538
1194 -1644.718401477
1195 -1645.059039919047
1196 -1645.426769530495
1197 -1645.804030374175
1198 -1646.220598420167
1199 -1646.623306003769
1200 -1647.033523479608
1201 -1647.45615174829
1202 -1647.864234480454
1203 -1648.264500951322
1204 -1648.653479913542
1205 -1649.030333656564
1206 -1649.388579547678
1207 -1649.69658407837
1208 -1650.002080615455
1209 -1650.241128093144
1210 -1650.405472889621
1211 -1650.541286666539
1212 -1650.646588772079
1213 -1650.677208077072
1214 -1650.677079022312
1215 -1650.626976904191
1216 -1650.553398575198
1217 -1650.441958107555
1218 -1650.280168986321
1219 -1650.065980015005
1220 -1649.802699760228
1221 -1649.511377074512
1222 -1649.198681295306
1223 -1648.827014674833
1224 -1648.436127638214
1225 -1648.014595927177
1226 -1647.567042632666
1227 -1647.076975416321
1228 -1646.604159650004
1229 -1646.122589327386
1230 -1645.653454289134
1231 -1645.173729345876
1232 -1644.708974110288
1233 -1644.247140612021
1234 -1643.820223872738
1235 -1643.414808493431
1236 -1642.884392719196
1237 -1642.546330608824
1238 -1642.262179137793
1239 -1642.046381822668
1240 -1641.786057079925
1241 -1641.682797753444
1242 -1641.627247868129
1243 -1641.613985741962
1244 -1641.670151342997
1245 -1641.778431897854
1246 -1642.019577064486
1247 -1642.203122159909
1248 -1642.411072806907
1249 -1642.716231647895
1250 -1642.983642280482
1251 -1643.271592240054
1252 -1643.586660001871
1253 -1643.910154175632
1254 -1644.397121209747
1255 -1644.693931241781
1256 -1644.975598827622
1257 -1645.263983339937
1258 -1645.539370930015
1259 -1645.899059642392
1260 -1646.109089168433
1261 -1646.255422411121
1262 -1646.436487683286
1263 -1646.472695408536
1264 -1646.469916135031
1265 -1646.346271374554
1266 -1646.25011953757
1267 -1646.038717313933
1268 -1645.838358882453
1269 -1645.444472239927
1270 -1645.148311822066
1271 -1644.636026720812
1272 -1644.270351279
1273 -1643.653589275331
1274 -1643.249265924414
1275 -1642.804497147563
1276 -1642.093831428126
1277 -1641.621190310725
1278 -1641.127386987753
1279 -1640.373149565872
1280 -1639.892298724162
1281 -1639.4087253344
1282 -1638.711553664565
1283 -1638.271847510526
1284 -1637.83528263626
1285 -1637.216497442196
1286 -1636.825703293677
1287 -1636.24182421575
1288 -1635.83240981938
1289 -1635.250144874443
1290 -1634.910492738652
1291 -1634.391149198572
1292 -1634.072104159999
1293 -1633.582830229954
1294 -1633.277647484537
1295 -1632.874611042321
1296 -1632.611073483634
1297 -1632.20361518035
1298 -1631.943150433955
1299 -1631.526194241018
1300 -1631.264682644084
1301 -1630.85100602065
1302 -1630.586968302223
1303 -1630.147420467338
1304 -1629.856279062091
1305 -1629.363164341315
1306 -1629.0515657423
1307 -1628.530044606313
1308 -1628.193270508473
1309 -1627.649650648829
1310 -1627.298384574117
1311 -1626.749615575047
1312 -1626.394224772108
1313 -1625.879190506689
1314 -1625.550000942102
1315 -1625.041154061563
1316 -1624.741293094631
1317 -1624.329888149772
1318 -1624.081032736164
1319 -1623.764817380607
1320 -1623.603654820402
1321 -1623.395368504848
1322 -1623.317807053299
1323 -1623.287456515791
1324 -1623.329833662376
1325 -1623.459824767007
1326 -1623.590247271464
1327 -1623.851891608163
1328 -1624.137116427962
1329 -1624.579603459681
1330 -1624.937610518332
1331 -1625.533367727358
1332 -1626.003535723589
1333 -1626.737866424321
1334 -1627.279136330022
1335 -1628.103090667635
1336 -1628.980830828663
1337 -1629.567375161822
1338 -1630.480222076245
1339 -1631.377249923448
1340 -1632.258615215287
1341 -1633.114261584849
1342 -1633.95661170482
1343 -1634.724225435029
1344 -1635.472054593293
1345 -1636.165542506076
1346 -1636.856201575877
1347 -1637.470437242143
1348 -1638.028329772077
1349 -1638.513088613582
1350 -1638.953184453226
1351 -1639.330510420299
1352 -1639.685391810554
1353 -1639.941465005853
1354 -1640.201543438835
1355 -1640.404192435461
1356 -1640.567844482184
1357 -1640.629445835181
1358 -1640.758078321998
1359 -1640.831934567395
1360 -1640.879764207353
1361 -1640.90308673867
1362 -1640.934935628204
1363 -1640.978515370375
1364 -1641.029547883144
1365 -1641.066870563945
1366 -1641.109383756681
1367 -1641.157264020527
1368 -1641.232251428482
1369 -1641.298148601987
1370 -1641.386436385655
1371 -1641.485036224191
1372 -1641.605719881202
1373 -1641.729293680588
1374 -1641.903502789894
1375 -1642.099049691747
1376 -1642.330956313047
1377 -1642.583086536697
1378 -1642.893481530625
1379 -1643.229381447242
1380 -1643.605058390135
1381 -1643.985550047403
1382 -1644.407973443281
1383 -1644.826982971874
1384 -1645.326721157106
1385 -1645.823879550209
1386 -1646.402127577247
1387 -1646.994194862224
1388 -1647.938036687397
1389 -1648.541314137364
1390 -1649.19009654509
1391 -1649.815170287663
1392 -1650.851990326857
1393 -1651.510458028878
1394 -1652.190796620399
1395 -1653.24127358602
1396 -1653.923223924242
1397 -1654.579685773182
1398 -1655.54729684655
1399 -1656.183535160792
1400 -1657.107535760495
1401 -1657.670561653988
1402 -1658.488766794909
1403 -1658.980405613784
1404 -1659.699440748188
1405 -1660.101638422444
1406 -1660.650489124937
1407 -1661.100171563206
1408 -1661.347384882234
1409 -1661.619045120985
1410 -1661.786183659445
1411 -1661.828146888497
1412 -1661.836372526056
1413 -1661.763310691111
1414 -1661.594548964019
1415 -1661.418865683062
1416 -1661.088011219425
1417 -1660.808602414716
1418 -1660.383775210729
1419 -1660.038745292839
1420 -1659.515808665442
1421 -1659.105244561094
1422 -1658.509518225611
1423 -1658.095145131404
1424 -1657.678649371034
1425 -1657.058664687901
1426 -1656.677222300551
1427 -1656.283864327294
1428 -1655.732628771731
1429 -1655.376002762291
1430 -1655.07134542431
1431 -1654.637222222206
1432 -1654.400837197338
1433 -1654.081906868591
1434 -1653.956560969269
1435 -1653.778195301306
1436 -1653.721760412539
1437 -1653.691979465545
1438 -1653.750770304549
1439 -1653.848645059455
1440 -1653.96379901439
1441 -1654.156934255177
1442 -1654.313116345349
1443 -1654.591526291426
1444 -1654.808302485006
1445 -1655.151195849305
1446 -1655.422253768189
1447 -1655.852523637131
1448 -1656.139167241035
1449 -1656.411707300688
1450 -1656.856200261989
1451 -1657.124509401773
1452 -1657.395157391154
1453 -1657.63690069073
1454 -1658.018216601188
1455 -1658.220666230644
1456 -1658.440099546805
1457 -1658.716246559795
1458 -1658.898110859794
1459 -1659.049217837333
1460 -1659.261312278982
1461 -1659.373333949156
1462 -1659.529916449977
1463 -1659.603007632288
1464 -1659.650113384583
1465 -1659.726748754404
1466 -1659.812627809032
1467 -1659.885925840904
1468 -1659.970935252816
1469 -1660.046944088824
1470 -1660.253033300301
1471 -1660.362413315862
1472 -1660.569435299456
1473 -1660.727287088329
1474 -1660.937785588238
1475 -1661.263649177462
1476 -1661.531388841023
1477 -1661.934578443614
1478 -1662.241189294363
1479 -1662.719928192898
1480 -1663.055441490838
1481 -1663.570652977219
1482 -1663.963259913774
1483 -1664.560970164065
1484 -1664.959342107664
1485 -1665.551877427543
1486 -1665.992665573522
1487 -1666.616056983426
1488 -1667.242423709869
1489 -1667.628911361736
1490 -1668.241608013973
1491 -1668.769705114179
1492 -1669.111356221833
1493 -1669.582707403641
1494 -1670.012630932953
1495 -1670.250793842803
1496 -1670.61116318841
1497 -1670.768332974073
1498 -1670.994817428102
1499 -1671.099771029924
1500 -1671.205315644011
1501 -1671.230601242952
1502 -1671.220914770416
1503 -1671.168806591775
1504 -1671.086692924617
1505 -1670.96518750513
1506 -1670.766673269674
1507 -1670.580192248623
1508 -1670.312318695671
1509 -1670.055348016015
1510 -1669.666533626114
1511 -1669.401421169613
1512 -1668.995010219132
1513 -1668.699805785244
1514 -1668.267397487637
1515 -1667.975145620219
1516 -1667.564043675995
1517 -1667.254948586691
1518 -1666.872088515657
1519 -1666.628587427625
1520 -1666.318657466564
1521 -1666.112730980905
1522 -1665.893699708082
1523 -1665.705865915687
1524 -1665.622968905186
1525 -1665.545556219814
1526 -1665.549811068855
1527 -1665.562096328707
1528 -1665.676255698831
1529 -1665.867383600599
1530 -1666.039525905894
1531 -1666.368667978356
1532 -1666.734784667686
1533 -1666.997236714779
1534 -1667.534560456808
1535 -1667.908979820205
1536 -1668.543837129365
1537 -1669.188829836898
1538 -1669.668014680167
1539 -1670.416549395758
1540 -1670.967332258276
1541 -1671.773317339095
1542 -1672.336824976207
1543 -1673.192384779065
1544 -1673.803244259708
1545 -1674.703987166734
1546 -1675.335190354994
1547 -1676.228064930442
1548 -1676.856980761946
1549 -1677.734970177059
1550 -1678.342424905319
1551 -1679.18233943439
1552 -1680.03338339967
1553 -1680.555893405796
1554 -1681.326616150757
1555 -1682.032098373689
1556 -1682.495908614852
1557 -1683.107890233859
1558 -1683.68313097343
1559 -1683.991911376417
1560 -1684.423739396604
1561 -1684.654456067529
1562 -1684.948160601548
1563 -1685.085209969894
1564 -1685.301948571391
1565 -1685.375547708424
1566 -1685.423045733887
1567 -1685.420812405438
1568 -1685.392130125006
1569 -1685.299947115041
1570 -1685.140249629873
1571 -1684.989592857905
1572 -1684.76151769092
1573 -1684.582498484705
1574 -1684.331126820563
1575 -1684.115050907412
1576 -1683.795044844061
1577 -1683.579931013187
1578 -1683.274716425163
1579 -1683.059388487747
1580 -1682.76493700107
1581 -1682.562068794955
1582 -1682.295644377298
1583 -1682.118870916925
1584 -1681.905515695933
1585 -1681.711028384616
1586 -1681.654711149869
1587 -1681.562206143816
1588 -1681.502862787007
1589 -1681.47066516892
1590 -1681.474644206528
1591 -1681.502513825156
1592 -1681.577549354246
1593 -1681.660624400544
1594 -1681.749649349561
1595 -1681.876653584916
1596 -1682.031518913455
1597 -1682.138771280462
1598 -1682.266641938588
1599 -1682.374319655881
1600 -1682.449322583366
1601 -1682.492456345116
1602 -1682.516282365515
1603 -1682.459650068283
1604 -1682.40954814319
1605 -1682.191113288867
1606 -1682.051346861773
1607 -1681.756321000312
1608 -1681.540855180579
1609 -1681.123528589187
1610 -1680.807395320251
1611 -1680.20822730663
1612 -1679.792118259266
1613 -1679.018058410617
1614 -1678.45443169381
1615 -1677.515400984158
1616 -1676.865509512753
1617 -1675.774404680427
1618 -1674.995055438179
1619 -1673.751395624996
1620 -1672.922046850452
1621 -1671.577201003616
1622 -1670.637615152088
1623 -1669.149157760138
1624 -1668.168933634134
1625 -1666.635201641176
1626 -1665.618454326173
1627 -1664.014173544765
1628 -1662.93669717444
1629 -1661.268458658747
1630 -1659.643018315611
1631 -1658.065603139204
1632 -1657.072569819459
1633 -1655.580559580903
1634 -1654.196244487207
1635 -1652.820602042165
1636 -1651.56878567387
1637 -1650.366270290517
1638 -1649.253148031792
1639 -1648.207223680888
1640 -1647.281217840035
1641 -1646.412942066771
1642 -1645.638538965296
1643 -1644.945138929011
1644 -1644.374892129931
1645 -1643.843670644424
1646 -1643.401896286142
1647 -1643.00859938833
1648 -1642.692236713732
1649 -1642.428298686622
1650 -1642.234668393283
1651 -1642.052034976038
1652 -1641.965574383704
1653 -1641.910883598237
1654 -1641.888973209003
1655 -1641.853741650194
1656 -1641.887903293969
1657 -1641.951899810374
1658 -1642.025164394687
1659 -1642.134234719351
1660 -1642.211685084055
1661 -1642.263384465425
1662 -1642.339845532704
1663 -1642.374267612118
1664 -1642.428534896187
1665 -1642.47655895608
1666 -1642.498705384986
1667 -1642.524461246766
1668 -1642.54428217899
1669 -1642.541160527178
1670 -1642.562804080495
1671 -1642.555623692943
1672 -1642.548615014529
1673 -1642.493237590021
1674 -1642.459243079467
1675 -1642.405930116405
1676 -1642.374268810274
1677 -1642.29457071804
1678 -1642.255001038768
1679 -1642.175857612198
1680 -1642.090487431192
1681 -1641.941331217452
1682 -1641.856252577595
1683 -1641.770455467231
1684 -1641.693072674433
1685 -1641.517615085177
1686 -1641.42369835665
1687 -1641.311328801272
1688 -1641.221254308298
1689 -1641.100483668146
1690 -1640.925308909483
1691 -1640.78164883615
1692 -1640.639964156449
1693 -1640.449074650472
1694 -1640.281670569859
1695 -1640.013811729178
1696 -1639.832455612274
1697 -1639.620008714035
1698 -1639.413261817959
1699 -1639.085857771526
1700 -1638.864757955966
1701 -1638.619802339436
1702 -1638.258643550099
1703 -1638.012649346224
1704 -1637.791710233574
1705 -1637.427440588719
1706 -1637.215600950401
1707 -1636.90462818713
1708 -1636.726049672273
1709 -1636.553236968793
1710 -1636.374171146715
1711 -1636.254512974394
1712 -1636.168783176393
1713 -1636.10036539142
1714 -1636.063038041422
1715 -1636.053155807904
1716 -1636.108961561941
1717 -1636.22351157889
1718 -1636.364493367885
1719 -1636.50057518448
1720 -1636.777197737904
1721 -1636.986517731724
1722 -1637.235460420876
1723 -1637.602476544773
1724 -1637.874081069708
1725 -1638.143710727978
1726 -1638.473173576105
1727 -1638.786859232834
1728 -1639.334315354671
1729 -1639.673157907331
1730 -1640.045822721444
1731 -1640.401268627176
1732 -1640.96626259669
1733 -1641.318650387286
1734 -1641.674203020298
1735 -1642.194674344673
1736 -1642.526590875516
1737 -1642.831239065308
1738 -1643.28823068845
1739 -1643.578846805306
1740 -1644.014607101896
1741 -1644.276691249981
1742 -1644.662809461483
1743 -1644.893372440512
1744 -1645.258517938088
1745 -1645.451723115608
1746 -1645.766904714138
1747 -1645.93975148188
1748 -1646.246419952736
1749 -1646.415748966894
1750 -1646.70544843893
1751 -1646.880451378837
1752 -1647.187610234533
1753 -1647.327513307659
1754 -1647.592242146128
1755 -1647.740731859151
1756 -1648.01847090338
1757 -1648.192278830857
1758 -1648.513053126538
1759 -1648.692081326229
1760 -1648.930821800537
1761 -1649.240800422617
1762 -1649.485547641981
1763 -1649.837568444533
1764 -1650.104427471481
1765 -1650.470265961567
1766 -1650.739959660146
1767 -1651.133533685341
1768 -1651.41555241451
1769 -1651.795485882034
1770 -1652.037350829099
1771 -1652.355776587483
1772 -1652.593795563332
1773 -1652.908453816333
1774 -1653.126386043817
1775 -1653.359110320283
1776 -1653.542560748693
1777 -1653.749744448907
1778 -1653.880965128433
1779 -1653.99464454286
1780 -1654.05566485136
1781 -1654.063749737767
1782 -1654.041312517921
1783 -1653.908337628212
1784 -1653.810587604718
1785 -1653.578656215183
1786 -1653.410240502524
1787 -1653.031227241466
1788 -1652.778835469462
1789 -1652.339253907305
1790 -1652.049152046359
1791 -1651.499740332593
1792 -1651.150138416018
1793 -1650.544674006517
1794 -1650.134858431728
1795 -1649.466634969213
1796 -1649.042737691994
1797 -1648.321325947274
1798 -1647.860307928999
1799 -1647.088678760366
1800 -1646.604319189579
1801 -1645.859867713894
1802 -1645.386130486887
1803 -1644.624256230413
1804 -1644.177420950179
1805 -1643.462664118072
1806 -1643.040251442877
1807 -1642.594361559363
1808 -1641.964725603174
1809 -1641.55071687887
1810 -1640.981518949225
1811 -1640.595749791148
1812 -1640.267439516249
1813 -1639.721707146161
1814 -1639.420936874433
1815 -1639.095926076289
1816 -1638.702065391102
1817 -1638.43191140512
1818 -1638.225582346705
1819 -1637.901085380723
1820 -1637.749800977097
1821 -1637.590204842171
1822 -1637.487515643357
1823 -1637.36379615555
1824 -1637.28790245264
1825 -1637.17652194234
1826 -1637.145885278131
1827 -1637.14143612442
1828 -1637.205736653352
1829 -1637.275327419053
1830 -1637.412962126576
1831 -1637.515146177824
1832 -1637.664737837016
1833 -1637.775327702314
1834 -1637.937745020791
1835 -1638.088213899979
1836 -1638.274747787638
1837 -1638.485097177646
1838 -1638.729123810102
1839 -1638.962935685251
1840 -1639.226179457981
1841 -1639.454583642604
1842 -1639.746163333064
1843 -1640.003950288619
1844 -1640.326196254596
1845 -1640.762985160486
1846 -1641.108598818919
1847 -1641.45056712374
1848 -1641.98367420406
1849 -1642.326599335194
1850 -1642.719875017794
1851 -1643.306210924531
1852 -1643.719185975646
1853 -1644.093867939413
1854 -1644.745139718794
1855 -1645.168232386103
1856 -1645.854932070624
1857 -1646.295953607482
1858 -1647.001601063651
1859 -1647.455863234595
1860 -1647.957895582782
1861 -1648.701041523641
1862 -1649.235857041721
1863 -1650.019084416866
1864 -1650.577080566253
1865 -1651.349754524549
1866 -1651.895678491597
1867 -1652.403393322099
1868 -1653.252485266713
1869 -1653.768094635449
1870 -1654.581347711766
1871 -1655.083359987897
1872 -1655.842631379236
1873 -1656.311977070385
1874 -1657.052466326073
1875 -1657.495986614328
1876 -1658.180803867726
1877 -1658.584846141844
1878 -1659.203134375515
1879 -1659.567718233682
1880 -1660.127286590159
1881 -1660.449198153931
1882 -1660.97231228603
1883 -1661.258726983198
1884 -1661.734934047013
1885 -1662.00483216402
1886 -1662.427768031113
1887 -1662.650783983453
1888 -1663.018029649529
1889 -1663.184232892312
1890 -1663.401346825463
1891 -1663.64413058096
1892 -1663.839632470071
1893 -1663.963774590748
1894 -1664.213086777405
1895 -1664.314013647125
1896 -1664.452119099278
1897 -1664.58907263556
1898 -1664.686578212721
1899 -1664.739386697236
1900 -1664.840370755854
1901 -1664.855230064797
1902 -1664.894672603486
1903 -1664.867248811397
1904 -1664.847515278881
1905 -1664.780503693841
1906 -1664.671532208998
1907 -1664.550293635729
1908 -1664.382555853924
1909 -1664.237353220733
1910 -1664.018420640366
1911 -1663.817035336638
1912 -1663.538512052491
1913 -1663.303591398991
1914 -1662.958171754387
1915 -1662.679095645954
1916 -1662.271336354768
1917 -1661.967372344569
1918 -1661.528213699888
1919 -1661.058833879412
1920 -1660.761860183387
1921 -1660.294040938743
1922 -1659.869123028715
1923 -1659.566668909327
1924 -1659.149505367325
1925 -1658.686201919879
1926 -1658.294128292678
1927 -1657.895952298167
1928 -1657.573870768109
1929 -1657.258712255407
1930 -1657.00837627043
1931 -1656.771036805405
1932 -1656.627998261679
1933 -1656.44130385851
1934 -1656.343363875628
1935 -1656.223031698456
1936 -1656.190450267938
1937 -1656.167258205625
1938 -1656.197611706603
1939 -1656.267015271135
1940 -1656.449998603516
1941 -1656.62838635058
1942 -1656.893675865258
1943 -1657.042822577407
1944 -1657.386367183786
1945 -1657.718079209015
1946 -1658.020952110785
1947 -1658.480665340359
1948 -1659.060079284618
1949 -1659.443134203458
1950 -1660.098998605783
1951 -1660.743925311128
1952 -1661.226511326655
1953 -1661.923373129226
1954 -1662.639641151574
1955 -1663.09479933268
1956 -1663.823071603623
1957 -1664.497111467032
1958 -1665.247642500746
1959 -1665.909617017187
1960 -1666.586837420238
1961 -1667.20837253606
1962 -1667.89862698404
1963 -1668.46013408815
1964 -1669.044283540343
1965 -1669.401423727559
1966 -1670.012782387173
1967 -1670.492942898581
1968 -1671.043590705017
1969 -1671.320333885349
1970 -1671.834222050485
1971 -1672.247567332604
1972 -1672.732859764396
1973 -1672.989798837931
1974 -1673.438604398453
1975 -1673.859429307734
1976 -1674.174266538081
1977 -1674.608731690178
1978 -1674.938419957494
1979 -1675.368766332381
1980 -1675.710302083689
1981 -1676.169341630002
1982 -1676.532351225893
1983 -1676.997282896737
1984 -1677.327373134817
1985 -1677.81667573689
1986 -1678.174514510747
1987 -1678.588827441064
1988 -1678.883568141956
1989 -1679.264706957096
1990 -1679.488031623546
1991 -1679.658171346085
1992 -1679.86677607273
1993 -1679.919741461419
1994 -1679.977059430358
1995 -1679.956510855249
1996 -1679.951313671078
1997 -1679.827608393043
1998 -1679.697416938867
1999 -1679.398788193635
2000 -1679.151907806745
2001 -1678.829151195172
2002 -1678.468097712929
2003 -1677.815283050557
2004 -1677.39066600025
2005 -1676.830579162834
2006 -1676.236775434642
2007 -1675.227170153384
2008 -1674.531835147702
2009 -1673.780506226889
2010 -1672.651878209128
2011 -1671.843481121724
2012 -1670.607767655094
2013 -1669.745835554933
2014 -1668.463719161185
2015 -1667.571047819705
2016 -1666.310798405413
2017 -1665.063931931847
2018 -1663.91628168585
2019 -1662.791134119748
2020 -1662.161921243818
2021 -1661.175412046087
2022 -1660.295535196467
2023 -1659.489682903785
2024 -1658.834663359326
2025 -1658.223942587751
2026 -1657.801224421217
2027 -1657.39535080057
2028 -1657.168517430233
2029 -1657.014680153365
2030 -1656.964082519652
2031 -1656.973655338936
2032 -1657.105301113292
2033 -1657.275379178834
2034 -1657.482684602733
2035 -1657.851257439265
2036 -1658.309148825507
2037 -1658.628649006298
2038 -1659.209018948048
2039 -1659.560223684967
2040 -1660.196840023652
2041 -1660.595209071043
2042 -1661.266369275504
2043 -1661.659758197439
2044 -1662.331703926659
2045 -1662.746841975408
2046 -1663.211368905794
2047 -1663.858949233368
2048 -1664.322892420113
2049 -1664.728033185749
2050 -1665.401682648784
2051 -1665.790793674316
2052 -1666.403838650426
2053 -1666.74966516571
2054 -1667.348891378281
2055 -1667.676416541199
2056 -1668.170823492439
2057 -1668.448777880212
2058 -1668.857823469655
2059 -1669.071776568773
2060 -1669.416217993351
2061 -1669.605067080413
2062 -1669.883419020542
2063 -1669.992762742519
2064 -1670.219308481255
2065 -1670.295343750123
2066 -1670.430971808888
2067 -1670.451662568544
2068 -1670.521077164834
2069 -1670.516628371204
2070 -1670.524077819856
2071 -1670.468690167473
2072 -1670.44245935167
2073 -1670.343931390517
2074 -1670.284862951622
2075 -1670.114950916469
2076 -1670.026077551241
2077 -1669.808523298418
2078 -1669.695102385712
2079 -1669.426484466082
2080 -1669.291910343044
2081 -1669.001633772452
2082 -1668.847717593831
2083 -1668.57039355909
2084 -1668.405765922454
2085 -1668.122355149977
2086 -1667.960172927205
2087 -1667.659978392012
2088 -1667.404526198258
2089 -1667.182875012415
2090 -1666.934317579927
2091 -1666.64298094546
2092 -1666.3803677611
2093 -1666.079224064313
2094 -1665.86059755059
2095 -1665.587583823722
2096 -1665.360532016625
2097 -1665.075444693357
2098 -1664.837600539699
2099 -1664.552154572076
2100 -1664.321780949918
2101 -1664.051297903216
2102 -1663.789954180263
2103 -1663.460333608885
2104 -1663.117043894136
2105 -1662.701861632621
2106 -1662.312091568402
2107 -1661.987126335781
2108 -1661.52158407592
2109 -1660.935198237956
2110 -1660.355528123479
2111 -1659.879284624224
2112 -1659.163544141946
2113 -1658.371713037948
2114 -1657.8121981773
2115 -1656.818336403317
2116 -1656.153837078631
2117 -1655.01268299914
2118 -1654.249431198225
2119 -1653.011877876725
2120 -1652.180312791829
2121 -1650.818738991363
2122 -1649.452004459853
2123 -1648.502926632138
2124 -1647.08306674451
2125 -1646.06696181998
2126 -1644.55611312312
2127 -1643.026833292075
2128 -1642.047245162541
2129 -1640.496944013842
2130 -1639.030536222338
2131 -1638.014024913338
2132 -1636.593840022793
2133 -1635.136798033486
2134 -1634.261567141399
2135 -1632.905287355385
2136 -1631.70095886979
2137 -1630.480688671742
2138 -1629.745381104339
2139 -1628.645412206603
2140 -1627.659959918964
2141 -1626.714282512312
2142 -1626.151644220654
2143 -1625.266127084929
2144 -1624.47963836017
2145 -1623.730249989918
2146 -1623.30343484241
2147 -1622.649491369687
2148 -1622.083954536205
2149 -1621.684388675779
2150 -1621.233025171726
2151 -1620.703058015376
2152 -1620.402736092287
2153 -1619.934616757693
2154 -1619.683599988492
2155 -1619.281562675574
2156 -1619.064825945534
2157 -1618.684252133437
2158 -1618.461481652001
2159 -1618.05793415863
2160 -1617.838680315527
2161 -1617.443006002542
2162 -1617.249449917452
2163 -1616.942052736683
2164 -1616.745008167001
2165 -1616.40186427591
2166 -1616.210514708614
2167 -1615.921420035106
2168 -1615.775846049584
2169 -1615.511604298885
2170 -1615.421958024482
2171 -1615.297174420778
2172 -1615.266952839164
2173 -1615.23005616742
2174 -1615.243437911166
2175 -1615.291795760198
2176 -1615.384035206835
2177 -1615.462667586437
2178 -1615.693585147226
2179 -1615.850891382405
2180 -1616.067674281964
2181 -1616.41830794117
2182 -1616.733987858569
2183 -1617.028143362932
2184 -1617.576022194817
2185 -1617.907369157654
2186 -1618.282897128475
2187 -1618.865381347397
2188 -1619.252705167134
2189 -1619.819232478995
2190 -1620.255922768225
2191 -1620.841821078487
2192 -1621.253726798366
2193 -1621.790453499554
2194 -1622.175989142027
2195 -1622.696490190022
2196 -1623.043495652485
2197 -1623.515170646791
2198 -1623.792385111834
2199 -1624.109844513465
2200 -1624.334418267297
2201 -1624.535514147256
2202 -1624.668285226311
2203 -1624.721332892487
2204 -1624.745611949149
2205 -1624.635424877516
2206 -1624.575404514688
2207 -1624.349886105064
2208 -1624.191318501428
2209 -1623.951611827265
2210 -1623.561994278844
2211 -1623.251913534459
2212 -1622.819940973867
2213 -1622.456701606263
2214 -1622.134510475029
2215 -1621.591584781146
2216 -1621.235121819555
2217 -1620.796597595637
2218 -1620.262589858737
2219 -1619.874427612927
2220 -1619.538992965645
2221 -1619.031731940061
2222 -1618.731649669546
2223 -1618.253208125242
2224 -1618.014384570281
2225 -1617.657969979346
2226 -1617.513340699385
2227 -1617.281655570043
2228 -1617.22008304908
2229 -1617.144480789953
2230 -1617.151767808731
2231 -1617.179706000835
2232 -1617.272668890412
2233 -1617.44480133353
2234 -1617.661337118484
2235 -1617.991976456312
2236 -1618.256013809023
2237 -1618.660534237481
2238 -1618.983195025719
2239 -1619.480354217004
2240 -1619.875112254697
2241 -1620.466083093925
2242 -1620.87897325368
2243 -1621.487089742487
2244 -1621.989734067551
2245 -1622.456277712713
2246 -1623.219825116292
2247 -1623.718448502326
2248 -1624.521365504334
2249 -1625.026279593301
2250 -1625.613469434417
2251 -1626.472437565482
2252 -1627.095246002087
2253 -1628.003188202611
2254 -1628.624335242956
2255 -1629.533227834448
2256 -1630.186246837565
2257 -1631.116609936683
2258 -1631.777513282691
2259 -1632.396375703335
2260 -1633.39814123768
2261 -1634.023794367818
2262 -1635.026044087121
2263 -1635.669008534754
2264 -1636.689111524154
2265 -1637.359862727842
2266 -1638.05853624375
2267 -1639.040371954246
2268 -1639.739521670175
2269 -1640.728686727509
2270 -1641.41051203609
2271 -1642.3866478021
2272 -1643.070338169266
2273 -1644.034107960464
2274 -1644.719213158282
2275 -1645.700480253182
2276 -1646.388061813094
2277 -1647.359868480921
2278 -1648.027363644633
2279 -1648.947561583368
2280 -1649.604227712059
2281 -1650.550416811458
2282 -1651.179678191489
2283 -1652.06839068798
2284 -1652.692498261901
2285 -1653.536574214794
2286 -1654.098441461417
2287 -1654.902661142837
2288 -1655.455634467036
2289 -1656.202672915698
2290 -1656.715521605711
2291 -1657.37444475601
2292 -1657.834699020574
2293 -1658.44279207499
2294 -1658.827439189444
2295 -1659.314910283405
2296 -1659.65916856493
2297 -1659.926550602094
2298 -1660.325780704818
2299 -1660.551674619646
2300 -1660.786372001428
2301 -1661.053780861861
2302 -1661.226984353984
2303 -1661.32910396551
2304 -1661.444741892246
2305 -1661.471644890961
2306 -1661.527686215623
2307 -1661.472933238122
2308 -1661.457114487199
2309 -1661.322494711089
2310 -1661.079591031333
2311 -1660.85358201434
2312 -1660.628544220921
2313 -1660.206216894111
2314 -1659.931833001143
2315 -1659.389886614179
2316 -1659.02307043161
2317 -1658.383720318777
2318 -1657.977263070072
2319 -1657.220415382837
2320 -1656.727730798102
2321 -1655.887486469683
2322 -1655.331050832882
2323 -1654.469509700953
2324 -1653.611775096928
2325 -1652.703648707698
2326 -1651.814809685929
2327 -1650.924667447488
2328 -1650.139711434887
2329 -1649.342418297299
2330 -1648.575298136283
2331 -1647.837855747139
2332 -1647.220556932328
2333 -1646.585203253941
2334 -1646.04050656514
2335 -1645.515623068052
2336 -1645.097276231082
2337 -1644.659483341874
2338 -1644.351947946031
2339 -1644.03614629462
2340 -1643.848386953263
2341 -1643.664547458409
2342 -1643.588304396848
2343 -1643.534856584053
2344 -1643.589153858154
2345 -1643.667815327389
2346 -1643.817797222256
2347 -1643.954769575391
2348 -1644.195904193762
2349 -1644.438655227375
2350 -1644.748156441256
2351 -1645.055772897695
2352 -1645.307248454445
2353 -1645.660193792676
2354 -1645.937228741812
2355 -1646.288963789922
2356 -1646.543261388529
2357 -1646.862790457847
2358 -1647.112345966753
2359 -1647.435962288477
2360 -1647.628467622924
2361 -1647.829033262207
2362 -1647.974350363231
2363 -1648.119549891384
2364 -1648.214674547753
2365 -1648.249543370486
2366 -1648.271589225255
2367 -1648.194963452892
2368 -1648.129858786561
2369 -1647.911443773551
2370 -1647.75991022599
2371 -1647.411295765438
2372 -1647.043777081815
2373 -1646.719324027748
2374 -1646.228491698243
2375 -1645.843251147279
2376 -1645.263077895007
2377 -1644.829952083573
2378 -1644.159159598201
2379 -1643.648260925587
2380 -1642.917499877572
2381 -1642.380723325113
2382 -1641.640230249409
2383 -1641.088815525482
2384 -1640.337623211844
2385 -1639.797954081513
2386 -1639.013607277094
2387 -1638.491392733519
2388 -1637.787521865315
2389 -1637.065614784253
2390 -1636.667681064146
2391 -1636.045249319696
2392 -1635.520660598728
2393 -1635.044658159219
2394 -1634.789936887119
2395 -1634.392092488773
2396 -1634.100261372409
2397 -1633.835794168161
2398 -1633.638239171276
2399 -1633.450982902133
2400 -1633.364360641344
2401 -1633.295450169539
2402 -1633.282564445541
2403 -1633.254562870609
2404 -1633.250906139938
2405 -1633.225374590096
2406 -1633.252281898639
2407 -1633.238448863104
2408 -1633.238483870242
2409 -1633.202651503964
2410 -1633.192196507412
2411 -1633.095350606984
2412 -1633.02880187251
2413 -1632.838106557581
2414 -1632.716649076248
2415 -1632.415223991178
2416 -1632.216342095712
2417 -1631.807738299719
2418 -1631.540153383851
2419 -1631.010313711477
2420 -1630.625130626735
2421 -1629.935865286817
2422 -1629.478940342267
2423 -1628.680043036843
2424 -1628.145121995173
2425 -1627.239171419741
2426 -1626.337477004663
2427 -1625.676239363777
2428 -1624.688600610341
2429 -1623.979287563921
2430 -1622.932028694488
2431 -1622.166484832714
2432 -1621.031715632952
2433 -1620.270289112294
2434 -1619.156053855527
2435 -1618.381248677068
2436 -1617.268283947836
2437 -1616.49597933625
2438 -1615.414239870472
2439 -1614.644221566592
2440 -1613.580674333409
2441 -1612.864390986747
2442 -1611.876182423988
2443 -1611.229171928817
2444 -1610.350625365557
2445 -1609.774213052624
2446 -1609.005536262461
2447 -1608.51886506908
2448 -1607.915444259258
2449 -1607.517694314482
2450 -1607.035269269015
2451 -1606.746352108571
2452 -1606.432904537859
2453 -1606.243910974745
2454 -1606.082040205911
2455 -1606.007113409133
2456 -1606.019175143474
2457 -1606.053875738721
2458 -1606.146947893527
2459 -1606.349436011657
2460 -1606.566784918702
2461 -1606.808500285576
2462 -1607.119615004008
2463 -1607.652537623387
2464 -1608.073785579674
2465 -1608.523228595709
2466 -1609.039125454232
2467 -1609.556975331747
2468 -1610.154549949219
2469 -1610.746428095909
2470 -1611.733388053343
2471 -1612.38891991567
2472 -1613.090515106759
2473 -1614.151038399762
2474 -1614.851257110084
2475 -1615.857946866723
2476 -1616.536845564245
2477 -1617.515318071619
2478 -1618.15932917083
2479 -1619.025100514646
2480 -1619.601351736853
2481 -1620.34704526205
2482 -1621.074450508504
2483 -1621.474963332839
2484 -1622.026601820816
2485 -1622.479628906933
2486 -1622.748600720402
2487 -1623.048280201953
2488 -1623.298124833336
2489 -1623.376740483387
2490 -1623.44076539297
2491 -1623.41165683425
2492 -1623.315638813478
2493 -1623.186289110246
2494 -1622.971813016136
2495 -1622.747930399749
2496 -1622.390227393083
2497 -1622.082857444268
2498 -1621.590365610769
2499 -1621.215783603133
2500 -1620.619082038156
2501 -1620.189859931978
2502 -1619.763638840154
2503 -1619.061388509198
2504 -1618.631191568911
2505 -1618.134951531963
2506 -1617.438267520287
2507 -1616.959026476179
2508 -1616.500419791445
2509 -1615.831376300413
2510 -1615.41780469372
2511 -1614.78568186868
2512 -1614.409524971212
2513 -1613.848918570646
2514 -1613.544609038228
2515 -1613.085352439694
2516 -1612.835532202673
2517 -1612.469167877339
2518 -1612.291779586392
2519 -1612.067929035245
2520 -1611.961395814594
2521 -1611.796472425092
2522 -1611.746224985328
2523 -1611.706278669406
2524 -1611.752030436237
2525 -1611.787435644397
2526 -1611.868162692268
2527 -1612.000687642427
2528 -1612.140327827362
2529 -1612.276463847847
2530 -1612.484147709936
2531 -1612.709619028521
2532 -1612.982539087907
2533 -1613.241942236738
2534 -1613.566513874138
2535 -1613.886129957785
2536 -1614.219399740522
2537 -1614.545832359594
2538 -1614.929537630026
2539 -1615.498178936839
2540 -1615.916312636668
2541 -1616.313012459163
2542 -1616.941911060455
2543 -1617.335938684268
2544 -1617.963120428621
2545 -1618.346379361211
2546 -1618.939895840155
2547 -1619.288979329644
2548 -1619.836758632069
2549 -1620.146363842937
2550 -1620.654370715615
2551 -1620.932834561585
2552 -1621.375445588729
2553 -1621.614761547119
2554 -1621.981310187089
2555 -1622.267950080926
2556 -1622.446699782652
2557 -1622.662912633635
2558 -1622.815600304467
2559 -1622.98407146362
2560 -1623.171333648979
2561 -1623.246302590984
2562 -1623.393247109197
2563 -1623.43506141495
2564 -1623.571337318581
2565 -1623.60739115814
2566 -1623.695680798312
2567 -1623.732706583396
2568 -1623.834274426358
2569 -1623.883044367311
2570 -1623.995098166692
2571 -1624.052413573505
2572 -1624.195000098422
2573 -1624.2750762613
2574 -1624.459104590414
2575 -1624.567572315588
2576 -1624.778982112348
2577 -1624.901686654378
2578 -1625.157156192769
2579 -1625.318950848194
2580 -1625.624219161843
2581 -1625.817339674619
2582 -1626.159451689632
2583 -1626.369009684825
2584 -1626.717998565968
2585 -1626.935732751017
2586 -1627.322221777516
2587 -1627.531331320778
2588 -1627.905431030927
2589 -1628.115062799183
2590 -1628.442929043553
2591 -1628.631597483219
2592 -1628.952026472446
2593 -1629.123016039026
2594 -1629.385708705752
2595 -1629.519359536882
2596 -1629.711396830377
2597 -1629.7658290972
2598 -1629.856017993886
2599 -1629.865648433041
2600 -1629.857896534468
2601 -1629.80431312607
2602 -1629.686123022723
2603 -1629.543680179683
2604 -1629.3050131099
2605 -1629.077418731482
2606 -1628.72726604449
2607 -1628.445721166865
2608 -1627.992605865388
2609 -1627.628663052875
2610 -1627.056558957654
2611 -1626.398774751958
2612 -1625.959434928895
2613 -1625.222216212534
2614 -1624.749110195979
2615 -1623.943292125596
2616 -1623.120420696945
2617 -1622.561234879631
2618 -1621.75741498045
2619 -1620.947600985792
2620 -1620.448784734311
2621 -1619.652444760639
2622 -1618.962004890739
2623 -1618.476719941607
2624 -1617.803094169913
2625 -1617.165225601594
2626 -1616.824514340851
2627 -1616.307327305581
2628 -1615.900660577952
2629 -1615.525677895817
2630 -1615.320496754084
2631 -1615.079663352894
2632 -1614.950221139502
2633 -1614.826047886259
2634 -1614.862943684409
2635 -1614.951058198659
2636 -1615.154570202013
2637 -1615.314751790776
2638 -1615.710485963775
2639 -1615.971605571446
2640 -1616.47967253469
2641 -1616.819599252528
2642 -1617.404719638317
2643 -1617.82605198141
2644 -1618.567702705079
2645 -1619.060224823922
2646 -1619.902315838656
2647 -1620.445461813574
2648 -1621.336425938725
2649 -1621.92672237263
2650 -1622.857322445024
2651 -1623.458081069642
2652 -1624.396700300424
2653 -1624.984740251606
2654 -1625.869221603605
2655 -1626.424623697109
2656 -1627.287358275655
2657 -1628.030336426687
2658 -1628.52065110006
2659 -1629.177857149112
2660 -1629.770679325996
2661 -1630.093606869704
2662 -1630.538964796204
2663 -1630.85427922053
2664 -1631.055878409996
2665 -1631.24290374659
2666 -1631.329843578514
2667 -1631.363869221144
2668 -1631.335607818441
2669 -1631.152039450705
2670 -1630.999853168307
2671 -1630.651639047374
2672 -1630.399809462892
2673 -1629.92884807478
2674 -1629.581732098873
2675 -1629.184648088071
2676 -1628.544157411603
2677 -1628.055676944939
2678 -1627.588560339819
2679 -1626.833043208888
2680 -1626.343112278425
2681 -1625.808096248495
2682 -1625.30056428811
2683 -1624.478593568321
2684 -1623.96179471928
2685 -1623.423555673977
2686 -1622.664536993414
2687 -1622.168246852792
2688 -1621.491109899578
2689 -1621.036460876317
2690 -1620.445029654836
2691 -1620.067927110317
2692 -1619.604399802862
2693 -1619.327403932187
2694 -1618.989346551251
2695 -1618.779813752281
2696 -1618.568169136838
2697 -1618.367203332637
2698 -1618.297884878975
2699 -1618.242507598236
2700 -1618.23356757268
2701 -1618.243840858949
2702 -1618.297467119195
2703 -1618.374611440042
2704 -1618.449074218122
2705 -1618.567717994593
2706 -1618.67448424153
2707 -1618.800573473686
2708 -1618.928833779528
2709 -1619.096487936345
2710 -1619.23401084519
2711 -1619.338480286684
2712 -1619.506785539088
2713 -1619.602066583102
2714 -1619.699181017725
2715 -1619.7777571068
2716 -1619.833745148259
2717 -1619.858429328627
2718 -1619.869969389078
2719 -1619.834872168814
2720 -1619.820194589887
2721 -1619.728586232903
2722 -1619.658227524501
2723 -1619.460059845446
2724 -1619.349555436278
2725 -1619.140299839044
2726 -1618.973100320438
2727 -1618.644620786239
2728 -1618.425888273085
2729 -1618.023649747913
2730 -1617.751625392572
2731 -1617.292619891929
2732 -1617.011226522185
2733 -1616.513575586124
2734 -1616.234518233811
2735 -1615.768962390711
2736 -1615.488450336858
2737 -1615.071853843843
2738 -1614.853965559425
2739 -1614.506392509307
2740 -1614.331385120906
2741 -1614.089368075933
2742 -1613.963817737429
2743 -1613.834589411449
2744 -1613.806324154457
2745 -1613.801516463962
2746 -1613.863584393032
2747 -1614.014689772955
2748 -1614.198259245454
2749 -1614.556365349184
2750 -1614.831172554437
2751 -1615.26265499939
2752 -1615.632951345415
2753 -1616.219862907761
2754 -1616.703647440268
2755 -1617.4565652187
2756 -1617.996409924587
2757 -1618.833432631144
2758 -1619.477185281475
2759 -1620.453543607542
2760 -1621.132946559238
2761 -1621.810403614536
2762 -1622.904807915614
2763 -1623.599005524333
2764 -1624.641533205888
2765 -1625.288401792368
2766 -1626.292696702404
2767 -1626.895873405281
2768 -1627.799085415869
2769 -1628.343800011706
2770 -1629.116700892261
2771 -1629.567256666642
2772 -1630.268913712218
2773 -1630.83272025125
2774 -1631.147528593767
2775 -1631.508530509784
2776 -1631.821686334712
2777 -1631.942014222601
2778 -1632.100284429961
2779 -1632.106279523059
2780 -1632.073239676629
2781 -1631.921955740967
2782 -1631.713184878753
2783 -1631.492215085003
2784 -1631.098659855476
2785 -1630.808171023929
2786 -1630.391816692284
2787 -1630.041578827694
2788 -1629.535459791168
2789 -1629.146188338366
2790 -1628.605328937707
2791 -1628.209285074522
2792 -1627.650008692187
2793 -1627.251947392964
2794 -1626.919180621376
2795 -1626.374789522972
2796 -1626.055950984282
2797 -1625.575107729457
2798 -1625.310320476338
2799 -1624.894412055508
2800 -1624.66354656663
2801 -1624.336127578931
2802 -1624.179794949196
2803 -1623.94555518189
2804 -1623.842692411753
2805 -1623.669497300473
2806 -1623.606986905269
2807 -1623.523272636468
2808 -1623.476557489518
2809 -1623.40159373398
2810 -1623.390692302174
2811 -1623.377306487124
2812 -1623.435602443131
2813 -1623.416841475722
2814 -1623.445089265464
2815 -1623.44066896847
2816 -1623.475281675793
2817 -1623.479485558181
2818 -1623.512239342921
2819 -1623.506623300143
2820 -1623.533029998707
2821 -1623.511797482949
2822 -1623.511230413072
2823 -1623.464838015366
2824 -1623.440899146906
2825 -1623.370812947961
2826 -1623.312924041243
2827 -1623.22367809864
2828 -1623.167772220583
2829 -1623.086742462438
2830 -1623.012323651267
2831 -1622.911492177751
2832 -1622.799218176878
2833 -1622.672394479426
2834 -1622.56602600464
2835 -1622.415060931603
2836 -1622.29314876475
2837 -1622.139979695338
2838 -1622.01707689596
2839 -1621.887008959349
2840 -1621.741025449867
2841 -1621.582694433255
2842 -1621.46758270148
2843 -1621.312599898502
2844 -1621.170186309978
2845 -1620.993277884488
2846 -1620.853484906205
2847 -1620.681621716769
2848 -1620.520316466749
2849 -1620.337927880414
2850 -1620.146540491675
2851 -1619.921009575761
2852 -1619.729205360263
2853 -1619.491766871347
2854 -1619.244287022808
2855 -1618.982684243608
2856 -1618.596884811055
2857 -1618.321198734388
2858 -1618.079086680928
2859 -1617.806470605941
2860 -1617.440975165559
2861 -1617.179315733355
2862 -1616.967710236956
2863 -1616.555820757368
2864 -1616.305486696509
2865 -1616.047220349118
2866 -1615.73179143201
2867 -1615.513205105821
2868 -1615.374147521863
2869 -1615.150701708046
2870 -1615.081885020264
2871 -1615.000207569551
2872 -1614.950301881016
2873 -1614.946326686805
2874 -1615.022595230427
2875 -1615.139533962821
2876 -1615.27487867704
2877 -1615.447226376971
2878 -1615.693539907788
2879 -1616.063204824744
2880 -1616.391446033277
2881 -1616.71002283457
2882 -1617.088991415228
2883 -1617.692822932229
2884 -1618.143973143084
2885 -1618.625080274428
2886 -1619.161085470927
2887 -1619.945474234068
2888 -1620.526638422794
2889 -1621.1150513216
2890 -1621.746475759677
2891 -1622.61523949063
2892 -1623.205725485612
2893 -1623.772193284004
2894 -1624.633832195938
2895 -1625.156417893156
2896 -1625.689760440263
2897 -1626.378663441507
2898 -1626.828027474521
2899 -1627.205875113847
2900 -1627.735287404287
2901 -1628.026721137848
2902 -1628.296050562177
2903 -1628.472801807659
2904 -1628.703780414065
2905 -1628.779449752905
2906 -1628.82944077503
2907 -1628.787114739968
2908 -1628.691345684869
2909 -1628.524742846904
2910 -1628.317675512221
2911 -1628.026398632876
2912 -1627.701698065256
2913 -1627.27414177351
2914 -1626.829485513904
2915 -1626.335557296285
2916 -1625.820086939862
2917 -1625.247743087915
2918 -1624.646590748505
2919 -1623.994452463557
2920 -1623.357821291824
2921 -1622.676035434119
2922 -1622.019140936152
2923 -1621.291855238979
2924 -1620.619613228306
2925 -1619.91097347718
2926 -1619.224317808799
2927 -1618.199440384908
2928 -1617.553455258008
2929 -1616.896601508273
2930 -1615.976412300568
2931 -1615.379383088818
2932 -1614.812709408581
2933 -1613.994436172198
2934 -1613.499525140127
2935 -1613.014671426162
2936 -1612.359491739616
2937 -1611.933026930969
2938 -1611.548893500386
2939 -1611.015780313465
2940 -1610.721475574659
2941 -1610.426925088105
2942 -1610.178177289179
2943 -1609.764020431747
2944 -1609.551152245087
2945 -1609.306397507904
2946 -1609.094485366524
2947 -1608.88283697596
2948 -1608.616707979652
2949 -1608.399658022369
2950 -1608.197239067599
2951 -1607.968114068152
2952 -1607.761780236852
2953 -1607.493735396178
2954 -1607.250592367254
2955 -1606.959619816392
2956 -1606.6680014598
2957 -1606.325867018039
2958 -1605.984733412523
2959 -1605.599765053741
2960 -1604.997594384887
2961 -1604.583988642778
2962 -1604.157342518236
2963 -1603.700733603008
2964 -1603.233218430414
2965 -1602.472553690772
2966 -1601.987808085422
2967 -1601.457254829677
2968 -1600.953204000313
2969 -1600.150052366349
2970 -1599.652749810774
2971 -1599.11180002282
2972 -1598.350469484529
2973 -1597.805315051075
2974 -1597.311186500506
2975 -1596.571615323413
2976 -1596.114435730311
2977 -1595.65140439118
2978 -1595.026741213865
2979 -1594.614359582219
2980 -1594.248668176265
2981 -1593.702887768432
2982 -1593.392418911074
2983 -1593.058483594785
2984 -1592.637156916168
2985 -1592.370710254503
2986 -1592.169373384823
2987 -1591.868264973769
2988 -1591.714977251431
2989 -1591.567668735463
2990 -1591.417167570084
2991 -1591.339621269634
2992 -1591.312322913199
2993 -1591.283562262897
2994 -1591.293141610547
2995 -1591.272929332762
2996 -1591.301237853809
2997 -1591.337022501106
2998 -1591.396907340353
2999 -1591.424787777745
3000 -1591.487072485418
3001 -1591.497217032532
3002 -1591.527041275348
3003 -1591.500251081935
3004 -1591.478294732814
3005 -1591.421651647701
3006 -1591.382975089751
3007 -1591.271521567691
3008 -1591.193504671455
3009 -1591.048587601927
3010 -1590.897055878424
3011 -1590.660845160911
3012 -1590.409574159652
3013 -1590.112239370611
3014 -1589.632117202506
3015 -1589.224141383356
3016 -1588.803352837609
3017 -1588.333732443378
3018 -1587.859805501968
3019 -1587.299655916564
3020 -1586.717873476199
3021 -1586.089794931474
3022 -1585.459402120809
3023 -1584.438977607875
3024 -1583.771617220417
3025 -1583.029366366376
3026 -1582.315709385838
3027 -1581.543753458399
3028 -1580.795982910627
3029 -1579.626714833894
3030 -1578.886907084588
3031 -1578.122663068585
3032 -1577.393700242089
3033 -1576.295395639991
3034 -1575.62724898765
3035 -1574.961680049551
3036 -1574.056264007488
3037 -1573.462454404877
3038 -1572.95038439365
3039 -1572.206267455081
3040 -1571.810843678742
3041 -1571.429043190113
3042 -1570.982614629203
3043 -1570.701499203766
3044 -1570.501703888275
3045 -1570.312785563858
3046 -1570.165125570718
3047 -1570.087613480241
3048 -1570.08280002298
3049 -1570.101689157428
3050 -1570.189679418853
3051 -1570.307048290849
3052 -1570.479331420792
3053 -1570.662636011914
3054 -1570.929899510233
3055 -1571.198758669476
3056 -1571.538432499978
3057 -1571.868947231639
3058 -1572.264393201669
3059 -1572.653649106181
3060 -1573.088602743532
3061 -1573.514093955396
3062 -1573.976322283225
3063 -1574.644374067853
3064 -1575.122141682363
3065 -1575.577617760344
3066 -1576.283601202016
3067 -1576.71369561323
3068 -1577.378330442939
3069 -1577.770875040708
3070 -1578.353447692916
3071 -1578.706260968353
3072 -1579.218510108921
3073 -1579.499253624189
3074 -1579.927106718931
3075 -1580.150498603332
3076 -1580.474706134272
3077 -1580.703702914202
3078 -1580.847842402064
3079 -1580.98899129164
3080 -1581.121671872416
3081 -1581.151076672357
3082 -1581.162112558981
3083 -1581.102043269795
3084 -1581.069032016669
3085 -1580.931962005097
3086 -1580.83797440837
3087 -1580.627519551838
3088 -1580.518553402666
3089 -1580.275470209397
3090 -1580.139244351234
3091 -1579.901062198099
3092 -1579.776415682046
3093 -1579.556748126839
3094 -1579.408293655042
3095 -1579.151462425646
3096 -1579.014940592008
3097 -1578.733244198986
3098 -1578.597471887581
3099 -1578.434454112341
3100 -1578.227212464038
3101 -1578.052733107341
3102 -1577.858247248583
3103 -1577.720547649197
3104 -1577.536833119171
3105 -1577.387637467361
3106 -1577.20137593033
3107 -1577.084978820463
3108 -1576.92602497585
3109 -1576.801965390493
3110 -1576.661262975852
3111 -1576.538290299138
3112 -1576.380900044687
3113 -1576.243404264364
3114 -1576.079835073901
3115 -1575.932949432101
3116 -1575.767452520796
3117 -1575.613250137172
3118 -1575.41823263192
3119 -1575.274174208189
3120 -1575.113646118013
3121 -1574.981600387949
3122 -1574.828070229348
3123 -1574.716236623727
3124 -1574.581913469223
3125 -1574.470265861762
3126 -1574.405324612521
3127 -1574.326587635881
3128 -1574.281758946011
3129 -1574.255382238377
3130 -1574.30107574348
3131 -1574.34331108763
3132 -1574.477976002614
3133 -1574.547169382829
3134 -1574.748121440015
3135 -1574.910849550662
3136 -1575.197671300824
3137 -1575.397257628858
3138 -1575.791022500252
3139 -1576.06636033668
3140 -1576.511142840392
3141 -1576.811518424153
3142 -1577.353407411139
3143 -1577.712630316656
3144 -1578.30711604478
3145 -1578.706282818653
3146 -1579.338497410406
3147 -1579.954644847063
3148 -1580.413082526353
3149 -1581.061240948879
3150 -1581.724941399626
3151 -1582.168929040704
3152 -1582.871279856205
3153 -1583.495397685424
3154 -1583.920379399433
3155 -1584.512986251728
3156 -1585.083262940427
3157 -1585.411573435365
3158 -1585.892496834153
3159 -1586.316947629216
3160 -1586.629875092532
3161 -1586.998305220112
3162 -1587.400798111134
3163 -1587.576748553942
3164 -1587.855770202329
3165 -1587.998079526376
3166 -1588.311067609787
3167 -1588.443753584135
3168 -1588.652090511291
3169 -1588.753818767604
3170 -1588.992643930564
3171 -1589.101919247611
3172 -1589.294603684013
3173 -1589.389605397932
3174 -1589.551745832666
3175 -1589.671371883477
3176 -1589.86828918453
3177 -1589.981672806276
3178 -1590.226032884036
3179 -1590.38851025576
3180 -1590.690966097751
3181 -1590.873714862898
3182 -1591.186982853387
3183 -1591.427538456964
3184 -1591.905368510151
3185 -1592.253207020935
3186 -1592.799227340563
3187 -1593.144139338235
3188 -1593.783401521724
3189 -1594.202652715789
3190 -1594.879775061446
3191 -1595.363454779794
3192 -1596.159061824315
3193 -1596.713447067812
3194 -1597.620667672041
3195 -1598.236563315214
3196 -1599.178651722548
3197 -1599.809324874427
3198 -1600.814914513061
3199 -1601.498609681922
3200 -1602.520187514661
3201 -1603.208584591961
3202 -1604.274699595385
3203 -1604.97354528047
3204 -1606.041085180558
3205 -1606.694909479571
3206 -1607.688036098142
3207 -1608.340177555329
3208 -1609.308308178143
3209 -1609.915885967141
3210 -1610.840134202492
3211 -1611.399447919879
3212 -1611.954554416609
3213 -1612.686193418003
3214 -1613.151050937842
3215 -1613.550703648064
3216 -1614.158323546776
3217 -1614.477950237767
3218 -1614.788767732841
3219 -1615.057133309589
3220 -1615.402102578328
3221 -1615.572326560605
3222 -1615.72511238221
3223 -1615.822884791116
3224 -1615.909768998637
3225 -1615.908405308728
3226 -1615.951300850397
3227 -1615.879438662086
3228 -1615.796898729293
3229 -1615.672399757775
3230 -1615.497597373808
3231 -1615.248844478031
3232 -1614.956435797163
3233 -1614.620639176685
3234 -1614.269510433374
3235 -1613.850351810703
3236 -1613.442540813206
3237 -1613.012631549431
3238 -1612.603218956764
3239 -1612.132875377239
3240 -1611.679918541812
3241 -1611.215969646528
3242 -1610.775255955137
3243 -1610.332145973052
3244 -1609.939491170828
3245 -1609.375535415932
3246 -1609.030163738274
3247 -1608.670446721889
3248 -1608.399540426102
3249 -1608.034261736103
3250 -1607.882499080208
3251 -1607.784399118787
3252 -1607.733838249334
3253 -1607.783223995592
3254 -1607.936165226749
3255 -1608.210782246705
3256 -1608.482419530475
3257 -1608.792817368074
3258 -1609.384569675528
3259 -1609.773527239944
3260 -1610.48257043354
3261 -1610.971853370338
3262 -1611.885841925638
3263 -1612.487542716287
3264 -1613.517555816388
3265 -1614.22698073858
3266 -1615.363299570834
3267 -1616.119678041314
3268 -1617.295837257716
3269 -1618.048792480546
3270 -1619.218554006915
3271 -1620.362443649866
3272 -1621.451181666956
3273 -1622.509719423217
3274 -1623.590203170132
3275 -1624.545561138609
3276 -1625.468214688136
3277 -1626.333967138313
3278 -1627.143885736957
