"x-rfile"
"Iteration" "x"
("Iteration" "x")
1 3109.943178714027
2 2763.996991694699
3 1914.244745992237
4 1404.119867399412
5 986.7370074799783
6 686.1545418643691
7 497.6500470886064
8 377.4383234144969
9 282.2786322248148
10 196.8208456462833
11 111.9155741418113
12 36.20978585169161
13 -31.25259525076282
14 -83.13221708556318
15 -129.934303912645
16 -169.9362207127654
17 -204.0687885783466
18 -232.8375017356926
19 -256.4002051966153
20 -276.1498817778656
21 -293.0682806142666
22 -306.4385100712951
23 -318.9904136105077
24 -327.5009645968207
25 -334.8079103914742
26 -339.5515849299658
27 -343.3625216745496
28 -345.4989881520407
29 -346.5504249139963
30 -346.7737261078667
31 -346.3612579264315
32 -345.3559526265923
33 -343.7858267240709
34 -342.0251098225552
35 -339.9638539351407
36 -338.1099496233997
37 -336.1477265835209
38 -334.0226735611465
39 -332.8913349746554
40 -331.5422311026988
41 -330.8998158895412
42 -330.5393772477778
43 -330.5307161974446
44 -330.6421679477687
45 -331.1657471205335
46 -331.7407485026612
47 -332.5101539540059
48 -333.2398565694854
49 -334.244202016371
50 -335.0892244135611
51 -336.0389168112014
52 -336.8171770397793
53 -337.5026296719589
54 -338.0589274211425
55 -338.4314030936669
56 -338.566175484068
57 -338.650307062204
58 -338.3423556318671
59 -337.9841151519465
60 -337.2822121721138
61 -336.5193559565823
62 -335.5288234141314
63 -334.5127367425401
64 -333.3244079810365
65 -332.0814065420368
66 -330.6951725221668
67 -329.3387630255043
68 -327.7191486249156
69 -326.1815045024726
70 -324.5095197445193
71 -322.9310180638042
72 -320.5682821051997
73 -318.9170680724571
74 -317.1594043972411
75 -315.453309771167
76 -313.0825538710613
77 -311.6188157627805
78 -309.8475817124505
79 -307.6461796186659
80 -306.0848938328116
81 -304.5145670891262
82 -302.3169528223773
83 -300.9381688197696
84 -298.8934306073084
85 -297.5520031241201
86 -295.6273988661356
87 -294.2871091510115
88 -292.3481667299368
89 -291.1748826371444
90 -289.3554066749728
91 -288.2105938970806
92 -286.3909749202206
93 -285.155222478579
94 -283.2759439066822
95 -282.176589913046
96 -280.1828404491355
97 -279.144152994236
98 -277.351488295174
99 -276.1506111887074
100 -274.2964955265115
101 -272.7220598208193
102 -271.3002181345492
103 -269.6407206848292
104 -267.8257907910523
105 -266.3306106203291
106 -264.5519526529346
107 -263.0832754650056
108 -261.3859741375219
109 -259.9998887289855
110 -258.3493790225921
111 -256.9452993153109
112 -255.4014634537351
113 -254.103621933227
114 -252.6722787169863
115 -251.4246660700308
116 -250.104136353163
117 -248.810554425
118 -247.426039392812
119 -246.1923334039713
120 -244.7643117222915
121 -243.3840369772206
122 -241.9878896251127
123 -240.7163892606298
124 -239.2381025711921
125 -237.9224670502086
126 -236.3877692460269
127 -234.9855274086939
128 -233.3389485861439
129 -231.8470609621816
130 -229.8806704804518
131 -228.3767830803698
132 -226.6772497470615
133 -224.7456375665676
134 -223.1164882980872
135 -221.5959239025797
136 -219.5157372388091
137 -218.0132857011818
138 -215.9522955293235
139 -214.4829639614287
140 -212.5381202817815
141 -211.1394559515922
142 -209.1743662998412
143 -207.6092469910729
144 -205.5954872577639
145 -204.0613678109383
146 -201.9223387661212
147 -200.3299508318782
148 -198.0670503340286
149 -196.1093715198504
150 -194.3690613759287
151 -192.1444762678872
152 -189.9598443451659
153 -187.8974205839978
154 -185.6585798653483
155 -183.7222390710912
156 -181.5558845682128
157 -179.5814959315422
158 -177.5141087840046
159 -175.4627351893118
160 -173.400110169556
161 -171.4573885407406
162 -169.4549426018918
163 -167.5573100518329
164 -165.5548554143771
165 -163.6193140020405
166 -161.4493165380884
167 -159.6267631810352
168 -157.5839355574876
169 -155.7110229081814
170 -153.6889817001687
171 -151.7943719335508
172 -149.7225315919891
173 -147.7493042226625
174 -145.633511842921
175 -143.666732365183
176 -141.5502804565594
177 -139.5635860192387
178 -137.5512387062254
179 -135.6452470051337
180 -133.6099252680223
181 -131.6420355187958
182 -129.529105161302
183 -127.5617044390152
184 -125.4635436047617
185 -123.4489894254279
186 -121.2769444729287
187 -119.3268348132571
188 -117.1488738559791
189 -115.2036808201842
190 -113.0703318382934
191 -111.0577234507122
192 -108.9624452269606
193 -106.9847911976227
194 -104.9125293440739
195 -102.9959230823119
196 -100.9575669695386
197 -99.0828236974974
198 -96.95529865603768
199 -94.6535116751175
200 -92.6206352369999
201 -90.79316697586249
202 -88.77851140655883
203 -86.94096633846239
204 -84.88212204166136
205 -82.58968776526
206 -80.59992399616785
207 -78.6988069148406
208 -76.68358953301684
209 -74.85199340157489
210 -72.53241895059718
211 -70.76162590797416
212 -68.85493124750919
213 -66.60573077625332
214 -64.67559736690012
215 -62.86926209014164
216 -60.618366323377
217 -58.87908907630712
218 -56.98911465456978
219 -54.90173958317002
220 -53.02882501954034
221 -51.33359647476505
222 -49.10920986165549
223 -47.45411417860878
224 -45.61157040142605
225 -43.55754651167867
226 -41.78873033999628
227 -40.09592091329862
228 -37.9759495124992
229 -36.43111570598342
230 -34.64500159680919
231 -33.05203241512415
232 -31.25779386538372
233 -29.30002086574754
234 -27.51500161848713
235 -25.92356628141395
236 -24.06719288845208
237 -22.42193179222719
238 -20.6746954795572
239 -19.05871974744487
240 -17.20844731097862
241 -15.54637109078322
242 -13.72253519656387
243 -12.02911820015178
244 -10.16379509868634
245 -8.425155016593852
246 -6.480309902351068
247 -4.689814714785342
248 -2.78384449170026
249 -0.9970229958264429
250 1.038186816395001
251 2.808345542720247
252 4.752382639819245
253 6.574445813710085
254 8.47814172302323
255 10.30604532923854
256 12.23999785385787
257 14.06467009682329
258 16.08638865165438
259 17.54003146918551
260 19.58480605327611
261 21.53612635308981
262 23.19890980389286
263 25.17018170318482
264 26.84242957158278
265 28.9019327422603
266 30.69063097714528
267 32.80255278217895
268 34.65237188765615
269 36.88923777110198
270 38.81357463251265
271 41.03221627703183
272 43.00787582309211
273 44.92900047712905
274 47.46142293930731
275 49.38914145319462
276 51.55503771438411
277 54.02820617850254
278 56.21846008957455
279 58.29066078852502
280 60.64325518075589
281 62.94539547761189
282 65.42851054689038
283 67.83646244797268
284 70.513421744255
285 73.70732680505112
286 76.34561758983151
287 78.98582986522007
288 82.43884623794332
289 85.14112709168269
290 88.09865769094775
291 91.77752218602188
292 94.87635882107416
293 98.65515142684843
294 101.8785461904144
295 105.9619811633045
296 110.0840491313332
297 113.3826618539186
298 117.6983787568278
299 121.8999189732466
300 126.3639599526702
301 130.7862027236681
302 135.3416855433832
303 139.9185274713402
304 144.7326787798233
305 149.5578886446653
306 154.6316423800442
307 159.6518682692533
308 164.7342831858298
309 170.7152499367494
310 175.9109249905598
311 181.0302302344556
312 187.4568355762949
313 192.7945330169776
314 199.3319933630857
315 204.6608183041912
316 211.1619597309106
317 216.6093734485336
318 223.1992890452598
319 228.6258922863451
320 235.3460314428085
321 240.8568650717295
322 247.6017931947352
323 253.3144136893029
324 260.3443464815747
325 265.9560617263691
326 272.7739207668635
327 278.5425651137622
328 285.543741144582
329 290.9640071622055
330 296.7612713915516
331 303.2702234481737
332 308.8916442267104
333 314.3767632640332
334 319.8948215869452
335 325.2554706666617
336 330.8202985429871
337 335.9973615312767
338 341.1558815004412
339 345.9685217367676
340 350.7513710174477
341 354.5771983711878
342 359.2589513535177
343 362.814642235449
344 367.0076669401201
345 370.0562640480132
346 373.8634095459747
347 376.4612176912739
348 379.0831365960744
349 381.4191016462716
350 383.6103808885112
351 385.4174607291142
352 386.9738509026745
353 388.1772208268512
354 389.0545850366154
355 389.5100818561781
356 389.9363942640593
357 389.8640611454951
358 389.6581261859878
359 388.9921017860927
360 388.2388146668684
361 386.911689237995
362 385.6475496804689
363 384.2019736449454
364 382.4518387801983
365 380.3227104875251
366 377.9828253222172
367 375.4494718224756
368 372.645990561066
369 369.4974649369353
370 366.0214694507304
371 362.573687761055
372 358.9530776627839
373 355.0328629709663
374 349.6418972273373
375 345.4502111803919
376 339.9117962883727
377 334.5291627365897
378 329.4513320028844
379 324.4506273794894
380 319.7309323659473
381 315.3643271253892
382 310.8718427916988
383 306.762443254714
384 302.8029389886059
385 299.0633042947715
386 295.5718138042046
387 291.4252127665564
388 288.4033109816044
389 285.630688346972
390 282.9748250229652
391 280.6630221654773
392 278.4222592935017
393 275.9682699811865
394 274.2321033609402
395 272.6776568489742
396 271.2720696312556
397 270.136826896413
398 269.0467061850078
399 268.274703340308
400 267.7096425056099
401 267.375355639062
402 267.1353936574824
403 267.1677573601202
404 267.3204127466848
405 267.4972154735494
406 267.8407744314866
407 268.2812612254499
408 269.000330877346
409 269.7740853951618
410 270.7481991697099
411 271.6957097055433
412 272.8618492297574
413 274.4873342569649
414 275.8265820706371
415 277.3882651756825
416 278.688263493047
417 279.9062701660174
418 280.9651010319424
419 281.93179704107
420 282.8419437639923
421 283.6830445006104
422 284.3554894150098
423 285.0488639081487
424 285.4685442553507
425 285.8254043462029
426 286.0362856931924
427 286.1429469412265
428 285.9066631447131
429 285.6778532747048
430 285.1566157241982
431 284.5913757383493
432 283.979395432372
433 282.9953041322846
434 282.1893944245804
435 280.8857167989451
436 279.8560083937741
437 278.7583248647583
438 277.5039301035503
439 276.2118068859979
440 274.7146950897115
441 273.1338251213045
442 271.4492337765956
443 269.8005798504889
444 267.996351523564
445 266.1818559875297
446 264.300224640378
447 262.3779621580547
448 260.4295907217343
449 258.4983604040399
450 256.5746581513183
451 254.6880722662592
452 252.7471774191561
453 250.1018115203369
454 248.2081089834672
455 245.7371426322059
456 243.9789886666858
457 241.7308050069109
458 240.0565417991864
459 237.9860083020246
460 236.5004409453194
461 234.5637466594151
462 233.1345454336362
463 231.3064211883538
464 229.929401877578
465 228.1923485080574
466 226.9179547798659
467 225.327928854198
468 224.1410387891407
469 222.7146115163027
470 221.5631136634645
471 220.1447846088162
472 219.0875790522486
473 218.1154811115389
474 216.8082369898366
475 215.9832697718092
476 215.0213201537288
477 214.211232016081
478 213.334562044902
479 212.6141308281173
480 211.8928488337
481 211.3420554576154
482 210.7416678745019
483 210.2375345046439
484 209.7515840027801
485 209.3641087532173
486 208.9705741773582
487 208.6666315889074
488 208.3255220554108
489 208.0679784344849
490 207.745078486053
491 207.5427644005358
492 207.287118205675
493 207.1251565588657
494 206.766303347511
495 206.6027323988903
496 206.321322356379
497 206.2828901673119
498 206.1471508609219
499 206.1278089264571
500 206.0262060635422
501 206.0090375944091
502 205.8817032250099
503 205.7583577147805
504 205.5233892909685
505 205.3546166288065
506 205.119578521483
507 204.9050840024735
508 204.6270459264518
509 204.4496978260227
510 204.1675177630388
511 203.9709332772798
512 203.6930429018236
513 203.534003596196
514 203.3360757473832
515 203.20617677008
516 203.0180453097073
517 202.9503054834888
518 202.8783470782224
519 202.8915658298485
520 202.8960033803633
521 202.9930750060972
522 203.0854715183281
523 203.2689437788552
524 203.4062255506986
525 203.6625739477374
526 203.8408404926401
527 204.1268058437826
528 204.3233305270711
529 204.6254743223591
530 204.8927866099929
531 205.2354513878425
532 205.4854039405728
533 205.8158468729944
534 206.092106275244
535 206.473373582441
536 206.733940209318
537 207.0627180042508
538 207.2960113189019
539 207.6028965578617
540 207.802404232244
541 208.0693887935678
542 208.2325287237866
543 208.5123358189262
544 208.7030167929439
545 208.9625353987825
546 209.1845259197729
547 209.489102760875
548 209.6728958881214
549 209.9217315107343
550 210.1364057654862
551 210.4480479697885
552 210.6617992570652
553 210.9938591312749
554 211.2484281942319
555 211.6072926756982
556 211.8526519791987
557 212.2030830284851
558 212.4814164701873
559 212.8655876608051
560 213.1991023414203
561 213.7517699090068
562 214.0711685582901
563 214.5562267466878
564 214.9234774267153
565 215.5167477485926
566 215.8480801063462
567 216.2795719726959
568 216.6251059826937
569 217.0921964686139
570 217.4379241145872
571 217.890354122226
572 218.2399587746048
573 218.6858395173285
574 219.0463503168811
575 219.4891839615465
576 219.8291583668687
577 220.2568666127339
578 220.5861437565031
579 221.0134305255555
580 221.3115068050607
581 221.6976889310997
582 221.9916070615161
583 222.3610679665036
584 222.6293320154088
585 222.9975266467011
586 223.2572598636306
587 223.5791685488963
588 223.8053594081026
589 224.1565464518294
590 224.4041540142263
591 224.7570847133995
592 225.016751129328
593 225.3720397556669
594 225.6558571199153
595 226.001448808364
596 226.3023486305131
597 226.6878184024042
598 226.9930442092469
599 227.4280895284692
600 227.7728803351476
601 228.2283963846367
602 228.5873972113782
603 229.0798592594896
604 229.5107853662124
605 230.0399477858009
606 230.7195947130742
607 231.3016606870386
608 231.9981037728008
609 232.6265245165637
610 233.3913478902298
611 234.0554690222524
612 234.8753306272737
613 235.5805544367383
614 236.4380086149032
615 237.3640954956379
616 237.9912456936317
617 238.9608742790705
618 239.7843849031089
619 240.71029623529
620 241.5284215670954
621 242.4334341654505
622 243.2105193181012
623 243.8621715269112
624 244.6294528567613
625 245.4365060596594
626 246.1003117169906
627 246.6867163502127
628 247.3139216948388
629 247.8552437795547
630 248.4737830989754
631 248.9728991819701
632 249.5102810687537
633 249.9704077681205
634 250.4659002441374
635 250.8926184963738
636 251.2806948332047
637 251.7447087067223
638 252.0805704451002
639 252.4977460924353
640 252.7735968228112
641 253.1585324822662
642 253.4241754605976
643 253.7963418535459
644 253.9878021307385
645 254.404147677669
646 254.578871847401
647 254.9683253595533
648 255.1089788214291
649 255.4807977523864
650 255.6233088417414
651 256.0069522459143
652 256.1299351116235
653 256.505232959739
654 256.7029372170018
655 256.9897697675539
656 257.2231078858127
657 257.5976208291752
658 257.8419772104389
659 258.243469403953
660 258.5132826475136
661 258.9445874889163
662 259.1502713928589
663 259.6396080796086
664 259.9481561925948
665 260.3898657442446
666 260.5784166642797
667 261.0322507489443
668 261.2250479972758
669 261.6838825268631
670 261.8681277419973
671 262.3248605133739
672 262.4794165183377
673 262.8824981190857
674 263.0267059956332
675 263.3011886412427
676 263.437703830959
677 263.7881622312918
678 263.8892674219005
679 264.1094008864789
680 264.1906837994179
681 264.3937419101813
682 264.5559216672371
683 264.7274101282145
684 264.8180144783226
685 264.9494605407747
686 264.987442284042
687 265.0998024881703
688 265.1198367492566
689 265.244937669275
690 265.2227141347097
691 265.3159063762715
692 265.2727110430664
693 265.3361509050902
694 265.2700701417544
695 265.3318153078149
696 265.2714146686222
697 265.3077830341702
698 265.2358173613628
699 265.2871781277283
700 265.188570555224
701 265.2218609010523
702 265.1212259344915
703 265.1447878314057
704 265.0292250351441
705 265.0189268909374
706 264.9012381790012
707 264.9252796737802
708 264.8028520072872
709 264.7823045333157
710 264.6585980279255
711 264.645741864111
712 264.5116712205589
713 264.5014557792391
714 264.3725101815073
715 264.3348211059549
716 264.1848740393326
717 264.1305771346049
718 263.9759699563321
719 263.9355430526185
720 263.7715824858678
721 263.7531858597295
722 263.5907334211263
723 263.6199408066745
724 263.487052797247
725 263.4851236012786
726 263.3320901519861
727 263.3253986354051
728 263.1730819688271
729 263.1510001407702
730 262.9834234811213
731 262.9625322067209
732 262.7998704829581
733 262.7845530305246
734 262.6169383508388
735 262.5986958285472
736 262.409340461111
737 262.3839596943287
738 262.1970484456017
739 262.1593624387411
740 261.97396301397
741 261.9519430694018
742 261.7587239656642
743 261.7442043236051
744 261.5618872902424
745 261.5512134461835
746 261.3554004581061
747 261.3382794557077
748 261.1549237162495
749 261.1372696693321
750 260.9512738886293
751 260.9314576194678
752 260.7438554980716
753 260.722421938008
754 260.5469672802023
755 260.5276477604652
756 260.3356484102729
757 260.3196365829994
758 260.1312987674596
759 260.1076002355219
760 259.9142336495637
761 259.90406841747
762 259.7566970689568
763 259.6838513103673
764 259.5386786882799
765 259.5098842534902
766 259.3207358254514
767 259.2869811558592
768 259.1269871311117
769 259.0813344018189
770 258.8697518480584
771 258.8254079098062
772 258.6527291534309
773 258.5842627845886
774 258.3572267221119
775 258.2988604636726
776 258.1169767804116
777 258.0327921408061
778 257.8521891057015
779 257.7724682098985
780 257.5856322939125
781 257.5051911688888
782 257.3029269974226
783 257.2237414149598
784 257.0262112717378
785 256.9388103249362
786 256.7411196662546
787 256.6479790494463
788 256.447064523721
789 256.3446295166126
790 256.1438810178318
791 256.0470256829168
792 255.8372055621469
793 255.7374671557714
794 255.5251701105819
795 255.4271143275097
796 255.2208826912092
797 255.1183008427229
798 254.9198863849658
799 254.8227371931024
800 254.6220236999413
801 254.5400934938138
802 254.3500553810519
803 254.2725742558943
804 254.0878549241231
805 254.0157089253028
806 253.7666647244981
807 253.7132785108115
808 253.5448743525558
809 253.4973813786242
810 253.2780631900033
811 253.258239402132
812 253.1095136563888
813 253.0443277088841
814 252.8962384397353
815 252.8767599917201
816 252.7436293416132
817 252.7413536201408
818 252.5951382053302
819 252.6155265576987
820 252.4951161930629
821 252.5306349521847
822 252.4308729561403
823 252.4830987122935
824 252.4007600904485
825 252.465590227927
826 252.3872109173095
827 252.46271540342
828 252.396487613316
829 252.4757969099297
830 252.4193085937376
831 252.5078062342153
832 252.4645702958776
833 252.5588065815634
834 252.5289267411122
835 252.6301014332174
836 252.6174215216816
837 252.7310914215259
838 252.7228170466861
839 252.8385659101466
840 252.8342964391317
841 252.9555063805021
842 252.9614414443146
843 253.0916007180652
844 253.0981099893777
845 253.2351214581913
846 253.2457854038145
847 253.3867822109843
848 253.3964039238133
849 253.5476178631622
850 253.5553861852138
851 253.6738304948882
852 253.6932038746566
853 253.8448550905559
854 253.83254373496
855 253.9872561949955
856 254.0145692569569
857 254.1343304445421
858 254.159123292561
859 254.2827340736022
860 254.3127498837421
861 254.4411285186486
862 254.469536292859
863 254.5959718954626
864 254.6242622427189
865 254.7431402587339
866 254.7697032123819
867 254.89749349773
868 254.9299770062399
869 255.0610608769065
870 255.0555682550946
871 255.223615716887
872 255.2363937826464
873 255.370193986529
874 255.4110184273584
875 255.5539992029713
876 255.5690344027106
877 255.7115585996538
878 255.7336292176005
879 255.8807401522531
880 255.919329300313
881 256.0780551537279
882 256.1118318307384
883 256.2870473082174
884 256.3320252397854
885 256.5121625373233
886 256.5630621968944
887 256.7425149724858
888 256.8091576601322
889 256.9948926920989
890 257.1456919625718
891 257.3395841715449
892 257.4081199753065
893 257.6937479742478
894 257.7735925229509
895 258.0665182201048
896 258.1434677152459
897 258.4285474032488
898 258.5131768724445
899 258.799820609187
900 258.9452007302962
901 259.2252885234486
902 259.3719641293279
903 259.6436434620704
904 259.7780244014941
905 260.0449724437061
906 260.1732015184522
907 260.4319158159487
908 260.5523336195714
909 260.8013732512622
910 260.9179379245628
911 261.1691841220036
912 261.2745342509218
913 261.5198244873646
914 261.6197372268672
915 261.8517123869718
916 261.9364385271537
917 262.1631310515911
918 262.2335492654265
919 262.4547932250334
920 262.51968457011
921 262.7334279252796
922 262.7954784442687
923 262.9993689305591
924 263.0592155187078
925 263.2199119983723
926 263.2860020047443
927 263.4451442405741
928 263.5130076480118
929 263.6674440446708
930 263.7322060667811
931 263.8850410608737
932 263.9415331985875
933 264.0855501059326
934 264.1433806650072
935 264.2877097534379
936 264.3406527101496
937 264.4869130751302
938 264.5366164645004
939 264.6882814443995
940 264.7331294885764
941 264.8852715978435
942 264.9407907326066
943 265.1296577574074
944 265.137058164023
945 265.3272515020132
946 265.3778578645727
947 265.5317403348365
948 265.5715012528851
949 265.762081015898
950 265.768115180375
951 265.9567561272388
952 265.9970214889878
953 266.1737452479249
954 266.1736346491298
955 266.3606570722362
956 266.3870053606406
957 266.5573204586441
958 266.5632523431215
959 266.724106482235
960 266.7358046410125
961 266.8907525081771
962 266.8913672948874
963 267.0444478709787
964 267.0348611580216
965 267.1776966521862
966 267.1535539847438
967 267.2889820771961
968 267.2560833956238
969 267.3699794654031
970 267.336915474147
971 267.4429340062974
972 267.4081556283714
973 267.5159381601302
974 267.4636472824079
975 267.5691101370875
976 267.5114911271863
977 267.6220516215118
978 267.5646621193363
979 267.6675977986436
980 267.6103465254249
981 267.702840822293
982 267.6421266158401
983 267.721259971556
984 267.6428646124795
985 267.7178646576559
986 267.636667992464
987 267.7079745730971
988 267.6163547027067
989 267.6744231630243
990 267.5805748806397
991 267.6230362494427
992 267.5156676446637
993 267.5651702920188
994 267.4422900332128
995 267.481742555291
996 267.3671075020464
997 267.3780077798406
998 267.2553689401965
999 267.2850333077634
1000 267.1510939372693
1001 267.1837767077923
1002 267.0252571614002
1003 267.0545540661806
1004 266.9254034190071
1005 266.9502897666767
1006 266.8236113197918
1007 266.8458531926075
1008 266.7136481730527
1009 266.737701661293
1010 266.5773301162762
1011 266.6066973437621
1012 266.4752617030165
1013 266.5084779843248
1014 266.3786175073695
1015 266.3857239092558
1016 266.2586520501555
1017 266.2985102601704
1018 266.1574904722074
1019 266.1971708009407
1020 266.081149767317
1021 266.1058844930642
1022 265.9830541589487
1023 266.0319346536436
1024 265.8895731343224
1025 265.9368341340649
1026 265.7925318933576
1027 265.8359181851703
1028 265.6821010734083
1029 265.7286180711887
1030 265.5740627664835
1031 265.6148588285614
1032 265.4464628393734
1033 265.4846188831788
1034 265.3058792142567
1035 265.3537869767363
1036 265.1734307823968
1037 265.2084341121116
1038 265.0164051643749
1039 265.0540129806054
1040 264.8983925567933
1041 264.8901473597934
1042 264.7299868819729
1043 264.7585486196299
1044 264.560250703223
1045 264.5810838504197
1046 264.4209697379404
1047 264.4035668693041
1048 264.2432607303734
1049 264.2607790023536
1050 264.0713924155141
1051 264.0920700539087
1052 263.9249801227254
1053 263.9140474862057
1054 263.7490847304144
1055 263.7757538201524
1056 263.5726878680774
1057 263.6033166080835
1058 263.4453365281269
1059 263.4355238472903
1060 263.2853594357655
1061 263.2830411894096
1062 263.1387133775505
1063 263.1235408397149
1064 262.9725202048957
1065 262.9660643276154
1066 262.8210886401261
1067 262.8216532263915
1068 262.6769888396026
1069 262.6785240029411
1070 262.5371031839159
1071 262.5399929537225
1072 262.3997152199079
1073 262.399924595857
1074 262.2524648323329
1075 262.2504440830938
1076 262.1124978452133
1077 262.1131492644634
1078 261.9452375498423
1079 261.9696720555157
1080 261.7983027669343
1081 261.7950007520607
1082 261.6523676378955
1083 261.6605763380644
1084 261.523502300413
1085 261.5371615494736
1086 261.3978160669566
1087 261.4008894443146
1088 261.2619039905633
1089 261.2709719306257
1090 261.1417598745832
1091 261.1658040126485
1092 261.0383570128283
1093 261.0698997211168
1094 260.9517556782998
1095 260.980962384107
1096 260.8680712392724
1097 260.9105708854349
1098 260.7793184282807
1099 260.82752131376
1100 260.7179085592682
1101 260.7480875794067
1102 260.6408873739466
1103 260.6848834517432
1104 260.5653531104761
1105 260.6229357555663
1106 260.514660956727
1107 260.5823467373147
1108 260.4795437467788
1109 260.5392503019742
1110 260.4414598472898
1111 260.5147736148634
1112 260.4259982150446
1113 260.5007837003295
1114 260.4135622303671
1115 260.5029306959002
1116 260.4315644218042
1117 260.5283767022617
1118 260.4483729943187
1119 260.5445963231618
1120 260.4701607418743
1121 260.5569520297209
1122 260.4879877305219
1123 260.5837208562097
1124 260.5037877533762
1125 260.6005717590338
1126 260.5265357362829
1127 260.6237940140408
1128 260.545546615998
1129 260.6418825975092
1130 260.5627267434278
1131 260.6394567944155
1132 260.5509539129795
1133 260.631828570017
1134 260.5321646303127
1135 260.6143473437218
1136 260.5177150313779
1137 260.59566126415
1138 260.5006623608277
1139 260.5712342527114
1140 260.4721015842942
1141 260.5393671933973
1142 260.4422275844535
1143 260.5050204496772
1144 260.4070181811903
1145 260.4752448338908
1146 260.3812801312253
1147 260.4578057638898
1148 260.3648310872267
1149 260.4557103391731
1150 260.3735832093564
1151 260.4629331335152
1152 260.3731828728136
1153 260.474436580398
1154 260.4053906069765
1155 260.5097304611676
1156 260.4489675559029
1157 260.569256419638
1158 260.509799727114
1159 260.6384560786908
1160 260.5826347971945
1161 260.713694561415
1162 260.6640800667298
1163 260.7948923276218
1164 260.7516175863134
1165 260.8954815816299
1166 260.857763175377
1167 260.980132210051
1168 260.9745054740106
1169 261.1060030749191
1170 261.0796256592228
1171 261.2032755119623
1172 261.1871356766619
1173 261.3277803926324
1174 261.3174424691534
1175 261.456483595522
1176 261.4480367614804
1177 261.5904335475888
1178 261.5754367819968
1179 261.7198883507858
1180 261.7075424887884
1181 261.8774462455486
1182 261.8542525521437
1183 261.9865289538039
1184 261.9633330822159
1185 262.1254218655192
1186 262.0895917335322
1187 262.2163181465673
1188 262.176052673523
1189 262.3149748527608
1190 262.2673968338614
1191 262.3786867891767
1192 262.3261612068015
1193 262.4356217033583
1194 262.3864829156333
1195 262.4799806622152
1196 262.4265017020672
1197 262.5169478524336
1198 262.4614796949736
1199 262.5477770934603
1200 262.4758265075207
1201 262.5716417551986
1202 262.507433747257
1203 262.601236835197
1204 262.5463396058876
1205 262.6427965761619
1206 262.598670753129
1207 262.6940977544741
1208 262.6555061421706
1209 262.7517813588738
1210 262.7193747798417
1211 262.8291567163973
1212 262.7969916616183
1213 262.9159263221559
1214 262.8794740166493
1215 262.9980226797857
1216 262.9694680907897
1217 263.0873611079066
1218 263.0661705367537
1219 263.1926567849668
1220 263.1797562260936
1221 263.2999389326156
1222 263.2793059306409
1223 263.4176472129695
1224 263.403140217321
1225 263.5287043838631
1226 263.5198732866844
1227 263.6484418320129
1228 263.6439302669065
1229 263.7660083036637
1230 263.7521940615232
1231 263.881661884061
1232 263.8689847326655
1233 264.0004546630851
1234 263.9904321865644
1235 264.1230886202583
1236 264.1357024256769
1237 264.2611044401046
1238 264.2452744405157
1239 264.3747701162113
1240 264.3772728116057
1241 264.4982201033879
1242 264.4718292676503
1243 264.6109296958967
1244 264.5742585234466
1245 264.6831068708412
1246 264.6629100896838
1247 264.768814765432
1248 264.7294296360243
1249 264.8393505276379
1250 264.7915925131453
1251 264.8955818647959
1252 264.8510837273513
1253 264.947397764133
1254 264.8913665205372
1255 264.9802066201939
1256 264.9245511670111
1257 265.012336017281
1258 264.9649428904691
1259 265.0685132039017
1260 265.0176877372409
1261 265.1224768350398
1262 265.100018455359
1263 265.1870738447071
1264 265.1408765577919
1265 265.2489294939717
1266 265.2108336370268
1267 265.3280118191936
1268 265.2794089115847
1269 265.4005376275817
1270 265.3613076605681
1271 265.4834141956335
1272 265.4405239363268
1273 265.5676586034634
1274 265.5382491088898
1275 265.6493895310992
1276 265.6399243601986
1277 265.7567168170619
1278 265.7247553228999
1279 265.8630535179497
1280 265.8199959696688
1281 265.9433820490231
1282 265.9282466540934
1283 266.0478326787665
1284 266.0105067087134
1285 266.1490142574729
1286 266.1109660986151
1287 266.2362850144302
1288 266.1866871201753
1289 266.3051179029609
1290 266.2540826755763
1291 266.362136653441
1292 266.3061736132594
1293 266.4059438672153
1294 266.3483734683633
1295 266.4430959470601
1296 266.3741428844894
1297 266.458911906547
1298 266.392828306065
1299 266.4760345356747
1300 266.403968872964
1301 266.4821916506929
1302 266.4178781789745
1303 266.490352259992
1304 266.4190639009225
1305 266.5025444462182
1306 266.4364482847743
1307 266.5287692990584
1308 266.4660801233647
1309 266.5574657890329
1310 266.5083908655248
1311 266.5993739154172
1312 266.5509329792097
1313 266.6528184828321
1314 266.6174685323855
1315 266.7290599782636
1316 266.6853436874756
1317 266.8087124625804
1318 266.7735299649797
1319 266.8912856778767
1320 266.8566278652607
1321 266.9778661929017
1322 266.9435376195096
1323 267.070805024316
1324 267.0312085843223
1325 267.1624284718832
1326 267.1281191213558
1327 267.2455030527557
1328 267.2184220396304
1329 267.3359252594092
1330 267.2992779377829
1331 267.4096429934878
1332 267.3641336083134
1333 267.4761879547988
1334 267.426341753635
1335 267.5243124304797
1336 267.4697920004477
1337 267.5598336136459
1338 267.4991985859115
1339 267.5850401883836
1340 267.5173700132495
1341 267.6030985442122
1342 267.5272848504442
1343 267.5984103634431
1344 267.5177938760783
1345 267.5854738088022
1346 267.5074546691714
1347 267.5587691065131
1348 267.4769561768044
1349 267.5219409465
1350 267.4323635641866
1351 267.4763848415067
1352 267.3797171848356
1353 267.4258218584723
1354 267.3307395950261
1355 267.3780840036206
1356 267.2860272162058
1357 267.3489196603998
1358 267.2710035980819
1359 267.3251667775876
1360 267.2480350659453
1361 267.3197000680935
1362 267.2338964123017
1363 267.3079728064811
1364 267.2271344682254
1365 267.302939543403
1366 267.2284301850935
1367 267.3070099332328
1368 267.241549451392
1369 267.3240199114911
1370 267.2598069339655
1371 267.3439449402243
1372 267.2716591977946
1373 267.3648439963839
1374 267.3028541662393
1375 267.3934660379415
1376 267.3339328624272
1377 267.4215989062804
1378 267.364170631929
1379 267.4414535797679
1380 267.3719831203346
1381 267.4557506327678
1382 267.3859974824609
1383 267.4715529680876
1384 267.4016170930146
1385 267.4882488658355
1386 267.4107327495649
1387 267.5029866965456
1388 267.4284263723662
1389 267.5101759509097
1390 267.4246421497978
1391 267.5031615437226
1392 267.4261955456266
1393 267.4962125884325
1394 267.4162401036614
1395 267.4836245859115
1396 267.4017809320848
1397 267.4730656414893
1398 267.3790359784047
1399 267.4476136989209
1400 267.3540707938431
1401 267.4127746697543
1402 267.3113197794985
1403 267.3709270395032
1404 267.2702630345781
1405 267.3323913832754
1406 267.2190760312258
1407 267.2770803179327
1408 267.1755240102497
1409 267.2348125208097
1410 267.1417417015178
1411 267.2117674248078
1412 267.1236882573976
1413 267.1923275831919
1414 267.1256618381593
1415 267.2054341895285
1416 267.1291409015068
1417 267.2204392122301
1418 267.1713225850573
1419 267.2637000037473
1420 267.2263218912112
1421 267.3252976924559
1422 267.2996087401866
1423 267.3989132994392
1424 267.3618074354954
1425 267.4959312129972
1426 267.4673285145931
1427 267.5811021908264
1428 267.5754622699643
1429 267.6933382418633
1430 267.6721730087621
1431 267.8318473160425
1432 267.8111235267502
1433 267.9626961580915
1434 267.9444002952628
1435 268.0984096549124
1436 268.0814867436445
1437 268.2278810529556
1438 268.2146531084372
1439 268.3545044304576
1440 268.3346161204302
1441 268.4775225558373
1442 268.4498799634197
1443 268.5924141734447
1444 268.5610373750737
1445 268.6936323449222
1446 268.6593759911328
1447 268.7804644321507
1448 268.74719033805
1449 268.8449252949696
1450 268.8221420064871
1451 268.9234124142164
1452 268.8875248134071
1453 268.9890354536126
1454 268.952699064594
1455 269.0517753266219
1456 269.0147589238551
1457 269.1182467002097
1458 269.075149108484
1459 269.1751372237924
1460 269.1542906251426
1461 269.2560091590872
1462 269.2373349254394
1463 269.3413025378842
1464 269.3113042640561
1465 269.4434726869715
1466 269.4166887886166
1467 269.5465620149336
1468 269.5265144409083
1469 269.6398285643094
1470 269.6446072099537
1471 269.7673660124661
1472 269.7797111282299
1473 269.9062975361249
1474 269.8846388084835
1475 270.0475876742088
1476 270.0261678230763
1477 270.1840994795064
1478 270.1610050029655
1479 270.317165031798
1480 270.2894707798225
1481 270.4463464213045
1482 270.4228691812559
1483 270.5771252560957
1484 270.5491244471896
1485 270.7009378976477
1486 270.6719989943656
1487 270.8202070645746
1488 270.8085806537179
1489 270.9213610457955
1490 270.9065034849028
1491 271.036786862066
1492 270.9917703619314
1493 271.1293524570403
1494 271.1043180037255
1495 271.2140727098832
1496 271.19455601216
1497 271.2942850234434
1498 271.2700605399594
1499 271.3740976255121
1500 271.3387094004108
1501 271.4393999196612
1502 271.4109846616013
1503 271.5038104090489
1504 271.4733985685369
1505 271.5731469209203
1506 271.5463849311032
1507 271.6491703716648
1508 271.6337946350548
1509 271.7384650377074
1510 271.718653634627
1511 271.831554082883
1512 271.8214363105506
1513 271.9403334151943
1514 271.9355357099367
1515 272.0603970390715
1516 272.0675003779176
1517 272.1865151509524
1518 272.1882929525216
1519 272.3126702017794
1520 272.3207765488035
1521 272.4486884671934
1522 272.4551869366892
1523 272.615261029653
1524 272.5900550011905
1525 272.7525708648054
1526 272.7609237426415
1527 272.8898066187525
1528 272.9054556058655
1529 273.0660609248452
1530 273.0524783619626
1531 273.2157419642097
1532 273.237348692673
1533 273.368553268674
1534 273.3985067244918
1535 273.5257733109353
1536 273.5564849112184
1537 273.7178345776319
1538 273.7063371176133
1539 273.8653122370154
1540 273.8570899951869
1541 274.0118257144431
1542 274.0037616222383
1543 274.1530843019958
1544 274.1421492160939
1545 274.28323273946
1546 274.267080875379
1547 274.3958478871234
1548 274.3776578531288
1549 274.4960149227628
1550 274.4747245414475
1551 274.6016493275508
1552 274.5914730135674
1553 274.6910010399413
1554 274.6947699139903
1555 274.8092024457583
1556 274.7838511184728
1557 274.906540919487
1558 274.8982343881253
1559 274.9988696887301
1560 274.9961765989552
1561 275.0984279598057
1562 275.1076718357963
1563 275.2093881767591
1564 275.2173787056555
1565 275.3220667064104
1566 275.3347900456122
1567 275.4416475363044
1568 275.4589157372043
1569 275.5814116887115
1570 275.6103157640034
1571 275.7367552296163
1572 275.7727729626841
1573 275.9078590994598
1574 275.9534760936873
1575 276.0809425192863
1576 276.1294658876991
1577 276.2561531035671
1578 276.3117527487811
1579 276.4408796618775
1580 276.4965084237219
1581 276.6323721350897
1582 276.698561507303
1583 276.8344269651041
1584 276.8855885623399
1585 277.0410599995557
1586 277.0505582193126
1587 277.2071325707065
1588 277.2419108823461
1589 277.3775841159075
1590 277.3692757055447
1591 277.5032755009825
1592 277.519031620429
1593 277.6410879748472
1594 277.6215338427722
1595 277.7442331957128
1596 277.7461495445221
1597 277.8430784780376
1598 277.8389613483236
1599 277.9367413577406
1600 277.9068950150978
1601 277.9997376796922
1602 277.967883758803
1603 278.063384472953
1604 278.024973743027
1605 278.1115623966119
1606 278.0787502415104
1607 278.1654604027544
1608 278.1302601340142
1609 278.2116393762278
1610 278.1831085549957
1611 278.2802676937546
1612 278.2488736697495
1613 278.3497997740786
1614 278.327001898528
1615 278.4319991161411
1616 278.4188842172056
1617 278.5241509182755
1618 278.5150503261239
1619 278.627973049721
1620 278.6226274648348
1621 278.7453271122786
1622 278.7339126952841
1623 278.8732120598855
1624 278.8665415312041
1625 278.9997923715256
1626 278.9967047498006
1627 279.1397566425719
1628 279.1412389069413
1629 279.2771913426111
1630 279.3048020564441
1631 279.4494140326495
1632 279.4543002893487
1633 279.5977031729624
1634 279.6362519091466
1635 279.7787007250132
1636 279.803248598904
1637 279.9376602284931
1638 279.9542037067557
1639 280.0854734023711
1640 280.0978090122298
1641 280.2288669500625
1642 280.2399755791191
1643 280.3683230116903
1644 280.3715661883293
1645 280.4891545474929
1646 280.4779826456335
1647 280.582146934831
1648 280.5689728323048
1649 280.6565644517181
1650 280.6291237854171
1651 280.7102990416562
1652 280.6706550381761
1653 280.7394519335377
1654 280.7023395320325
1655 280.77155671345
1656 280.7150612656529
1657 280.7858348977168
1658 280.7146580308499
1659 280.7820006411501
1660 280.7169303202456
1661 280.7753388356886
1662 280.7090594416293
1663 280.7693714073296
1664 280.7184311239657
1665 280.7843435911544
1666 280.7270850126074
1667 280.8044554678415
1668 280.7478608903349
1669 280.8222808499
1670 280.7773775978144
1671 280.8550693614607
1672 280.8103024377519
1673 280.9031010428804
1674 280.8654684091105
1675 280.9576737375219
1676 280.9254847485989
1677 281.0390937994965
1678 281.0042111803749
1679 281.0984713177111
1680 281.0776032494514
1681 281.1992360534516
1682 281.1754150140611
1683 281.2879524890357
1684 281.2767952187763
1685 281.4094981694532
1686 281.3904864091705
1687 281.4938956235796
1688 281.4813810959094
1689 281.5866533551352
1690 281.584807176062
1691 281.6799080166908
1692 281.6567685672132
1693 281.747688087357
1694 281.7169857720118
1695 281.8240153234673
1696 281.783516103653
1697 281.8663454149222
1698 281.8279149115878
1699 281.9152931062925
1700 281.869681272191
1701 281.9435605348535
1702 281.9118597355607
1703 281.9773075076407
1704 281.9316636660046
1705 282.0098357362783
1706 281.9516749617999
1707 282.0156057121851
1708 281.9619136906202
1709 282.0146347019401
1710 281.9491828658221
1711 281.9991257134986
1712 281.932677296149
1713 281.9762686477063
1714 281.9017158488249
1715 281.947878267518
1716 281.8712783041847
1717 281.9107379719055
1718 281.8288196359084
1719 281.8738369372086
1720 281.7885300764224
1721 281.8321792924547
1722 281.7724010073006
1723 281.8011422631635
1724 281.7269387359177
1725 281.7781978849094
1726 281.7004246426353
1727 281.7429236141344
1728 281.6530901175461
1729 281.6997382601915
1730 281.6218405831993
1731 281.6585881002111
1732 281.5718161999734
1733 281.6151144137934
1734 281.5332413641569
1735 281.5654923851574
1736 281.4797404160761
1737 281.5206539692857
1738 281.4266362957814
1739 281.4643066363869
1740 281.3771846942
1741 281.4258419241566
1742 281.3444524254024
1743 281.3941277155776
1744 281.32058765426
1745 281.3788232646809
1746 281.311278225669
1747 281.3707701973536
1748 281.3111426707611
1749 281.3808210489166
1750 281.3375336914639
1751 281.416896801649
1752 281.3683114635364
1753 281.4471729346988
1754 281.4058460032421
1755 281.4801517242246
1756 281.4394487060719
1757 281.5149366191263
1758 281.4763037494616
1759 281.5467350920553
1760 281.4923834403119
1761 281.5743680757237
1762 281.5091268436861
1763 281.574809831464
1764 281.5040658713036
1765 281.5527537809731
1766 281.4744596049796
1767 281.514274679293
1768 281.4366529174503
1769 281.4749449068619
1770 281.3915012252267
1771 281.4200998662839
1772 281.3269960356316
1773 281.3656681018561
1774 281.2733183463242
1775 281.2963372622337
1776 281.2135150414849
1777 281.2460169130193
1778 281.1647647572376
1779 281.1910242567089
1780 281.1068862107173
1781 281.1309065124274
1782 281.0489533682992
1783 281.0749285568692
1784 280.9884813109305
1785 281.015123783991
1786 280.9286383753089
1787 280.960388775541
1788 280.8849651194478
1789 280.923639628075
1790 280.8489598884046
1791 280.8857393552594
1792 280.8137621906416
1793 280.8492710052477
1794 280.7693302296748
1795 280.8031865074414
1796 280.731310771664
1797 280.7727255005978
1798 280.7020377521362
1799 280.7429715139504
1800 280.6588644915142
1801 280.7118457594632
1802 280.6288565868011
1803 280.6741674265497
1804 280.5955624925854
1805 280.6503420746077
1806 280.5717601638145
1807 280.6235716414201
1808 280.5450592094268
1809 280.5958677373297
1810 280.5192055639416
1811 280.5758924845975
1812 280.5070917738065
1813 280.5773734857254
1814 280.4972245841752
1815 280.5631232563667
1816 280.48951942232
1817 280.5511872772024
1818 280.4918818499306
1819 280.5593324863465
1820 280.5002403802486
1821 280.5578588580598
1822 280.5017245249381
1823 280.5640381383275
1824 280.4946665423057
1825 280.5638424464354
1826 280.4878278299649
1827 280.5444598352417
1828 280.4720203499992
1829 280.5203706631373
1830 280.4506521059349
1831 280.5031234001291
1832 280.4298439011209
1833 280.4639868094602
1834 280.3833012351359
1835 280.420187144069
1836 280.3278885997169
1837 280.3600192604258
1838 280.2711398155546
1839 280.3136409287408
1840 280.2215002368936
1841 280.2614052632374
1842 280.1717796671351
1843 280.2183842186024
1844 280.1309464157391
1845 280.1627587588037
1846 280.0874829057365
1847 280.1337032922529
1848 280.0550934360384
1849 280.1126175880593
1850 280.0511548091584
1851 280.111685784329
1852 280.0533916050208
1853 280.1135756713354
1854 280.0606952657476
1855 280.1292508451891
1856 280.0760088524964
1857 280.1514437640015
1858 280.0989825901219
1859 280.1691571938203
1860 280.1137687328878
1861 280.1785839320433
1862 280.1245515368634
1863 280.193109992799
1864 280.1348319743454
1865 280.1986931797702
1866 280.1427571143329
1867 280.1984265058607
1868 280.1371053448907
1869 280.1825416316851
1870 280.1225596563744
1871 280.1647835125657
1872 280.0901378191088
1873 280.1346440079628
1874 280.0645213101868
1875 280.1106249053826
1876 280.0360251480834
1877 280.0711038440851
1878 280.0020205852434
1879 280.0327124669409
1880 279.9443656465843
1881 279.9788529569275
1882 279.9008188765735
1883 279.9392045437526
1884 279.8620089053402
1885 279.9018213260248
1886 279.8393254925084
1887 279.8772727122965
1888 279.8203325457529
1889 279.8580646935752
1890 279.7974794319618
1891 279.8414504917562
1892 279.7814817277509
1893 279.8277273974754
1894 279.7655229946086
1895 279.8262600907845
1896 279.7773887738777
1897 279.8313653163411
1898 279.7973666395554
1899 279.8505768826814
1900 279.8069418716707
1901 279.8671691435994
1902 279.8289707475403
1903 279.8830234895968
1904 279.8458401146391
1905 279.91590025392
1906 279.8789770896257
1907 279.9552035358635
1908 279.9301563039166
1909 280.0029965857833
1910 279.9926956679543
1911 280.0608109391336
1912 280.0603537492258
1913 280.1378893132596
1914 280.1353370765085
1915 280.2110566221997
1916 280.2109960993052
1917 280.2920595443811
1918 280.2987859567119
1919 280.3972801545461
1920 280.3920834517036
1921 280.4992839716559
1922 280.5164447038161
1923 280.5877492917909
1924 280.6064227634712
1925 280.7034179688508
1926 280.7118681762651
1927 280.8047544651416
1928 280.8184376564384
1929 280.9118310163391
1930 280.9277280912238
1931 281.0163362558341
1932 281.0249657195421
1933 281.1095057582418
1934 281.1124951362715
1935 281.1869992085424
1936 281.1826958374424
1937 281.2555143917667
1938 281.2470264955862
1939 281.3256673705735
1940 281.3129707521848
1941 281.3751598770075
1942 281.3578664880703
1943 281.4132136481358
1944 281.3722347250633
1945 281.4245266210629
1946 281.377810399717
1947 281.4228961033567
1948 281.3834337281355
1949 281.4237401518728
1950 281.3834176524782
1951 281.4299712383336
1952 281.397065958279
1953 281.4378155820983
1954 281.402276310357
1955 281.4402225851325
1956 281.3958742529633
1957 281.441141613461
1958 281.3946792020674
1959 281.4410611787359
1960 281.4017565549999
1961 281.4525723256877
1962 281.4194794883296
1963 281.4752963798211
1964 281.4559075049481
1965 281.5076818579701
1966 281.4872163896947
1967 281.551477026585
1968 281.5441156515444
1969 281.6072877533362
1970 281.6118861049925
1971 281.6965968279367
1972 281.7047996406163
1973 281.7783138313478
1974 281.8076103132812
1975 281.9085168766536
1976 281.9075754768818
1977 282.0172297976785
1978 282.0228217708458
1979 282.1456274728275
1980 282.1589246002046
1981 282.2749930475771
1982 282.2972520516699
1983 282.4154670210505
1984 282.4346087893404
1985 282.5600016366642
1986 282.5723379701562
1987 282.6920299085196
1988 282.7007189896802
1989 282.8123659662638
1990 282.8145610989189
1991 282.909890682896
1992 282.9202267855387
1993 282.9983934986748
1994 282.9916515708375
1995 283.0893064876616
1996 283.0754387447946
1997 283.144436879844
1998 283.1313821983518
1999 283.2040245994758
2000 283.1769061394314
2001 283.2332000456759
2002 283.2107346106739
2003 283.2770042974366
2004 283.2464449229474
2005 283.3056708163447
2006 283.2795054120928
2007 283.3514876828627
2008 283.3268471700927
2009 283.3929347098549
2010 283.393680409194
2011 283.4610812998889
2012 283.4631631845172
2013 283.5311686630178
2014 283.5416563230072
2015 283.6185789269481
2016 283.631984173102
2017 283.7326214610243
2018 283.7351529962417
2019 283.8270435734675
2020 283.8207988913769
2021 283.9241043497924
2022 283.9351055373817
2023 284.0327824597589
2024 284.052300253485
2025 284.1569265079884
2026 284.1737696343732
2027 284.2744084808708
2028 284.2964609216108
2029 284.3941777265912
2030 284.4148211249607
2031 284.5073276065283
2032 284.5256021255303
2033 284.6250411041741
2034 284.630430065392
2035 284.7361268150103
2036 284.7610113638256
2037 284.8447431233542
2038 284.8760529048437
2039 284.9514384557845
2040 284.9839761048281
2041 285.061832039616
2042 285.0889244247776
2043 285.1603299937389
2044 285.1823610060925
2045 285.2589917678928
2046 285.2645893144076
2047 285.3579860984318
2048 285.3575973176197
2049 285.4349234861519
2050 285.4488854719361
2051 285.5258647688583
2052 285.5404194422477
2053 285.6103177661111
2054 285.6209665193937
2055 285.6897779183748
2056 285.7064999839384
2057 285.7712781127112
2058 285.7887756639724
2059 285.8489996898206
2060 285.8698931540758
2061 285.9327743166593
2062 285.9480109301912
2063 286.0147891306603
2064 286.03575146964
2065 286.0917233346638
2066 286.0986881853939
2067 286.1687069672986
2068 286.1765164348909
2069 286.247566236411
2070 286.2383880342639
2071 286.3252602067705
2072 286.3207917128129
2073 286.4107169769285
2074 286.4184333412372
2075 286.5094262288951
2076 286.5237263859399
2077 286.6196655895584
2078 286.6427417408362
2079 286.7478190695012
2080 286.7704267663164
2081 286.8833531421465
2082 286.8996756213256
2083 287.0145549167818
2084 287.0343231333155
2085 287.1463131508402
2086 287.1642114307978
2087 287.2713607485068
2088 287.3121501237038
2089 287.3938571561282
2090 287.4358865756452
2091 287.5430464359326
2092 287.5837074144638
2093 287.6782684380811
2094 287.7126447256227
2095 287.8057552429995
2096 287.8245007092528
2097 287.912519779823
2098 287.9338100293845
2099 288.0164960394894
2100 288.0284956454004
2101 288.1162758565812
2102 288.1257550067344
2103 288.1996926549573
2104 288.2012471173105
2105 288.2724697810473
2106 288.2671732319598
2107 288.3303163300714
2108 288.3126885400596
2109 288.3795755576278
2110 288.3608321524496
2111 288.4153973404883
2112 288.3866322099856
2113 288.4525881724546
2114 288.4194070403337
2115 288.4754858017014
2116 288.4311719958725
2117 288.4792503531258
2118 288.4360408137761
2119 288.4766426124293
2120 288.4407350731956
2121 288.4924151240115
2122 288.466824269877
2123 288.5190271598681
2124 288.5033785457549
2125 288.5554594894493
2126 288.5424735128319
2127 288.604341148293
2128 288.576675858958
2129 288.6474061548478
2130 288.6366485498539
2131 288.7051691092784
2132 288.7143898745883
2133 288.7976779519871
2134 288.7937522488969
2135 288.8723376754718
2136 288.8764285021103
2137 288.9503463221133
2138 288.9469646876453
2139 289.0194001733581
2140 289.003524394445
2141 289.0680977712406
2142 289.0415002061558
2143 289.1005859476799
2144 289.0773277668242
2145 289.1306476783127
2146 289.1043370486388
2147 289.1528441651873
2148 289.1199897375917
2149 289.1600027955628
2150 289.1372266989019
2151 289.1661186412647
2152 289.1203857264736
2153 289.1554769519676
2154 289.1180362751493
2155 289.1596865763387
2156 289.1202589659828
2157 289.1488380654986
2158 289.104612069676
2159 289.1228452612588
2160 289.079376636274
2161 289.0917981922898
2162 289.0471967934023
2163 289.0753026573762
2164 289.0339256564349
2165 289.0615060058026
2166 289.0104171603633
2167 289.0549247134091
2168 289.0152002171973
2169 289.061557638647
2170 289.026031579108
2171 289.0698498619186
2172 289.0325489830558
2173 289.0774456529448
2174 289.0440386552432
2175 289.0894703638115
2176 289.0620535772068
2177 289.1128803512634
2178 289.0861067709491
2179 289.1364561065373
2180 289.1177549892191
2181 289.1775531962855
2182 289.1498297638861
2183 289.2066099351444
2184 289.181969721763
2185 289.2445537702849
2186 289.2217858598434
2187 289.2903138718514
2188 289.2741916123767
2189 289.3346282514299
2190 289.3078815516687
2191 289.3659304781329
2192 289.3329719949162
2193 289.3859446616793
2194 289.3521687922956
2195 289.3979966368718
2196 289.3498032829122
2197 289.3867770922098
2198 289.3385047783765
2199 289.3725574381546
2200 289.32423392415
2201 289.3437933369173
2202 289.2898019399782
2203 289.3068396350718
2204 289.2532693525114
2205 289.2657381636162
2206 289.2066443937599
2207 289.2082654463566
2208 289.1516599105148
2209 289.1741802602746
2210 289.0961526448828
2211 289.1104689346798
2212 289.0378448287565
2213 289.0550755234962
2214 288.9846151797104
2215 288.9913697419359
2216 288.9175738455378
2217 288.9268890942167
2218 288.84930689834
2219 288.8591553344968
2220 288.7857899198964
2221 288.7967294492504
2222 288.723488510213
2223 288.7272160471745
2224 288.6580961875059
2225 288.6587193924816
2226 288.5910954167083
2227 288.5898005026542
2228 288.5149120403541
2229 288.5232972041812
2230 288.4402392042874
2231 288.4565464701839
2232 288.3809726527936
2233 288.3927811082533
2234 288.3202864439235
2235 288.3325283070756
2236 288.2591072103426
2237 288.2634860731769
2238 288.1900883945285
2239 288.1822244094816
2240 288.110312455368
2241 288.1136867718002
2242 288.0385739979755
2243 288.0465809399405
2244 287.9813212250479
2245 287.997522625213
2246 287.9141415302183
2247 287.9355156324522
2248 287.8605575806037
2249 287.8814509800339
2250 287.8255231367794
2251 287.8333402644618
2252 287.7814487233432
2253 287.8031329259354
2254 287.7415484659285
2255 287.7735788617289
2256 287.7206280512605
2257 287.7667207187363
2258 287.7183621557498
2259 287.7643384077346
2260 287.726813072301
2261 287.7770555823626
2262 287.737204691824
2263 287.7869472888624
2264 287.7638384442056
2265 287.8124770330734
2266 287.7695783337057
2267 287.8392788486513
2268 287.7984446406602
2269 287.8740206312614
2270 287.8377072107564
2271 287.9036645392989
2272 287.8776517762627
2273 287.9429472279321
2274 287.9268602216641
2275 288.0087915038358
2276 287.9922265063811
2277 288.0754883942181
2278 288.0609872275831
2279 288.1404777016143
2280 288.1145790046624
2281 288.2114897349153
2282 288.1823961317112
2283 288.2708057646962
2284 288.2537374625823
2285 288.3469822129103
2286 288.3269055905573
2287 288.4216413913843
2288 288.3982615661159
2289 288.4811729323476
2290 288.4506325668085
2291 288.5258489519646
2292 288.4932370531552
2293 288.5751053989122
2294 288.54409049077
2295 288.6168325750251
2296 288.5856894046995
2297 288.6530066487998
2298 288.6329780828484
2299 288.6985209817697
2300 288.6693496219706
2301 288.7523237733949
2302 288.7279236216348
2303 288.8039554077038
2304 288.8040584827961
2305 288.8777117960877
2306 288.8713489638733
2307 288.9788809794999
2308 288.9737509056479
2309 289.0649468916768
2310 289.0800267126895
2311 289.1743010111811
2312 289.1769044787363
2313 289.2999618687142
2314 289.302876316712
2315 289.4258866615388
2316 289.43523178007
2317 289.5632718183417
2318 289.5644960535353
2319 289.6834975407575
2320 289.6786892341579
2321 289.8063049967055
2322 289.8033482206897
2323 289.9232151854179
2324 289.9510219325066
2325 290.0588498078614
2326 290.0745705201404
2327 290.1842699737422
2328 290.1926460936701
2329 290.2959793432873
2330 290.3076568050586
2331 290.4049003025922
2332 290.4140750251288
2333 290.5105907290454
2334 290.508698800202
2335 290.6055380206005
2336 290.5965098994919
2337 290.6864883007881
2338 290.6764536523598
2339 290.7688967864729
2340 290.7606304045831
2341 290.8569704113382
2342 290.8581383210737
2343 290.9427851084822
2344 290.9410136901656
2345 291.0259103983936
2346 291.0220559437077
2347 291.1047292144889
2348 291.0919835197458
2349 291.1712665456532
2350 291.1676845216062
2351 291.2471428173621
2352 291.2307584493682
2353 291.3078130521481
2354 291.2976728629719
2355 291.3861455831491
2356 291.3603410775867
2357 291.4506862110877
2358 291.4254527400294
2359 291.5130700658663
2360 291.4961661488871
2361 291.5797218133266
2362 291.5610715807213
2363 291.6555270062681
2364 291.6363513433075
2365 291.7314915637939
2366 291.7153306437747
2367 291.8088009697901
2368 291.8019567107692
2369 291.8919942699003
2370 291.8762367957037
2371 291.9789232419648
2372 291.9738651555039
2373 292.0597368621033
2374 292.068822481551
2375 292.1466843967415
2376 292.1620018927482
2377 292.2430239196364
2378 292.2628549454695
2379 292.3391479907788
2380 292.3538285486669
2381 292.4354814488809
2382 292.4625282475429
2383 292.5453376171999
2384 292.559326106313
2385 292.6434570684855
2386 292.6617393469238
2387 292.7437937706663
2388 292.7533079667915
2389 292.8560319717889
2390 292.8463361948625
2391 292.9556131437345
2392 292.9638871059976
2393 293.0597009348577
2394 293.0517427892491
2395 293.1458327814853
2396 293.1496290290705
2397 293.2431389691216
2398 293.247708889819
2399 293.3311662253836
2400 293.3358637413137
2401 293.4050966197817
2402 293.400845670887
2403 293.4739279361722
2404 293.4585797307286
2405 293.5132348980813
2406 293.5084938292649
2407 293.5694207844818
2408 293.5416852512413
2409 293.6109547763241
2410 293.5767664827861
2411 293.6551182954946
2412 293.6217525702066
2413 293.6699085471032
2414 293.6333837303997
2415 293.6828494598573
2416 293.643906729385
2417 293.6890577591831
2418 293.6539256511285
2419 293.7027193869018
2420 293.6697642636503
2421 293.7206645764509
2422 293.68071496202
2423 293.7387356749408
2424 293.700635240885
2425 293.7543837960861
2426 293.7166918143997
2427 293.7720868357991
2428 293.7482959328998
2429 293.8009386210902
2430 293.7756093158926
2431 293.8321545433598
2432 293.8133609900802
2433 293.8599387646994
2434 293.8401477950386
2435 293.8875844688571
2436 293.8698131624649
2437 293.9196534113408
2438 293.8986982932321
2439 293.958142732668
2440 293.9285118389365
2441 293.9921806446283
2442 293.9643316912668
2443 294.0154315699446
2444 293.9837588739933
2445 294.0307512484311
2446 293.9984108277829
2447 294.0540443935565
2448 294.0069338262816
2449 294.0626938004183
2450 294.0181364457084
2451 294.0631159727766
2452 294.0116533145684
2453 294.0605133398216
2454 294.013287329409
2455 294.0501136489777
2456 294.0027220809045
2457 294.0453431026186
2458 293.9995849250578
2459 294.0508004265238
2460 294.0029692556771
2461 294.0571266512957
2462 294.0113088511431
2463 294.0610192734206
2464 294.0143876227853
2465 294.0631143849723
2466 294.0165148990489
2467 294.0667897075471
2468 294.0201167637351
2469 294.0639885124718
2470 294.0139273926329
2471 294.0559324162297
2472 294.0104688018294
2473 294.0447029697117
2474 293.9843694510526
2475 294.0254870197121
2476 293.9616715054898
2477 293.9982004939433
2478 293.9367792685224
2479 293.969856288397
2480 293.9043291215567
2481 293.9421495556866
2482 293.8698031189367
2483 293.9018778565444
2484 293.8275763314505
2485 293.85402172108
2486 293.7814378586722
2487 293.8217422534254
2488 293.7481292175823
2489 293.7885457064854
2490 293.7202339741459
2491 293.7609504117004
2492 293.6910763831597
2493 293.7270365000833
2494 293.6646329348297
2495 293.7015495719759
2496 293.6355498826557
2497 293.6709735736633
2498 293.6048846615649
2499 293.641695920297
2500 293.5748997637436
2501 293.6106063099828
2502 293.5478630944177
2503 293.5807762164833
2504 293.5137648211127
2505 293.5480126250636
2506 293.4714102613913
2507 293.5058958973933
2508 293.4351284295716
2509 293.4571703762382
2510 293.3902335594912
2511 293.4075866004349
2512 293.3463203472033
2513 293.3568006651612
2514 293.2926589435077
2515 293.2957436960238
2516 293.2154274554242
2517 293.2268449062458
2518 293.1412477779872
2519 293.1379337226425
2520 293.062083242559
2521 293.0533321674113
2522 292.9739873913922
2523 292.982245702671
2524 292.8871287760335
2525 292.8958549707329
2526 292.8108061862985
2527 292.797773400082
2528 292.7114370363589
2529 292.7133610671222
2530 292.6181814254369
2531 292.6271519260538
2532 292.5348555797562
2533 292.5369027646363
2534 292.4540850206889
2535 292.457887485411
2536 292.3688662618636
2537 292.3709134663874
2538 292.2754291667309
2539 292.2529221975613
2540 292.1628613617829
2541 292.1651207356527
2542 292.0560980617246
2543 292.0642918736232
2544 291.9538632871937
2545 291.9643526600756
2546 291.8677830014479
2547 291.8760699813789
2548 291.7743093038493
2549 291.791859296531
2550 291.6949900502833
2551 291.7109240182754
2552 291.6198756914555
2553 291.6483156778724
2554 291.569955614076
2555 291.5930654742133
2556 291.5233572959133
2557 291.5616619074927
2558 291.504415642368
2559 291.5473573956914
2560 291.4965367731629
2561 291.5399899831232
2562 291.5023721451485
2563 291.5417917848719
2564 291.5075989215455
2565 291.5557979242348
2566 291.5245840731785
2567 291.5715514107523
2568 291.5378431697485
2569 291.5910017705483
2570 291.567171898647
2571 291.624827593647
2572 291.5892377371312
2573 291.6473407973995
2574 291.6277271286405
2575 291.6790354532656
2576 291.6525099666048
2577 291.7082772620597
2578 291.6829315478759
2579 291.7246477681588
2580 291.6925159093761
2581 291.7398792007104
2582 291.7051594067265
2583 291.7532741939451
2584 291.718275806981
2585 291.7647515637799
2586 291.7315474542386
2587 291.7741720842317
2588 291.7282226236122
2589 291.7654439392724
2590 291.7188584888348
2591 291.7530196520762
2592 291.6955807877698
2593 291.7333889240204
2594 291.677015964308
2595 291.708694699333
2596 291.6475176728931
2597 291.6792941336035
2598 291.6215910263006
2599 291.6473952576955
2600 291.5754861812522
2601 291.6047936269675
2602 291.5440161657505
2603 291.5751067346491
2604 291.5045696960563
2605 291.5346467610813
2606 291.4728518473419
2607 291.5018726551091
2608 291.4320008264918
2609 291.4727481889439
2610 291.4077756982878
2611 291.4428797113675
2612 291.3839802977623
2613 291.418141278436
2614 291.3580651578202
2615 291.3971619172071
2616 291.3384672026594
2617 291.3818537690804
2618 291.3213807675506
2619 291.3557066824548
2620 291.302829971703
2621 291.3319415847687
2622 291.2763618259744
2623 291.3085770624166
2624 291.2413218908957
2625 291.269362304083
2626 291.212098091586
2627 291.2390660624067
2628 291.1718941041932
2629 291.2003140512433
2630 291.1373294913881
2631 291.1614478362562
2632 291.0960285348896
2633 291.1271826624994
2634 291.0682862634251
2635 291.0906366353354
2636 291.033664276718
2637 291.0753524999808
2638 291.011869048858
2639 291.0547895104825
2640 291.0039047425512
2641 291.0546426278413
2642 290.9983863969989
2643 291.0563278837941
2644 291.002678968009
2645 291.0581728319688
2646 291.0140610601603
2647 291.0674256466034
2648 291.0268992096301
2649 291.0949872409539
2650 291.0454632957583
2651 291.1010670534241
2652 291.066843794665
2653 291.120322550688
2654 291.0672817213066
2655 291.1221440679191
2656 291.0698278549876
2657 291.1256204543362
2658 291.0613535583407
2659 291.1131372265608
2660 291.0493987988908
2661 291.0972860929575
2662 291.0394407160717
2663 291.0757520306947
2664 291.0145708248666
2665 291.0528743129686
2666 290.9974287728654
2667 291.0417440913222
2668 291.0001111998801
2669 291.0593773031663
2670 291.0118624407143
2671 291.0766830427013
2672 291.0312404098256
2673 291.1050865466155
2674 291.0646627510714
2675 291.1257580136049
2676 291.1016778601118
2677 291.1684056410775
2678 291.1405909157814
2679 291.2291187202928
2680 291.2050148125738
2681 291.2879159604041
2682 291.2691981412763
2683 291.3690689768713
2684 291.3477776099971
2685 291.4385945573587
2686 291.4332245154435
2687 291.5166788562006
2688 291.5170495887319
2689 291.5995195139883
2690 291.5974800788245
2691 291.6820515424681
2692 291.6694250651469
2693 291.7480756732203
2694 291.7222013608057
2695 291.7993920611807
2696 291.7711222460533
2697 291.846383804031
2698 291.8019926620797
2699 291.8718616599467
2700 291.8233465362907
2701 291.8841939679605
2702 291.8307312352612
2703 291.8981507798992
2704 291.8381145891167
2705 291.8904760931722
2706 291.8372434722551
2707 291.8932751960793
2708 291.8391817089259
2709 291.8858389818357
2710 291.8265342327117
2711 291.8796066479727
2712 291.8195376047282
2713 291.872824252869
2714 291.8141170047848
2715 291.8631252021514
2716 291.8011508115429
2717 291.8508630809718
2718 291.7874939799951
2719 291.8371224802062
2720 291.7787393170245
2721 291.8331429696586
2722 291.776854101812
2723 291.8381321368323
2724 291.7897072396432
2725 291.8525246068635
2726 291.8078597383039
2727 291.8705868786324
2728 291.8261665842866
2729 291.8870929317009
2730 291.8469686424256
2731 291.9151287296367
2732 291.8668701379592
2733 291.945452470923
2734 291.8980631776305
2735 291.9875059851712
2736 291.9391630947713
2737 292.0330887984607
2738 291.9909540402587
2739 292.0885696126692
2740 292.0492085885866
2741 292.1505169516932
2742 292.1167980313024
2743 292.226038042836
2744 292.1856514844882
2745 292.2881985756978
2746 292.2441721796552
2747 292.3448731138965
2748 292.3000721238703
2749 292.4011667135455
2750 292.3610662621928
2751 292.4560467726
2752 292.4101746812301
2753 292.514422966552
2754 292.4649705770797
2755 292.5598520054973
2756 292.5062603563804
2757 292.5920684808198
2758 292.5377978857915
2759 292.6230844683089
2760 292.565804976037
2761 292.6405930812207
2762 292.5824786209905
2763 292.6607679979261
2764 292.6037223164503
2765 292.6739535539576
2766 292.6068086772471
2767 292.6757526154006
2768 292.6059787969888
2769 292.6662607555619
2770 292.5966940669101
2771 292.6577099617637
2772 292.5921004717833
2773 292.6493879853468
2774 292.5763054864162
2775 292.6364546112833
2776 292.5663774054573
2777 292.6231039152483
2778 292.5567793729953
2779 292.6167983257614
2780 292.556543362454
2781 292.6125755924186
2782 292.5523132220047
2783 292.6219601720935
2784 292.5687179577359
2785 292.6332774265968
2786 292.5898543139772
2787 292.6570769649455
2788 292.6081954312035
2789 292.6719676259953
2790 292.6252389609352
2791 292.6880710190786
2792 292.6295979181686
2793 292.6846241076823
2794 292.6218633190437
2795 292.6774717822478
2796 292.6148319589892
2797 292.665939160396
2798 292.6039934450745
2799 292.6592937229924
2800 292.5947511558601
2801 292.6371426414992
2802 292.5733387462648
2803 292.6204316672413
2804 292.5486414550161
2805 292.6048902008268
2806 292.5374688715043
2807 292.5910145828769
2808 292.5328578547642
2809 292.5925416293386
2810 292.5274950482192
2811 292.5919590331715
2812 292.5341633664848
2813 292.5942980767431
2814 292.5307322501722
2815 292.5894778837531
2816 292.5328224262915
2817 292.5948825971022
2818 292.5349441676801
2819 292.6055906977925
2820 292.5611544306408
2821 292.6266078706913
2822 292.5826477592868
2823 292.6606797431916
2824 292.6205194395965
2825 292.7043224853737
2826 292.6656841286361
2827 292.7527360007171
2828 292.7130708703132
2829 292.8000690668405
2830 292.7555370452605
2831 292.8526533594153
2832 292.8149796012316
2833 292.912586833879
2834 292.8799494391871
2835 292.9722519260638
2836 292.9382037315171
2837 293.0212460602025
2838 292.9837149020829
2839 293.0694099971969
2840 293.0250335909767
2841 293.1113204911439
2842 293.0776950068768
2843 293.1609748994568
2844 293.113220275205
2845 293.1945166284764
2846 293.1417985032091
2847 293.2142907566386
2848 293.1632866713563
2849 293.238429078811
2850 293.1985847212836
2851 293.2776424559358
2852 293.2360933933866
2853 293.324224865713
2854 293.2843349251005
2855 293.3635513974218
2856 293.3153981872695
2857 293.3884857963163
2858 293.34470360852
2859 293.4200040198318
2860 293.3753682124477
2861 293.4463054989889
2862 293.4017863052258
2863 293.4775081369612
2864 293.422913224036
2865 293.4961239842237
2866 293.4536341004544
2867 293.5191426304846
2868 293.4616662720725
2869 293.5238497181363
2870 293.4620265206129
2871 293.5178570733727
2872 293.461002097764
2873 293.5170086287914
2874 293.4532039842524
2875 293.5082448206439
2876 293.4440570530872
2877 293.4956644940141
2878 293.4291793111354
2879 293.4772065098011
2880 293.4146966701289
2881 293.4652282019977
2882 293.3929728104367
2883 293.4328080478389
2884 293.3506035087057
2885 293.3934407745866
2886 293.310499594326
2887 293.3447002049457
2888 293.269567599735
2889 293.3072570328945
2890 293.2398778183332
2891 293.2660719027518
2892 293.1857996963814
2893 293.2224452637208
2894 293.1383294797304
2895 293.1697806751561
2896 293.0939944017967
2897 293.1136252120068
2898 293.0529058060091
2899 293.0789426905608
2900 293.0141816184953
2901 293.0460812658907
2902 292.9925446035858
2903 293.0260537813292
2904 292.9662111714908
2905 293.0050969827578
2906 292.9666128811804
2907 293.0051023088417
2908 292.9607527480003
2909 292.9984381376963
2910 292.9519259314258
2911 292.9984869379436
2912 292.9495110920214
2913 292.9923106761417
2914 292.9374194506329
2915 292.9844022548104
2916 292.9281724339442
2917 292.971021633608
2918 292.9082218145157
2919 292.9469770957882
2920 292.8925844810435
2921 292.9323034948823
2922 292.8728883043593
2923 292.9100289882028
2924 292.8487735864798
2925 292.8880543164602
2926 292.8218582829782
2927 292.8522868505252
2928 292.7806993313678
2929 292.8104438423599
2930 292.7219388801392
2931 292.7479398941325
2932 292.663154374264
2933 292.6766631827296
2934 292.5930641107561
2935 292.610415550562
2936 292.5106267775396
2937 292.5214222741291
2938 292.4324202667957
2939 292.4211832103584
2940 292.3309784071765
2941 292.3377814374755
2942 292.2375703201361
2943 292.2224551263909
2944 292.1278596954804
2945 292.1318608672677
2946 292.0248940032465
2947 292.0263258352498
2948 291.8992835917861
2949 291.9042313913069
2950 291.800792002356
2951 291.7978406450609
2952 291.6937616418571
2953 291.7012973126543
2954 291.6049757233919
2955 291.6039703509668
2956 291.4993941478014
2957 291.5006430174072
2958 291.4092329439035
2959 291.4049364732404
2960 291.2937139656965
2961 291.3051289283742
2962 291.2266962785724
2963 291.2394187115796
2964 291.1549648191008
2965 291.1625104019236
2966 291.0707770260132
2967 291.0998347402089
2968 291.0162724896626
2969 291.0252135117256
2970 290.9457519146405
2971 290.9769580580281
2972 290.8878365960779
2973 290.9234059321874
2974 290.8462637282364
2975 290.87565461575
2976 290.8095604929041
2977 290.8412307099042
2978 290.7517690689875
2979 290.7944742560925
2980 290.715454594823
2981 290.7325625258691
2982 290.6611723393485
2983 290.686368862737
2984 290.6044665300913
2985 290.6309578372386
2986 290.5578813606502
2987 290.5697995711075
2988 290.4871668904876
2989 290.5071515129947
2990 290.4066093651963
2991 290.4266055198324
2992 290.3405619124756
2993 290.3601662233497
2994 290.2786348643211
2995 290.295475001931
2996 290.2069009597391
2997 290.2203428573953
2998 290.1340165121254
2999 290.1423993714868
3000 290.0401808998105
3001 290.0423072781736
3002 289.9475675741321
3003 289.9419899140024
3004 289.8401917593026
3005 289.8294656608653
3006 289.7299552819553
3007 289.7104976094525
3008 289.5967506722083
3009 289.5809739804909
3010 289.4631839611426
3011 289.4400215581922
3012 289.3269411372699
3013 289.2934608830215
3014 289.149225538805
3015 289.1303301016086
3016 289.0142935631211
3017 289.0033143966884
3018 288.8892563929863
3019 288.8842813158478
3020 288.7661949323754
3021 288.7572998930731
3022 288.644440718948
3023 288.6069564759282
3024 288.5018747295233
3025 288.4902541512534
3026 288.3893307904719
3027 288.3744778897952
3028 288.2779456888352
3029 288.2326974194087
3030 288.1335146999217
3031 288.1155710523933
3032 288.0053459825733
3033 287.9577471218988
3034 287.8548471998731
3035 287.8302930922686
3036 287.6966277752215
3037 287.6764794958827
3038 287.5656908839882
3039 287.5138100133825
3040 287.4014134858497
3041 287.3748436918714
3042 287.2292962815825
3043 287.1988832978939
3044 287.0828334837313
3045 287.0450458720349
3046 286.8970724621335
3047 286.8599373516538
3048 286.7348418198346
3049 286.6945289882585
3050 286.5639629251325
3051 286.5156484809568
3052 286.3781754608171
3053 286.3306382484451
3054 286.1981475356722
3055 286.1554772555006
3056 286.0156051696443
3057 285.9715552364648
3058 285.8489632617769
3059 285.8047057607961
3060 285.6807772106299
3061 285.6372742201246
3062 285.514766719936
3063 285.4367404713559
3064 285.3230252803564
3065 285.286769547791
3066 285.1357267184469
3067 285.1104662553216
3068 284.9688633789108
3069 284.9437145625683
3070 284.7984175073685
3071 284.7760790902034
3072 284.647330631975
3073 284.6226491813346
3074 284.4829448732393
3075 284.4688198302833
3076 284.3293016677952
3077 284.302294973004
3078 284.1910692068852
3079 284.1677235864392
3080 284.0350881110298
3081 284.0364784434983
3082 283.9080273865702
3083 283.8877410631163
3084 283.7868331681366
3085 283.7628185921421
3086 283.6663946125491
3087 283.6459775064235
3088 283.5541779960867
3089 283.5355946346742
3090 283.4422265411908
3091 283.4204170042302
3092 283.3260068683263
3093 283.3003962736596
3094 283.1964701921725
3095 283.1730836317591
3096 283.0726018796249
3097 283.0443640469254
3098 282.9444546971864
3099 282.9295553744859
3100 282.8021639000925
3101 282.793698639758
3102 282.6560097043887
3103 282.6470522554127
3104 282.5056783114003
3105 282.4971354013534
3106 282.3563110861097
3107 282.3415786798961
3108 282.1959028836008
3109 282.1788913580676
3110 282.0261451747646
3111 282.0074225989508
3112 281.852053127457
3113 281.8313079308134
3114 281.6680795123123
3115 281.6561921317484
3116 281.4988811805446
3117 281.4796484805761
3118 281.3187380307865
3119 281.2968008333571
3120 281.1452235629819
3121 281.1217737599046
3122 280.9668605986369
3123 280.9446980035274
3124 280.8003047231961
3125 280.7797890619978
3126 280.6289583206699
3127 280.6139744180297
3128 280.4685010055925
3129 280.4515522990138
3130 280.307068747424
3131 280.2878378143081
3132 280.1453193766031
3133 280.1237921444644
3134 279.9773742237354
3135 279.9546288998292
3136 279.8093119438211
3137 279.7934480025143
3138 279.6485221361772
3139 279.6403183395761
3140 279.4938871887653
3141 279.4846984814938
3142 279.3375194604225
3143 279.3294392359597
3144 279.1789055863236
3145 279.1708816047557
3146 279.0182893230801
3147 278.988590729661
3148 278.8697797379995
3149 278.8415493275976
3150 278.6981657926633
3151 278.6987311408814
3152 278.5497892201602
3153 278.5192565678847
3154 278.4099854183879
3155 278.3734685055723
3156 278.2354762942255
3157 278.2309781848447
3158 278.086610143462
3159 278.0610614267885
3160 277.9565330596236
3161 277.9299523749775
3162 277.8074191626701
3163 277.8056020844584
3164 277.6735517552689
3165 277.673124427043
3166 277.5420850629678
3167 277.5424862534888
3168 277.4128994225362
3169 277.4170615782002
3170 277.2899845886645
3171 277.2987431466951
3172 277.1635631385615
3173 277.1660718891337
3174 277.032297741399
3175 277.0301232903852
3176 276.8908100896752
3177 276.881502468937
3178 276.74895525443
3179 276.7435199788887
3180 276.611421380346
3181 276.6116409420921
3182 276.4748761630285
3183 276.4851956618413
3184 276.3596467585704
3185 276.3699589485203
3186 276.2618803257455
3187 276.280361260496
3188 276.1741709066924
3189 276.200147591177
3190 276.1063087815352
3191 276.1350184608856
3192 276.0440426806122
3193 276.0752044456473
3194 275.9928794458899
3195 276.0255502381292
3196 275.9427637433616
3197 275.977206876247
3198 275.8915545347378
3199 275.919065935009
3200 275.8287095447333
3201 275.8533677819385
3202 275.7560385363828
3203 275.7746168328057
3204 275.6674891478045
3205 275.6865011839303
3206 275.5767790099455
3207 275.5981782237456
3208 275.4810192322997
3209 275.4969397997452
3210 275.3823449977978
3211 275.4021939412426
3212 275.2988573368655
3213 275.3031420479107
3214 275.2024564748239
3215 275.231768316813
3216 275.1321341036383
3217 275.1631935969403
3218 275.0639610502183
3219 275.0942185178934
3220 274.9900737752122
3221 275.0331178839957
3222 274.9435108079551
3223 274.987432771048
3224 274.9142439552568
3225 274.9649197346171
3226 274.8974000663517
3227 274.9592136495518
3228 274.8987125374747
3229 274.9643487856777
3230 274.9106026603787
3231 274.972350052679
3232 274.9309766706185
3233 274.997648471038
3234 274.9531509897895
3235 275.0172045224781
3236 274.9730421231618
3237 275.0291275413899
3238 274.9809305037771
3239 275.0389977650442
3240 274.9862322737008
3241 275.0425774692508
3242 274.989777610269
3243 275.0411989351488
3244 274.9855939988672
3245 275.0211306237708
3246 274.9566353710769
3247 274.983399168379
3248 274.9188404912946
3249 274.9409804392814
3250 274.8742112759995
3251 274.904080159136
3252 274.8274299826417
3253 274.8623880352724
3254 274.7920021706418
3255 274.8154498440388
3256 274.7521227137846
3257 274.7777823202568
3258 274.6921870710945
3259 274.718384061648
3260 274.633193523707
3261 274.6513853722008
3262 274.5574435536653
3263 274.58473417869
3264 274.4972104141867
3265 274.5267649341862
3266 274.4461769753517
3267 274.4764962131429
3268 274.3878105696464
3269 274.4191831043792
3270 274.3333471729027
3271 274.3646575243278
3272 274.2889180050228
3273 274.3284199166871
3274 274.2615293082727
3275 274.3101027944268
3276 274.24867582306
3277 274.3025330792181
3278 274.2524444724894
