"mx-rfile"
"Iteration" "mx"
("Iteration" "mx")
1 221.9470108453357
2 222.4057326540767
3 195.2606044194924
4 172.9686376167828
5 140.323286232368
6 119.2012619105035
7 90.08639057229394
8 68.05686603386141
9 46.43738063404547
10 27.19544191235602
11 10.59262366641127
12 -1.009434243669016
13 -8.406376184369982
14 -12.25522025758848
15 -12.73724610396413
16 -11.06370319862277
17 -7.831037042363519
18 -3.495465299213476
19 0.8031510358781316
20 5.48238157838076
21 9.637036676882383
22 13.50064875408273
23 16.91083072967513
24 19.89398713676118
25 22.41338548037458
26 24.68324422771394
27 26.43033086170816
28 27.76743844189305
29 28.59744998832513
30 29.08715736278102
31 29.32617211735437
32 29.36897800128257
33 29.30215656707466
34 29.1512135097608
35 28.98572268585419
36 28.81743199316262
37 28.66320878390549
38 28.54305197892978
39 28.44336096099424
40 28.37498383771815
41 28.32302350535143
42 28.286451611178
43 28.26338826654878
44 28.26684974865654
45 28.28144990111211
46 28.30729351472599
47 28.33642948340335
48 28.37081135948521
49 28.40216052317694
50 28.430071480544
51 28.44832553391137
52 28.45829838297684
53 28.46567622345315
54 28.46861737802784
55 28.47097189331009
56 28.46483609608536
57 28.46000070098482
58 28.4570461836308
59 28.4562838950695
60 28.45444874656105
61 28.45248333930913
62 28.45409264447711
63 28.45343292179027
64 28.45148229167372
65 28.44710802505979
66 28.44020259706872
67 28.4270296783501
68 28.4064376860593
69 28.38732264759524
70 28.35338250491725
71 28.32429061124666
72 28.28442986385578
73 28.24255848510763
74 28.20521148393708
75 28.16704711592341
76 28.1248889712497
77 28.08964721651519
78 28.05364185050546
79 28.01557479690115
80 27.98729595330641
81 27.94932205292557
82 27.91925140272154
83 27.88791499541832
84 27.85574247322136
85 27.82257926618044
86 27.78852950832254
87 27.75349734413525
88 27.71735631249606
89 27.67958055996585
90 27.62769313643928
91 27.58617112472713
92 27.53046041470235
93 27.47517901728756
94 27.42004882017083
95 27.36615610098846
96 27.31173384474221
97 27.27083730423441
98 27.21532648191318
99 27.1723916935466
100 27.12796574116292
101 27.08277708664132
102 27.03611485955663
103 26.98884372992195
104 26.9413180709675
105 26.89227802380286
106 26.84224862253715
107 26.79175325700871
108 26.75733173841714
109 26.70455334967532
110 26.66858798682942
111 26.61448512418763
112 26.57825473278028
113 26.52332816508008
114 26.4867557869038
115 26.43121241984308
116 26.37677557474196
117 26.34043643722723
118 26.28557552421939
119 26.23275178360156
120 26.18150460616802
121 26.13130848678956
122 26.09786232899021
123 26.04854898856122
124 26.01649113486812
125 25.96907147296909
126 25.93799584286283
127 25.8912437833152
128 25.86077401024993
129 25.81635514555639
130 25.786668620952
131 25.74329323190442
132 25.71477383915971
133 25.68685691964492
134 25.65954382670883
135 25.63248932618493
136 25.60560016073065
137 25.57870374781326
138 25.55284947311661
139 25.52726014851019
140 25.50204139460655
141 25.47764033944824
142 25.44245595891757
143 25.41927525793143
144 25.39711395128753
145 25.36567925160361
146 25.34596712125016
147 25.3177037863867
148 25.29996192305777
149 25.27410876369587
150 25.25768596863705
151 25.23470689075283
152 25.21998023225807
153 25.19847479625692
154 25.18463046759238
155 25.16481519695657
156 25.15242704905998
157 25.13427871328188
158 25.12292356621261
159 25.10632231635973
160 25.09645355736929
161 25.08685934208752
162 25.07757920546069
163 25.06491915974888
164 25.05758816187227
165 25.05128320731368
166 25.04601178582026
167 25.04150444580866
168 25.03796506815668
169 25.03596834403601
170 25.03582991642768
171 25.03709536562454
172 25.04041640680484
173 25.04493970458697
174 25.05128395380266
175 25.05958054137933
176 25.06917720222968
177 25.07996837536659
178 25.09278685399107
179 25.10682844972122
180 25.12306833607033
181 25.14121213082062
182 25.16006528162596
183 25.18086087864055
184 25.21302425002641
185 25.2354316360883
186 25.25923283127388
187 25.28356674225721
188 25.30934154154081
189 25.34885842044351
190 25.37554003383419
191 25.4030049892109
192 25.44458491530382
193 25.47248228751627
194 25.50058217967537
195 25.54308864694952
196 25.57140735152191
197 25.61359282561341
198 25.64146981410589
199 25.68334907625825
200 25.71130341559114
201 25.75270607781834
202 25.77979998211407
203 25.81925171576452
204 25.85753768876378
205 25.89447659065461
206 25.91845829628183
207 25.95333020376345
208 25.98642860957174
209 26.01837631757297
210 26.048471998925
211 26.07702753518764
212 26.10365015782176
213 26.12047097639233
214 26.14473721414939
215 26.16747993934827
216 26.18889395595637
217 26.20898724760892
218 26.22755789910353
219 26.23898035866001
220 26.25508124757059
221 26.2703470699975
222 26.2843859208331
223 26.29309430048777
224 26.30513442252195
225 26.31659651366683
226 26.32351014287683
227 26.33330316360092
228 26.34235948149733
229 26.34818730718663
230 26.35601076022242
231 26.36328767544625
232 26.36764238645517
233 26.37368265421068
234 26.37735078635837
235 26.38222809163207
236 26.38505419500674
237 26.3887802959724
238 26.39105970038712
239 26.39407502917374
240 26.39579254620509
241 26.39788720532817
242 26.39892631332771
243 26.40021947317258
244 26.40087057666844
245 26.40137478266569
246 26.40157213078721
247 26.40159429030809
248 26.40148389450168
249 26.40106555116924
250 26.400173238153
251 26.39945102512029
252 26.39853734251147
253 26.39744489616715
254 26.39566535893339
255 26.39436797031079
256 26.39298687790147
257 26.39146102819976
258 26.38992792274285
259 26.38728146000213
260 26.38561138274412
261 26.38373648686093
262 26.38172499847919
263 26.37966355747542
264 26.37755056656304
265 26.37537819558434
266 26.37318738643973
267 26.37086862887269
268 26.36846513944606
269 26.36593500176669
270 26.36344048681159
271 26.36077093626259
272 26.35819495737283
273 26.35547502847326
274 26.35274305378491
275 26.3487300822804
276 26.34614925941981
277 26.34337652008998
278 26.34065359976423
279 26.33786219017944
280 26.33509181199249
281 26.33218864755747
282 26.32931254300221
283 26.32494240226121
284 26.32211678953173
285 26.3192155563152
286 26.31635650330382
287 26.31205873738524
288 26.30931533587085
289 26.30645453190299
290 26.30365542397293
291 26.3007855658086
292 26.29658227747336
293 26.2938366005679
294 26.29108439359573
295 26.28828545842369
296 26.28547287682893
297 26.28265282349738
298 26.27989390821
299 26.27707355985246
300 26.27426598489341
301 26.27142550410668
302 26.26866305758428
303 26.2658478038487
304 26.2631126625286
305 26.26035386282514
306 26.25763335053852
307 26.25489987647468
308 26.25225356244507
309 26.24959651188922
310 26.24702257423019
311 26.24447819645887
312 26.2419994561962
313 26.23950829643377
314 26.23710972406997
315 26.23466443381763
316 26.23237516716679
317 26.23007747796972
318 26.22789529352448
319 26.22571344600226
320 26.22359498389786
321 26.22145727654377
322 26.21941516329815
323 26.21736449933724
324 26.21539513869438
325 26.21342818334596
326 26.21158578773715
327 26.20971062741208
328 26.20793477809487
329 26.20614325957386
330 26.20441562752962
331 26.20268222659731
332 26.20106231408665
333 26.19945725989128
334 26.19799030975655
335 26.19655969918544
336 26.19525638325215
337 26.19399667328061
338 26.19283024803566
339 26.19170065800665
340 26.19072883274625
341 26.18979786595622
342 26.18902737769287
343 26.18831075901063
344 26.18774463706209
345 26.18719446731188
346 26.18680456070694
347 26.18644594188488
348 26.18624727866813
349 26.18607810082755
350 26.18606964872572
351 26.18608910251379
352 26.18626719994375
353 26.18645923648008
354 26.18677092823177
355 26.18709997577787
356 26.18755815660048
357 26.1880288243524
358 26.18860359109972
359 26.18917089101458
360 26.18984073248984
361 26.19052419551448
362 26.19132204741621
363 26.19207749211659
364 26.19295705670089
365 26.19382474790157
366 26.19480032078821
367 26.1957854501662
368 26.19691366546574
369 26.19862701729268
370 26.19985164431696
371 26.20107284489379
372 26.20307788195973
373 26.20439218124626
374 26.20584390632477
375 26.20801176558802
376 26.20954963001033
377 26.21107676709471
378 26.21274733948263
379 26.21443357686745
380 26.21714648489903
381 26.21894491879145
382 26.22181650276369
383 26.22370586716843
384 26.22673493853819
385 26.22870977080409
386 26.23179755429026
387 26.23476987097762
388 26.23678572480347
389 26.23978503690113
390 26.24183819333112
391 26.24488348477018
392 26.24697804810248
393 26.25010794367536
394 26.25223683220807
395 26.2554349425446
396 26.25765915810092
397 26.26098135427247
398 26.2643682132535
399 26.26769391364805
400 26.27106591737093
401 26.2743631389661
402 26.27772155906248
403 26.28101278101022
404 26.28434511731231
405 26.28764283801743
406 26.29101601312671
407 26.29432406818371
408 26.29770520054676
409 26.30105046637372
410 26.30449438737612
411 26.30791673599068
412 26.31143930518016
413 26.31497151860769
414 26.31859712078762
415 26.32219702269251
416 26.32588416852732
417 26.32955323579107
418 26.33330132366103
419 26.33700400480495
420 26.34078329613161
421 26.34452743476226
422 26.34833722451181
423 26.35210673636257
424 26.35594054673191
425 26.35973544397579
426 26.36359147504691
427 26.36740180840679
428 26.3712918221082
429 26.37513480125891
430 26.3790580051289
431 26.38294584127026
432 26.38689338408485
433 26.39080049512279
434 26.39479779606737
435 26.39874197693669
436 26.4027697956245
437 26.40675115292405
438 26.41080153034711
439 26.41480466326686
440 26.41887114726299
441 26.42287318722842
442 26.42692492543074
443 26.4309171253447
444 26.43496272816256
445 26.43893923140389
446 26.4429579791689
447 26.44690147189501
448 26.4508873633896
449 26.45479693985914
450 26.45873979617832
451 26.46261649101974
452 26.46652750555751
453 26.47035213881264
454 26.47421438623289
455 26.47800082129096
456 26.48182158343134
457 26.4855727456376
458 26.48936881068908
459 26.49310052325126
460 26.49688135253522
461 26.50060057099326
462 26.50437555782926
463 26.50809120079259
464 26.51187273807445
465 26.51560177266968
466 26.51937513415087
467 26.52310386909864
468 26.5268818213433
469 26.53059109240446
470 26.53433823864724
471 26.53801856656872
472 26.54172400182755
473 26.54534953340276
474 26.54899854342804
475 26.55255283215575
476 26.55610793339632
477 26.5595925381709
478 26.56308953896668
479 26.56649850082187
480 26.56995190751082
481 26.57332146830306
482 26.57672291204463
483 26.58004807764686
484 26.58340541024221
485 26.58668442088728
486 26.5899978136659
487 26.59323275694151
488 26.59651614447238
489 26.59973384836161
490 26.60298859933698
491 26.60616528636291
492 26.60938830730412
493 26.6125447237102
494 26.61575566423843
495 26.61890476391184
496 26.62209852372405
497 26.6252192111062
498 26.6283866484892
499 26.63147601561247
500 26.63461129770338
501 26.63766631656582
502 26.6407529235512
503 26.64374909123773
504 26.64675423191889
505 26.64966444288209
506 26.65259463536791
507 26.65542406220165
508 26.65826587372285
509 26.66101806031311
510 26.6638203649801
511 26.66652656159313
512 26.66925755411469
513 26.6719196174042
514 26.6746223244072
515 26.67725051820619
516 26.67992704339059
517 26.68254361447325
518 26.68519718567709
519 26.68778723037847
520 26.69043882389117
521 26.69302462987636
522 26.69566834326187
523 26.69824735422996
524 26.700876182354
525 26.70343071972424
526 26.70601356152738
527 26.7085297899813
528 26.71106062174462
529 26.71351236820984
530 26.71600402422309
531 26.71841028009587
532 26.7208456142007
533 26.72320481041254
534 26.72557485391548
535 26.72786148924406
536 26.73017017250918
537 26.73240042730187
538 26.73465540331796
539 26.73682728618449
540 26.73903585315997
541 26.74115560325457
542 26.74332157635795
543 26.74541594116583
544 26.74755005051734
545 26.74961794809047
546 26.75174101807675
547 26.75379928387313
548 26.75592534405628
549 26.75798746756952
550 26.760108709249
551 26.76217168849267
552 26.76429043980251
553 26.76634156671162
554 26.76843956319575
555 26.77046439919078
556 26.77252709393276
557 26.77450930121447
558 26.77652916217653
559 26.77846538069308
560 26.78042019897145
561 26.78228339259211
562 26.78418475702559
563 26.78597629692754
564 26.78780089752534
565 26.78954114793731
566 26.79131439671811
567 26.7930178451889
568 26.79476144990133
569 26.79643016170494
570 26.79814710438783
571 26.79979972072002
572 26.80150318545336
573 26.80314417657427
574 26.80484057785511
575 26.80648207868153
576 26.80816300421482
577 26.80979349873806
578 26.81148827301536
579 26.81311800989127
580 26.81480129279892
581 26.81641182885813
582 26.81807495261281
583 26.81966211345624
584 26.82128103575997
585 26.82282647655526
586 26.82441482456398
587 26.82592341662837
588 26.82747033866386
589 26.82892460244691
590 26.83041422999807
591 26.83181956095508
592 26.83326137755695
593 26.83461828708347
594 26.83557415395687
595 26.83697263506201
596 26.83841337068877
597 26.83977156316437
598 26.84118418385372
599 26.8425352286848
600 26.84393324612009
601 26.84527802923242
602 26.84667689382196
603 26.84800959612652
604 26.84939189113968
605 26.85070754692022
606 26.8520655742408
607 26.85335720233509
608 26.85427073766676
609 26.85558527270643
610 26.85694270470176
611 26.85822796981448
612 26.85955360634707
613 26.86079384895604
614 26.8620762966533
615 26.8632916392595
616 26.8645388175329
617 26.86570488990806
618 26.86689208233208
619 26.86799732421597
620 26.86913726053419
621 26.87020479689257
622 26.8709606440835
623 26.87204068763322
624 26.87281219549754
625 26.87391659207365
626 26.8750578678725
627 26.87614704307562
628 26.87726992426883
629 26.87833072122515
630 26.87944404000362
631 26.8805084656155
632 26.88161335075183
633 26.88265009084563
634 26.88373699655981
635 26.88442269992603
636 26.88554664571821
637 26.88625777543716
638 26.88741520765033
639 26.88850347464145
640 26.8896285299482
641 26.8906827917451
642 26.8917728990513
643 26.89278700404319
644 26.89383067973913
645 26.89479322983625
646 26.8957692050302
647 26.89666078282462
648 26.89757680299128
649 26.8984137128952
650 26.89926767094995
651 26.8997902963833
652 26.90065928289436
653 26.90119281583264
654 26.90207068063746
655 26.90288215457713
656 26.90374735827697
657 26.90454750924001
658 26.90540409469603
659 26.90619778617996
660 26.90704877456751
661 26.90783675034484
662 26.90867836723722
663 26.90946120095644
664 26.91003574551616
665 26.910848979875
666 26.91144321775558
667 26.91229522884059
668 26.91318891856984
669 26.91373773155478
670 26.91465616061213
671 26.91551963972979
672 26.9164236267287
673 26.91725506522003
674 26.91811392067092
675 26.91888151510013
676 26.91967302870745
677 26.9203799311316
678 26.92111558432362
679 26.9215492678927
680 26.92225931465602
681 26.92267376042251
682 26.92336956140803
683 26.92399442462802
684 26.92465838070848
685 26.9252627156583
686 26.92590340308842
687 26.92649453365706
688 26.92714616953823
689 26.92773949249975
690 26.92839128329
691 26.92899354938689
692 26.92965431273279
693 26.93005577342959
694 26.93074119342751
695 26.93115415329756
696 26.93185025462356
697 26.93227215863879
698 26.93298825026638
699 26.93364480567936
700 26.93434743038974
701 26.93498587243209
702 26.93566800463977
703 26.93627772630933
704 26.93691029120382
705 26.93747962299322
706 26.93806861200615
707 26.93841111703352
708 26.93898743858768
709 26.93948554039491
710 26.939854760454
711 26.94034515105228
712 26.94087621734967
713 26.94135144942836
714 26.94187466683284
715 26.94234272110649
716 26.94285929811275
717 26.94332015568023
718 26.94383780830219
719 26.94430333033325
720 26.94481463084288
721 26.94528872035248
722 26.94565619680904
723 26.94614684241973
724 26.94652593405018
725 26.94703052878952
726 26.94758455582898
727 26.94808024228669
728 26.94862497739619
729 26.94910596445279
730 26.94962743625304
731 26.95007959670082
732 26.95057174530518
733 26.95098017369966
734 26.95144209338925
735 26.95182781944651
736 26.95224915559947
737 26.95247889713253
738 26.95290201193669
739 26.95314047540254
740 26.9535729199476
741 26.95394422880399
742 26.95436837518965
743 26.95473390461186
744 26.95515010680578
745 26.95550516433992
746 26.95591357831307
747 26.95626556480329
748 26.95667635121394
749 26.95703075405626
750 26.95744451336269
751 26.95767549378392
752 26.95811015925695
753 26.95835448497757
754 26.95879847331492
755 26.95918964900479
756 26.95964379805353
757 26.96003393304364
758 26.96047267687608
759 26.96084423895524
760 26.96126036064488
761 26.96160761682668
762 26.96198711955817
763 26.96229828263817
764 26.96264804144825
765 26.9629196746295
766 26.96314044380503
767 26.9632989860967
768 26.96361253511544
769 26.96376687539884
770 26.96407199740636
771 26.9643211239756
772 26.96462636829097
773 26.96487883904973
774 26.96520956453983
775 26.9654673022331
776 26.96581228309499
777 26.9659985060996
778 26.96637122353149
779 26.96669325066871
780 26.96696441461682
781 26.96731310900095
782 26.96771936641554
783 26.96794884779514
784 26.96836952484736
785 26.96873751746663
786 26.96914552304682
787 26.96947600517992
788 26.96985680011733
789 26.97017160327451
790 26.97053355155149
791 26.97082089155831
792 26.97114946295871
793 26.97141177239908
794 26.9717103375706
795 26.97185802668043
796 26.97214369572134
797 26.97228692789156
798 26.97256958496443
799 26.97278791696652
800 26.97305831299804
801 26.97326402918771
802 26.97352366447607
803 26.97373136009556
804 26.97400142228591
805 26.97421646842982
806 26.97450271046545
807 26.9747542387215
808 26.97497782165234
809 26.9752579331464
810 26.97550354935219
811 26.97581291916041
812 26.97607129729757
813 26.97639639866964
814 26.97677130633231
815 26.9770827113566
816 26.97743698647485
817 26.97772470928152
818 26.97805193016651
819 26.97830165553681
820 26.97858718780753
821 26.9787992243759
822 26.97904787310884
823 26.97922375722844
824 26.97938454257369
825 26.97954813989654
826 26.97968470913623
827 26.9798224652693
828 26.98000689882336
829 26.98014127495755
830 26.98032834595546
831 26.98046530295381
832 26.98066010029312
833 26.98080901306218
834 26.98101902002557
835 26.98118502896722
836 26.98141534086848
837 26.98153168316628
838 26.98179427252628
839 26.98193056208752
840 26.98221606147974
841 26.98244778815702
842 26.98272215251934
843 26.98294114181434
844 26.98322097865672
845 26.98343570182535
846 26.98369704933561
847 26.983893417169
848 26.98412213529995
849 26.98427971467981
850 26.98447637710913
851 26.98460546230767
852 26.98477631724435
853 26.98487951694235
854 26.98499490404553
855 26.9850910168567
856 26.98523170434298
857 26.98531762599934
858 26.98545773687455
859 26.98554883615537
860 26.98572006492508
861 26.98583970855468
862 26.98601344497219
863 26.9861459678011
864 26.98634755383948
865 26.98650752784984
866 26.98667124061421
867 26.98685762262303
868 26.98703241489556
869 26.9872297619937
870 26.98747453909114
871 26.98765936516507
872 26.98789491872878
873 26.98807474938925
874 26.98830497972438
875 26.98847703363657
876 26.98869475695048
877 26.98883708069764
878 26.98902297691727
879 26.98912862540904
880 26.98929881783841
881 26.98938218415298
882 26.9894789820244
883 26.98955722750068
884 26.9896832468127
885 26.98974266375391
886 26.98985424253128
887 26.9899102397977
888 26.99001810515688
889 26.99007663287561
890 26.99019152693833
891 26.99024996573045
892 26.99037416645002
893 26.99046423212627
894 26.99061878199135
895 26.9907297172275
896 26.99085998951898
897 26.99099515725504
898 26.99119104517684
899 26.99128409322633
900 26.99150116692111
901 26.99166408720065
902 26.99188160244817
903 26.99204161341002
904 26.99224301631484
905 26.99237778023475
906 26.99253962233503
907 26.99263315156731
908 26.9927814298872
909 26.992819121782
910 26.99293116072274
911 26.99294970069805
912 26.99304710645709
913 26.99307947713339
914 26.99315547184626
915 26.99317899866567
916 26.99325754527672
917 26.99328476129768
918 26.99337216049922
919 26.99341467894163
920 26.99352273354613
921 26.99359305279984
922 26.99373085938419
923 26.99382873470059
924 26.9939473336068
925 26.99406673588206
926 26.99423430809081
927 26.9943558876905
928 26.99454424166737
929 26.99467883402574
930 26.99486683627848
931 26.99499886199838
932 26.99517945697957
933 26.99529482645041
934 26.99543820795907
935 26.99551583233016
936 26.99563512720554
937 26.99568818102451
938 26.99578137285847
939 26.99578780947881
940 26.99586469562064
941 26.99587327926066
942 26.99592808615722
943 26.99592680915009
944 26.99600009296953
945 26.99599726380741
946 26.99607811141787
947 26.99610537705355
948 26.9961930336687
949 26.99623362424893
950 26.9963370661641
951 26.99639480438353
952 26.99651040155324
953 26.99654699896082
954 26.99667879381252
955 26.99676239599762
956 26.99691748353096
957 26.997004921431
958 26.99715904374687
959 26.99726311688697
960 26.99742029456418
961 26.99752388776959
962 26.99767417034809
963 26.99775554233643
964 26.9978839159985
965 26.9979465096215
966 26.99805547270466
967 26.99809540544948
968 26.99817881383316
969 26.99818314937247
970 26.99825113379745
971 26.99823428132141
972 26.99828753782333
973 26.99827881316054
974 26.998326039781
975 26.99832212534092
976 26.99837816195132
977 26.99839158459852
978 26.99847086795672
979 26.99850962703343
980 26.99861063835092
981 26.99866873056531
982 26.99878657389039
983 26.9988561464672
984 26.99898430780249
985 26.99907300829612
986 26.99921147017597
987 26.99928271361266
988 26.99940883763646
989 26.99947704591185
990 26.99959206153162
991 26.99964469606104
992 26.99973519359074
993 26.99976360376769
994 26.99984136774507
995 26.99985236254733
996 26.99990615956768
997 26.9998897967549
998 26.99993624562085
999 26.99992817861998
1000 26.99996941803356
1001 26.99996224422959
1002 27.00000905552084
1003 27.00000383681395
1004 27.0000561477497
1005 27.0000608458127
1006 27.00011709143739
1007 27.00014255069393
1008 27.00022643127864
1009 27.00026459973085
1010 27.00034184426218
1011 27.00039844943514
1012 27.00051721439409
1013 27.00059333008733
1014 27.00072534189387
1015 27.00080954134713
1016 27.00094318200218
1017 27.00101748506869
1018 27.00114150216293
1019 27.00120291491469
1020 27.00129567546735
1021 27.00133700284529
1022 27.00140680996198
1023 27.00141064175401
1024 27.00145498885197
1025 27.00142901841299
1026 27.00145150924957
1027 27.0014139069293
1028 27.00142787446466
1029 27.00138961628045
1030 27.00140723282895
1031 27.00137679493552
1032 27.00140327380426
1033 27.00138417181187
1034 27.00143161460531
1035 27.00142853312372
1036 27.00149447789492
1037 27.00152872037591
1038 27.00162478037939
1039 27.00164875604166
1040 27.00176145191268
1041 27.00179487953485
1042 27.00192582613154
1043 27.00200222407929
1044 27.00213202613847
1045 27.00220817693836
1046 27.00233686767029
1047 27.00240917571287
1048 27.00253006837212
1049 27.00257679036486
1050 27.00266731567999
1051 27.00268788583078
1052 27.00274848148565
1053 27.002733891913
1054 27.00276052689573
1055 27.00273496279939
1056 27.00274868243311
1057 27.00268538174781
1058 27.00267896869882
1059 27.00261844517066
1060 27.00261471968036
1061 27.00256199494546
1062 27.0025742363121
1063 27.00254638932557
1064 27.00258673361294
1065 27.00258857367686
1066 27.00266004280173
1067 27.00269414569188
1068 27.00279695236188
1069 27.00285788076201
1070 27.00295181609844
1071 27.00303074683423
1072 27.00315706793398
1073 27.00322243712532
1074 27.00332169770621
1075 27.00336082207723
1076 27.00345578482573
1077 27.00347212059177
1078 27.00353294217315
1079 27.00352881638112
1080 27.00357095175369
1081 27.00354365694404
1082 27.00356564113995
1083 27.0035264943929
1084 27.00354386898338
1085 27.00350757677841
1086 27.00351619846407
1087 27.00347551398699
1088 27.00348762225339
1089 27.00344990286494
1090 27.00347419691809
1091 27.00345450655927
1092 27.00349975710658
1093 27.0035148031793
1094 27.00356624003491
1095 27.00359452405072
1096 27.00368225568888
1097 27.00372293414275
1098 27.00382446003101
1099 27.00387749540149
1100 27.00398349435465
1101 27.00403732781825
1102 27.00414217065036
1103 27.00419061653883
1104 27.00428641275028
1105 27.00433250723283
1106 27.00440751188054
1107 27.00440050764371
1108 27.00443786410972
1109 27.00441050018929
1110 27.0044264210597
1111 27.00438276084819
1112 27.0043907227607
1113 27.0043379651161
1114 27.00433378201922
1115 27.00428014907558
1116 27.00428205356827
1117 27.00423311381466
1118 27.00424982177926
1119 27.00422168185776
1120 27.00426038695716
1121 27.00425763432746
1122 27.00432100496501
1123 27.00433855238377
1124 27.00439482433958
1125 27.00443217099613
1126 27.00453531248529
1127 27.00459200019336
1128 27.0047047673299
1129 27.00475780132386
1130 27.00485938425758
1131 27.00490157750158
1132 27.00499195724583
1133 27.00501972719584
1134 27.00509625751732
1135 27.00509887363429
1136 27.00514691789178
1137 27.00512986395029
1138 27.00517235820504
1139 27.00513368718768
1140 27.00514734871317
1141 27.00510379272267
1142 27.00511036794828
1143 27.00505094973511
1144 27.00504460478863
1145 27.00498270220007
1146 27.00497356979974
1147 27.00491797296145
1148 27.00492287610735
1149 27.00488309564465
1150 27.00490756256476
1151 27.00489254821156
1152 27.00493294762411
1153 27.00493713696338
1154 27.00502131900846
1155 27.00505596712841
1156 27.00515050560128
1157 27.00519173716543
1158 27.0052895175477
1159 27.00532923373674
1160 27.00542026215546
1161 27.00545168351784
1162 27.00553287265238
1163 27.00554095238445
1164 27.00559585934145
1165 27.00558273954897
1166 27.00561847234448
1167 27.00558803384813
1168 27.00560706753573
1169 27.00556887523835
1170 27.00557817684703
1171 27.00552484479171
1172 27.00553621988385
1173 27.00548554989914
1174 27.00548349701281
1175 27.00543237598073
1176 27.00544606818168
1177 27.00541329873153
1178 27.00544646183016
1179 27.00543669353243
1180 27.00549120016554
1181 27.00550333101984
1182 27.00558183200996
1183 27.0056153165272
1184 27.00568283730771
1185 27.00572335667739
1186 27.00581474051836
1187 27.0058555328808
1188 27.00594949187597
1189 27.00598877110954
1190 27.00607487254104
1191 27.00609629265665
1192 27.00613695622946
1193 27.00612182366777
1194 27.00614804426421
1195 27.00610541286006
1196 27.00610791762769
1197 27.00604413635835
1198 27.00603141346221
1199 27.00595827217997
1200 27.00593468888138
1201 27.00586118198591
1202 27.00584693479811
1203 27.00578854034675
1204 27.00579701033013
1205 27.00576439886319
1206 27.00581490180017
1207 27.00581029042619
1208 27.00587639794624
1209 27.00590328015377
1210 27.00599590885651
1211 27.006042657538
1212 27.00614553182874
1213 27.00619177388166
1214 27.0062828904465
1215 27.00631718726536
1216 27.00639610133451
1217 27.00641811432742
1218 27.00648812005851
1219 27.00649824705896
1220 27.00653010006705
1221 27.00650076904476
1222 27.00652569574919
1223 27.00648560073586
1224 27.00648960954285
1225 27.00643173760352
1226 27.00642162272573
1227 27.00635545512209
1228 27.00633436383173
1229 27.00625672645543
1230 27.00623298687055
1231 27.00615938274694
1232 27.0061453917913
1233 27.00608668883569
1234 27.00609386808001
1235 27.00606250838191
1236 27.00610262024099
1237 27.0061059019373
1238 27.00618076388201
1239 27.00621606970959
1240 27.0063270840171
1241 27.00638280187371
1242 27.00648527756339
1243 27.00653399084705
1244 27.00663534778874
1245 27.00668117079955
1246 27.00677399586893
1247 27.00680318140174
1248 27.00687442942156
1249 27.00686588016153
1250 27.00689668478212
1251 27.00685992225972
1252 27.0068664758095
1253 27.0068066670212
1254 27.00680738054364
1255 27.00673344006709
1256 27.00670474401056
1257 27.00661563687559
1258 27.00658775715268
1259 27.00651018381026
1260 27.00648654457607
1261 27.00643810387339
1262 27.00644138115681
1263 27.00640650934434
1264 27.00644128117177
1265 27.00643982902826
1266 27.00650570692324
1267 27.00653267546229
1268 27.00661791118138
1269 27.00665324520956
1270 27.00673990228666
1271 27.0067732409508
1272 27.00685039759387
1273 27.00688963543696
1274 27.00697962776663
1275 27.00701671554856
1276 27.0070985597913
1277 27.00710573348984
1278 27.00715459171948
1279 27.00713665184898
1280 27.00716133872647
1281 27.00711352974622
1282 27.00711023165344
1283 27.00703719038294
1284 27.00701177109067
1285 27.00692378342042
1286 27.00688720682279
1287 27.0068127073301
1288 27.00678199383236
1289 27.00670223885957
1290 27.00668406561052
1291 27.00662018753833
1292 27.00662535111901
1293 27.00659102840404
1294 27.00662967822837
1295 27.00662858992804
1296 27.00668179757694
1297 27.00670385723884
1298 27.00678617909827
1299 27.00681835362007
1300 27.0069080413397
1301 27.00693642870803
1302 27.00702655728946
1303 27.00707132076379
1304 27.00716444817422
1305 27.0071934215496
1306 27.00725767733689
1307 27.00725732047298
1308 27.00730248941122
1309 27.00728757990812
1310 27.00731231533995
1311 27.00726938853692
1312 27.00727024676645
1313 27.00720075488959
1314 27.00717449041855
1315 27.00709002325913
1316 27.00705324534679
1317 27.0069607512002
1318 27.00692593145713
1319 27.0068452641657
1320 27.00683427834297
1321 27.0067984911774
1322 27.00683226371578
1323 27.00681598611084
1324 27.00687395550419
1325 27.0068715628541
1326 27.0069537444541
1327 27.00698619375542
1328 27.00708051246806
1329 27.00712131704607
1330 27.00721954586757
1331 27.00726250517672
1332 27.00735642673783
1333 27.00739223056341
1334 27.00745155442533
1335 27.00745461093661
1336 27.00750180513247
1337 27.00748201590761
1338 27.00750703175576
1339 27.00746232369832
1340 27.00744981054184
1341 27.00737950832508
1342 27.00736983242991
1343 27.00729091288995
1344 27.00726592379669
1345 27.00718331234705
1346 27.00715721812517
1347 27.00707973289509
1348 27.00706395196044
1349 27.00700371713122
1350 27.00701068899577
1351 27.00697624296276
1352 27.00700721561781
1353 27.00699400386991
1354 27.00703868967791
1355 27.00704797487503
1356 27.00712661236665
1357 27.00716168370055
1358 27.00727497840346
1359 27.00732680580563
1360 27.00742057896315
1361 27.00745688102519
1362 27.00754192404651
1363 27.0075520137913
1364 27.00760717899242
1365 27.00759433482665
1366 27.00762283362994
1367 27.00757719820056
1368 27.00757193637064
1369 27.00750195027024
1370 27.007472888624
1371 27.00738223958056
1372 27.00734308054871
1373 27.00724513340452
1374 27.00720628128557
1375 27.00712244579757
1376 27.00710439779257
1377 27.00704733548369
1378 27.00704849314505
1379 27.00703654407723
1380 27.00707218518836
1381 27.00706591685499
1382 27.00712441253963
1383 27.00712257734545
1384 27.00720084305421
1385 27.00723507732135
1386 27.00732941669602
1387 27.00737503732406
1388 27.00747500899494
1389 27.00751652991289
1390 27.00759435223011
1391 27.00762416732573
1392 27.00768955278754
1393 27.00768910870752
1394 27.00773464383657
1395 27.00770843961552
1396 27.00772392698449
1397 27.00767783215664
1398 27.00766885353186
1399 27.00759348037376
1400 27.00755472478256
1401 27.00745820676247
1402 27.00741419343242
1403 27.00731437386439
1404 27.00727528169944
1405 27.00720605656376
1406 27.00719519494334
1407 27.00715087164792
1408 27.00718019933296
1409 27.00716922832208
1410 27.00722859687278
1411 27.00724794689516
1412 27.00733430695821
1413 27.00737312120705
1414 27.00745116202394
1415 27.0075014428114
1416 27.00760216986549
1417 27.00763975877415
1418 27.00772722829879
1419 27.00773614864484
1420 27.00778513010664
1421 27.0077757362754
1422 27.00780533157639
1423 27.00776807496626
1424 27.0077722617018
1425 27.00770926939969
1426 27.00769167866553
1427 27.00761556171782
1428 27.00758793540459
1429 27.0074961832001
1430 27.00746411226597
1431 27.00738092582303
1432 27.00735788806236
1433 27.00728914229198
1434 27.0072854909454
1435 27.00723885073901
1436 27.00725517438726
1437 27.0072260877931
1438 27.00726215833777
1439 27.00726742550905
1440 27.00731616112185
1441 27.0073217263004
1442 27.00739860984956
1443 27.00742651655345
1444 27.00751553238083
1445 27.00754714674019
1446 27.00763465787133
1447 27.0076655626979
1448 27.00774574599865
1449 27.0077479670056
1450 27.00779107735449
1451 27.00776234260473
1452 27.00777366828632
1453 27.00771483986263
1454 27.00770211526777
1455 27.00763215011408
1456 27.00760830019765
1457 27.00752320724023
1458 27.00749323559641
1459 27.00739972756138
1460 27.00736874848656
1461 27.00730145164176
1462 27.00729643266277
1463 27.00724659366675
1464 27.00726154528203
1465 27.00723134944938
1466 27.00726569142945
1467 27.00726172005048
1468 27.00732105350408
1469 27.00732113814945
1470 27.00740243163477
1471 27.00743447989813
1472 27.00751894010618
1473 27.00754829285108
1474 27.00762923129347
1475 27.00765292497609
1476 27.00774041909322
1477 27.00774046354067
1478 27.00778775879554
1479 27.00777059514302
1480 27.00780130394627
1481 27.00776195766402
1482 27.00776553519639
1483 27.00770087534929
1484 27.00768500614289
1485 27.00760398735913
1486 27.00756295528508
1487 27.00746627266573
1488 27.00742206208441
1489 27.00732715227104
1490 27.00729549781826
1491 27.00722445340165
1492 27.00722184351779
1493 27.00718321841739
1494 27.00720138602768
1495 27.00719692646875
1496 27.00725814647943
1497 27.00726170309236
1498 27.00734678349649
1499 27.00738402942781
1500 27.00747657205288
1501 27.0075165530146
1502 27.00760783649523
1503 27.00764605769565
1504 27.00773452496464
1505 27.00776506316344
1506 27.00783094587182
1507 27.00783081165387
1508 27.00788429378039
1509 27.00785608258389
1510 27.00787106922253
1511 27.00781994236268
1512 27.00781603255072
1513 27.00774535711347
1514 27.00771993190018
1515 27.00763707418858
1516 27.00760516164145
1517 27.00752135588608
1518 27.0074964338063
1519 27.00742300113339
1520 27.00741193926446
1521 27.00735615911988
1522 27.00735647730752
1523 27.00732020410411
1524 27.00736469125486
1525 27.007357223038
1526 27.00742804773679
1527 27.00745743985336
1528 27.00754711988295
1529 27.00758607124799
1530 27.00767934180555
1531 27.00771907587833
1532 27.0078132108823
1533 27.00785141350858
1534 27.00793360136392
1535 27.00793900319921
1536 27.00798291885127
1537 27.00795362133779
1538 27.00796755869824
1539 27.00791151226952
1540 27.00789761770553
1541 27.00781697904693
1542 27.00778909910369
1543 27.00768925576738
1544 27.00763448184462
1545 27.00753041708602
1546 27.00749154920872
1547 27.00741021843571
1548 27.00739713802808
1549 27.00734670524634
1550 27.00736705669848
1551 27.00735262746162
1552 27.00741030806026
1553 27.00742820838858
1554 27.00751183028759
1555 27.00752483857939
1556 27.00762024093446
1557 27.00765908022189
1558 27.00775017478647
1559 27.00778316445115
1560 27.00787135184347
1561 27.00790473225563
1562 27.00797902673652
1563 27.00799454208877
1564 27.00805083262763
1565 27.00804059903038
1566 27.00807654688156
1567 27.00804475634268
1568 27.00806394125755
1569 27.00800858325679
1570 27.0079948073714
1571 27.00791496587685
1572 27.0078746020508
1573 27.00778000545695
1574 27.00774050148502
1575 27.00764960474953
1576 27.00763370098219
1577 27.00756311675134
1578 27.00755295014701
1579 27.00750963105498
1580 27.00754194843648
1581 27.00754067117861
1582 27.0076127894485
1583 27.0076453057826
1584 27.00773835069306
1585 27.00778030700731
1586 27.00787621650288
1587 27.00791903239103
1588 27.0080132459683
1589 27.00804778441057
1590 27.00812803675241
1591 27.00814150571901
1592 27.00818212565056
1593 27.00815117334369
1594 27.00816171095432
1595 27.00810420694962
1596 27.00807726178527
1597 27.00798602796348
1598 27.00796100896885
1599 27.00787136919733
1600 27.00782672027278
1601 27.00773196017624
1602 27.00769552875989
1603 27.00761175149187
1604 27.00758947731576
1605 27.00752465628321
1606 27.00752808052177
1607 27.00749384145364
1608 27.00753078317673
1609 27.00753009303045
1610 27.00759884867816
1611 27.00762393832572
1612 27.0077113599456
1613 27.00774524912439
1614 27.00783720336601
1615 27.00787081020952
1616 27.00796825694138
1617 27.0079916725735
1618 27.00806856753039
1619 27.00807853120837
1620 27.00812985784296
1621 27.00809935628789
1622 27.00811000953997
1623 27.00805274530714
1624 27.00803408709379
1625 27.00795065147387
1626 27.00791268618266
1627 27.00783780803847
1628 27.0077943900272
1629 27.00768622512723
1630 27.00765194032884
1631 27.00758096201896
1632 27.00757323512616
1633 27.00751878116182
1634 27.00753488478583
1635 27.00751204735871
1636 27.00756163516784
1637 27.00757361382745
1638 27.00765491211164
1639 27.00767055345359
1640 27.0077722343918
1641 27.00779582284676
1642 27.007901768834
1643 27.00795046058851
1644 27.00804895040909
1645 27.00808363466206
1646 27.00817638535114
1647 27.00819812060913
1648 27.00825150983567
1649 27.00823430265153
1650 27.00826729719594
1651 27.00823663553115
1652 27.00825540442689
1653 27.00820601075164
1654 27.00820071536271
1655 27.00813224876935
1656 27.00810648839319
1657 27.00801600119004
1658 27.00797519475526
1659 27.00787550551383
1660 27.00783064067133
1661 27.0077347572388
1662 27.00770200702087
1663 27.00762825930382
1664 27.00762563983425
1665 27.00757649094193
1666 27.00760878007762
1667 27.00761905647935
1668 27.00769698513646
1669 27.00772664293942
1670 27.0078008323678
1671 27.00784900367369
1672 27.00795491314251
1673 27.0080083706642
1674 27.00811311068052
1675 27.00815327815702
1676 27.00823366712594
1677 27.00823962105378
1678 27.00827393982511
1679 27.00823603328192
1680 27.00823626634688
1681 27.00816505428566
1682 27.00813479999583
1683 27.00805174455826
1684 27.00801564233563
1685 27.00791261808792
1686 27.00786373759382
1687 27.00777329469852
1688 27.0077443142034
1689 27.00766942329392
1690 27.0076601153542
1691 27.00760831852437
1692 27.00762384423872
1693 27.00759719704445
1694 27.00763970563035
1695 27.00764081180098
1696 27.00770667953915
1697 27.00770994094681
1698 27.00779418384135
1699 27.0078301187554
1700 27.00792424080792
1701 27.00795409928517
1702 27.00804409561181
1703 27.0080870254006
1704 27.0081751907807
1705 27.00819721615422
1706 27.00825489693517
1707 27.00824333785347
1708 27.00826931088645
1709 27.00822395877789
1710 27.00821631456143
1711 27.00815512388037
1712 27.00813001187636
1713 27.00803865598169
1714 27.00799805712906
1715 27.00789645398255
1716 27.00785561949588
1717 27.0077638514518
1718 27.00773614314735
1719 27.00768143799613
1720 27.00769321291979
1721 27.00765586546757
1722 27.00769615341523
1723 27.00770210438461
1724 27.00777212076675
1725 27.00779690165725
1726 27.00788273419522
1727 27.00791772451137
1728 27.00800685677308
1729 27.0080447520965
1730 27.00813751127554
1731 27.0081702207962
1732 27.00825110233014
1733 27.00827180345723
1734 27.00834208965685
1735 27.00833412751965
1736 27.00836638383809
1737 27.00832599759251
1738 27.00831589160063
1739 27.00824748563348
1740 27.00821534141848
1741 27.00814512181198
1742 27.00809738369903
1743 27.00798464100714
1744 27.00792541569416
1745 27.00780949732932
1746 27.00775236018876
1747 27.00765157538602
1748 27.00761747261915
1749 27.00755115993549
1750 27.0075583369812
1751 27.00753499293028
1752 27.00759781279034
1753 27.00761552785914
1754 27.00769056239206
1755 27.00772269799237
1756 27.00782293059683
1757 27.00787476763556
1758 27.00798211742201
1759 27.00802980988628
1760 27.00812372858881
1761 27.0081541749908
1762 27.00822471670076
1763 27.00822758871925
1764 27.00825670242194
1765 27.00821753216142
1766 27.00821821666607
1767 27.00815199313294
1768 27.00812806206979
1769 27.00804173077415
1770 27.00799862149184
1771 27.00791050728095
1772 27.00788575663805
1773 27.00781398577423
1774 27.0078019718738
1775 27.00774619922277
1776 27.00775767255112
1777 27.0077243763071
1778 27.00775838374285
1779 27.00774769051749
1780 27.00779823957488
1781 27.00779924537762
1782 27.00785082869396
1783 27.00786454742855
1784 27.00793552176086
1785 27.00795471741245
1786 27.00802597340686
1787 27.00804367655483
1788 27.00812291838955
1789 27.00813759774706
1790 27.00819379335553
1791 27.00819049898041
1792 27.00822791898939
1793 27.00820234092345
1794 27.00822259686434
1795 27.00817906352914
1796 27.00817831163638
1797 27.00811245513004
1798 27.00811212882249
1799 27.00803624496484
1800 27.00800622554585
1801 27.00792366552988
1802 27.00789669946923
1803 27.00782157441675
1804 27.00780986277055
1805 27.00775770035979
1806 27.00776063943476
1807 27.0077314165706
1808 27.00778403971519
1809 27.00778845702065
1810 27.00784576950276
1811 27.00787040923256
1812 27.00795837342635
1813 27.00797534967325
1814 27.00806779629924
1815 27.00809975759942
1816 27.00817612418458
1817 27.00818997304825
1818 27.00825179036227
1819 27.0082539680438
1820 27.00829917496108
1821 27.00826941042473
1822 27.00828363023962
1823 27.00822964215855
1824 27.00823163585518
1825 27.00816031752647
1826 27.00812251988686
1827 27.00803149814713
1828 27.00799029167796
1829 27.00788922207604
1830 27.00784790371902
1831 27.00775980733765
1832 27.00773584888661
1833 27.00767182145373
1834 27.00767854876082
1835 27.00764589893969
1836 27.00768000396068
1837 27.00767288948878
1838 27.0077322386991
1839 27.00775030449697
1840 27.00783252070163
1841 27.00784701117706
1842 27.00793405656584
1843 27.00797642658045
1844 27.00808037993384
1845 27.0081187141198
1846 27.00820277263082
1847 27.00822316710541
1848 27.00828740970111
1849 27.00827157825247
1850 27.00829757367791
1851 27.00825311940296
1852 27.0082521940359
1853 27.00818195066239
1854 27.00815676941369
1855 27.00806973073949
1856 27.00803401704519
1857 27.00794270942457
1858 27.00790102577508
1859 27.00781086765709
1860 27.00779322104539
1861 27.00772096922084
1862 27.00770140423991
1863 27.00763944787578
1864 27.00764715178141
1865 27.00761295576124
1866 27.0076498503399
1867 27.0076477548037
1868 27.00771574600912
1869 27.00773986070593
1870 27.00782578465116
1871 27.00786208811543
1872 27.00795628745607
1873 27.00799815147806
1874 27.00809509413817
1875 27.00813816427895
1876 27.00823148153837
1877 27.00826052059708
1878 27.00831089830307
1879 27.00829983983903
1880 27.00834201322927
1881 27.00831186745322
1882 27.0083176884956
1883 27.0082627911734
1884 27.00824463954715
1885 27.00815707702452
1886 27.00811246758123
1887 27.00801466493067
1888 27.00797432923949
1889 27.00788736970148
1890 27.00786477461445
1891 27.00780023400784
1892 27.00780224224011
1893 27.00776194438079
1894 27.00778631856305
1895 27.00776994726054
1896 27.00783569998568
1897 27.00783288821766
1898 27.00789844722414
1899 27.0079108382117
1900 27.00798039245492
1901 27.00799690248089
1902 27.00807510315447
1903 27.00809957220004
1904 27.00817679466407
1905 27.00819288829516
1906 27.00825452569061
1907 27.0082391579962
1908 27.00826801375393
1909 27.00823093922487
1910 27.00823957299215
1911 27.0081788776256
1912 27.00816289531309
1913 27.0080971583332
1914 27.00805160784445
1915 27.00796043340175
1916 27.00792898816164
1917 27.0078443644103
1918 27.00782550409299
1919 27.00775761926624
1920 27.00775189705586
1921 27.00770114119208
1922 27.0077201828094
1923 27.00769833073535
1924 27.00774680469495
1925 27.00775410846222
1926 27.00781497043715
1927 27.00783825507195
1928 27.00792848181692
1929 27.00795083142325
1930 27.00803279190663
1931 27.00805715186246
1932 27.00813249708547
1933 27.00815004777838
1934 27.00821085125787
1935 27.00819752541164
1936 27.0082277674417
1937 27.00819057367637
1938 27.00820093778567
1939 27.00814361060052
1940 27.00813415488081
1941 27.0080787420286
1942 27.00805286631425
1943 27.00797701417819
1944 27.00796614749671
1945 27.0079017519507
1946 27.0078943482296
1947 27.00783531782108
1948 27.00783611467602
1949 27.00778989851591
1950 27.00780561314733
1951 27.00777762401145
1952 27.00781881297013
1953 27.00781846402239
1954 27.00787965032022
1955 27.00789234332651
1956 27.00796236150931
1957 27.00798308956274
1958 27.00806211509492
1959 27.00808868738208
1960 27.00817014763821
1961 27.0081942541265
1962 27.00826765955866
1963 27.00829154925371
1964 27.00833252343948
1965 27.00831139815696
1966 27.00833371571917
1967 27.0082879305094
1968 27.00828408050848
1969 27.00821268695412
1970 27.00819383544058
1971 27.00811797697137
1972 27.00808784124929
1973 27.00800976102455
1974 27.00798685342632
1975 27.00791123937627
1976 27.00789783282655
1977 27.00782516504273
1978 27.00782648669719
1979 27.00779645630694
1980 27.00783110586492
1981 27.00781834140481
1982 27.00786864994041
1983 27.00786845110469
1984 27.00792209195568
1985 27.00791988266269
1986 27.00797471035049
1987 27.00797623432653
1988 27.00803144907531
1989 27.00803207183334
1990 27.00808898073442
1991 27.00809070374876
1992 27.0081389179886
1993 27.00812545165202
1994 27.00816430789969
1995 27.0081402876984
1996 27.00815989935126
1997 27.00812332779013
1998 27.00813012468975
1999 27.00806504744101
2000 27.00805039619858
2001 27.00797604675467
2002 27.00795524834645
2003 27.00787627723044
2004 27.00785232826642
2005 27.0077805173493
2006 27.00777224875518
2007 27.0077227635538
2008 27.00774020785618
2009 27.00772011160553
2010 27.00776763227363
2011 27.00775841936653
2012 27.00782517287324
2013 27.00784739618541
2014 27.00793007933695
2015 27.00796426309139
2016 27.00805299131896
2017 27.00806954212401
2018 27.0081457315347
2019 27.00817405305111
2020 27.00824308599998
2021 27.00823350177338
2022 27.00826417664186
2023 27.0082231645106
2024 27.00822262562885
2025 27.00815565636766
2026 27.0081365130983
2027 27.00806567141343
2028 27.00804738203322
2029 27.00797222713506
2030 27.00795477339691
2031 27.00788410922926
2032 27.00786936446139
2033 27.00780573896889
2034 27.00780731040156
2035 27.00776713296201
2036 27.00780706743895
2037 27.00779794877301
2038 27.00784435554798
2039 27.0078499537348
2040 27.00792138832183
2041 27.00794775242014
2042 27.00803591938222
2043 27.00807416639765
2044 27.008163002414
2045 27.00819382673695
2046 27.0082718418176
2047 27.00829032890018
2048 27.0083508637826
2049 27.00833805148934
2050 27.00836649722603
2051 27.00832678014442
2052 27.00832724136448
2053 27.0082574842037
2054 27.00821882304952
2055 27.00814491944881
2056 27.00811445747804
2057 27.00802430690446
2058 27.00798042421529
2059 27.00788866930904
2060 27.00785568330263
2061 27.00777935425551
2062 27.00777574305816
2063 27.007734221152
2064 27.00776284680396
2065 27.00775144667916
2066 27.00780856952752
2067 27.00781912804751
2068 27.00789373819071
2069 27.00791872602152
2070 27.00800104932992
2071 27.0080268431928
2072 27.00811811236603
2073 27.0081414839475
2074 27.00820295839567
2075 27.00820664279122
2076 27.00826048924095
2077 27.0082538323446
2078 27.00828319217058
2079 27.0082489516136
2080 27.00825481295936
2081 27.0081982590902
2082 27.00818426860966
2083 27.00812400678758
2084 27.00810101209524
2085 27.00801885143608
2086 27.00798190296328
2087 27.00789329490129
2088 27.00785834111191
2089 27.00777584979715
2090 27.00774279289906
2091 27.00767610713111
2092 27.00768938703071
2093 27.00766047879987
2094 27.00770001893938
2095 27.007698355987
2096 27.00776717528025
2097 27.00779532851475
2098 27.00789040293558
2099 27.00793777511055
2100 27.00803696781489
2101 27.00808070050833
2102 27.00817157971104
2103 27.00820425677028
2104 27.00828399033795
2105 27.00829844630469
2106 27.00835478573456
2107 27.00833234206191
2108 27.00836338042802
2109 27.0083214733993
2110 27.00831517257132
2111 27.00824724936715
2112 27.00823172430965
2113 27.00816329376091
2114 27.00814533957547
2115 27.00806965833602
2116 27.00805173534064
2117 27.007983419518
2118 27.00797715552658
2119 27.00792605514825
2120 27.00793716910076
2121 27.00790132390891
2122 27.00793107487653
2123 27.007908064105
2124 27.00794431239728
2125 27.00793383474272
2126 27.00796780904866
2127 27.00795775822714
2128 27.00801815516721
2129 27.00802380047655
2130 27.00808822599009
2131 27.00809936637291
2132 27.00816845662993
2133 27.00818075683013
2134 27.00824427149183
2135 27.00823804148623
2136 27.00827364703258
2137 27.00824284940892
2138 27.00825989338604
2139 27.00820894473264
2140 27.00820468566294
2141 27.00813904620757
2142 27.00811603577206
2143 27.00803409374276
2144 27.0080129027356
2145 27.00790699451102
2146 27.00788178173146
2147 27.00780607018201
2148 27.0077955657773
2149 27.00774185837929
2150 27.00775353839273
2151 27.00772613439572
2152 27.00776300644161
2153 27.00775862517457
2154 27.00781813610216
2155 27.00781590476908
2156 27.00789614917353
2157 27.00791125692763
2158 27.00796983241378
2159 27.00797699951142
2160 27.00803991330109
2161 27.00804803357768
2162 27.00810833269648
2163 27.00810935438758
2164 27.00814796101789
2165 27.00812432802469
2166 27.00814941512368
2167 27.0081140585877
2168 27.00812476683519
2169 27.00807049616857
2170 27.00806764928454
2171 27.00800380140262
2172 27.00798684229074
2173 27.00791660712662
2174 27.00790631518385
2175 27.00783223419476
2176 27.0078401255427
2177 27.00779373380819
2178 27.0078131359633
2179 27.00778702182842
2180 27.00782777617976
2181 27.00782517751994
2182 27.00789039061382
2183 27.00791077138355
2184 27.00798965368582
2185 27.00801343346103
2186 27.00809206772896
2187 27.0081158429791
2188 27.00819413796025
2189 27.00822664527299
2190 27.00830299159406
2191 27.00830181759391
2192 27.00833744449652
2193 27.00830828289771
2194 27.00832747304316
2195 27.00828638926933
2196 27.00828929722579
2197 27.00823800293585
2198 27.00822997656508
2199 27.00815664582416
2200 27.00812841630156
2201 27.0080394775091
2202 27.00800910277971
2203 27.00792744276757
2204 27.00790391720445
2205 27.0078344861291
2206 27.00781766228238
2207 27.00776541931924
2208 27.00779576645785
2209 27.00778219278331
2210 27.00783462122715
2211 27.0078444637317
2212 27.00791572760111
2213 27.00793554789501
2214 27.00801365456964
2215 27.00803974388651
2216 27.00812166333214
2217 27.00814852928452
2218 27.00822814173638
2219 27.00825053398328
2220 27.00832242828453
2221 27.00831876725356
2222 27.00836112241945
2223 27.00833605025268
2224 27.00836812881205
2225 27.0083021522529
2226 27.00828137900687
2227 27.00820916325605
2228 27.00816479094922
2229 27.00805555212388
2230 27.00800418484992
2231 27.00790297536777
2232 27.00786235302073
2233 27.00777793773593
2234 27.00775879301113
2235 27.00770008356762
2236 27.00771141940769
2237 27.00767284360439
2238 27.00771186076199
2239 27.00772292847132
2240 27.00779628356292
2241 27.00782365238173
2242 27.00790997926867
2243 27.00794849426758
2244 27.00804322364334
2245 27.00808394020238
2246 27.00817499574127
2247 27.0082046626566
2248 27.00827907896495
2249 27.00827846639832
2250 27.00832130990673
2251 27.00829789149076
2252 27.00831788479822
2253 27.00826544287604
2254 27.00826657910696
2255 27.00819343770581
2256 27.00815762861817
2257 27.00806810697873
2258 27.00802983221308
2259 27.0079448486777
2260 27.00791726089822
2261 27.00784193690285
2262 27.00782790200822
2263 27.00776966001976
2264 27.00777610209846
2265 27.00774165808235
2266 27.00777936408211
2267 27.00777501778574
2268 27.00782882213848
2269 27.00785030849669
2270 27.00792707808706
2271 27.00796184266145
2272 27.00803600109434
2273 27.0080673464058
2274 27.00816497806571
2275 27.00820189667629
2276 27.00828649387922
2277 27.0083063434362
2278 27.00836016133244
2279 27.00834683122058
2280 27.00837455344551
2281 27.00833139345596
2282 27.00832853695533
2283 27.00825599961296
2284 27.00824769351758
2285 27.00815614936613
2286 27.00811398042654
2287 27.00802255603599
2288 27.00798446474672
2289 27.00789628486277
2290 27.00786930919562
2291 27.00781461322922
2292 27.00781071380479
2293 27.00776920764569
2294 27.00779547983026
2295 27.00777526887871
2296 27.00782031421181
2297 27.00780896434404
2298 27.00787242220917
2299 27.00788498216278
2300 27.00795630390458
2301 27.00797261784964
2302 27.00804439407824
2303 27.00806230709016
2304 27.00812225787734
2305 27.00813037430918
2306 27.00820021059058
2307 27.00819407559915
2308 27.00822948226368
2309 27.00819776646359
2310 27.00820504716232
2311 27.00814261339701
2312 27.0081259359512
2313 27.00805523331786
2314 27.00803364174711
2315 27.00795318191959
2316 27.00793087450031
2317 27.00785616561382
2318 27.00783848622396
2319 27.00777287496984
2320 27.00777063321958
2321 27.00774131956711
2322 27.00777561570776
2323 27.00775526454806
2324 27.00780079964811
2325 27.00780304302677
2326 27.00786745061318
2327 27.00788431157963
2328 27.0079586899775
2329 27.00798272404543
2330 27.00805616958641
2331 27.00807228362206
2332 27.00813735561336
2333 27.00814789661911
2334 27.00821078679787
2335 27.0082057159433
2336 27.0082492475685
2337 27.00822702101386
2338 27.00825182611275
2339 27.00819372568111
2340 27.00818842567674
2341 27.00813915156942
2342 27.00813385934288
2343 27.00806850423417
2344 27.0080491187728
2345 27.00797170177347
2346 27.00794457614758
2347 27.00786801952772
2348 27.00784976810733
2349 27.00778909909844
2350 27.00779115347107
2351 27.00775494519092
2352 27.00778316886828
2353 27.00777328946516
2354 27.00782785895288
2355 27.00784121362271
2356 27.00790143203752
2357 27.00793041963297
2358 27.00802934594398
2359 27.00807251750574
2360 27.00815754063673
2361 27.00818878647481
2362 27.0082762646875
2363 27.0083050252202
2364 27.00836750353779
2365 27.00836268910032
2366 27.00839779429133
2367 27.0083630709879
2368 27.00836499626987
2369 27.00831065913068
2370 27.0082910542101
2371 27.00820977254754
2372 27.00816770810814
2373 27.00807086096976
2374 27.0080228902245
2375 27.00792280150463
2376 27.00786958069916
2377 27.00778028765915
2378 27.007772816307
2379 27.0077189596227
2380 27.00773273870694
2381 27.00770360952852
2382 27.00774615343926
2383 27.00774833133241
2384 27.00781276988155
2385 27.00782792139079
2386 27.00789907463342
2387 27.0079197048074
2388 27.00799341466159
2389 27.00801792658919
2390 27.00809576575063
2391 27.00811672135442
2392 27.00817462752062
2393 27.00816307349956
2394 27.00819414864631
2395 27.0081700096553
2396 27.00815778668618
2397 27.00809849698666
2398 27.00808471828107
2399 27.00801105714029
2400 27.00798607328182
2401 27.00790180146396
2402 27.00787522275596
2403 27.00779856163152
2404 27.0077811855712
2405 27.0077229657389
2406 27.00773182794642
2407 27.00771428023842
2408 27.00774632305201
2409 27.00773574923808
2410 27.00778692425924
2411 27.0077829633143
2412 27.00785391110467
2413 27.00787492488156
2414 27.00795195028913
2415 27.00797389323181
2416 27.00804945360857
2417 27.0080663951596
2418 27.00813760725482
2419 27.00815125934134
2420 27.00821104154894
2421 27.00818325808044
2422 27.00820795443322
2423 27.0081796220297
2424 27.00819688098492
2425 27.00815210740836
2426 27.00816124631161
2427 27.0081165355195
2428 27.00812004765637
2429 27.00806908494007
2430 27.00805758809868
2431 27.0079886392541
2432 27.00797578352945
2433 27.00791323319758
2434 27.00791003312268
2435 27.0078598377856
2436 27.00787520821484
2437 27.00784888466551
2438 27.00789242495026
2439 27.00788364499316
2440 27.00795167756162
2441 27.00796479437899
2442 27.00805292537022
2443 27.00807482867529
2444 27.00815114605216
2445 27.0081745812043
2446 27.00825069858651
2447 27.00826313920762
2448 27.00832070377811
2449 27.00830790209826
2450 27.00832413439914
2451 27.00826897951068
2452 27.00825559731396
2453 27.00817744816902
2454 27.00814464822068
2455 27.00804963991514
2456 27.00801055615537
2457 27.00791194992114
2458 27.00786374883894
2459 27.00776824585945
2460 27.00773360433254
2461 27.00765479054305
2462 27.00763153786326
2463 27.00758382223308
2464 27.00760423272274
2465 27.00758400585825
2466 27.00763416437869
2467 27.0076407912086
2468 27.00771540267587
2469 27.00774183254604
2470 27.0078253809175
2471 27.00785832020778
2472 27.00794519592987
2473 27.0079809650971
2474 27.00807187921154
2475 27.00810617971075
2476 27.00820229365334
2477 27.00822583639136
2478 27.0082691319919
2479 27.00824725595153
2480 27.0082703562573
2481 27.00822833592457
2482 27.00823251811775
2483 27.00817372418543
2484 27.00815988190767
2485 27.00808545374107
2486 27.00805827460389
2487 27.00797646920196
2488 27.00794986304841
2489 27.0078704126927
2490 27.00785413170655
2491 27.00779271037081
2492 27.00779728114329
2493 27.00776186316045
2494 27.00778133005062
2495 27.00776139342208
2496 27.00782205827137
2497 27.00783291743199
2498 27.00790506890691
2499 27.00791045134839
2500 27.00799293269981
2501 27.00801403469675
2502 27.00809110713587
2503 27.00811400989311
2504 27.00818967403608
2505 27.00820601243459
2506 27.00827076737732
2507 27.0082595389373
2508 27.00829810764494
2509 27.00827295076051
2510 27.00829681155476
2511 27.00825568369584
2512 27.00827355595922
2513 27.00822104967261
2514 27.00820349445178
2515 27.0081204650483
2516 27.00809828154392
2517 27.00802333893143
2518 27.00800997951185
2519 27.00794825028611
2520 27.00794655356546
2521 27.0078939953102
2522 27.00790494727403
2523 27.00787230062429
2524 27.00790320853968
2525 27.00788693160961
2526 27.00792680506055
2527 27.00792566175037
2528 27.00797879375095
2529 27.00798578798925
2530 27.00804719300566
2531 27.00804061367677
2532 27.00810194284478
2533 27.00810270713275
2534 27.00815389531922
2535 27.00813535168021
2536 27.00816353280396
2537 27.00812879836346
2538 27.00814820826477
2539 27.00810213446331
2540 27.00810533605585
2541 27.00805337827832
2542 27.00804592114313
2543 27.00797575100955
2544 27.00795612399746
2545 27.00790069837069
2546 27.00789185074818
2547 27.00783771102869
2548 27.00784371972003
2549 27.0078010321164
2550 27.00782389241574
2551 27.00780128252052
2552 27.00784173714056
2553 27.00783418132194
2554 27.00788856218015
2555 27.00789120498299
2556 27.00794631800943
2557 27.00795324134697
2558 27.00801778942925
2559 27.00802305816492
2560 27.00808776975773
2561 27.00810701780235
2562 27.00817822507138
2563 27.00818710665034
2564 27.0082371837497
2565 27.00822510923201
2566 27.00825941073903
2567 27.00822832628863
2568 27.00823882779308
2569 27.00818136426273
2570 27.00817144123918
2571 27.00809628510897
2572 27.00806706796976
2573 27.00798501320419
2574 27.0079592971324
2575 27.00788049745166
2576 27.0078616711601
2577 27.00779419422534
2578 27.00779218362853
2579 27.00774708379181
2580 27.00778454846017
2581 27.00776027748163
2582 27.00780550996908
2583 27.00780568656752
2584 27.00787207872647
2585 27.00789078613975
2586 27.00797024588826
2587 27.00800035095228
2588 27.00808689980088
2589 27.00811685392665
2590 27.00819503396896
2591 27.00821312720166
2592 27.00827534766427
2593 27.00826605073366
2594 27.00828877619246
2595 27.00825631601784
2596 27.00828034685064
2597 27.00823289027003
2598 27.00822340299671
2599 27.00815343036636
2600 27.00812449937784
2601 27.00803185368429
2602 27.0079953547684
2603 27.0079057864081
2604 27.00787068255051
2605 27.00778695292102
2606 27.00776567125168
2607 27.00770665428069
2608 27.00771815282494
2609 27.00768962789044
2610 27.00772994572247
2611 27.0077298752636
2612 27.00778292558764
2613 27.00779699715483
2614 27.00789035777188
2615 27.00792719936625
2616 27.00800882075774
2617 27.0080371083538
2618 27.00812258911734
2619 27.00814903476191
2620 27.00822367212217
2621 27.00822789463001
2622 27.00827378177167
2623 27.00825232977621
2624 27.00827168319019
2625 27.00821892986065
2626 27.00820745475388
2627 27.00813319672411
2628 27.00810185364664
2629 27.00801192285887
2630 27.00797690922161
2631 27.00789140010469
2632 27.00786517012883
2633 27.00777992119516
2634 27.00776265856168
2635 27.00771318781098
2636 27.00772915532079
2637 27.00770117414843
2638 27.00773734762777
2639 27.00773027736313
2640 27.00778734348999
2641 27.0077840721179
2642 27.00785835766195
2643 27.00788859994798
2644 27.00797660942908
2645 27.00801140783779
2646 27.00809930168062
2647 27.00813119156464
2648 27.00821367596876
2649 27.00823528673641
2650 27.00829293805995
2651 27.00829625837526
2652 27.00832486817393
2653 27.0082835058332
2654 27.00828414123395
2655 27.00822748240078
2656 27.00820650572678
2657 27.0081233714219
2658 27.00808388536985
2659 27.00799071245773
2660 27.00794956375881
2661 27.00785697883937
2662 27.00782647255309
2663 27.00775388019436
2664 27.00774951027505
2665 27.00769198257397
2666 27.00772437765974
2667 27.00771480574522
2668 27.00777696808144
2669 27.00779933177816
2670 27.00788854079245
2671 27.00793314044612
2672 27.00803458003214
2673 27.00808358515161
2674 27.00818185090937
2675 27.00821930288953
2676 27.00829833040317
2677 27.00831286182463
2678 27.00837374792231
2679 27.00835957985976
2680 27.00837430846254
2681 27.0083212723925
2682 27.00831052502012
2683 27.00823073343457
2684 27.00821677080637
2685 27.00812322172021
2686 27.00808367594733
2687 27.00798542085183
2688 27.00794613632111
2689 27.00785348216293
2690 27.00782030082608
2691 27.0077390617087
2692 27.00772500688725
2693 27.00766972156587
2694 27.00768550126926
2695 27.00765925657045
2696 27.00770190785035
2697 27.00769029967729
2698 27.00775397735071
2699 27.00778394946327
2700 27.00787633215132
2701 27.0079139871123
2702 27.00801051607025
2703 27.00804640427243
2704 27.00813394525013
2705 27.00816542186019
2706 27.00824176627226
2707 27.00824367404636
2708 27.00828620300508
2709 27.00825960731314
2710 27.00827302975175
2711 27.00821344303682
2712 27.00819116720944
2713 27.00812890399159
2714 27.00810758665152
2715 27.00801672437178
2716 27.00796988876667
2717 27.00787415176697
2718 27.00784111459943
2719 27.00776317850016
2720 27.00775392717303
2721 27.00770373053789
2722 27.00772434484858
2723 27.00770724069667
2724 27.00775905608028
2725 27.00776923262507
2726 27.00782895960973
2727 27.00785674153477
2728 27.0079412883568
2729 27.00797476473741
2730 27.00806277055689
2731 27.00809765494667
2732 27.00817283223583
2733 27.00820960041229
2734 27.0082959846859
2735 27.00831968171685
2736 27.0083757650772
2737 27.00835916343612
2738 27.00838619004191
2739 27.00833766000035
2740 27.00833263881537
2741 27.0082609527186
2742 27.00824143157298
2743 27.00815682503696
2744 27.00811480909773
2745 27.00803189698226
2746 27.0080010797651
2747 27.00790891802208
2748 27.00788395320121
2749 27.00781773631408
2750 27.00782003562559
2751 27.00778180690949
2752 27.00780988273427
2753 27.00779681181148
2754 27.00785437209517
2755 27.00786560733319
2756 27.00793887138558
2757 27.00795548837218
2758 27.00802994065597
2759 27.00804692398642
2760 27.00811613379037
2761 27.00812668033056
2762 27.00819256647047
2763 27.00819597227786
2764 27.00822677798564
2765 27.00819701640341
2766 27.00822535289185
2767 27.00818756168567
2768 27.00819667910488
2769 27.00814367096223
2770 27.00814557112965
2771 27.00808264717609
2772 27.00806326519629
2773 27.00798406699148
2774 27.00795721450213
2775 27.00787480711427
2776 27.00785247062267
2777 27.00777836270513
2778 27.00776803100284
2779 27.00771146638517
2780 27.00772262636039
2781 27.00769044990783
2782 27.00772993238513
2783 27.00774445823334
2784 27.00779239914342
2785 27.00780815204519
2786 27.0078840347328
2787 27.00790816175231
2788 27.0079888337223
2789 27.00802015778951
2790 27.0081064606616
2791 27.00813894027291
2792 27.00819506857947
2793 27.00819864949857
2794 27.00824330038627
2795 27.0082176576532
2796 27.00821872151782
2797 27.00815292882452
2798 27.00814724399595
2799 27.0080748296946
2800 27.00804895924594
2801 27.00796191874736
2802 27.00793669528443
2803 27.0078625664633
2804 27.00785310754117
2805 27.00780120936857
2806 27.00781817997033
2807 27.00779404537427
2808 27.00783663097468
2809 27.00783512092797
2810 27.00789729850208
2811 27.00791106527247
2812 27.00798406495769
2813 27.00801193110227
2814 27.00809176036064
2815 27.00810306241573
2816 27.00817102340381
2817 27.00818218569927
2818 27.00824707828691
2819 27.00825290935859
2820 27.00830717563144
2821 27.0082870866701
2822 27.00831306246212
2823 27.00827614181185
2824 27.00828838537799
2825 27.00823793676085
2826 27.008237012967
2827 27.00817764156884
2828 27.00815692380153
2829 27.00807272047073
2830 27.00803744943233
2831 27.00792942359604
2832 27.00789474081262
2833 27.00780280466934
2834 27.00777403372794
2835 27.00770115143536
2836 27.00769601599171
2837 27.00765474923239
2838 27.00768842159928
2839 27.00768871277686
2840 27.00775574509522
2841 27.00777782912625
2842 27.00785989996994
2843 27.00789152731832
2844 27.00799007036876
2845 27.0080327185517
2846 27.00811897041043
2847 27.00814820310797
2848 27.00822968345758
2849 27.00824399682726
2850 27.00829616122956
2851 27.00828104679363
2852 27.00831058441264
2853 27.00826893508976
2854 27.00826980078187
2855 27.00819801127511
2856 27.00817454630792
2857 27.00808224767276
2858 27.00803258006963
2859 27.00793074206998
2860 27.00788396884613
2861 27.00778807610856
2862 27.00775463574594
2863 27.00766435243918
2864 27.00764715744386
2865 27.00760508990852
2866 27.0076335111754
2867 27.00762447960752
2868 27.00768507148308
2869 27.00770432074554
2870 27.007786404237
2871 27.00782283253272
2872 27.00792056425928
2873 27.00796845626802
2874 27.00807137692501
2875 27.00811571412157
2876 27.00820773946201
2877 27.00823426344807
2878 27.00829508531785
2879 27.00828919191843
2880 27.00832243635689
2881 27.00830655581854
2882 27.00831435827783
2883 27.00825927313491
2884 27.00825172017306
2885 27.0081781219101
2886 27.00815210318309
2887 27.00806828196327
2888 27.00803358329869
2889 27.00794459651038
2890 27.00791416584961
2891 27.00783657863662
2892 27.00782707211936
2893 27.00777698645101
2894 27.00778555514733
2895 27.00775898633942
2896 27.00781413791502
2897 27.00782171226465
2898 27.00787580854007
2899 27.00789613429551
2900 27.00797277991219
2901 27.00800077990627
2902 27.00808643640704
2903 27.00811454593536
2904 27.00819644244242
2905 27.00821943860577
2906 27.00829026021764
2907 27.00828945980452
2908 27.00833129145536
2909 27.00830578362756
2910 27.00832111347673
2911 27.00827983066707
2912 27.00827396615779
2913 27.0081887978865
2914 27.00814952106271
2915 27.0080499902089
2916 27.00800520639741
2917 27.00790631850505
2918 27.00786197307789
2919 27.00777225393837
2920 27.00774429640942
2921 27.00767639589663
2922 27.00767614336549
2923 27.00764493669689
2924 27.00768453678323
2925 27.00768475347884
2926 27.00774074141822
2927 27.00776986624202
2928 27.00786616117018
2929 27.00790148601786
2930 27.00799989319398
2931 27.00805586599423
2932 27.00815518057061
2933 27.00818781489563
2934 27.00825980055037
2935 27.00825525489844
2936 27.00828916591347
2937 27.00825692563136
2938 27.00826647821815
2939 27.00820467415287
2940 27.00818333230578
2941 27.00809479771679
2942 27.0080571027166
2943 27.00796268160947
2944 27.00791250584514
2945 27.00781391704617
2946 27.00777372861438
2947 27.00769018255232
2948 27.00768631834758
2949 27.00763618264853
2950 27.00764554188714
2951 27.00762023967607
2952 27.00767094438315
2953 27.00768640630248
2954 27.00777209538383
2955 27.00781651609079
2956 27.00792253006162
2957 27.00797877260913
2958 27.00808961210504
2959 27.00814296554668
2960 27.00824444406339
2961 27.00827985796413
2962 27.00835961003042
2963 27.00837232186047
2964 27.0084150028932
2965 27.00838842111474
2966 27.0083861665545
2967 27.00833042889578
2968 27.00830851723699
2969 27.00823867454897
2970 27.00820304568546
2971 27.00810702812119
2972 27.00806393062697
2973 27.00796991771796
2974 27.0079326582692
2975 27.00785130294909
2976 27.00783197359937
2977 27.00777156113657
2978 27.00777866511878
2979 27.00774428511694
2980 27.00779283187282
2981 27.0077795215368
2982 27.00783852469545
2983 27.00785844138325
2984 27.00794326097254
2985 27.00798142061712
2986 27.00807672530324
2987 27.00811993557871
2988 27.00821244838776
2989 27.00824442028168
2990 27.00832079598085
2991 27.00833277804768
2992 27.00838706051809
2993 27.00836381521831
2994 27.00836509212577
2995 27.00831313691233
2996 27.00829476017172
2997 27.00823063220541
2998 27.0081912606557
2999 27.00809533688898
3000 27.00804625721582
3001 27.00793392479721
3002 27.00787955012203
3003 27.00777358900583
3004 27.00773102281521
3005 27.00764645116865
3006 27.00763394597387
3007 27.00759524312289
3008 27.00762719036092
3009 27.00761016349098
3010 27.00766997402585
3011 27.00769430554683
3012 27.00778757008705
3013 27.00783686664018
3014 27.00794446644576
3015 27.0079966346197
3016 27.00809402282747
3017 27.00812779887224
3018 27.0082088622279
3019 27.00822693815105
3020 27.00828923228127
3021 27.00827622655704
3022 27.00830406613513
3023 27.00825854182592
3024 27.00825411490903
3025 27.00818059072264
3026 27.00814504365199
3027 27.00805868666454
3028 27.00803807967682
3029 27.0079527176564
3030 27.00792446924021
3031 27.00784491664715
3032 27.00782755060754
3033 27.00776447672115
3034 27.00776938243341
3035 27.00773044925364
3036 27.00776188495378
3037 27.00775036572581
3038 27.00780926989138
3039 27.00782674331341
3040 27.00791101281258
3041 27.00794818960102
3042 27.00804561188318
3043 27.00808741364417
3044 27.0081947212195
3045 27.00823373235472
3046 27.00830994112758
3047 27.00832582935762
3048 27.0083910885563
3049 27.00838862474285
3050 27.00841679895739
3051 27.00837027189868
3052 27.00836405667067
3053 27.00828342754697
3054 27.00824587162305
3055 27.00816457829414
3056 27.00811667188466
3057 27.0080163456936
3058 27.00796346144106
3059 27.00786575412321
3060 27.00783134939164
3061 27.00775190805894
3062 27.00774278023255
3063 27.00770102403158
3064 27.00771784260629
3065 27.00769736339652
3066 27.00776140562479
3067 27.00778199567597
3068 27.00786913875966
3069 27.00790890886048
3070 27.00798336340791
3071 27.00802737955794
3072 27.00812170915889
3073 27.00815931916449
3074 27.00824542449006
3075 27.00827180384391
3076 27.00834508640677
3077 27.00835168509953
3078 27.00838931369248
3079 27.00835551293641
3080 27.00835996158483
3081 27.00829566279277
3082 27.00827008532951
3083 27.00817974036311
3084 27.00815559832207
3085 27.00804493175104
3086 27.00799207026707
3087 27.00788943238122
3088 27.00784711030138
3089 27.00776009358587
3090 27.00774072287739
3091 27.00767789457069
3092 27.00768284535981
3093 27.00764843044083
3094 27.00768481784
3095 27.00768609443094
3096 27.00775760220507
3097 27.00775835481408
3098 27.0078422320105
3099 27.00788390811813
3100 27.00797242083717
3101 27.00800427307282
3102 27.00808840211933
3103 27.0081166685845
3104 27.00819311683696
3105 27.00821077253449
3106 27.00827118153881
3107 27.00825276200964
3108 27.00827854815109
3109 27.00823729975592
3110 27.00824540123352
3111 27.00818965180145
3112 27.00818135937319
3113 27.00811484883381
3114 27.00810517518531
3115 27.00802691091457
3116 27.00799476404713
3117 27.00791183414644
3118 27.00789089563592
3119 27.00782272028923
3120 27.00781376246216
3121 27.00775915270307
3122 27.00777117893903
3123 27.00774298699729
3124 27.00778236757355
3125 27.00778148250965
3126 27.00784447136631
3127 27.00784344912671
3128 27.00791847636461
3129 27.00794370737184
3130 27.00802929671296
3131 27.00806475275638
3132 27.00814353480689
3133 27.0081734975938
3134 27.00826639269264
3135 27.00828157254365
3136 27.00833388918025
3137 27.00831246128363
3138 27.00833557713872
3139 27.00828768617939
3140 27.00828307344561
3141 27.00822515645928
3142 27.00820486457889
3143 27.00812378824049
3144 27.00808570792532
3145 27.0079974384139
3146 27.00796448014835
3147 27.0078849258711
3148 27.00786941069852
3149 27.00781130558602
3150 27.00783171056689
3151 27.00780653152498
3152 27.00783764589137
3153 27.00782835707665
3154 27.00788741851101
3155 27.00789751899199
3156 27.00796117792685
3157 27.00797846243757
3158 27.0080511057587
3159 27.00806926859341
3160 27.00813928251086
3161 27.00814955656739
3162 27.00821077120953
3163 27.00820926029858
3164 27.00824364989714
3165 27.00821584204522
3166 27.00823595147099
3167 27.00819512015005
3168 27.00818644660686
3169 27.00811890308267
3170 27.00812753041632
3171 27.00805336116164
3172 27.00802198540227
3173 27.00793507566604
3174 27.00789992988543
3175 27.00780959123541
3176 27.0077780299858
3177 27.00770475983111
3178 27.00770513539373
3179 27.00767142079101
3180 27.00771184248425
3181 27.00771279218948
3182 27.00778132086608
3183 27.0078055230004
3184 27.00788685983007
3185 27.00791701533891
3186 27.00801475879149
3187 27.00805436285034
3188 27.0081316551709
3189 27.0081550713821
3190 27.00822783833879
3191 27.0082412546493
3192 27.00829817338508
3193 27.00828022017134
3194 27.0083076338633
3195 27.00827235952762
3196 27.00827875473649
3197 27.00821601950991
3198 27.00820012549719
3199 27.00812538142363
3200 27.00810040161762
3201 27.00801598493431
3202 27.00799048389526
3203 27.00791647865094
3204 27.00788613478389
3205 27.00783246862248
3206 27.00782187576658
3207 27.00777449496089
3208 27.00779478586468
3209 27.00777665801329
3210 27.00782230318162
3211 27.00781466344347
3212 27.00788248037917
3213 27.00790554206712
3214 27.00799113532763
3215 27.0080304981431
3216 27.00811258222898
3217 27.00815449525298
3218 27.00824209698812
3219 27.0082700732602
3220 27.00833855590501
3221 27.00832842584083
3222 27.00835825223038
3223 27.00831901767594
3224 27.00832034524884
3225 27.00824935373701
3226 27.00822190733932
3227 27.00813653172623
3228 27.00809910907775
3229 27.0080070581731
3230 27.00796749081314
3231 27.00788801871644
3232 27.00785287754831
3233 27.00777702087709
3234 27.00777026447252
3235 27.00772542725964
3236 27.00775191794635
3237 27.00773961096731
3238 27.00779485500717
3239 27.00780821916219
3240 27.00788126062231
3241 27.00788688428868
3242 27.00796933443198
3243 27.00799377790786
3244 27.00806936816349
3245 27.00807256515967
3246 27.00812833154707
3247 27.00813399906061
3248 27.00818439276638
3249 27.00817118293346
3250 27.00819476651107
3251 27.0081559536998
3252 27.0081628674235
3253 27.00810308427486
3254 27.0080913601242
3255 27.00801724466235
3256 27.00800032800652
3257 27.007927293123
3258 27.00790524615177
3259 27.00783245605297
3260 27.00781544981252
3261 27.00774754304243
3262 27.00774100184702
3263 27.00769482691876
3264 27.00771532045869
3265 27.00770977930447
3266 27.00776405094095
3267 27.00776203451469
3268 27.00782916264759
3269 27.00785413280351
3270 27.00794476974074
3271 27.00798723622045
3272 27.00808619940875
3273 27.0081289809608
3274 27.00822167277909
3275 27.00825284996475
3276 27.00832937172057
3277 27.00833853411795
3278 27.00838043922782
3279 27.00835434360105
3280 27.00836891106793
3281 27.00831425626855
3282 27.00829984096223
3283 27.00821925510292
3284 27.00817481351505
3285 27.00807943459998
3286 27.00804461428923
3287 27.00795427019221
3288 27.00792302735956
3289 27.00784346204843
3290 27.0078290365235
3291 27.00777427625554
3292 27.0077902267485
3293 27.00776505519259
3294 27.00780925990819
3295 27.00780917094056
3296 27.00787240135572
3297 27.00788621240488
3298 27.00795913492077
3299 27.00798139260713
3300 27.00806013267527
3301 27.00807894617957
3302 27.00814625373754
3303 27.00817210891186
3304 27.00822840877932
3305 27.00822841717248
3306 27.00827569569526
3307 27.00824717818549
3308 27.00826377375085
3309 27.00820896233162
3310 27.00820117923098
3311 27.00812660793945
3312 27.00810614111116
3313 27.00804314733094
3314 27.00801896074229
3315 27.0079339289274
3316 27.00790897383547
3317 27.00783411211512
3318 27.00781020519637
3319 27.00775687475444
3320 27.00776588583348
3321 27.00773319792358
3322 27.00776450524693
3323 27.00774789689988
3324 27.00779641337756
3325 27.00779807556658
3326 27.00785352602981
3327 27.00786841937198
3328 27.00794012135298
3329 27.00795750443019
3330 27.00802891338701
3331 27.00803893487959
3332 27.00811024085093
3333 27.00811909626214
3334 27.00816653258685
3335 27.00815014700542
3336 27.00818419226857
3337 27.00816083184216
3338 27.00819019761201
3339 27.00815718172133
3340 27.00817387984752
3341 27.00812545129183
3342 27.00812813571453
3343 27.00806620617258
3344 27.00804717681805
3345 27.00797276275884
3346 27.00795243684757
3347 27.00788143007684
3348 27.00787509506706
3349 27.00782260911799
3350 27.00783293182116
3351 27.00779801080767
3352 27.00782715737966
3353 27.00780248677347
3354 27.00786073905771
3355 27.00787186303807
3356 27.00794491574741
3357 27.00796629290095
3358 27.008041334327
3359 27.00806246535283
3360 27.00813650440065
3361 27.00815505907204
3362 27.00822489739614
3363 27.00823340777602
3364 27.00827668346213
3365 27.00825082971409
3366 27.00826765935427
3367 27.00821994597338
3368 27.00822662834793
3369 27.00815313948471
3370 27.00813650520875
3371 27.00805788114505
3372 27.00803048169667
3373 27.00795643616663
3374 27.00794052319204
3375 27.00787860826522
3376 27.00787820210873
3377 27.00783179086752
3378 27.00784289897834
3379 27.00780878494476
3380 27.00783441983229
3381 27.00781575492759
3382 27.00785305214303
3383 27.00785004258053
3384 27.00791950299747
3385 27.00793898438411
3386 27.00801096898915
3387 27.00802459220619
3388 27.00808816160981
3389 27.00809470719713
3390 27.00815727781796
3391 27.00816268784368
3392 27.00821869716942
3393 27.00820043639467
3394 27.00823068942237
3395 27.0081995985884
3396 27.00821515293247
3397 27.00816781220558
3398 27.00816904281709
3399 27.00811179360297
3400 27.00809915221426
3401 27.00802235517022
3402 27.00801575636514
3403 27.0079483753509
3404 27.0079273036734
3405 27.00785858598941
3406 27.00785379509067
3407 27.00780359276316
3408 27.00781955924774
3409 27.00779672073748
3410 27.00783788850799
3411 27.00783838089999
3412 27.00789279227947
3413 27.00791013209074
3414 27.00798555647719
3415 27.00800593041839
3416 27.00807784244787
3417 27.00809458382713
3418 27.00816287717171
3419 27.00817415573187
3420 27.00823234719642
3421 27.008216342331
3422 27.00823301493077
3423 27.00818694429263
3424 27.00820113018479
3425 27.00814377047048
3426 27.00813480140769
3427 27.00806543499383
3428 27.00804237470079
3429 27.00795770339615
3430 27.00793110092035
3431 27.00785407289861
3432 27.00783631550026
3433 27.0077726966012
3434 27.0077697783722
3435 27.00772800441302
3436 27.00775467340433
3437 27.00774397451454
3438 27.00780427253503
3439 27.00782583201021
3440 27.00791181806042
3441 27.0079629214339
3442 27.0080616597416
3443 27.00809202653448
3444 27.00817278065396
3445 27.00819785489625
3446 27.00827427208171
3447 27.0082907520299
3448 27.00834813520071
3449 27.00833959258588
3450 27.00835764029177
3451 27.00830942177385
3452 27.00830208120403
3453 27.00822974267704
3454 27.00819975354203
3455 27.00811059618592
3456 27.00807224923863
3457 27.00798112554715
3458 27.00794342382844
3459 27.00785337033145
3460 27.00784566678967
3461 27.00777776185662
3462 27.00777387948812
3463 27.00772645261462
3464 27.00774767421792
3465 27.00772833970221
3466 27.0077755305375
3467 27.00778158003463
3468 27.00783705146828
3469 27.0078614539724
3470 27.00794655966039
3471 27.0079697594537
3472 27.00806225562643
3473 27.00809871661339
3474 27.00818721884219
3475 27.00822011521784
3476 27.00830188941585
3477 27.00831787785079
3478 27.0083641455301
3479 27.00834067117129
3480 27.00835696635624
3481 27.00830548912206
3482 27.00829426320732
3483 27.00821414385328
3484 27.00819910369155
3485 27.00809676143101
3486 27.00805671841354
3487 27.00794957235715
3488 27.00790670973434
3489 27.00781446851115
3490 27.00778476048306
3491 27.00771155691534
3492 27.00770426082664
3493 27.00765905611479
3494 27.007684561988
3495 27.00767402911298
3496 27.00773310671899
3497 27.0077511866967
3498 27.00783095069625
3499 27.007861537886
3500 27.00793697857316
3501 27.00796140132242
3502 27.00804985054306
3503 27.00808099369265
3504 27.00816222283984
3505 27.00818640648939
3506 27.00825859504533
3507 27.00825999257232
3508 27.00830539448596
3509 27.00828713412177
3510 27.00831359210268
3511 27.00827241494672
3512 27.00827689857889
3513 27.00821370834378
3514 27.00819682643967
3515 27.008111380501
3516 27.00808006404022
3517 27.00799058928845
3518 27.00795666023625
3519 27.00787069562889
3520 27.00784513633797
3521 27.00779060313767
3522 27.00778951148932
3523 27.00775458014859
3524 27.00778954465478
3525 27.00778468208407
3526 27.00783835602533
3527 27.00785742986912
3528 27.00793373287484
3529 27.00796194285205
3530 27.00804875824739
3531 27.00808470638487
3532 27.00817068550847
3533 27.00819702947652
3534 27.0082691148752
3535 27.00825211068699
3536 27.00828334570667
3537 27.00825642191608
3538 27.00827128242443
3539 27.00821303708719
3540 27.00819738616432
3541 27.00813059212087
3542 27.0081013077457
3543 27.00801490908833
3544 27.0079787897682
3545 27.00789588897386
3546 27.00787091553278
3547 27.00779669395056
3548 27.00778312260358
3549 27.00772522621354
3550 27.00773536535959
3551 27.00770546876579
3552 27.00774171156962
3553 27.00773276729488
3554 27.0077873776181
3555 27.00780827208476
3556 27.00788697983024
3557 27.00790194418093
3558 27.00798026300508
3559 27.00800984885627
3560 27.00809394625185
3561 27.00811950609477
3562 27.00819615887569
3563 27.00820976170858
3564 27.00825557497915
3565 27.0082346587759
3566 27.00825629633457
3567 27.00821372325095
3568 27.00820900508221
3569 27.00813660270788
3570 27.00811227906208
3571 27.00802841298689
3572 27.00799160698126
3573 27.0079049655812
3574 27.00787577801392
3575 27.00778487064826
3576 27.00776598174565
3577 27.00772231556769
3578 27.00774793668856
3579 27.00773849954618
3580 27.00780016243884
3581 27.00781745606448
3582 27.0078974342054
3583 27.00792584596448
3584 27.00799277165417
3585 27.00801961147587
3586 27.00809646502169
3587 27.00811761755513
3588 27.00818487280354
3589 27.00819301236734
3590 27.00824939893915
3591 27.00824394420608
3592 27.00828739495527
3593 27.00825502227691
3594 27.00828512911592
3595 27.00824526005712
3596 27.00824231328367
3597 27.00818113118592
3598 27.00818151262635
3599 27.00811269008255
3600 27.00809651854637
3601 27.00801968528081
3602 27.00800032129295
3603 27.0079265692066
3604 27.00791000870738
3605 27.00784351534745
3606 27.00784129768718
3607 27.007796218303
3608 27.0078182370162
3609 27.00779871418587
3610 27.00784216465398
3611 27.00783018243815
3612 27.00788176346512
3613 27.00788957621561
3614 27.00797176021581
3615 27.00800252951002
3616 27.00809065931456
3617 27.00811854742644
3618 27.00819567313394
3619 27.00821285648592
3620 27.00827512977001
3621 27.00826446393591
3622 27.00829898337525
3623 27.00826384670525
3624 27.00827216847944
3625 27.00821159844594
3626 27.00821013504168
3627 27.00813267230787
3628 27.00810128834013
3629 27.00800861336243
3630 27.00798011115263
3631 27.0078897677887
3632 27.00784466570589
3633 27.00775556351063
3634 27.00773832776413
3635 27.00768348956721
3636 27.00770222488661
3637 27.00768183581672
3638 27.007729255405
3639 27.00773462093672
3640 27.00780537339875
3641 27.0078296278454
3642 27.00791638077023
3643 27.00795650013468
3644 27.00804888661812
3645 27.00808612323314
3646 27.00817600848438
3647 27.008207164255
3648 27.00827584933714
3649 27.00828617508528
3650 27.00834033600278
3651 27.00832055728069
3652 27.00833928888906
3653 27.00828721381111
3654 27.00827658928994
3655 27.00819860825719
3656 27.00818853083541
3657 27.00810144412716
3658 27.00806469538999
3659 27.00797670846603
3660 27.00794632244529
3661 27.00786652031571
3662 27.00785227752903
3663 27.00779534748879
3664 27.00780729246503
3665 27.00778008105537
3666 27.00783133946078
3667 27.00783016156475
3668 27.00788090938781
3669 27.00788650231964
3670 27.00795708618053
3671 27.00797799451783
3672 27.00805479008417
3673 27.00807386229624
3674 27.00814379305093
3675 27.00815489278635
3676 27.00822105582202
3677 27.00822553270629
3678 27.00827262451845
3679 27.00825800376221
3680 27.00828857335446
3681 27.00825531975083
3682 27.00826611027585
3683 27.00821179722537
3684 27.00818632994524
3685 27.00810472617952
3686 27.00808142384684
3687 27.00798789328773
3688 27.00795048555258
3689 27.00785643501927
3690 27.00782207863617
3691 27.00774118553323
3692 27.0077258724228
3693 27.00766915336879
3694 27.00768363790579
3695 27.00765976467538
3696 27.00770754313899
3697 27.00770355219625
3698 27.00778286080451
3699 27.0078161961006
3700 27.00790989007285
3701 27.00795169905307
3702 27.00806041621988
3703 27.00810661333809
3704 27.00818754290143
3705 27.0082083461786
3706 27.00827507770172
3707 27.00826212087812
3708 27.00828951859199
3709 27.00824470729767
3710 27.00824500689385
3711 27.00817842800531
3712 27.00816399420615
3713 27.00809544158781
3714 27.00807629729323
3715 27.0079966159324
3716 27.00797438773785
3717 27.00789915274397
3718 27.00788533688659
3719 27.00782537332616
3720 27.00781724233192
3721 27.00777869030717
3722 27.00780257130577
3723 27.00778409091256
3724 27.00783245657748
3725 27.00783921005351
3726 27.00791311494493
3727 27.00793956515438
3728 27.00802537175649
3729 27.00805693262327
3730 27.00813962118786
3731 27.0081647397504
3732 27.00823995591698
3733 27.00825487194595
3734 27.00832701466594
3735 27.00830757398063
3736 27.00833570421723
3737 27.00829619406734
3738 27.00830409000904
3739 27.00824772471335
3740 27.00823945755694
3741 27.00816687113899
3742 27.00814554149097
3743 27.00806585847381
3744 27.00803073339972
3745 27.00794570318428
3746 27.00791818425094
3747 27.00784378088419
3748 27.00782387370144
3749 27.00776745899943
3750 27.00779077734106
3751 27.00777067707688
3752 27.00781680833603
3753 27.00781888288675
3754 27.00788583404188
3755 27.00790623922644
3756 27.00798270054981
3757 27.00800420796481
3758 27.00807549309877
3759 27.00809219112678
3760 27.0081574033074
3761 27.00816652314739
3762 27.00822476711416
3763 27.00822124959444
3764 27.00824951176544
3765 27.00821038017619
3766 27.0082173136266
3767 27.00816516411124
3768 27.00815670074102
3769 27.00811002544881
3770 27.00809537606615
3771 27.00802153738405
3772 27.00799481577318
3773 27.00792052786015
3774 27.00790761964511
3775 27.00784653372987
3776 27.00784398697608
3777 27.00779433452955
3778 27.00780509045771
3779 27.00777383855505
3780 27.00780427683807
3781 27.00779270047974
3782 27.00784802670295
3783 27.00784678318319
3784 27.0079109032457
3785 27.00793686369866
3786 27.008013601416
3787 27.00803152621668
3788 27.00810071922605
3789 27.00811264507147
3790 27.00817468310166
3791 27.00817586419797
3792 27.00822010387592
3793 27.00818926536071
3794 27.00820327925443
3795 27.00815156574605
3796 27.00815033948245
3797 27.00810013905257
3798 27.00809026903714
3799 27.00802631460782
3800 27.00801254820831
3801 27.00794322390102
3802 27.0079375172875
3803 27.00789317356202
3804 27.00790577813427
3805 27.00785871791485
3806 27.00787237265003
3807 27.00783990335191
3808 27.00787217226286
3809 27.00785972137792
3810 27.00790945463191
3811 27.00791279505386
3812 27.00796972249
3813 27.00796203046012
3814 27.00801710325224
3815 27.00802041375128
3816 27.00807909834999
3817 27.00808860974115
3818 27.00815574787069
3819 27.00816913838006
3820 27.00823259849026
3821 27.00822531701841
3822 27.00826728798402
3823 27.0082309205975
3824 27.00824751380588
3825 27.00820682212352
3826 27.00820687948961
3827 27.00814658291883
3828 27.00813179682662
3829 27.00805758677435
3830 27.00803548004875
3831 27.0079611713998
3832 27.00794178438941
3833 27.00787574513252
3834 27.00787027494754
3835 27.00781946088962
3836 27.00783562531307
3837 27.00781428822012
3838 27.00786030951042
3839 27.0078629487239
3840 27.00791441977741
3841 27.00792114668472
3842 27.0079740104042
3843 27.00799469396023
3844 27.00805048111549
3845 27.00805599747198
3846 27.00811532866333
3847 27.00811897157763
3848 27.00817324446361
3849 27.00817036506692
3850 27.00820581066706
3851 27.00818261972083
3852 27.00820865326442
3853 27.0081726886795
3854 27.00818025834724
3855 27.00812013642223
3856 27.00810981250343
3857 27.00802547197296
3858 27.00800334335758
3859 27.0079272514528
3860 27.00790930590082
3861 27.00783520886597
3862 27.00782058530037
3863 27.00776048964745
3864 27.00776756704905
3865 27.00773498709141
3866 27.0077703227033
3867 27.00776530862712
3868 27.00782557313826
3869 27.00783838978851
3870 27.00792490141812
3871 27.00795405373222
3872 27.00803139758996
3873 27.0080578781726
3874 27.0081402031011
3875 27.00816712398143
3876 27.00824615617222
3877 27.00826417504793
3878 27.00831977857621
3879 27.00830672711815
3880 27.00833695456337
3881 27.00829659693939
3882 27.00829793552739
3883 27.0082325681778
3884 27.00821217398953
3885 27.00813412449177
3886 27.00810522509953
3887 27.00801896512506
3888 27.00798959913559
3889 27.00789631981176
3890 27.00786635130324
3891 27.00780105221396
3892 27.00780015553157
3893 27.00775818253771
3894 27.0077883542214
3895 27.00777850871683
3896 27.00783247133447
3897 27.00783873802695
3898 27.00790661388531
3899 27.00792637422806
3900 27.00800353339218
3901 27.00802885789359
3902 27.00811124989163
3903 27.00813747276339
3904 27.00821833868068
3905 27.0082440100836
3906 27.00833334536413
3907 27.00834462249406
3908 27.00838961055684
3909 27.00836815581669
3910 27.00839306236847
3911 27.00834801682466
3912 27.00834149093181
3913 27.00827029632494
3914 27.00824109686465
3915 27.00814237194328
3916 27.00809165116181
3917 27.00798192089538
3918 27.00792832686838
3919 27.00783092533776
3920 27.00779940771936
3921 27.00772728011753
3922 27.00773027146113
3923 27.00769714990001
3924 27.00772299895305
3925 27.0077262955256
3926 27.00779241188412
3927 27.00781612926187
3928 27.0079023499676
3929 27.00793540057992
3930 27.00802452492618
3931 27.00805572974534
3932 27.0081385226705
3933 27.00816239627405
3934 27.0082351394331
3935 27.00824347367324
3936 27.00828591258242
3937 27.0082616101331
3938 27.00829617686189
3939 27.0082455510974
3940 27.00824478058675
3941 27.0081801849572
3942 27.00817312627186
3943 27.00811122900138
3944 27.00809088931303
3945 27.00801711649386
3946 27.00799732958383
3947 27.0079229767279
3948 27.00790730985428
3949 27.00784301658395
3950 27.00784256272819
3951 27.00779811072701
3952 27.00780951865055
3953 27.00778153229185
3954 27.007835448198
3955 27.0078458412689
3956 27.00792205804204
3957 27.00795039924915
3958 27.00803549007732
3959 27.0080667565086
3960 27.00815035970272
3961 27.00817713132508
3962 27.00825298044784
3963 27.00826527805212
3964 27.00830835845112
3965 27.0082836796005
3966 27.00829770217721
3967 27.00824623636172
3968 27.00824020219331
3969 27.008173051768
3970 27.00817481725734
3971 27.00810175868982
3972 27.00808793446029
3973 27.00801377637791
3974 27.00798218735683
3975 27.00790182188073
3976 27.00788734652281
3977 27.00782932829007
3978 27.00784056261814
3979 27.00781024747379
3980 27.0078446829139
3981 27.00783473674533
3982 27.0078895513485
3983 27.00788467868587
3984 27.00796181998796
3985 27.00798960174069
3986 27.00807578273992
3987 27.00811095023241
3988 27.00819936540058
3989 27.00822973739831
3990 27.00831127344981
3991 27.0083312226038
3992 27.00836257227634
3993 27.00833925019627
3994 27.00836713632496
3995 27.0083213228362
3996 27.00831616764357
3997 27.00824248012895
3998 27.00821814179898
3999 27.00813379874319
4000 27.00809417897759
4001 27.00799390418322
4002 27.00795257332305
4003 27.00786172745231
4004 27.00783277597028
4005 27.00776045097768
4006 27.00775480250994
4007 27.00771095244097
4008 27.00773237198849
4009 27.00771252356165
4010 27.00775922661457
4011 27.00777794528042
4012 27.00785614817186
4013 27.00787283770648
4014 27.00795044342469
4015 27.00797768333926
4016 27.00806176421613
4017 27.0080892874663
4018 27.00816933260347
4019 27.00819272238104
4020 27.00826078541413
4021 27.00825666677389
4022 27.00829565886017
4023 27.00827114996663
4024 27.00829300434808
4025 27.00825088841027
4026 27.008263768521
4027 27.00821179899657
4028 27.00820112188993
4029 27.00812019485163
4030 27.0080895851196
4031 27.00801109596719
4032 27.0079820055599
4033 27.00790173756323
4034 27.00788248569607
4035 27.00781335602015
4036 27.00780481481353
4037 27.00775491617745
4038 27.00777242575869
4039 27.00775807423308
4040 27.00781552547464
4041 27.00783656599185
4042 27.00792278037564
4043 27.00796719244187
4044 27.00806947378332
4045 27.00812245864076
4046 27.00822516693458
4047 27.00828508522311
4048 27.00837937637079
4049 27.008389856326
4050 27.00843051223204
4051 27.00840208966801
4052 27.00841500672772
4053 27.00835818985751
4054 27.00836025893369
4055 27.00828286670058
4056 27.00825472148511
4057 27.00816856003845
4058 27.00813273810329
4059 27.00804917829742
4060 27.00802336829019
4061 27.00794868215731
4062 27.00793809132443
4063 27.00788263259682
4064 27.00788575919353
4065 27.00784530163314
4066 27.00786212571225
4067 27.00783825841262
4068 27.00789237405523
4069 27.00788572156093
4070 27.00795181383019
4071 27.0079633864027
4072 27.00802910592579
4073 27.00804145332699
4074 27.00810927745236
4075 27.00812390681644
4076 27.00819137268147
4077 27.00820134594177
4078 27.00825036888606
4079 27.0082368321722
4080 27.0082671893413
4081 27.00823247391267
4082 27.00823773621056
4083 27.00817336087896
4084 27.00816319832638
4085 27.00808366091432
4086 27.00804006350925
4087 27.0079367599287
4088 27.00789642133374
4089 27.00780987873175
4090 27.00778595822721
4091 27.00771685319907
4092 27.00771365525253
4093 27.00766860364638
4094 27.00769176556814
4095 27.00767664107894
4096 27.00772956239577
4097 27.00773695322642
4098 27.00779237474723
4099 27.00781418164921
4100 27.00789341039958
4101 27.00792665972698
4102 27.00801782628961
4103 27.00805263673877
4104 27.008130384051
4105 27.00815318016497
4106 27.00823716525127
4107 27.00824566984333
4108 27.00830011506907
4109 27.0082887396572
4110 27.00832236752633
4111 27.00828581625994
4112 27.00829100958643
4113 27.00823298106133
4114 27.00821930982788
4115 27.00814175873449
4116 27.00811745687371
4117 27.00803639685154
4118 27.00800946859861
4119 27.00793037519443
4120 27.00790635881019
4121 27.00783597400805
4122 27.00783300287839
4123 27.00779434278953
4124 27.00784046202018
4125 27.00784398388744
4126 27.00790408045212
4127 27.00792228190335
4128 27.00800356097925
4129 27.00803381554624
4130 27.00812149256515
4131 27.00815408181447
4132 27.00823708825353
4133 27.00825894304879
4134 27.00832837870414
4135 27.00833456144634
4136 27.00837749468141
4137 27.00835820713388
4138 27.00838792484926
4139 27.00834624448743
4140 27.00834462448748
4141 27.00827102800568
4142 27.0082499727204
4143 27.00816867634153
4144 27.00812182396252
4145 27.00802602150795
4146 27.00799710253555
4147 27.00790941747721
4148 27.00788035642543
4149 27.00780099690518
4150 27.00778655611171
4151 27.00773026776958
4152 27.00774282965764
4153 27.00771017161281
4154 27.00774300790163
4155 27.00773682039881
4156 27.00779216056086
4157 27.007804142344
4158 27.00787690083378
4159 27.00790417722672
4160 27.00798663396255
4161 27.00801629776248
4162 27.0081015991758
4163 27.00813881930918
4164 27.00821291882268
4165 27.00820953506689
4166 27.00825622204076
4167 27.00823653847404
4168 27.00825781242309
4169 27.00820910190043
4170 27.00821055837367
4171 27.00814340904664
4172 27.00812240656452
4173 27.00803934482801
4174 27.0080044815312
4175 27.00791328697472
4176 27.00787961120238
4177 27.0077985560129
4178 27.00778589642629
4179 27.00773508695829
4180 27.00775564960197
4181 27.00772571723084
4182 27.00777360102557
4183 27.0077753537788
4184 27.00785738853697
4185 27.00788604445815
4186 27.00797235121919
4187 27.00800400574068
4188 27.00808691184836
4189 27.00811173122106
4190 27.00818945870142
4191 27.00821126204434
4192 27.00828132550127
4193 27.00828185553759
4194 27.00832946831524
4195 27.00830975892561
4196 27.00833170492842
4197 27.00828287733112
4198 27.00827955167523
4199 27.00822949768717
4200 27.00821827103342
4201 27.00812849895224
4202 27.00809458444174
4203 27.00800451091023
4204 27.00796843741613
4205 27.0078819447355
4206 27.00786047401084
4207 27.00779845453494
4208 27.00780238714431
4209 27.00776842644986
4210 27.00780341662795
4211 27.0078009577028
4212 27.00786655397108
4213 27.0078705628321
4214 27.0079614044681
4215 27.00800265885886
4216 27.00809870653005
4217 27.0081339410109
4218 27.008209959327
4219 27.00822657596314
4220 27.00829911639628
4221 27.00829105862593
4222 27.00832450769935
4223 27.00828532507787
4224 27.00828589119899
4225 27.00821352782815
4226 27.00818534790206
4227 27.00809714023629
4228 27.00806724804346
4229 27.00798781466208
4230 27.00796067326329
4231 27.00787943284393
4232 27.00785398262948
4233 27.00777812599455
4234 27.00776780076336
4235 27.00771526236219
4236 27.00774201160677
4237 27.00772126314703
4238 27.00775532079291
4239 27.0077504728135
4240 27.00781158484362
4241 27.00782816277889
4242 27.00790434366187
4243 27.00793458381742
4244 27.00801904652602
4245 27.0080544254185
4246 27.00814351013453
4247 27.00817882037154
4248 27.00826169740725
4249 27.00827955622249
4250 27.00832985886095
4251 27.00830983225669
4252 27.00832784647334
4253 27.0082720303514
4254 27.008253680258
4255 27.00818589574808
4256 27.00813728950338
4257 27.00802889763518
4258 27.00797823394
4259 27.0078721603858
4260 27.0078221508616
4261 27.00772462011105
4262 27.00769698223838
4263 27.00763300015477
4264 27.00764352864692
4265 27.00761861349606
4266 27.00767024098217
4267 27.00768461385247
4268 27.00777059743796
4269 27.00781487118453
4270 27.00792428150936
4271 27.00798646123242
4272 27.00809709919422
4273 27.00815245970106
4274 27.00825535511912
4275 27.00829728212934
4276 27.00839610460371
4277 27.00841700723991
4278 27.00845666202014
4279 27.00842506473528
4280 27.00843187765085
4281 27.00837208116123
4282 27.00835247781357
4283 27.00827292744319
4284 27.00824212733143
4285 27.00817507527249
4286 27.00813277224218
4287 27.008033134011
4288 27.00798901010678
4289 27.00789529391139
4290 27.00785975276658
4291 27.00778012794619
4292 27.00776682759647
4293 27.00771359832138
4294 27.00772843566824
4295 27.00770604731939
4296 27.00774417813355
4297 27.00776815313892
4298 27.00784845246091
4299 27.0078855818968
4300 27.00798599935623
4301 27.0080332624568
4302 27.00813725727256
4303 27.00818619569053
4304 27.00828257025127
4305 27.00831815407141
4306 27.00839271390607
4307 27.00838979064976
4308 27.00841192351092
4309 27.00837378836233
4310 27.00836920961177
4311 27.00829472298239
4312 27.00826384417669
4313 27.00817385401217
4314 27.00812907900227
4315 27.00802156333928
4316 27.0079679644616
4317 27.00786472600381
4318 27.00782367319254
4319 27.00774662195098
4320 27.00773837128047
4321 27.00769294118346
4322 27.00771507175245
4323 27.00771151203455
4324 27.00776021908854
4325 27.00776882397041
4326 27.00784409962586
4327 27.00786925210793
4328 27.00794632554928
4329 27.00797448162867
4330 27.00805693855865
4331 27.00808443029176
4332 27.00816610223003
4333 27.00818965114845
4334 27.00826087118466
4335 27.00826415100238
4336 27.0082968311482
4337 27.00824738921638
4338 27.00824642773637
4339 27.00818732650733
4340 27.00816899496632
4341 27.00808479432252
4342 27.00805592312476
4343 27.00796801209195
4344 27.00792986435394
4345 27.0078415213369
4346 27.00781406599152
4347 27.00774433645758
4348 27.00774316132237
4349 27.0077022705071
4350 27.00773006945559
4351 27.00771825775054
4352 27.00777378370249
4353 27.00778871411366
4354 27.00785306599568
4355 27.00788822100501
4356 27.00797910100746
4357 27.00799802633434
4358 27.00810755828473
4359 27.00814001683946
4360 27.00822397358737
4361 27.00824797909758
4362 27.00832055680841
4363 27.00832915720117
4364 27.00837084157016
4365 27.00834701037408
4366 27.00836739411869
4367 27.00832554728955
4368 27.00832818293777
4369 27.00826852379204
4370 27.00825784842484
4371 27.00818428331693
4372 27.0081427272575
4373 27.0080501933705
4374 27.00802302407507
4375 27.00793970165585
4376 27.00791548339328
4377 27.00783994697166
4378 27.00782844774011
4379 27.00776916140306
4380 27.00777819577533
4381 27.00774613007314
4382 27.00778852969048
4383 27.00779067524244
4384 27.00784713293885
4385 27.00786790637247
4386 27.00795275015296
4387 27.00798797380864
4388 27.00808157008105
4389 27.00812234654868
4390 27.00821359397046
4391 27.00824186249411
4392 27.00832565555424
4393 27.00830970783393
4394 27.00834020494182
4395 27.00829877039168
4396 27.00829989460067
4397 27.00822994868918
4398 27.00822274605233
4399 27.00813623830481
4400 27.00809395237419
4401 27.00798709254168
4402 27.00793828946375
4403 27.00783865554276
4404 27.00780010982993
4405 27.00770573932028
4406 27.00768319486905
4407 27.00763141082954
4408 27.00764596086865
4409 27.00762488027634
4410 27.00767410266482
4411 27.00768338829048
4412 27.00775712151055
4413 27.00778267326911
4414 27.00786658478704
4415 27.00790037286938
4416 27.00799185996531
4417 27.00803245491507
4418 27.00812802911205
4419 27.00816426649621
4420 27.00824730199083
4421 27.00825514780015
4422 27.00832185803542
4423 27.0083187623882
4424 27.00834648428228
4425 27.00830565819826
4426 27.00831178343891
4427 27.00824798331258
4428 27.00824486964348
4429 27.00815615275
4430 27.00812128542804
4431 27.00803030059946
4432 27.00799834493695
4433 27.0079186577184
4434 27.00790319939633
4435 27.00784703124684
4436 27.00785789480565
4437 27.00782684271955
4438 27.00786662207697
4439 27.00786480453141
4440 27.00791750617275
4441 27.00794952529619
4442 27.00802315036754
4443 27.00804965822978
4444 27.00813482683846
4445 27.00816705407172
4446 27.00824903576066
4447 27.00827246880782
4448 27.00833755457778
4449 27.00833691411493
4450 27.00837149472756
4451 27.00834175700507
4452 27.00834822516149
4453 27.00830632593033
4454 27.00830546560028
4455 27.00823818733551
4456 27.00823790747872
4457 27.00815029156239
4458 27.00810921862892
4459 27.00801530872424
4460 27.00797417057569
4461 27.00787825866016
4462 27.00784447971317
4463 27.00776320881738
4464 27.00775002109219
4465 27.00769877520466
4466 27.00772173846328
4467 27.00771918687453
4468 27.00777147072045
4469 27.00776869924708
4470 27.00785113748569
4471 27.00788835953836
4472 27.00798514666161
4473 27.00802794652432
4474 27.0081237609311
4475 27.00815833551731
4476 27.00823872776896
4477 27.00825665849668
4478 27.00829685140296
4479 27.00828210721541
4480 27.00831212335468
4481 27.00826107239395
4482 27.0082521657524
4483 27.00818096522853
4484 27.00814996085492
4485 27.00805685697418
4486 27.0080143303751
4487 27.00791365170428
4488 27.00787396995836
4489 27.00778909979519
4490 27.0077647323932
4491 27.00769707731785
4492 27.00769749125782
4493 27.00765766111846
4494 27.00769096217946
4495 27.00768522984464
4496 27.00774368494012
4497 27.00774019890274
4498 27.00781782578275
4499 27.00782800503191
4500 27.00792240684
4501 27.0079794375729
4502 27.00808947994091
4503 27.00813193067496
4504 27.00822514472759
4505 27.00825857298599
4506 27.00833742759287
4507 27.00834252220911
4508 27.00839012096031
4509 27.00836834511248
4510 27.00838709600261
4511 27.0083323163962
4512 27.00831674770711
4513 27.00823610281159
4514 27.00819866882268
4515 27.00810138817529
4516 27.00805757050667
4517 27.0079581419012
4518 27.00791703106859
4519 27.0078284521175
4520 27.00779157655708
4521 27.00771976339967
4522 27.00773195211899
4523 27.0077033714258
4524 27.00774400577491
4525 27.00774666642577
4526 27.00782193500175
4527 27.00785234570501
4528 27.00793961677737
4529 27.00797938883492
4530 27.00807327936354
4531 27.00811383712427
4532 27.00820603071123
4533 27.00824107819246
4534 27.00832565151908
4535 27.00834460315225
4536 27.00839714102082
4537 27.00838002225653
4538 27.00840662193066
4539 27.00837248098237
4540 27.0083556162643
4541 27.00828802954666
4542 27.00825163491771
4543 27.00815135793678
4544 27.00809631824064
4545 27.00798976161954
4546 27.00793704512367
4547 27.00783590807842
4548 27.00779781241943
4549 27.00771780322003
4550 27.00770854819362
4551 27.00765982871949
4552 27.00768071390658
4553 27.00765159020037
4554 27.0077002366812
4555 27.00770627978832
4556 27.00779102621223
4557 27.0078258647175
4558 27.00791802109239
4559 27.00795409355435
4560 27.00803800397875
4561 27.00806527314167
4562 27.0081452857326
4563 27.00816425896161
4564 27.00821871762489
4565 27.00820583857215
4566 27.00823174018135
4567 27.00818935975478
4568 27.00818842296624
4569 27.00811969958291
4570 27.00811575346
4571 27.00804387066679
4572 27.00802544296584
4573 27.00795053528456
4574 27.00795043487274
4575 27.00788392681118
4576 27.00788432500305
4577 27.00784152010712
4578 27.00786618643376
4579 27.00784986284588
4580 27.00789579162123
4581 27.00789506749093
4582 27.00795363779207
4583 27.00796430006547
4584 27.00802950358406
4585 27.00804357370267
4586 27.00811153496974
4587 27.00812285484794
4588 27.00817198841416
4589 27.00817562041216
4590 27.00822718330962
4591 27.0082267118207
4592 27.00827652310499
4593 27.00825707742288
4594 27.00828509124765
4595 27.00824794965318
4596 27.00825362619032
4597 27.00819131224112
4598 27.00817248867265
4599 27.00809996133372
4600 27.00807401819042
4601 27.00798771866134
4602 27.00797098376789
4603 27.00788580107812
4604 27.00786161511518
4605 27.00779528962629
4606 27.00779756151044
4607 27.00776011932147
4608 27.00779377736653
4609 27.00779046081959
4610 27.00785594472767
4611 27.00788219951467
4612 27.00796970553787
4613 27.0080099999593
4614 27.00810377728059
4615 27.00814412730097
4616 27.00821589270549
4617 27.00822833410302
4618 27.00829766791025
4619 27.00829965782021
4620 27.00834166249247
4621 27.00831577895618
4622 27.00832020375254
4623 27.00825670563407
4624 27.0082391993273
4625 27.00815505779607
4626 27.008121450996
4627 27.00802920608795
4628 27.00799787703167
4629 27.00791126377086
4630 27.00787522945463
4631 27.00779329378884
4632 27.00776931754978
4633 27.00769719141114
4634 27.00769055879194
4635 27.00764548265629
4636 27.00768140450885
4637 27.00766988032525
4638 27.00771759027553
4639 27.00772541302401
4640 27.00778631143836
4641 27.00781623462544
4642 27.00788718604741
4643 27.00792891908384
4644 27.00801981759511
4645 27.00805375646275
4646 27.00813960424818
4647 27.00817118701044
4648 27.00825056604103
4649 27.00826846036001
4650 27.00832094812695
4651 27.00830405404655
4652 27.00832606650286
4653 27.0082805708568
4654 27.00827180210774
4655 27.00820037202258
4656 27.00816808335605
4657 27.00807716406795
4658 27.00804573611643
4659 27.00796137387496
4660 27.00793214457058
4661 27.007856003638
4662 27.00784791843716
4663 27.00779631768404
4664 27.00781119050291
4665 27.00778568277876
4666 27.00782494641586
4667 27.00782076103963
4668 27.00788126411254
4669 27.00789603852621
4670 27.00796974029261
4671 27.00799383138329
4672 27.00806706123926
4673 27.0080846077505
4674 27.00815475229458
4675 27.00818281147493
4676 27.00825828538725
4677 27.00826212752855
4678 27.00831495747351
4679 27.00829600369967
4680 27.00832283817735
4681 27.00828582440696
4682 27.008295066541
4683 27.00824019124268
4684 27.0082350089392
4685 27.008181855065
4686 27.00816319609946
4687 27.0080753768627
4688 27.008041945228
4689 27.00795624834069
4690 27.00793106386185
4691 27.00786402105259
4692 27.00786346554333
4693 27.00781215344161
4694 27.00783639402778
4695 27.00783235903763
4696 27.00789609833891
4697 27.00791393396137
4698 27.0079794694324
4699 27.00800849887233
4700 27.00808698142421
4701 27.00811057804748
4702 27.00818522426473
4703 27.00819651857465
4704 27.00825637214258
4705 27.00825426781747
4706 27.00829520394537
4707 27.0082639988124
4708 27.00827577286192
4709 27.00822345174515
4710 27.00822119179102
4711 27.00817141242231
4712 27.00816690629387
4713 27.0080861013128
4714 27.00806458838815
4715 27.00798263327031
4716 27.00795866800097
4717 27.00788074766738
4718 27.00786447688801
4719 27.00779859132527
4720 27.00779513391659
4721 27.00774074648205
4722 27.00775546845922
4723 27.0077257855522
4724 27.00776200546794
4725 27.00775562785919
4726 27.00781789711593
4727 27.0078325902746
4728 27.00791041849483
4729 27.00793910493726
4730 27.00802075666887
4731 27.00805558620157
4732 27.00815918393068
4733 27.00819795575615
4734 27.00828422679892
4735 27.00830000834316
4736 27.00834475623125
4737 27.008317236777
4738 27.00833102814604
4739 27.00827568515133
4740 27.00826359358682
4741 27.00818561066719
4742 27.00816120877013
4743 27.00807733796697
4744 27.00804190067415
4745 27.00795888422441
4746 27.00793506154898
4747 27.00786355196253
4748 27.00786734378184
4749 27.0078191135239
4750 27.00782412219102
4751 27.00779046521503
4752 27.00783025983414
4753 27.00782726962917
4754 27.00788307964372
4755 27.00790203039118
4756 27.00798441750496
4757 27.00801321252576
4758 27.00810136705781
4759 27.00813431791002
4760 27.00822137189201
4761 27.00825178092721
4762 27.00833323681324
4763 27.00835205428172
4764 27.00841339922314
4765 27.00840004841029
4766 27.00842994218868
4767 27.00838587666962
4768 27.00840183029944
4769 27.00833955226651
4770 27.00832146257971
4771 27.0082379614798
4772 27.00819952849718
4773 27.00809600330892
4774 27.00805058452092
4775 27.00795102454351
4776 27.00791102733704
4777 27.00782575750864
4778 27.00780603370192
4779 27.00774668076038
4780 27.00775885741356
4781 27.00773310001466
4782 27.0077894527399
4783 27.00777701659392
4784 27.00784538137798
4785 27.00786535304561
4786 27.00794441495093
4787 27.0079756261639
4788 27.00806286061608
4789 27.00809175488235
4790 27.00816788798466
4791 27.00818352872157
4792 27.00824481924924
4793 27.00823342287605
4794 27.00826582823371
4795 27.00823524917808
4796 27.00824122544991
4797 27.00818317879067
4798 27.00818334930779
4799 27.00812127163719
4800 27.00810272079905
4801 27.00802222921323
4802 27.00799715833953
4803 27.00791624337042
4804 27.00788986207607
4805 27.00781638687807
4806 27.00780408603988
4807 27.00775192926931
4808 27.00776973078466
4809 27.00774803807205
4810 27.0077956945271
4811 27.00780347916382
4812 27.00787529356653
4813 27.00790087054195
4814 27.00798566647136
4815 27.00801969509225
4816 27.00811742226692
4817 27.00815311378209
4818 27.00822767290207
4819 27.00824504099423
4820 27.00831266776924
4821 27.0083166078961
4822 27.00835732956386
4823 27.00833021591155
4824 27.00834436905551
4825 27.00828738113743
4826 27.00827010238125
4827 27.00820325602852
4828 27.00817307749694
4829 27.00808715080963
4830 27.00805027070013
4831 27.0079671814114
4832 27.00794335175073
4833 27.00787496983529
4834 27.00787497957501
4835 27.00782460576263
4836 27.00784741372131
4837 27.00783390757511
4838 27.00788445881089
4839 27.00788547063161
4840 27.00794991789553
4841 27.00794972826506
4842 27.00802620413079
4843 27.00805394763319
4844 27.00813433703134
4845 27.00815515227469
4846 27.00822539138218
4847 27.00823430401363
4848 27.00829213500563
4849 27.00828819535346
4850 27.00832245566514
4851 27.00829517702288
4852 27.00830737466263
4853 27.00825300619363
4854 27.00825331069182
4855 27.00817808376352
4856 27.00815629143569
4857 27.0080560856218
4858 27.00801071790865
4859 27.00791532169406
4860 27.00787567644152
4861 27.00779021871372
4862 27.0077684565426
4863 27.00770888700146
4864 27.00771963709645
4865 27.00769418550075
4866 27.00773833602008
4867 27.00774584976913
4868 27.00781936203937
4869 27.00784742161292
4870 27.00793365831568
4871 27.00796974037242
4872 27.00804375732149
4873 27.0080769420099
4874 27.00815367626149
4875 27.00816920952822
4876 27.00823395657014
4877 27.00823657232437
4878 27.00828879630219
4879 27.00826553278445
4880 27.0082850736639
4881 27.00823749508019
4882 27.00822920773185
4883 27.00815338769796
4884 27.00812264758317
4885 27.00803536584624
4886 27.008008603194
4887 27.00790642137234
4888 27.007867585482
4889 27.00778212130789
4890 27.00776575924882
4891 27.00770895440979
4892 27.00772026634211
4893 27.00769282466911
4894 27.00773547723768
4895 27.00773909641077
4896 27.00780877701216
4897 27.00783721732105
4898 27.00792986615177
4899 27.00797479172038
4900 27.00806301750702
4901 27.00810312920184
4902 27.0082050579307
4903 27.00824470314561
4904 27.00832874034538
4905 27.00835190388924
4906 27.00841678639182
4907 27.00840525173082
4908 27.00843235513957
4909 27.00838878587449
4910 27.00838652025724
4911 27.00831582231369
4912 27.0082914627247
4913 27.00822564805996
4914 27.00819413628546
4915 27.00810426206671
4916 27.00806536359861
4917 27.00797513264157
4918 27.00794551281704
4919 27.00787125868931
4920 27.00787409066873
4921 27.00782187793786
4922 27.00782491505012
4923 27.00778430145589
4924 27.00781290690071
4925 27.00779129497171
4926 27.00784134112084
4927 27.00784773108757
4928 27.00791212000513
4929 27.00792369639083
4930 27.00798865885957
4931 27.00800094720463
4932 27.00807024582724
4933 27.00808772931634
4934 27.00816156038796
4935 27.00817591328043
4936 27.00822688482995
4937 27.00821088073253
4938 27.00823874366174
4939 27.00820363132582
4940 27.00820516592509
4941 27.00814414090135
4942 27.0081552999599
4943 27.00809169953466
4944 27.00806716530295
4945 27.00798891232816
4946 27.00796239100671
4947 27.00788369319504
4948 27.00786398135865
4949 27.00779868144063
4950 27.00779576585477
4951 27.00775330855896
4952 27.00777928877676
4953 27.00776564471954
4954 27.00782238494261
4955 27.00782467447639
4956 27.00790226872574
4957 27.0079276601018
4958 27.00800598437914
4959 27.00804186508738
4960 27.00812233659352
4961 27.00813113166448
4962 27.0081930381165
4963 27.00819907082913
4964 27.00824157381184
4965 27.00821643136051
4966 27.00823519589068
4967 27.00819053848219
4968 27.00819256092586
4969 27.00813309983245
4970 27.0081253895132
4971 27.00806398700979
4972 27.00805344992115
4973 27.00798852242315
4974 27.00798648847228
4975 27.0079378490892
4976 27.0079481968886
4977 27.00790206666714
4978 27.00791912402455
