"y-rfile"
"Iteration" "y"
("Iteration" "y")
1 16594.53891873828
2 22138.93887051415
3 23894.25029152016
4 23233.25986142824
5 21157.12571085475
6 18250.59232374693
7 15213.33713237079
8 12248.32966771092
9 9536.376094002231
10 7225.391144801912
11 5380.866271399354
12 4019.121887109374
13 3110.718250824913
14 2609.503612175353
15 2452.005104537485
16 2569.382875918485
17 2890.812834962025
18 3348.035869562377
19 3881.134655058139
20 4442.153334649381
21 4987.424214004881
22 5490.21448931396
23 5930.220752063313
24 6296.7207045186
25 6585.994981884327
26 6800.319403646211
27 6947.216983767516
28 7037.300427450864
29 7081.954408986169
30 7093.049886859917
31 7081.869034163575
32 7057.933548480652
33 7029.677638829661
34 7003.041692848559
35 6982.937693234646
36 6971.873193586043
37 6971.087229870685
38 6980.376948848258
39 6998.745787049447
40 7024.865609557284
41 7056.814788744167
42 7092.760410635467
43 7130.806891086614
44 7169.152030661853
45 7206.409243688198
46 7241.659705099469
47 7274.080081978785
48 7303.187716039242
49 7328.852708217691
50 7351.171783166031
51 7370.411240319213
52 7386.838923360455
53 7400.943686570929
54 7413.026089817607
55 7423.628865394219
56 7433.033478092379
57 7441.479329850315
58 7449.315893890185
59 7456.590050517002
60 7463.468346503442
61 7470.016330079498
62 7476.205933427678
63 7482.105114491844
64 7487.585226184668
65 7492.702302116963
66 7497.410537397632
67 7501.656215717278
68 7505.383871190126
69 7508.625009371559
70 7511.353410105578
71 7513.581210808962
72 7515.30121753395
73 7516.646140119186
74 7517.538262749501
75 7518.081962354755
76 7518.250021381172
77 7518.043677372182
78 7517.596590327176
79 7516.879796713069
80 7515.948988371906
81 7514.807456867055
82 7513.447842513918
83 7511.872949410115
84 7510.097088494567
85 7508.143000749965
86 7506.045073951515
87 7503.785005953494
88 7501.398238229052
89 7498.837462823565
90 7496.191431965397
91 7493.460734068116
92 7490.654218064864
93 7487.764851069224
94 7484.757578068292
95 7481.706491256671
96 7478.630180394669
97 7475.524323264689
98 7472.455699319173
99 7469.345840276464
100 7466.282852861827
101 7463.227737624019
102 7460.246747890367
103 7457.448357836083
104 7454.761971282098
105 7452.215764220611
106 7449.82961484213
107 7447.599185329821
108 7445.579186823656
109 7443.800869867996
110 7442.334128426312
111 7441.203942835932
112 7440.331857550696
113 7439.747542096048
114 7439.519439541925
115 7439.719456059658
116 7440.195244372825
117 7441.108779766702
118 7442.487118564951
119 7444.313967974963
120 7446.632430645954
121 7449.247422410465
122 7452.209419792123
123 7455.658420280201
124 7459.578259063244
125 7463.92846870389
126 7468.666002125957
127 7473.784811676362
128 7479.350616598436
129 7485.186899191056
130 7491.410217117749
131 7497.965170315035
132 7505.057220262861
133 7512.383062491451
134 7519.920292878573
135 7527.789562986544
136 7535.867990874456
137 7544.265877491517
138 7552.795495649005
139 7561.51680144558
140 7570.476020236008
141 7579.621937313053
142 7588.854406371454
143 7598.236302743609
144 7607.727503049617
145 7617.199469606705
146 7626.687461306803
147 7636.239610754911
148 7645.823857605253
149 7655.187591472863
150 7664.507417614373
151 7673.531369639227
152 7682.749200878561
153 7691.677813190043
154 7700.418613341571
155 7709.00026614637
156 7717.14186382384
157 7725.16541206437
158 7732.790712967335
159 7740.228779074177
160 7747.245249129019
161 7753.77238326867
162 7760.040306646392
163 7765.872143430084
164 7771.181665967282
165 7775.963878557603
166 7780.081780157737
167 7783.787624892122
168 7786.934005693606
169 7789.445613739328
170 7791.4353973288
171 7792.791600939047
172 7793.552038047848
173 7793.523749542705
174 7792.722489927216
175 7791.317022320693
176 7789.163746181769
177 7786.273199482679
178 7782.619992688371
179 7778.114425065346
180 7772.932434679041
181 7766.99972119233
182 7760.140622231035
183 7752.598957971454
184 7744.288769672854
185 7735.130292080623
186 7725.204676207371
187 7714.532683478019
188 7703.075606456042
189 7690.814351128005
190 7677.872548236815
191 7664.367195064531
192 7650.160635726354
193 7635.301155049943
194 7619.818351437852
195 7603.754558091528
196 7587.080885261707
197 7569.983137722345
198 7552.46536193599
199 7534.438376408137
200 7516.301280863972
201 7497.725247859225
202 7478.784489730518
203 7459.696492486865
204 7440.363851163548
205 7420.903341640928
206 7401.288914775982
207 7381.688008454766
208 7362.089501028458
209 7342.758048268932
210 7323.435925046297
211 7304.333206633763
212 7285.576822278099
213 7267.165439239403
214 7248.885904669175
215 7231.04355981989
216 7213.558422674721
217 7196.476571302349
218 7179.921302257261
219 7163.787956775408
220 7148.071298126058
221 7132.93995488467
222 7118.259606424654
223 7104.104709471384
224 7090.50755576216
225 7077.423585315611
226 7064.883270699561
227 7052.76687576983
228 7041.092810082081
229 7029.853983925907
230 7019.064424381418
231 7008.710016062357
232 6998.641715454622
233 6988.8900845396
234 6979.470865106488
235 6970.243689254707
236 6961.308429328281
237 6952.491622879424
238 6943.799186965911
239 6935.232590769934
240 6926.663178005655
241 6918.127347585606
242 6909.608700499914
243 6901.026279962325
244 6892.357661050781
245 6883.583720694674
246 6874.746006267914
247 6865.790594220239
248 6856.742418267953
249 6847.57417318029
250 6838.265952982085
251 6828.88475217887
252 6819.443498688092
253 6809.924038715048
254 6800.309792923168
255 6790.694379654077
256 6781.153524658567
257 6771.56000496465
258 6762.099741433864
259 6752.785410275545
260 6743.588790843791
261 6734.610440785976
262 6725.839046872952
263 6717.333639031858
264 6709.147881597883
265 6701.270983452692
266 6693.806351545704
267 6686.713471029208
268 6680.02533982505
269 6673.809868561362
270 6668.06518234875
271 6662.794664600279
272 6658.004349583994
273 6653.688925914992
274 6649.849959037057
275 6646.466936909374
276 6643.536020275653
277 6641.013255946891
278 6638.954574779942
279 6637.26926114694
280 6635.933529798956
281 6634.953497578177
282 6634.244622011888
283 6633.817507930251
284 6633.569179310972
285 6633.527127729212
286 6633.601006354005
287 6633.791947696364
288 6634.07608637152
289 6634.385248987503
290 6634.686093968282
291 6634.945422172258
292 6635.16724208584
293 6635.30709760139
294 6635.350527731763
295 6635.292099987391
296 6635.105234484793
297 6634.75052475735
298 6634.253719083498
299 6633.618667885252
300 6632.835995174036
301 6631.91037607939
302 6630.833188877258
303 6629.615944017587
304 6628.291050454734
305 6626.853405675406
306 6625.32260973451
307 6623.742308865943
308 6622.112116963775
309 6620.457734958043
310 6618.804456117214
311 6617.155794427435
312 6615.552471516765
313 6613.984946105512
314 6612.523364045832
315 6611.163145442527
316 6609.935337023671
317 6608.834978099881
318 6607.883992219819
319 6607.108544369717
320 6606.520495547931
321 6606.112222875116
322 6605.912476410873
323 6605.910986877212
324 6606.116033338799
325 6606.529989606944
326 6607.155327880359
327 6607.947407339104
328 6608.926457644993
329 6610.077531812515
330 6611.376450957015
331 6612.84056630601
332 6614.431738923436
333 6616.131198495685
334 6617.942724606385
335 6619.849734761136
336 6621.838286085077
337 6623.858958111589
338 6625.909539919978
339 6628.005108072527
340 6630.077424759051
341 6632.157988079342
342 6634.230263463374
343 6636.292665431727
344 6638.315438046199
345 6640.299215933735
346 6642.236746551212
347 6644.105125965582
348 6645.93339266513
349 6647.673571668795
350 6649.356093251257
351 6650.988906119032
352 6652.559572240151
353 6654.070423284064
354 6655.533552151659
355 6656.94882507234
356 6658.300539024481
357 6659.616931344754
358 6660.914382383057
359 6662.173154809384
360 6663.40264712214
361 6664.63099393741
362 6665.836254631584
363 6667.047434333283
364 6668.261416469337
365 6669.498089799777
366 6670.758902973447
367 6672.040234320426
368 6673.347942780587
369 6674.671828785537
370 6676.019357077037
371 6677.378269511651
372 6678.789234127198
373 6680.239970850723
374 6681.715025538965
375 6683.227908712716
376 6684.776728871249
377 6686.341901331019
378 6687.946376897246
379 6689.586103386404
380 6691.254164418143
381 6692.938319233849
382 6694.657130232163
383 6696.393576556664
384 6698.144546175625
385 6699.938328129329
386 6701.727900784618
387 6703.539274092976
388 6705.374831213179
389 6707.199231760091
390 6709.002370536707
391 6710.843514354381
392 6712.660187078658
393 6714.477624198239
394 6716.281107525017
395 6718.097052247196
396 6719.881538625335
397 6721.628220472749
398 6723.359748741044
399 6725.04404520635
400 6726.735630636922
401 6728.370706248897
402 6729.985259820105
403 6731.53636858718
404 6733.061687006148
405 6734.530798721107
406 6735.950733710208
407 6737.339661012318
408 6738.656298344399
409 6739.915935248033
410 6741.123445777519
411 6742.30168735044
412 6743.404564590212
413 6744.456684407624
414 6745.408194631736
415 6746.302638495731
416 6747.136696046596
417 6747.931380152791
418 6748.677062210159
419 6749.386295430718
420 6750.050690564441
421 6750.683243029672
422 6751.300371368106
423 6751.921437101812
424 6752.518041207955
425 6753.151473007631
426 6753.784634563516
427 6754.392502980726
428 6755.054549229145
429 6755.768060162824
430 6756.519671477222
431 6757.290744357269
432 6758.136545151002
433 6758.993836827591
434 6759.917323926299
435 6760.887573571793
436 6761.92767979012
437 6762.977497124652
438 6764.049647766345
439 6765.16374499279
440 6766.281146577406
441 6767.444855470016
442 6768.609647290864
443 6769.804442964351
444 6770.940330625488
445 6772.041062074546
446 6773.116549531799
447 6774.154372273377
448 6775.121768212952
449 6775.992248787597
450 6776.786239684839
451 6777.510118565039
452 6778.144554852553
453 6778.680132037268
454 6779.079696941438
455 6779.325964090399
456 6779.421270831644
457 6779.385911461161
458 6779.203962887996
459 6778.876481282232
460 6778.436406769466
461 6777.846906994455
462 6777.11836870184
463 6776.280623146166
464 6775.321400632583
465 6774.241904926863
466 6773.037053565668
467 6771.765687308675
468 6770.409164530429
469 6769.018642342434
470 6767.578961143063
471 6766.102524136919
472 6764.609458989554
473 6763.040286948807
474 6761.460441383838
475 6759.889264058225
476 6758.304801413926
477 6756.773327072842
478 6755.246916506143
479 6753.756147850097
480 6752.244745358288
481 6750.821567342931
482 6749.358388256357
483 6747.900041518753
484 6746.441414493293
485 6745.076930250569
486 6743.623393579605
487 6742.137932855478
488 6740.663355321083
489 6739.146480614954
490 6737.657827037792
491 6736.073851226374
492 6734.495111948269
493 6732.810727479107
494 6731.076302803177
495 6729.120532511781
496 6727.151763556683
497 6725.056342979232
498 6722.86061329296
499 6720.526920638979
500 6718.119001552988
501 6715.56890774292
502 6712.945707014307
503 6710.23035222721
504 6707.501975387147
505 6704.709823992696
506 6701.876420156749
507 6699.126620726892
508 6696.38802146737
509 6693.662734218138
510 6691.016893091753
511 6688.492411420694
512 6686.127641894369
513 6683.916112810057
514 6681.935444878649
515 6680.147066993904
516 6678.596757666834
517 6677.355496875998
518 6676.362590590319
519 6675.762760447796
520 6675.496004107902
521 6675.565827479964
522 6675.986921268656
523 6676.798744127409
524 6677.943615056447
525 6679.459380291453
526 6681.34235684156
527 6683.592926861344
528 6686.221510364028
529 6689.140679900577
530 6692.359055686603
531 6695.86820773823
532 6699.606808919829
533 6703.556523346497
534 6707.709623066939
535 6712.020235095622
536 6716.417302126814
537 6720.882768082896
538 6725.382731721741
539 6729.951837446019
540 6734.481727076824
541 6738.934062494865
542 6743.189347217324
543 6747.285923214573
544 6751.245178491225
545 6754.980894400624
546 6758.44840034463
547 6761.651399868632
548 6764.580962516447
549 6767.217972444524
550 6769.521209341831
551 6771.466856962518
552 6773.068729171427
553 6774.349883650111
554 6775.270374487314
555 6775.814522852965
556 6776.002015675913
557 6775.849032332062
558 6775.322561599532
559 6774.488360171801
560 6773.325995413765
561 6771.911287890131
562 6770.126655317548
563 6768.09499726072
564 6765.831419057346
565 6763.324162757753
566 6760.661275341946
567 6757.811946699213
568 6754.772509447483
569 6751.608473743613
570 6748.300137126182
571 6744.923708483318
572 6741.448007195043
573 6737.975181890112
574 6734.450556730342
575 6730.867993544664
576 6727.256496169301
577 6723.634662309507
578 6720.008148054047
579 6716.350379578794
580 6712.644040931889
581 6708.978225192514
582 6705.321309628144
583 6701.642432719531
584 6698.115594755422
585 6694.462308590417
586 6690.783231269728
587 6687.146293269364
588 6683.562584372285
589 6680.051808040998
590 6676.517887697915
591 6673.136302533309
592 6669.799329463975
593 6666.543591716711
594 6663.320362834397
595 6660.252048460372
596 6657.324744466654
597 6654.574796216844
598 6651.981842061648
599 6649.623198525609
600 6647.511209520651
601 6645.530025779126
602 6643.812576010817
603 6642.368777722722
604 6641.249492685281
605 6640.460264813493
606 6639.940792536553
607 6639.731701861573
608 6639.753898114775
609 6640.175211251816
610 6640.887219973515
611 6641.948894955421
612 6643.258069140279
613 6644.83009518035
614 6646.792798046698
615 6649.03589968503
616 6651.453392753358
617 6654.107432360279
618 6657.048901299124
619 6660.032330412113
620 6663.182174771017
621 6666.356050204769
622 6669.598574610833
623 6672.79043771833
624 6675.993044302832
625 6678.991245454276
626 6681.774670347563
627 6684.357964577809
628 6686.639501961254
629 6688.52252015319
630 6690.056328624517
631 6691.244162812669
632 6692.016963622404
633 6692.360784173597
634 6692.098531344548
635 6691.211303276438
636 6689.85584017784
637 6688.027962242114
638 6685.575488276512
639 6682.665096323509
640 6679.190275598537
641 6675.213303744061
642 6670.806136302684
643 6666.064745950973
644 6660.863817176284
645 6655.265511935422
646 6649.360229445744
647 6643.125114949153
648 6636.820519528813
649 6630.35569970895
650 6623.768937567583
651 6617.235132652536
652 6610.594229612179
653 6604.010328192903
654 6597.594470549649
655 6591.43223266211
656 6585.469799611398
657 6579.814888276902
658 6574.495168848709
659 6569.577810958767
660 6565.149983118919
661 6561.102011989322
662 6557.658749530365
663 6554.663139992806
664 6552.20566628931
665 6550.308686803864
666 6548.875972363815
667 6548.039282921782
668 6547.681451792952
669 6547.734230945695
670 6548.287616813624
671 6549.27113745829
672 6550.611787783491
673 6552.209833477504
674 6554.053902149522
675 6556.124571977757
676 6558.261133970439
677 6560.427388874592
678 6562.67004177987
679 6564.767868532773
680 6566.794196349903
681 6568.623546588842
682 6570.175672974397
683 6571.420286121557
684 6572.235656913675
685 6572.751090479739
686 6572.820550234023
687 6572.408580012737
688 6571.627534600243
689 6570.369302467231
690 6568.684629702686
691 6566.599216056077
692 6564.093459351488
693 6561.24014106399
694 6557.922060221385
695 6554.305664266011
696 6550.415453221861
697 6546.314383750568
698 6541.941217698762
699 6537.467883828292
700 6532.918201823631
701 6528.330254553694
702 6523.699190609844
703 6519.130786028792
704 6514.700124529591
705 6510.418161752172
706 6506.44056019107
707 6502.625367870726
708 6499.059594992937
709 6495.873711994814
710 6493.090732240712
711 6490.701574287758
712 6488.813747341158
713 6487.388895683384
714 6486.442751253055
715 6486.053986533228
716 6486.225687713765
717 6486.962405749622
718 6488.238040133404
719 6490.097224704742
720 6492.430879019546
721 6495.239970123665
722 6498.613788223841
723 6502.414448336859
724 6506.686512898893
725 6511.359310899796
726 6516.321943430818
727 6521.462917217689
728 6526.869535440474
729 6532.496858810503
730 6538.147904088678
731 6543.789390263436
732 6549.402419877013
733 6554.93624867295
734 6560.274640222539
735 6565.398341777611
736 6570.233517104472
737 6574.742690077831
738 6578.883777784731
739 6582.632221172026
740 6585.951777523474
741 6588.782796230627
742 6591.122073248715
743 6593.009527499702
744 6594.351050263715
745 6595.175359464611
746 6595.501503677262
747 6595.385216610033
748 6594.750951067943
749 6593.675192728011
750 6592.147349276765
751 6590.218935967325
752 6587.933132818355
753 6585.281955005905
754 6582.308328692364
755 6579.06289400513
756 6575.577130872433
757 6571.89190469843
758 6568.099303564512
759 6564.185089382859
760 6560.189070115635
761 6556.208386111994
762 6552.234850588454
763 6548.29700976602
764 6544.46302961026
765 6540.725502271581
766 6537.148402791283
767 6533.732365104102
768 6530.564141623788
769 6527.590042260688
770 6524.944674783329
771 6522.603463232806
772 6520.513148277938
773 6518.789471642614
774 6517.394305374234
775 6516.320058350548
776 6515.59150925291
777 6515.195271678953
778 6515.144151451951
779 6515.450492432675
780 6516.0617130685
781 6517.026044781537
782 6518.273169103357
783 6519.841476638213
784 6521.675403753876
785 6523.745597088103
786 6526.050883226892
787 6528.5603753677
788 6531.216130976607
789 6534.014367495452
790 6536.909683302558
791 6539.847673533671
792 6542.840354452271
793 6545.879003890439
794 6548.844649665917
795 6551.771642598713
796 6554.622748881268
797 6557.348505891292
798 6559.947109605624
799 6562.407768843373
800 6564.66748986838
801 6566.741546461125
802 6568.594463348702
803 6570.203181850168
804 6571.577457109631
805 6572.656589666789
806 6573.470736183099
807 6574.013799129237
808 6574.247353788876
809 6574.190860864232
810 6573.879514608156
811 6573.281491202008
812 6572.428402554267
813 6571.289474925135
814 6569.919026834469
815 6568.308623307887
816 6566.480871091533
817 6564.485028646235
818 6562.332553762345
819 6560.005950197776
820 6557.567103669329
821 6555.023328007232
822 6552.397653573451
823 6549.793590747875
824 6547.146067442273
825 6544.528812687509
826 6542.027811694262
827 6539.586196304068
828 6537.314647318979
829 6535.172680147817
830 6533.218618665361
831 6531.453952589652
832 6529.954469843635
833 6528.688844891126
834 6527.755985170498
835 6527.095088914761
836 6526.801724971141
837 6526.83572067585
838 6527.158155224076
839 6527.860089842332
840 6528.924532865927
841 6530.353513814584
842 6532.069663114878
843 6534.187855435848
844 6536.6270881738
845 6539.383567592156
846 6542.473078075199
847 6545.856663099046
848 6549.501076797585
849 6553.302365636447
850 6557.359488043603
851 6561.562469194112
852 6565.905378825615
853 6570.401732136253
854 6575.032405909995
855 6579.652703041796
856 6584.257795826955
857 6588.877708121035
858 6593.496531777338
859 6598.018921625955
860 6602.414512088758
861 6606.661635278395
862 6610.733847140462
863 6614.620517705827
864 6618.260988651495
865 6621.690799137721
866 6624.895573113247
867 6627.799788629476
868 6630.435572659023
869 6632.795824382595
870 6634.831353367899
871 6636.599011801442
872 6638.060403154022
873 6639.240558469376
874 6640.13964011599
875 6640.781169749986
876 6641.171526926155
877 6641.328981422815
878 6641.277146869224
879 6640.985203969682
880 6640.528039926225
881 6639.875787424624
882 6639.068972169616
883 6638.132340393375
884 6637.060742170987
885 6635.915674312777
886 6634.672407506889
887 6633.393339635612
888 6632.051825566011
889 6630.682332070469
890 6629.293010647376
891 6627.896257185283
892 6626.494911378626
893 6625.094786472278
894 6623.703100362921
895 6622.343559871654
896 6621.013883242184
897 6619.703964326927
898 6618.43437627898
899 6617.20272269764
900 6616.026260681082
901 6614.8703581259
902 6613.751621009239
903 6612.678201043963
904 6611.630276850728
905 6610.620524774058
906 6609.655934721853
907 6608.72810233134
908 6607.8238997566
909 6606.975328447538
910 6606.142936423877
911 6605.345086474994
912 6604.580008965469
913 6603.862543211721
914 6603.181849387638
915 6602.518370839291
916 6601.900511915913
917 6601.313549399023
918 6600.753266950888
919 6600.218335587014
920 6599.715245514595
921 6599.243518481504
922 6598.808856660073
923 6598.403702145049
924 6598.056573531682
925 6597.748673637955
926 6597.505477435483
927 6597.293018894162
928 6597.153982941156
929 6597.051110156049
930 6596.977390724835
931 6596.948671084871
932 6596.95085915767
933 6596.994412373241
934 6597.061589115204
935 6597.173151008281
936 6597.27443820335
937 6597.416562244609
938 6597.560790660521
939 6597.677531902682
940 6597.829700262818
941 6597.969857782539
942 6598.099916081402
943 6598.203547897748
944 6598.305094420269
945 6598.361241918135
946 6598.372828476799
947 6598.334447501499
948 6598.263498253022
949 6598.138089919712
950 6597.965887703677
951 6597.724676139369
952 6597.432861051942
953 6597.063202343268
954 6596.664951581378
955 6596.17938153557
956 6595.655968784189
957 6595.084979404573
958 6594.457562443483
959 6593.786004192377
960 6593.078244730698
961 6592.359252864909
962 6591.603432279973
963 6590.819444989932
964 6590.021021869809
965 6589.24307394103
966 6588.486109697668
967 6587.73598769472
968 6587.019992063597
969 6586.326350271002
970 6585.685858462805
971 6585.090345754728
972 6584.557853733548
973 6584.065317227214
974 6583.654942167113
975 6583.31753162109
976 6583.059299254007
977 6582.893913640029
978 6582.818807280975
979 6582.839400412254
980 6582.952528405606
981 6583.184685986836
982 6583.50306698383
983 6583.908211412949
984 6584.407195268891
985 6585.023792175572
986 6585.713939123736
987 6586.501528540464
988 6587.357647839824
989 6588.302253032872
990 6589.311343308645
991 6590.368708392989
992 6591.493909630914
993 6592.646876788095
994 6593.816988788001
995 6595.002149768809
996 6596.174722713396
997 6597.365916846828
998 6598.548816007167
999 6599.693079262786
1000 6600.841840865966
1001 6601.948272656782
1002 6603.049427217333
1003 6604.098860743046
1004 6605.087080612281
1005 6606.024339889495
1006 6606.867579540776
1007 6607.64094674939
1008 6608.342897506986
1009 6608.975065107831
1010 6609.551344266983
1011 6610.022711158382
1012 6610.433434033775
1013 6610.782155807591
1014 6611.083021935871
1015 6611.340374111108
1016 6611.566213836166
1017 6611.740770690994
1018 6611.867438337617
1019 6611.96838987013
1020 6612.058026656488
1021 6612.166909650042
1022 6612.297617967239
1023 6612.42029748181
1024 6612.569896986948
1025 6612.736952930822
1026 6612.960644755573
1027 6613.244593510667
1028 6613.575374942825
1029 6613.940708641956
1030 6614.351000679852
1031 6614.845867668234
1032 6615.441969084711
1033 6616.036722429256
1034 6616.757772629619
1035 6617.597722588795
1036 6618.519604553802
1037 6619.498369900452
1038 6620.541674015049
1039 6621.642259383136
1040 6622.851244697338
1041 6624.115778149099
1042 6625.467441524435
1043 6626.897357279911
1044 6628.331312926568
1045 6629.838389800152
1046 6631.358511152398
1047 6632.898358651805
1048 6634.459887050858
1049 6635.999977558472
1050 6637.58050156293
1051 6639.170245026978
1052 6640.767887314904
1053 6642.284745469222
1054 6643.792348105
1055 6645.262314807474
1056 6646.674689766847
1057 6647.941191087099
1058 6649.137391397137
1059 6650.262895363366
1060 6651.276151802525
1061 6652.181724200519
1062 6653.023435213062
1063 6653.696506548272
1064 6654.230055423707
1065 6654.5631672339
1066 6654.759113326194
1067 6654.786580117373
1068 6654.638710472489
1069 6654.291230316935
1070 6653.726857977004
1071 6652.954518402073
1072 6652.008887054675
1073 6650.862807164775
1074 6649.551775822059
1075 6647.966860828577
1076 6646.194550815295
1077 6644.207104284852
1078 6642.042416166532
1079 6639.689166429748
1080 6637.190674338279
1081 6634.45897792395
1082 6631.639000531554
1083 6628.657444717912
1084 6625.60529910667
1085 6622.499166939783
1086 6619.317217030091
1087 6616.057740806982
1088 6612.773465280179
1089 6609.455619080587
1090 6606.16143897866
1091 6602.903652286863
1092 6599.700543893109
1093 6596.596627837447
1094 6593.583347502131
1095 6590.706086390309
1096 6587.977632807035
1097 6585.378265987358
1098 6582.967335149524
1099 6580.702523333159
1100 6578.659031314399
1101 6576.783574659023
1102 6575.080871459927
1103 6573.625318105578
1104 6572.378861205242
1105 6571.379194639987
1106 6570.559315179967
1107 6569.946945348104
1108 6569.516903830067
1109 6569.286039050384
1110 6569.238009259325
1111 6569.312402581754
1112 6569.599990525484
1113 6570.019048252065
1114 6570.509403000331
1115 6571.103868085539
1116 6571.80313118631
1117 6572.537704553445
1118 6573.332526784521
1119 6574.16524219557
1120 6574.976950371637
1121 6575.792589066535
1122 6576.620783689081
1123 6577.393225426143
1124 6578.105048391952
1125 6578.742444851459
1126 6579.304885423392
1127 6579.788186615234
1128 6580.186964455567
1129 6580.510337005035
1130 6580.690043919737
1131 6580.759526677294
1132 6580.741316629867
1133 6580.574772745123
1134 6580.317352641145
1135 6579.948188673635
1136 6579.424477003235
1137 6578.818896644393
1138 6578.089245617597
1139 6577.225435296155
1140 6576.250945921489
1141 6575.176410764252
1142 6573.984663697493
1143 6572.754935010745
1144 6571.416390766536
1145 6570.015844566887
1146 6568.554163719781
1147 6567.028360695272
1148 6565.45543110331
1149 6563.855552294255
1150 6562.20941291669
1151 6560.556422080638
1152 6558.850832640684
1153 6557.150553337658
1154 6555.470159263179
1155 6553.766566435766
1156 6552.117230557889
1157 6550.51627415427
1158 6548.893616096243
1159 6547.344526369029
1160 6545.838808316299
1161 6544.416364247722
1162 6543.02518281201
1163 6541.678804676922
1164 6540.388036132184
1165 6539.16379514938
1166 6537.917934565805
1167 6536.748884570466
1168 6535.618751493139
1169 6534.515399390307
1170 6533.512477846006
1171 6532.513366889596
1172 6531.570183065758
1173 6530.60627385743
1174 6529.645626999001
1175 6528.699333315032
1176 6527.71600900677
1177 6526.688274739831
1178 6525.704083900248
1179 6524.686280732278
1180 6523.583094911833
1181 6522.4216360246
1182 6521.158006932671
1183 6519.831454045072
1184 6518.418124953437
1185 6516.905443312228
1186 6515.295766848851
1187 6513.63838966622
1188 6511.872273531342
1189 6509.988747720353
1190 6508.005527715001
1191 6505.932233018629
1192 6503.809090007841
1193 6501.595413998731
1194 6499.305980290339
1195 6496.973093340164
1196 6494.650949864985
1197 6492.325413709518
1198 6490.017510545152
1199 6487.660658805928
1200 6485.353845344317
1201 6483.065007228798
1202 6480.820378259257
1203 6478.614259764624
1204 6476.487515519694
1205 6474.448815248785
1206 6472.462667912453
1207 6470.559122837016
1208 6468.742908906937
1209 6467.026160204674
1210 6465.379052398747
1211 6463.831608487851
1212 6462.368365227439
1213 6460.989216920899
1214 6459.659138637965
1215 6458.413610580306
1216 6457.265849845244
1217 6456.13015325559
1218 6455.057539679347
1219 6454.014825793854
1220 6453.016978699544
1221 6452.01057116831
1222 6450.987373196265
1223 6449.993308323406
1224 6448.959732742622
1225 6447.874905415463
1226 6446.748458381728
1227 6445.575532430206
1228 6444.357667216635
1229 6443.063837150002
1230 6441.6807893168
1231 6440.200440233535
1232 6438.680705050795
1233 6437.087878973694
1234 6435.396504876805
1235 6433.651126672687
1236 6431.833410222125
1237 6429.929389113028
1238 6427.997561686957
1239 6426.040432908721
1240 6424.025830922774
1241 6422.022844355278
1242 6419.97930034523
1243 6417.981567048862
1244 6416.006698809674
1245 6414.065363715984
1246 6412.178772079367
1247 6410.391976349076
1248 6408.667245024415
1249 6407.069302039416
1250 6405.606102297011
1251 6404.281389344548
1252 6403.151683553639
1253 6402.236143204991
1254 6401.510134825613
1255 6401.036384130807
1256 6400.785605366122
1257 6400.771157561934
1258 6401.024565442202
1259 6401.514268282235
1260 6402.291781416572
1261 6403.325478342579
1262 6404.588602190264
1263 6406.109654783299
1264 6407.828080451057
1265 6409.789418676258
1266 6411.980513927136
1267 6414.354679755575
1268 6416.895758119544
1269 6419.56097944737
1270 6422.361990340555
1271 6425.241566952852
1272 6428.17155757175
1273 6431.145021429269
1274 6434.137488589437
1275 6437.096170724584
1276 6440.008988304568
1277 6442.847773069137
1278 6445.581368487557
1279 6448.168571751115
1280 6450.603351153381
1281 6452.872543803651
1282 6454.934403126349
1283 6456.790448064985
1284 6458.419481081093
1285 6459.803901666116
1286 6460.949612691979
1287 6461.834331739088
1288 6462.478173126925
1289 6462.887111709239
1290 6463.07074869991
1291 6463.000159058823
1292 6462.73023802736
1293 6462.251874604072
1294 6461.58904277196
1295 6460.764333610066
1296 6459.783447592695
1297 6458.679305688705
1298 6457.498088222539
1299 6456.232580956383
1300 6454.892816599884
1301 6453.523099965714
1302 6452.138896306757
1303 6450.762917575407
1304 6449.406383146272
1305 6448.101142156726
1306 6446.845741801298
1307 6445.642855986472
1308 6444.544694571871
1309 6443.542771526105
1310 6442.663504587773
1311 6441.906135413081
1312 6441.257667025997
1313 6440.747016649014
1314 6440.377568640402
1315 6440.142692684167
1316 6440.034411761634
1317 6440.045993349396
1318 6440.179738202806
1319 6440.436115491967
1320 6440.8017489327
1321 6441.247565377852
1322 6441.793766941099
1323 6442.417265531491
1324 6443.106069948508
1325 6443.83921355961
1326 6444.611106941289
1327 6445.422454308686
1328 6446.21514193745
1329 6447.010041069111
1330 6447.788056167292
1331 6448.528254555956
1332 6449.249417942226
1333 6449.92222206345
1334 6450.546765415741
1335 6451.083848073963
1336 6451.577932664967
1337 6451.999742132632
1338 6452.36926367772
1339 6452.664324452709
1340 6452.899107632609
1341 6453.08705692522
1342 6453.207651189202
1343 6453.256166995217
1344 6453.260280633424
1345 6453.232217923444
1346 6453.154803071011
1347 6453.059513798306
1348 6452.953320781307
1349 6452.829414755478
1350 6452.70899090609
1351 6452.570557446912
1352 6452.47506460214
1353 6452.382323311342
1354 6452.362476713512
1355 6452.356626903145
1356 6452.399127518341
1357 6452.479261721149
1358 6452.589558685286
1359 6452.793619770167
1360 6453.050395887258
1361 6453.370497482352
1362 6453.757853121047
1363 6454.163170261753
1364 6454.620473071756
1365 6455.1119988706
1366 6455.631759079009
1367 6456.180238190042
1368 6456.742104817947
1369 6457.295319380082
1370 6457.835421156038
1371 6458.333294163356
1372 6458.796297712449
1373 6459.214271303576
1374 6459.575540371114
1375 6459.825034672966
1376 6459.956571096605
1377 6460.007613241675
1378 6459.9237117087
1379 6459.70957405217
1380 6459.372354278951
1381 6458.907496567381
1382 6458.216332944594
1383 6457.397095184108
1384 6456.412283582652
1385 6455.295590636108
1386 6454.001477212311
1387 6452.581216166065
1388 6451.000742151864
1389 6449.250125931721
1390 6447.390911446437
1391 6445.361203177054
1392 6443.230017534272
1393 6440.987998009067
1394 6438.66393733447
1395 6436.273999323589
1396 6433.791416036842
1397 6431.303432089425
1398 6428.757109128639
1399 6426.203762571366
1400 6423.665732117192
1401 6421.173127506102
1402 6418.699228150519
1403 6416.26363256229
1404 6414.00545824667
1405 6411.824511922746
1406 6409.705021485047
1407 6407.726339156633
1408 6405.908049291023
1409 6404.264668264529
1410 6402.772570473668
1411 6401.424998871067
1412 6400.277131752264
1413 6399.33899083068
1414 6398.626148906659
1415 6398.117792479776
1416 6397.813493073692
1417 6397.690929629793
1418 6397.797111228399
1419 6398.153436694483
1420 6398.709790246432
1421 6399.470740907528
1422 6400.437109313639
1423 6401.654191324365
1424 6403.039757724949
1425 6404.611150721852
1426 6406.347482447301
1427 6408.262639641406
1428 6410.277313845824
1429 6412.44426685038
1430 6414.739217821723
1431 6417.088576198414
1432 6419.531790806385
1433 6422.021248063464
1434 6424.574714217018
1435 6427.128725341587
1436 6429.729294753116
1437 6432.27836977854
1438 6434.781227018378
1439 6437.240781247266
1440 6439.677079674869
1441 6442.08893841395
1442 6444.392743009803
1443 6446.623944536235
1444 6448.763304952781
1445 6450.825264157429
1446 6452.796620189349
1447 6454.690777393795
1448 6456.482681932762
1449 6458.182085272243
1450 6459.775332440271
1451 6461.276447427907
1452 6462.743413733516
1453 6464.138977059398
1454 6465.450544276771
1455 6466.689706444804
1456 6467.868759237213
1457 6469.000973605082
1458 6470.095467200483
1459 6471.176164061832
1460 6472.237225567858
1461 6473.242345169509
1462 6474.223297350968
1463 6475.189261544506
1464 6476.121786478614
1465 6477.026167195408
1466 6477.920580424224
1467 6478.768991808128
1468 6479.592879232715
1469 6480.35309965154
1470 6481.097138503725
1471 6481.739565065249
1472 6482.337727693395
1473 6482.808665676138
1474 6483.161579201626
1475 6483.400753881866
1476 6483.57094796098
1477 6483.621853507483
1478 6483.547499841234
1479 6483.319623138239
1480 6482.947948695831
1481 6482.443486546782
1482 6481.806302259815
1483 6480.973573229501
1484 6480.007937876226
1485 6478.900592450979
1486 6477.651801079544
1487 6476.267499276782
1488 6474.751875156128
1489 6473.10597704652
1490 6471.403769296191
1491 6469.585012171391
1492 6467.660547669228
1493 6465.697581151607
1494 6463.692309794829
1495 6461.654799670486
1496 6459.589830304941
1497 6457.581635687876
1498 6455.621963458528
1499 6453.683508540505
1500 6451.840847560743
1501 6450.06304060923
1502 6448.472923243326
1503 6447.013454522483
1504 6445.696393307016
1505 6444.549690562906
1506 6443.60077643933
1507 6442.830628951609
1508 6442.318998601801
1509 6441.992347209101
1510 6441.929193240588
1511 6442.123420714971
1512 6442.527367929677
1513 6443.196554143968
1514 6444.137385767719
1515 6445.29687567118
1516 6446.669628505051
1517 6448.313156981787
1518 6450.166893284856
1519 6452.245869758745
1520 6454.518701897625
1521 6456.933373567503
1522 6459.48762914437
1523 6462.188112642545
1524 6465.012538835524
1525 6467.977498495258
1526 6470.958499105146
1527 6473.957308561312
1528 6476.960379744093
1529 6479.94682989834
1530 6482.885771453948
1531 6485.746509066915
1532 6488.477921214594
1533 6491.095804034509
1534 6493.566717070607
1535 6495.852854110834
1536 6497.930630343363
1537 6499.791487520846
1538 6501.431817544568
1539 6502.834587605244
1540 6504.017909121429
1541 6504.971524639042
1542 6505.685586833139
1543 6506.124341004208
1544 6506.332579751474
1545 6506.296486336396
1546 6506.043973461571
1547 6505.5460069854
1548 6504.849038224076
1549 6503.95811594971
1550 6502.874661458011
1551 6501.677438046051
1552 6500.351414958965
1553 6498.884604746854
1554 6497.333032614478
1555 6495.753429812685
1556 6494.145183324372
1557 6492.476770889959
1558 6490.853120710245
1559 6489.230292510543
1560 6487.642944742776
1561 6486.143969240922
1562 6484.715492290396
1563 6483.424432130999
1564 6482.244110724412
1565 6481.224037958051
1566 6480.380504292596
1567 6479.681187095402
1568 6479.155098459727
1569 6478.787460218926
1570 6478.599560038004
1571 6478.612407267417
1572 6478.799109247238
1573 6479.202952771681
1574 6479.782438483416
1575 6480.583507088649
1576 6481.567490438792
1577 6482.718876434633
1578 6484.021126280333
1579 6485.506281093662
1580 6487.114435877821
1581 6488.889413787467
1582 6490.781444018104
1583 6492.805140078344
1584 6494.917419367622
1585 6497.14608154854
1586 6499.464749285102
1587 6501.864289244496
1588 6504.333134185457
1589 6506.837880056748
1590 6509.335793748011
1591 6511.894929882402
1592 6514.47933777554
1593 6517.016912208303
1594 6519.570427796139
1595 6522.086820152615
1596 6524.574929539096
1597 6527.004875051549
1598 6529.393122632527
1599 6531.754718288055
1600 6534.043378478722
1601 6536.222191196637
1602 6538.313562341268
1603 6540.294963342772
1604 6542.199310491178
1605 6543.945233049809
1606 6545.596696512663
1607 6547.125090999037
1608 6548.537065166794
1609 6549.801306013982
1610 6550.917667146006
1611 6551.900161524028
1612 6552.718524842711
1613 6553.396893368934
1614 6553.976976263763
1615 6554.394178107679
1616 6554.661647892341
1617 6554.793394109491
1618 6554.791722700414
1619 6554.646256247337
1620 6554.380791900616
1621 6553.99105510405
1622 6553.490304188517
1623 6552.877387241103
1624 6552.189021025897
1625 6551.447874808199
1626 6550.631445595711
1627 6549.774677302607
1628 6548.888461143321
1629 6547.910243942367
1630 6546.946723077826
1631 6546.009234509977
1632 6545.030592218686
1633 6544.063829809624
1634 6543.172838939783
1635 6542.294208852643
1636 6541.519165471052
1637 6540.796917706028
1638 6540.1733725412
1639 6539.589087649892
1640 6539.075358471675
1641 6538.666787184364
1642 6538.392423235197
1643 6538.207992655422
1644 6538.141807242836
1645 6538.179277265834
1646 6538.389233164236
1647 6538.697253175969
1648 6539.172601244346
1649 6539.705324656787
1650 6540.336457878681
1651 6541.111734428037
1652 6541.980317742185
1653 6542.925750265349
1654 6543.946652373806
1655 6545.039701341796
1656 6546.194657108742
1657 6547.387381156088
1658 6548.668446160772
1659 6549.916076210844
1660 6551.188348028058
1661 6552.50468834001
1662 6553.816815716864
1663 6555.140102969659
1664 6556.482261675553
1665 6557.697747669117
1666 6558.862728878254
1667 6559.961726099275
1668 6560.989951451798
1669 6561.909061484387
1670 6562.775252486593
1671 6563.527289229532
1672 6564.070741897285
1673 6564.559376920372
1674 6564.889166391582
1675 6565.073464346594
1676 6565.117055572915
1677 6564.963624752306
1678 6564.741054032826
1679 6564.324369126797
1680 6563.732876614507
1681 6562.920077003503
1682 6561.990187231961
1683 6560.805608161541
1684 6559.440688207677
1685 6557.86956090862
1686 6556.059222711514
1687 6554.008378153246
1688 6551.734138767002
1689 6549.354864026025
1690 6546.724656239922
1691 6543.976535637074
1692 6541.081580118964
1693 6538.013933274126
1694 6534.826330614901
1695 6531.587320775576
1696 6528.254550534743
1697 6524.97280791933
1698 6521.74131519526
1699 6518.501766334372
1700 6515.281634608974
1701 6512.170153953274
1702 6509.174888102353
1703 6506.364813158449
1704 6503.824822594239
1705 6501.575129934343
1706 6499.560871874468
1707 6497.936127854614
1708 6496.549559905035
1709 6495.52225986805
1710 6494.93962786279
1711 6494.765295558471
1712 6494.995836889063
1713 6495.609156001733
1714 6496.669529945353
1715 6498.030461601135
1716 6499.801005557813
1717 6501.880124251124
1718 6504.191283302123
1719 6506.84156516482
1720 6509.694760719293
1721 6512.65195430169
1722 6515.634941038297
1723 6518.812644532325
1724 6521.938010000514
1725 6524.92185668157
1726 6527.671061676916
1727 6530.338856207231
1728 6532.709435498423
1729 6534.700908983901
1730 6536.311861741198
1731 6537.442707755828
1732 6538.013777476895
1733 6538.107949274338
1734 6537.529329659457
1735 6536.400099081265
1736 6534.694943453449
1737 6532.364906538886
1738 6529.390512970695
1739 6525.776218295615
1740 6521.489365800791
1741 6516.608733026117
1742 6511.205520099999
1743 6505.330857287734
1744 6499.041567729051
1745 6492.229548818596
1746 6485.023954421576
1747 6477.614864873105
1748 6470.016705857652
1749 6462.358480581976
1750 6454.626775884358
1751 6446.98020613584
1752 6439.356444449735
1753 6431.857694376498
1754 6424.548198363959
1755 6417.607394014467
1756 6410.928819982712
1757 6404.713490844033
1758 6399.046935169751
1759 6393.874917795276
1760 6389.304568673374
1761 6385.412995551965
1762 6382.112812603456
1763 6379.577075209445
1764 6377.578641320231
1765 6376.303157704697
1766 6375.703795824478
1767 6375.798093283768
1768 6376.530418174038
1769 6377.910939547794
1770 6379.899422738283
1771 6382.457772195494
1772 6385.509674176156
1773 6389.04380168864
1774 6392.819638383507
1775 6396.993469004183
1776 6401.430206620207
1777 6405.949902439716
1778 6410.543259412959
1779 6415.1259442173
1780 6419.725182106879
1781 6424.168864752332
1782 6428.423322248375
1783 6432.405583336589
1784 6436.092837833614
1785 6439.43078441695
1786 6442.293057511308
1787 6444.65812899101
1788 6446.512561393575
1789 6447.758367088961
1790 6448.386402264432
1791 6448.401546297492
1792 6447.772464482813
1793 6446.53643993582
1794 6444.621657645662
1795 6442.095667111628
1796 6438.958743715751
1797 6435.236388279362
1798 6430.963474969285
1799 6426.168572230333
1800 6420.869007254937
1801 6415.158077547702
1802 6409.060407819563
1803 6402.633394228411
1804 6395.914341668306
1805 6389.027555656317
1806 6381.905128934041
1807 6374.699374116602
1808 6367.456459582322
1809 6360.195400579742
1810 6353.01411149728
1811 6345.893790480362
1812 6338.920361293082
1813 6332.162974575122
1814 6325.709918076152
1815 6319.560941782504
1816 6313.760047651401
1817 6308.30130573064
1818 6303.183504025035
1819 6298.491340858012
1820 6294.273620763744
1821 6290.48873580094
1822 6287.14529144479
1823 6284.236205223776
1824 6281.835083884097
1825 6279.855214594804
1826 6278.325650519672
1827 6277.218188974394
1828 6276.514172015038
1829 6276.171552359227
1830 6276.182940103631
1831 6276.544612907612
1832 6277.23045061457
1833 6278.216118663386
1834 6279.476000474519
1835 6280.917549762202
1836 6282.597180060775
1837 6284.409186379642
1838 6286.345013425865
1839 6288.446351937324
1840 6290.61316442215
1841 6292.835290754205
1842 6295.156918063103
1843 6297.450692234226
1844 6299.753508502284
1845 6302.038416178425
1846 6304.258919807482
1847 6306.432384672408
1848 6308.493298471378
1849 6310.519126369469
1850 6312.46679477707
1851 6314.262823302382
1852 6315.978138700027
1853 6317.523080705376
1854 6318.94717332529
1855 6320.187573754284
1856 6321.299610822267
1857 6322.207279133569
1858 6323.003230558448
1859 6323.582362052482
1860 6323.969795774671
1861 6324.205695653327
1862 6324.227517764892
1863 6324.04892193861
1864 6323.667689689501
1865 6323.100016118712
1866 6322.330203690082
1867 6321.321081757927
1868 6320.168506825801
1869 6318.801675107997
1870 6317.257700258282
1871 6315.555441870782
1872 6313.704718060107
1873 6311.702770652869
1874 6309.553805016193
1875 6307.244378842129
1876 6304.845469999324
1877 6302.329906455221
1878 6299.738588425412
1879 6297.065748681754
1880 6294.402953599149
1881 6291.661957171626
1882 6288.890456446669
1883 6286.204123708016
1884 6283.562134256174
1885 6281.047142570502
1886 6278.585603287902
1887 6276.27091593092
1888 6274.134874966191
1889 6272.162869694804
1890 6270.339858601028
1891 6268.784689293499
1892 6267.40589025567
1893 6266.331687280901
1894 6265.493140037942
1895 6265.000877116417
1896 6264.880832662937
1897 6265.057948574157
1898 6265.565169556162
1899 6266.461658489414
1900 6267.730403528712
1901 6269.327790989583
1902 6271.277152693171
1903 6273.580130472048
1904 6276.255305074877
1905 6279.289207372139
1906 6282.625376068499
1907 6286.296680890032
1908 6290.302751088768
1909 6294.646122835768
1910 6299.239030857308
1911 6303.952296126005
1912 6308.896629649238
1913 6314.027434291012
1914 6319.225117438998
1915 6324.459890272793
1916 6329.871438799455
1917 6335.355777208
1918 6340.762904845978
1919 6346.105638275478
1920 6351.350134309471
1921 6356.521410861906
1922 6361.464934162897
1923 6366.204794283108
1924 6370.676753611769
1925 6374.902506758223
1926 6378.842686586312
1927 6382.482030606271
1928 6385.723045169218
1929 6388.536240225066
1930 6390.96924636519
1931 6392.955663053301
1932 6394.581792273195
1933 6395.811001751816
1934 6396.584001396973
1935 6396.912053535694
1936 6396.761769706734
1937 6396.24960498741
1938 6395.278447170794
1939 6393.909174767775
1940 6392.233876807109
1941 6390.176688433545
1942 6387.761658996928
1943 6385.110786560997
1944 6382.197020968586
1945 6379.038732423212
1946 6375.633735491804
1947 6372.161539147159
1948 6368.569555848985
1949 6364.890542146497
1950 6361.033060360591
1951 6357.28257470266
1952 6353.492277826868
1953 6349.742853966396
1954 6346.058306746952
1955 6342.492596409861
1956 6339.030205130403
1957 6335.724873190095
1958 6332.561041351276
1959 6329.586397039557
1960 6326.809742831431
1961 6324.225978992888
1962 6321.888555626806
1963 6319.788547336574
1964 6317.930163165235
1965 6316.357277766577
1966 6314.981185847194
1967 6313.844327938843
1968 6312.949799945214
1969 6312.324630903404
1970 6311.92926630588
1971 6311.775380751154
1972 6311.794752426499
1973 6312.02247206165
1974 6312.400194854008
1975 6312.984865757868
1976 6313.722762795631
1977 6314.640648887514
1978 6315.659076511198
1979 6316.823684591185
1980 6318.141454453693
1981 6319.544674453337
1982 6321.049128178868
1983 6322.639279010757
1984 6324.324205695961
1985 6326.077650400088
1986 6327.925211384953
1987 6329.801112937444
1988 6331.760006479565
1989 6333.841776778809
1990 6335.967400838566
1991 6338.153825669399
1992 6340.418877593685
1993 6342.773116678725
1994 6345.205498060168
1995 6347.689326230195
1996 6350.299224495055
1997 6353.019193531592
1998 6355.83757865895
1999 6358.750832905563
2000 6361.747011682321
2001 6364.86452247174
2002 6368.099682006555
2003 6371.451535491953
2004 6374.955677019133
2005 6378.576284689429
2006 6382.273128165394
2007 6386.115524703838
2008 6390.041039981772
2009 6394.081872435735
2010 6398.177174985426
2011 6402.402714122195
2012 6406.71129241282
2013 6411.019811605745
2014 6415.421388964952
2015 6419.817376881347
2016 6424.182122040886
2017 6428.596651615422
2018 6432.923320372931
2019 6437.188300610347
2020 6441.353478066007
2021 6445.358669627904
2022 6449.230286897565
2023 6452.910396566728
2024 6456.416554198566
2025 6459.715330607897
2026 6462.800484151449
2027 6465.6182065961
2028 6468.123352167693
2029 6470.382252958027
2030 6472.380989013378
2031 6474.041205167577
2032 6475.422863538954
2033 6476.465801165101
2034 6477.210397612904
2035 6477.671101184973
2036 6477.818271289002
2037 6477.649537768862
2038 6477.198486029295
2039 6476.521261487863
2040 6475.531079368482
2041 6474.262987094563
2042 6472.81161361353
2043 6471.109864103302
2044 6469.246624183867
2045 6467.189110521113
2046 6464.985076154949
2047 6462.684788425391
2048 6460.229587091443
2049 6457.674649275335
2050 6455.090932271713
2051 6452.55699527324
2052 6450.009185419911
2053 6447.497764038976
2054 6444.984651184471
2055 6442.54665282716
2056 6440.258633721996
2057 6438.123710815941
2058 6436.14993150623
2059 6434.316780476974
2060 6432.645146209034
2061 6431.129669511282
2062 6429.847114907793
2063 6428.79704474122
2064 6427.932066783163
2065 6427.29880058905
2066 6426.885982287935
2067 6426.728477387112
2068 6426.824401852637
2069 6427.152694609023
2070 6427.686161490372
2071 6428.42008414819
2072 6429.376764637558
2073 6430.535339324172
2074 6431.858672304033
2075 6433.368609662362
2076 6435.01184090818
2077 6436.739592238307
2078 6438.500262703482
2079 6440.356713255374
2080 6442.245975417372
2081 6444.078377889638
2082 6445.921755513175
2083 6447.744055324229
2084 6449.528931117835
2085 6451.227140580689
2086 6452.813085215468
2087 6454.328094799062
2088 6455.704895848428
2089 6456.981550485551
2090 6458.112522112163
2091 6459.086145552722
2092 6459.918036157359
2093 6460.595485034934
2094 6461.134495693095
2095 6461.52778566874
2096 6461.798344880997
2097 6461.925353460487
2098 6461.928057306627
2099 6461.814690192741
2100 6461.623140576395
2101 6461.310445931561
2102 6460.913308361903
2103 6460.432082937759
2104 6459.918498926832
2105 6459.339412438103
2106 6458.737931455603
2107 6458.139882268535
2108 6457.550038357144
2109 6456.983895305436
2110 6456.449588525172
2111 6455.963400369003
2112 6455.526512762661
2113 6455.19644083901
2114 6454.947616714938
2115 6454.827128384265
2116 6454.819461238069
2117 6454.941650842998
2118 6455.222961799919
2119 6455.623362062421
2120 6456.161065931366
2121 6456.830492265677
2122 6457.664669952932
2123 6458.662984727257
2124 6459.811343893992
2125 6461.080735445695
2126 6462.47344063205
2127 6463.987323435743
2128 6465.621620863254
2129 6467.367333149045
2130 6469.183406389182
2131 6471.133703135818
2132 6473.131001121414
2133 6475.186087308153
2134 6477.272292677273
2135 6479.392471509837
2136 6481.540202405582
2137 6483.668872030348
2138 6485.775030295154
2139 6487.859037713846
2140 6489.860610469582
2141 6491.802504005437
2142 6493.672719304011
2143 6495.450691317654
2144 6497.107756723772
2145 6498.647575016154
2146 6500.056832077569
2147 6501.335273926885
2148 6502.46966981862
2149 6503.444315048856
2150 6504.279931020912
2151 6504.972475937606
2152 6505.426378977576
2153 6505.776312613712
2154 6505.905319916771
2155 6505.874250623077
2156 6505.627385801313
2157 6505.179733868724
2158 6504.543591421253
2159 6503.74577708496
2160 6502.684868110481
2161 6501.487538170523
2162 6500.139631761239
2163 6498.517908681209
2164 6496.73894592634
2165 6494.770156688511
2166 6492.599541659261
2167 6490.230035199614
2168 6487.724446862644
2169 6485.000908319264
2170 6482.099707683056
2171 6479.024038379787
2172 6475.759223463069
2173 6472.323096725641
2174 6468.800330405003
2175 6465.188270835616
2176 6461.472509559405
2177 6457.74114498248
2178 6453.944075143767
2179 6450.156813734918
2180 6446.36639678293
2181 6442.658817732666
2182 6438.976964084036
2183 6435.513636265601
2184 6432.199891145756
2185 6429.099862652014
2186 6426.291844821077
2187 6423.801202773363
2188 6421.60671324185
2189 6419.880336073983
2190 6418.625602764379
2191 6417.762986154698
2192 6417.360441226826
2193 6417.467197638337
2194 6418.166929877768
2195 6419.455532406104
2196 6421.281469005747
2197 6423.737275886285
2198 6426.860939765223
2199 6430.593093680352
2200 6434.841410144513
2201 6439.7263216866
2202 6445.236784411435
2203 6451.281414533256
2204 6457.896574968181
2205 6465.00651783071
2206 6472.506756815441
2207 6480.371825059346
2208 6488.682208950774
2209 6497.188584909701
2210 6505.825894306618
2211 6514.594786942059
2212 6523.516634692254
2213 6532.459134025456
2214 6541.438060396876
2215 6550.294754162361
2216 6559.028629419324
2217 6567.560094210842
2218 6575.897681569133
2219 6583.971871339995
2220 6591.719401954363
2221 6599.004736796595
2222 6605.940069206745
2223 6612.507071833527
2224 6618.577436828937
2225 6624.275499816195
2226 6629.527444052222
2227 6634.302331081455
2228 6638.628353127632
2229 6642.497472080887
2230 6645.929590330856
2231 6648.970893097268
2232 6651.617143622068
2233 6653.904135170106
2234 6655.814303839724
2235 6657.422220561954
2236 6658.726291541561
2237 6659.720083281115
2238 6660.465894186405
2239 6661.012044104539
2240 6661.411007702268
2241 6661.602043817058
2242 6661.688120362008
2243 6661.691629064771
2244 6661.574839375059
2245 6661.435064795851
2246 6661.250628388417
2247 6661.015599619038
2248 6660.744694039
2249 6660.487956486185
2250 6660.258866984993
2251 6660.02310754452
2252 6659.827711581529
2253 6659.665884911072
2254 6659.550227355777
2255 6659.454988601718
2256 6659.384348791909
2257 6659.355943273491
2258 6659.332122023631
2259 6659.336701016136
2260 6659.368273625019
2261 6659.384412747177
2262 6659.374651145713
2263 6659.324243220506
2264 6659.256784946165
2265 6659.138326157528
2266 6658.936767890782
2267 6658.671174988025
2268 6658.305386519294
2269 6657.832958286744
2270 6657.245071670757
2271 6656.518144157799
2272 6655.678121492308
2273 6654.672422174271
2274 6653.473316199088
2275 6652.132118191466
2276 6650.629289585674
2277 6648.960220370255
2278 6647.139041409552
2279 6645.156223120606
2280 6642.996923417371
2281 6640.723068551181
2282 6638.286328523516
2283 6635.776865389096
2284 6633.153976564074
2285 6630.417388746122
2286 6627.617053227905
2287 6624.783941929613
2288 6621.92954041158
2289 6619.057062302194
2290 6616.199345019788
2291 6613.390453249497
2292 6610.632709721584
2293 6607.994581053894
2294 6605.407989924519
2295 6603.005549074502
2296 6600.693069531276
2297 6598.544897903418
2298 6596.554299658666
2299 6594.742464347514
2300 6593.168916021519
2301 6591.813518171943
2302 6590.708629229031
2303 6589.834676490414
2304 6589.164971963181
2305 6588.76312049432
2306 6588.589110703604
2307 6588.702903549704
2308 6589.049465839828
2309 6589.636893479945
2310 6590.502029532502
2311 6591.565272208158
2312 6592.835657651592
2313 6594.342274481875
2314 6596.000573942208
2315 6597.855078287949
2316 6599.884199883362
2317 6602.089347103415
2318 6604.40939853487
2319 6606.843658881907
2320 6609.378879268455
2321 6611.972378815197
2322 6614.578810034782
2323 6617.217854678319
2324 6619.871176956744
2325 6622.448215467944
2326 6624.995206044521
2327 6627.487368214058
2328 6629.831686183885
2329 6632.042147154616
2330 6634.020055420609
2331 6635.849333328269
2332 6637.448831842046
2333 6638.800458425044
2334 6639.911295259632
2335 6640.728589300425
2336 6641.255042539364
2337 6641.456468570931
2338 6641.385493382368
2339 6640.985205564322
2340 6640.316531979233
2341 6639.248669054208
2342 6637.906892309114
2343 6636.217451514632
2344 6634.238243559735
2345 6631.991229656782
2346 6629.436493926129
2347 6626.649377376441
2348 6623.664007367544
2349 6620.431997072214
2350 6617.055948806313
2351 6613.50364357436
2352 6609.82966542563
2353 6606.111469760576
2354 6602.282630596418
2355 6598.443991636684
2356 6594.647523131968
2357 6590.8553902907
2358 6587.138755565867
2359 6583.499048467527
2360 6579.989400813912
2361 6576.675489074306
2362 6573.556960042021
2363 6570.677089034575
2364 6567.961187931156
2365 6565.574479957223
2366 6563.394251568556
2367 6561.574257253613
2368 6559.984794074633
2369 6558.714468900474
2370 6557.714624970371
2371 6557.024443164828
2372 6556.613375420738
2373 6556.457278035191
2374 6556.47634007715
2375 6556.766205884909
2376 6557.226685918223
2377 6557.896152450722
2378 6558.708604037191
2379 6559.614689428118
2380 6560.590674427092
2381 6561.663088178201
2382 6562.79966790975
2383 6563.977768180455
2384 6565.1495652109
2385 6566.298761284126
2386 6567.321368670913
2387 6568.303502528172
2388 6569.138597105572
2389 6569.848377965546
2390 6570.379701445339
2391 6570.700632620204
2392 6570.864078572728
2393 6570.794275899651
2394 6570.53612922609
2395 6570.052301209889
2396 6569.359768875582
2397 6568.426027208833
2398 6567.24012779194
2399 6565.877434821701
2400 6564.336113161299
2401 6562.606390084793
2402 6560.6931057533
2403 6558.636594686522
2404 6556.46217165092
2405 6554.142944561495
2406 6551.787657008637
2407 6549.355714250954
2408 6546.857539587294
2409 6544.300705007184
2410 6541.758883065263
2411 6539.290105690882
2412 6536.867884407309
2413 6534.532094566084
2414 6532.277387272526
2415 6530.11756414051
2416 6528.139443287795
2417 6526.31041159023
2418 6524.613579842978
2419 6523.114347778088
2420 6521.836536817039
2421 6520.76447241592
2422 6519.871014220808
2423 6519.175738677727
2424 6518.654420499908
2425 6518.359484370636
2426 6518.304575850189
2427 6518.430972196905
2428 6518.72375366589
2429 6519.254593677725
2430 6519.988763500284
2431 6520.913411102054
2432 6522.028971581752
2433 6523.279707669848
2434 6524.721390541983
2435 6526.333867906442
2436 6528.106667661254
2437 6529.979577968707
2438 6531.995698505465
2439 6534.10190434256
2440 6536.285381550356
2441 6538.57546720746
2442 6540.931342671816
2443 6543.34019592062
2444 6545.780551185352
2445 6548.179962034162
2446 6550.592185176703
2447 6552.936318326214
2448 6555.23043111405
2449 6557.441578271071
2450 6559.546962279479
2451 6561.57116448841
2452 6563.457575310372
2453 6565.190757978536
2454 6566.750536017698
2455 6568.132584782142
2456 6569.310937131708
2457 6570.271652494403
2458 6571.013331538297
2459 6571.56002587588
2460 6571.883287245048
2461 6571.960684007864
2462 6571.750577030211
2463 6571.370749102492
2464 6570.755910481698
2465 6569.882284233804
2466 6568.829011106181
2467 6567.546862853893
2468 6566.094117576457
2469 6564.452786434837
2470 6562.624464654011
2471 6560.677641852232
2472 6558.546647109263
2473 6556.308841895099
2474 6553.963920716652
2475 6551.548036602935
2476 6549.092762631095
2477 6546.520450963828
2478 6543.90970303315
2479 6541.264640658445
2480 6538.634042110303
2481 6536.004422538322
2482 6533.428362843537
2483 6530.862261445018
2484 6528.389195964365
2485 6525.972087588874
2486 6523.649791869802
2487 6521.375733661155
2488 6519.220146309162
2489 6517.170786231201
2490 6515.255290626545
2491 6513.462812309226
2492 6511.818000869771
2493 6510.330419626002
2494 6508.99282167314
2495 6507.782903439647
2496 6506.731173728835
2497 6505.870639754099
2498 6505.129005613884
2499 6504.544235693267
2500 6504.125236271606
2501 6503.856712811936
2502 6503.682459716955
2503 6503.597042061793
2504 6503.653748953627
2505 6503.75021331704
2506 6503.932859623599
2507 6504.189521523081
2508 6504.470393387452
2509 6504.776021499937
2510 6505.072156011348
2511 6505.363159035838
2512 6505.594376107227
2513 6505.77472962579
2514 6505.923005322811
2515 6505.934696981818
2516 6505.884898205219
2517 6505.729614360125
2518 6505.43361803502
2519 6504.994627662651
2520 6504.399289385563
2521 6503.607603987434
2522 6502.635082936948
2523 6501.486880010411
2524 6500.221790315242
2525 6498.723735545257
2526 6497.063055561111
2527 6495.246755403478
2528 6493.348888529742
2529 6491.32123059165
2530 6489.166780906995
2531 6486.953586343247
2532 6484.63283357015
2533 6482.27650001032
2534 6479.914349317252
2535 6477.534093454655
2536 6475.19157087801
2537 6472.890449670504
2538 6470.745585380915
2539 6468.628091164177
2540 6466.666722071212
2541 6464.84426448551
2542 6463.239953836163
2543 6461.834897253415
2544 6460.716197134422
2545 6459.907589379772
2546 6459.365323754893
2547 6459.138214617979
2548 6459.218969266357
2549 6459.628067493736
2550 6460.437310817945
2551 6461.548926808985
2552 6462.993967818353
2553 6464.802741736744
2554 6466.934316133897
2555 6469.360162275966
2556 6472.112410501292
2557 6475.132511845985
2558 6478.438962696
2559 6481.951922840819
2560 6485.650545239532
2561 6489.542816902154
2562 6493.584452826363
2563 6497.734593404563
2564 6501.96922852111
2565 6506.252285721765
2566 6510.572938675469
2567 6514.858486112593
2568 6519.082497404813
2569 6523.227141998393
2570 6527.255451063534
2571 6531.186761702323
2572 6534.920429761032
2573 6538.478112025677
2574 6541.857400258993
2575 6545.014074589326
2576 6547.963080672704
2577 6550.697546675091
2578 6553.193213687224
2579 6555.450965074544
2580 6557.503626803795
2581 6559.321922344266
2582 6560.912951957896
2583 6562.2931185691
2584 6563.458974390388
2585 6564.415286563125
2586 6565.201645579196
2587 6565.799164455581
2588 6566.226505853181
2589 6566.490321215891
2590 6566.587800272197
2591 6566.588231392586
2592 6566.473170530953
2593 6566.263592473651
2594 6565.980816333816
2595 6565.611501534921
2596 6565.174602898519
2597 6564.690722147564
2598 6564.144239902697
2599 6563.544819128719
2600 6562.920256589393
2601 6562.221305477442
2602 6561.479074818217
2603 6560.693746009196
2604 6559.84950286498
2605 6558.960958382616
2606 6558.006598206411
2607 6557.020021704405
2608 6555.994941619678
2609 6554.923766503354
2610 6553.782763801394
2611 6552.567002346175
2612 6551.313145895587
2613 6550.011814936448
2614 6548.654534614313
2615 6547.253775861153
2616 6545.820403244766
2617 6544.337666283543
2618 6542.806466227907
2619 6541.285424784369
2620 6539.733762803115
2621 6538.187724982598
2622 6536.659324963861
2623 6535.17555769321
2624 6533.703934941595
2625 6532.31216743217
2626 6530.972344096615
2627 6529.734000815617
2628 6528.573530222966
2629 6527.500720080572
2630 6526.58277842762
2631 6525.817676588414
2632 6525.23806810062
2633 6524.834511634342
2634 6524.640429836731
2635 6524.657046711594
2636 6524.882512479069
2637 6525.34957806997
2638 6526.062315412652
2639 6527.034543653615
2640 6528.259648902652
2641 6529.726755787158
2642 6531.473900673838
2643 6533.45668309029
2644 6535.664557680506
2645 6538.121136309229
2646 6540.774137664999
2647 6543.663672843752
2648 6546.74314524796
2649 6550.047683635463
2650 6553.465438166367
2651 6556.995899620495
2652 6560.706945461948
2653 6564.530874727085
2654 6568.464917965951
2655 6572.482687284085
2656 6576.553914510952
2657 6580.668094031734
2658 6584.735060435537
2659 6588.830735478806
2660 6592.916306342056
2661 6596.95567346198
2662 6600.977080821657
2663 6604.948770343045
2664 6608.841266995418
2665 6612.659831922874
2666 6616.353856247516
2667 6619.945585601148
2668 6623.377635029334
2669 6626.696700501606
2670 6629.87195395363
2671 6632.908677592789
2672 6635.838542308617
2673 6638.586286743404
2674 6641.137803033877
2675 6643.564468398575
2676 6645.805576473166
2677 6647.83982386677
2678 6649.723896497818
2679 6651.446269463451
2680 6652.988330791854
2681 6654.366621320782
2682 6655.587807298978
2683 6656.626537916125
2684 6657.506977757554
2685 6658.230366019873
2686 6658.787667283158
2687 6659.237923132063
2688 6659.519873457519
2689 6659.644982141845
2690 6659.652289848908
2691 6659.583001057531
2692 6659.346321554579
2693 6658.980435944049
2694 6658.540278527335
2695 6658.027587618873
2696 6657.463660709777
2697 6656.830503685948
2698 6656.1700946764
2699 6655.50387903097
2700 6654.783974377578
2701 6654.080827921329
2702 6653.417599744819
2703 6652.801529123125
2704 6652.311319337124
2705 6651.862458761681
2706 6651.513471311192
2707 6651.234778122283
2708 6651.08746033356
2709 6651.058003716944
2710 6651.167944366301
2711 6651.373173158955
2712 6651.709751891228
2713 6652.165700900887
2714 6652.752048318861
2715 6653.364748678845
2716 6654.053299307134
2717 6654.843964170834
2718 6655.688571733568
2719 6656.503059975234
2720 6657.302861328785
2721 6658.098065741593
2722 6658.807362324789
2723 6659.473557159344
2724 6660.088317600591
2725 6660.588482462085
2726 6660.915354256859
2727 6661.11582059619
2728 6661.13962156264
2729 6661.002859459101
2730 6660.673983770283
2731 6660.104264930183
2732 6659.360839525388
2733 6658.309997208032
2734 6657.046686402552
2735 6655.532135352973
2736 6653.77118548877
2737 6651.787264178521
2738 6649.610555977527
2739 6647.245091575384
2740 6644.714074936074
2741 6642.057728049916
2742 6639.347056475889
2743 6636.498225506675
2744 6633.684108983962
2745 6630.791268473174
2746 6627.940993239461
2747 6625.184642603635
2748 6622.52501763788
2749 6619.981427363397
2750 6617.587954844073
2751 6615.440032634182
2752 6613.61115135307
2753 6612.027513145163
2754 6610.790689070182
2755 6609.896550180406
2756 6609.391483077999
2757 6609.311595883654
2758 6609.59188553493
2759 6610.350699608858
2760 6611.523566041132
2761 6613.160786642529
2762 6615.266936151898
2763 6617.804386297054
2764 6620.697356749041
2765 6623.986390407174
2766 6627.713407628321
2767 6631.807097767562
2768 6636.211786687468
2769 6640.893140977537
2770 6645.798661583713
2771 6650.937670099654
2772 6656.296352960308
2773 6661.685525774611
2774 6667.176802680128
2775 6672.674610736952
2776 6678.136557383239
2777 6683.466372101477
2778 6688.667750043777
2779 6693.773832059994
2780 6698.646725379444
2781 6703.229227051677
2782 6707.585788838262
2783 6711.617144222654
2784 6715.280896437123
2785 6718.60817472643
2786 6721.551480209431
2787 6724.098257420378
2788 6726.223012689803
2789 6727.923798416685
2790 6729.16268848315
2791 6729.974885654707
2792 6730.298866763201
2793 6730.214855488548
2794 6729.713990999731
2795 6728.802349227277
2796 6727.499675597111
2797 6725.924156559691
2798 6724.030772422566
2799 6721.822059988993
2800 6719.394346985735
2801 6716.71801784936
2802 6713.830393170409
2803 6710.849040823142
2804 6707.741081605011
2805 6704.484519350859
2806 6701.10653548565
2807 6697.745134131666
2808 6694.334860691014
2809 6690.982928345717
2810 6687.681665282425
2811 6684.463217276532
2812 6681.265467286075
2813 6678.186720636463
2814 6675.30860096894
2815 6672.554511327126
2816 6669.94856749177
2817 6667.540572100677
2818 6665.310245815778
2819 6663.23793617208
2820 6661.353520678448
2821 6659.662229628647
2822 6658.105178004615
2823 6656.759971898499
2824 6655.560655106172
2825 6654.471615590206
2826 6653.535923250478
2827 6652.710316948297
2828 6651.991303753262
2829 6651.342001941384
2830 6650.812598121948
2831 6650.316133357466
2832 6649.840729430539
2833 6649.418476325988
2834 6649.038103017449
2835 6648.658104472761
2836 6648.222069422247
2837 6647.757545980132
2838 6647.271405144599
2839 6646.701026835519
2840 6646.090160930931
2841 6645.368382559483
2842 6644.574954785213
2843 6643.649995706638
2844 6642.601108599889
2845 6641.439940352192
2846 6640.158451395023
2847 6638.727104481453
2848 6637.185661809205
2849 6635.516419874752
2850 6633.725493558571
2851 6631.84884863213
2852 6629.805622641607
2853 6627.657875869419
2854 6625.440420146078
2855 6623.167103895506
2856 6620.802161545546
2857 6618.362811174584
2858 6615.912672481994
2859 6613.440898982511
2860 6610.966248182496
2861 6608.486526947466
2862 6606.039517533978
2863 6603.600423101223
2864 6601.222558456749
2865 6598.8929212778
2866 6596.667194942467
2867 6594.584487230939
2868 6592.594767615677
2869 6590.725023965062
2870 6588.954263044527
2871 6587.319174116627
2872 6585.845974132788
2873 6584.526775023748
2874 6583.326076868821
2875 6582.333218688932
2876 6581.56366533291
2877 6580.89351345065
2878 6580.376538440452
2879 6580.015808202451
2880 6579.790944211939
2881 6579.760732782192
2882 6579.817055725409
2883 6579.990263461214
2884 6580.196957222573
2885 6580.495740480006
2886 6580.867405125324
2887 6581.3101850346
2888 6581.767729256651
2889 6582.27958096621
2890 6582.77566537878
2891 6583.284595217762
2892 6583.698914708622
2893 6584.124025373805
2894 6584.415462728461
2895 6584.689473172903
2896 6584.858102559246
2897 6584.942621028375
2898 6584.948630456495
2899 6584.865649025586
2900 6584.694714690537
2901 6584.402519112442
2902 6584.005352052592
2903 6583.505634035751
2904 6582.897437734572
2905 6582.203805850349
2906 6581.386860780904
2907 6580.504776350693
2908 6579.590252892727
2909 6578.596684419406
2910 6577.53594085265
2911 6576.427613327
2912 6575.241439953359
2913 6574.09971559735
2914 6572.914390512729
2915 6571.745857393923
2916 6570.585598438443
2917 6569.492904593384
2918 6568.480844354158
2919 6567.501043518832
2920 6566.59107604094
2921 6565.80671312117
2922 6565.087252720685
2923 6564.516993602562
2924 6564.050873688103
2925 6563.726833148845
2926 6563.53428444055
2927 6563.499922597535
2928 6563.576848895565
2929 6563.823794527269
2930 6564.236290822126
2931 6564.809965176085
2932 6565.52591904349
2933 6566.345139892098
2934 6567.313348960366
2935 6568.401159470428
2936 6569.619183694194
2937 6570.982009100726
2938 6572.455976072415
2939 6573.995789031955
2940 6575.628661686564
2941 6577.348027900434
2942 6579.095159685058
2943 6580.933849832183
2944 6582.809324707076
2945 6584.721254586754
2946 6586.66870924477
2947 6588.648050721556
2948 6590.588258325371
2949 6592.58380114451
2950 6594.574170360999
2951 6596.535950878568
2952 6598.450922526473
2953 6600.342181278846
2954 6602.218032750144
2955 6604.025222182989
2956 6605.760940405277
2957 6607.487278244576
2958 6609.14960717957
2959 6610.717216347248
2960 6612.185847799274
2961 6613.593882457817
2962 6614.895766170282
2963 6616.055271415392
2964 6617.122243430817
2965 6618.030199699701
2966 6618.855934005011
2967 6619.499537471582
2968 6619.956806641749
2969 6620.280991755332
2970 6620.437777183333
2971 6620.406545836149
2972 6620.198481311764
2973 6619.783800281306
2974 6619.207908308008
2975 6618.423436574461
2976 6617.424198555895
2977 6616.228813993449
2978 6614.835855452199
2979 6613.210985446608
2980 6611.446607516466
2981 6609.578365674547
2982 6607.52431948893
2983 6605.378053271469
2984 6603.014729898255
2985 6600.589102144027
2986 6598.118127588606
2987 6595.617467703824
2988 6593.121419433994
2989 6590.632755724505
2990 6588.176566916193
2991 6585.787491541632
2992 6583.534544923411
2993 6581.433176094699
2994 6579.468833182139
2995 6577.76710139035
2996 6576.311030983011
2997 6575.200744338374
2998 6574.354196284013
2999 6573.839391356544
3000 6573.634722236554
3001 6573.784391250082
3002 6574.270017096343
3003 6575.210893504507
3004 6576.496767402619
3005 6578.148938121957
3006 6580.130196946992
3007 6582.46916619411
3008 6585.103078321174
3009 6588.058280738439
3010 6591.249811705308
3011 6594.698470407297
3012 6598.300435551021
3013 6602.126338100686
3014 6606.011678458752
3015 6609.950376988693
3016 6613.930029138605
3017 6617.842464969832
3018 6621.772113366377
3019 6625.619741482804
3020 6629.358629098297
3021 6632.927050652007
3022 6636.218835988425
3023 6639.291500574502
3024 6642.103927873983
3025 6644.661653359137
3026 6646.88296156974
3027 6648.812848166438
3028 6650.452557952973
3029 6651.753742023151
3030 6652.7514409324
3031 6653.447462013444
3032 6653.829858881763
3033 6653.945758679282
3034 6653.755922169169
3035 6653.342141251427
3036 6652.685647051146
3037 6651.870715792627
3038 6650.877387705421
3039 6649.757015414058
3040 6648.519573592905
3041 6647.207930079972
3042 6645.8506483668
3043 6644.478081590071
3044 6643.104848988711
3045 6641.781687770542
3046 6640.532450240834
3047 6639.42530795174
3048 6638.403363665611
3049 6637.543152790266
3050 6636.822055294933
3051 6636.287403174233
3052 6635.936886072338
3053 6635.762027897459
3054 6635.772031987833
3055 6635.940025547397
3056 6636.265434256581
3057 6636.825457388809
3058 6637.608339988607
3059 6638.522491007421
3060 6639.570419977957
3061 6640.730295662246
3062 6642.012218484084
3063 6643.400220082826
3064 6644.870218655642
3065 6646.439499983376
3066 6648.031263371421
3067 6649.671143242849
3068 6651.292960414137
3069 6652.924718922072
3070 6654.512995078456
3071 6656.028092898586
3072 6657.482079747742
3073 6658.784465778642
3074 6659.994062785911
3075 6661.090081896461
3076 6661.984199114771
3077 6662.654504168483
3078 6663.206212416855
3079 6663.593524080847
3080 6663.736563578516
3081 6663.741767595973
3082 6663.501572532253
3083 6663.030645775331
3084 6662.340833102025
3085 6661.404727048126
3086 6660.225988929819
3087 6658.806740541435
3088 6657.188156604033
3089 6655.378742454679
3090 6653.451544716057
3091 6651.324549575906
3092 6649.089808001614
3093 6646.657164732642
3094 6644.179836277314
3095 6641.549024374434
3096 6638.949908700826
3097 6636.277747319211
3098 6633.567389844749
3099 6630.877943834197
3100 6628.244272403745
3101 6625.743737213588
3102 6623.296269771474
3103 6620.876004506365
3104 6618.625320617794
3105 6616.506011773302
3106 6614.50577782899
3107 6612.724669947924
3108 6611.063411683032
3109 6609.558480676836
3110 6608.192869880427
3111 6606.961188056306
3112 6606.006436740286
3113 6605.201562887629
3114 6604.548893952567
3115 6604.137817279809
3116 6603.892219885553
3117 6603.897166846298
3118 6604.076130091428
3119 6604.389701888744
3120 6604.879508568998
3121 6605.575079717135
3122 6606.363553809445
3123 6607.363479169041
3124 6608.543535016075
3125 6609.920876852937
3126 6611.495671321596
3127 6613.144361972869
3128 6614.985121928091
3129 6617.067474485155
3130 6619.315142160015
3131 6621.635426461516
3132 6624.100346290327
3133 6626.784444059323
3134 6629.572818753067
3135 6632.519925154655
3136 6635.55355296513
3137 6638.705362499679
3138 6641.960535591094
3139 6645.369546063386
3140 6648.839793824533
3141 6652.340162103344
3142 6655.915074885035
3143 6659.564227384329
3144 6663.298655345396
3145 6667.027338815666
3146 6670.831523534885
3147 6674.634510611361
3148 6678.42679568651
3149 6682.199707199416
3150 6685.865430088539
3151 6689.515241124769
3152 6693.161670697101
3153 6696.728901990467
3154 6700.228310139732
3155 6703.70217683604
3156 6707.056355098132
3157 6710.320392539559
3158 6713.515548609294
3159 6716.570034672775
3160 6719.546780136098
3161 6722.334668695399
3162 6724.988839019507
3163 6727.559190319629
3164 6729.923917703982
3165 6732.171670570912
3166 6734.213104305988
3167 6736.068034306169
3168 6737.762526142808
3169 6739.201412395259
3170 6740.43481573739
3171 6741.434621119748
3172 6742.214694505239
3173 6742.754358980168
3174 6742.976236586247
3175 6742.963653357713
3176 6742.600874373551
3177 6742.018297107416
3178 6741.100739089543
3179 6739.883264175392
3180 6738.385959421351
3181 6736.664372440299
3182 6734.612064733855
3183 6732.252742038462
3184 6729.727626122788
3185 6726.823942790219
3186 6723.718680479497
3187 6720.430559560044
3188 6716.884967514927
3189 6713.205777711453
3190 6709.368421563257
3191 6705.349046323337
3192 6701.290232528887
3193 6697.169127062481
3194 6692.953020247452
3195 6688.780453933843
3196 6684.624301665168
3197 6680.53344595466
3198 6676.60504322312
3199 6672.823338282507
3200 6669.210637351977
3201 6665.796133934838
3202 6662.66115087711
3203 6659.75825014865
3204 6657.252887100703
3205 6655.011152838055
3206 6653.103044810689
3207 6651.631952989491
3208 6650.581509087077
3209 6649.931912797568
3210 6649.666410215787
3211 6649.894819516741
3212 6650.594026240987
3213 6651.828621205134
3214 6653.423794706653
3215 6655.461459981935
3216 6657.898094928416
3217 6660.67414435819
3218 6663.92476604486
3219 6667.418620368507
3220 6671.207645954922
3221 6675.143778191223
3222 6679.397314553394
3223 6683.798295498548
3224 6688.358226257215
3225 6692.950673374314
3226 6697.598393897624
3227 6702.168315197444
3228 6706.651536046405
3229 6710.990508467804
3230 6715.168312177077
3231 6718.991592304182
3232 6722.673033255076
3233 6725.936815289861
3234 6728.855308990706
3235 6731.302357986754
3236 6733.40853220968
3237 6735.059683949024
3238 6736.270512455109
3239 6737.015614552188
3240 6737.339311402236
3241 6737.235109688631
3242 6736.635420175073
3243 6735.619490207362
3244 6734.176648875899
3245 6732.2586966914
3246 6729.976442373281
3247 6727.417515079328
3248 6724.535225332168
3249 6721.355736849589
3250 6717.930321035764
3251 6714.334876556015
3252 6710.618280375577
3253 6706.795678625892
3254 6702.932716387377
3255 6699.005736120482
3256 6695.132731117527
3257 6691.359616329805
3258 6687.630379720185
3259 6683.962183187498
3260 6680.391418205468
3261 6677.041189517578
3262 6673.792857893284
3263 6670.739706862149
3264 6667.811283937409
3265 6665.068832350884
3266 6662.480996602998
3267 6660.071582977254
3268 6657.854797432544
3269 6655.790280875935
3270 6653.837097997412
3271 6652.070525368237
3272 6650.445054326445
3273 6648.957636810504
3274 6647.602200813517
3275 6646.371407026025
3276 6645.2590433548
3277 6644.230962200463
3278 6643.302796768508
3279 6642.434612618922
3280 6641.660503026552
3281 6640.942079978216
3282 6640.264716582161
3283 6639.634263495828
3284 6639.045226692128
3285 6638.477939603186
3286 6637.934112032596
3287 6637.43302279949
3288 6636.932910008913
3289 6636.449957126819
3290 6635.966445623818
3291 6635.490160946892
3292 6635.009650333436
3293 6634.522299001298
3294 6634.018645964443
3295 6633.540114003456
3296 6633.057941467288
3297 6632.586808593111
3298 6632.101250938136
3299 6631.626531605952
3300 6631.152115646675
3301 6630.683213545934
3302 6630.210799651648
3303 6629.752720554917
3304 6629.306929019647
3305 6628.849426560729
3306 6628.402071948289
3307 6627.965324348306
3308 6627.527995463745
3309 6627.098727052819
3310 6626.656639089509
3311 6626.218279367688
3312 6625.756791187569
3313 6625.275241037879
3314 6624.770411664465
3315 6624.254916169517
3316 6623.713304220048
3317 6623.133220011393
3318 6622.524951523213
3319 6621.858240208308
3320 6621.149750756288
3321 6620.383538409711
3322 6619.55496892714
3323 6618.678356771965
3324 6617.742973052548
3325 6616.721746890615
3326 6615.637427069456
3327 6614.490941615728
3328 6613.256486623129
3329 6611.96549364247
3330 6610.60173989844
3331 6609.152908259873
3332 6607.629714333123
3333 6606.037382732111
3334 6604.373573769193
3335 6602.65478042933
3336 6600.876762506078
3337 6599.072761013706
3338 6597.203424252681
3339 6595.280391445038
3340 6593.343520218046
3341 6591.376430551816
3342 6589.404086819642
3343 6587.416542323636
3344 6585.420366958933
3345 6583.439662431488
3346 6581.469811953632
3347 6579.538630573562
3348 6577.643316281599
3349 6575.791607330223
3350 6573.983670774667
3351 6572.243545188791
3352 6570.54611970197
3353 6568.915895108269
3354 6567.356148117572
3355 6565.890003728792
3356 6564.511589961523
3357 6563.216175462293
3358 6561.993444997539
3359 6560.84085418226
3360 6559.776807982488
3361 6558.800025566469
3362 6557.872491605363
3363 6557.031447236267
3364 6556.246203109593
3365 6555.510900554803
3366 6554.872598864834
3367 6554.302856721649
3368 6553.747542018185
3369 6553.249900714991
3370 6552.79187639448
3371 6552.380946376025
3372 6551.987229043269
3373 6551.61285567626
3374 6551.253174197405
3375 6550.923729111705
3376 6550.616980082583
3377 6550.307685470336
3378 6550.012073693249
3379 6549.693826289865
3380 6549.344211264567
3381 6549.02273524771
3382 6548.673508025831
3383 6548.238714991052
3384 6547.782648241137
3385 6547.295296748654
3386 6546.807921303028
3387 6546.222978706628
3388 6545.602608512168
3389 6544.906504475522
3390 6544.134087161727
3391 6543.282648138947
3392 6542.351938512435
3393 6541.373952515724
3394 6540.25367532005
3395 6539.070666422373
3396 6537.749579568303
3397 6536.440119208371
3398 6535.00027508027
3399 6533.530697381191
3400 6531.950392494859
3401 6530.304148685291
3402 6528.654050926783
3403 6527.000886905869
3404 6525.37076669988
3405 6523.804445115245
3406 6522.23651927756
3407 6520.639441860089
3408 6519.103187989096
3409 6517.776516872061
3410 6516.531688615221
3411 6515.400999727158
3412 6514.495589547339
3413 6513.782358982698
3414 6513.278139163997
3415 6513.095299391179
3416 6513.10746366229
3417 6513.451788928859
3418 6514.094348963605
3419 6515.066636079676
3420 6516.442606188576
3421 6518.112614721665
3422 6520.127877678057
3423 6522.465551237245
3424 6525.231592648394
3425 6528.277789914535
3426 6531.651302880865
3427 6535.350843621757
3428 6539.271430521777
3429 6543.443522759193
3430 6547.81549955341
3431 6552.318409005567
3432 6557.03146908127
3433 6561.830080764115
3434 6566.690660375423
3435 6571.673560484522
3436 6576.645263886393
3437 6581.55109750541
3438 6586.355594684984
3439 6591.064586748288
3440 6595.667510427684
3441 6600.11008282883
3442 6604.33674309123
3443 6608.338594234691
3444 6612.049511241863
3445 6615.524796717258
3446 6618.743990653434
3447 6621.715878255066
3448 6624.422665992694
3449 6626.860943776113
3450 6629.003965106861
3451 6630.877283690667
3452 6632.505711015278
3453 6633.878153604704
3454 6635.012030871939
3455 6635.910222219907
3456 6636.591578690603
3457 6637.052194879542
3458 6637.305140146364
3459 6637.369484974226
3460 6637.31748946887
3461 6637.11864620393
3462 6636.746498619562
3463 6636.304260808979
3464 6635.747704827088
3465 6635.128134516865
3466 6634.465871535475
3467 6633.751649599037
3468 6633.010992791375
3469 6632.298566422408
3470 6631.517937960643
3471 6630.75154944819
3472 6629.948005467993
3473 6629.167615727293
3474 6628.404029619236
3475 6627.706634770583
3476 6627.049673346951
3477 6626.370843919434
3478 6625.766572678291
3479 6625.275657017464
3480 6624.844501717152
3481 6624.404273041347
3482 6624.034656080586
3483 6623.77375245325
3484 6623.543464235736
3485 6623.359611854704
3486 6623.230959001888
3487 6623.138376488247
3488 6623.120730773702
3489 6623.148270430556
3490 6623.269233102302
3491 6623.325917686474
3492 6623.402891577265
3493 6623.504468613171
3494 6623.612941454496
3495 6623.705660741293
3496 6623.748633961773
3497 6623.732912732721
3498 6623.692057225418
3499 6623.534481543221
3500 6623.332391100721
3501 6622.95773990517
3502 6622.571656516732
3503 6621.992624238827
3504 6621.296709480148
3505 6620.449767862285
3506 6619.404956301515
3507 6618.185317854544
3508 6616.772749609106
3509 6615.23900445893
3510 6613.522309916816
3511 6611.716202925816
3512 6609.618925815717
3513 6607.457660340596
3514 6605.155253391908
3515 6602.714280721005
3516 6600.086978073181
3517 6597.406410042693
3518 6594.616345075825
3519 6591.758102929487
3520 6588.951675380028
3521 6586.093754325548
3522 6583.280650979857
3523 6580.490356307967
3524 6577.847218798721
3525 6575.344170182329
3526 6573.020816292289
3527 6570.906073849434
3528 6569.051684568729
3529 6567.453353120618
3530 6566.15857170014
3531 6565.279056711815
3532 6564.764829634096
3533 6564.645839419372
3534 6564.963358537642
3535 6565.752955859442
3536 6566.967874014173
3537 6568.599444870561
3538 6570.674643715367
3539 6573.142750788204
3540 6576.142981322694
3541 6579.519441118243
3542 6583.340056433472
3543 6587.504159192991
3544 6591.974827421564
3545 6596.675469562661
3546 6601.747931071011
3547 6606.965192581923
3548 6612.396570625506
3549 6617.785720120217
3550 6623.247669881522
3551 6628.602447616523
3552 6633.862216310055
3553 6638.933502818693
3554 6643.799493517365
3555 6648.396871875347
3556 6652.638616256006
3557 6656.54520474318
3558 6659.930107899781
3559 6662.873508981846
3560 6665.333214576453
3561 6667.170575632421
3562 6668.506396662617
3563 6669.329486127744
3564 6669.616751755105
3565 6669.286489398778
3566 6668.357717739207
3567 6666.846293196964
3568 6664.798913131888
3569 6662.228003149694
3570 6659.236220833821
3571 6655.833189639773
3572 6652.044655227346
3573 6647.902851286803
3574 6643.515277413707
3575 6638.922385434938
3576 6634.221572654735
3577 6629.361957333917
3578 6624.342040874166
3579 6619.439007318591
3580 6614.643199320572
3581 6609.996440705485
3582 6605.551139704461
3583 6601.313327411811
3584 6597.436359786991
3585 6593.928728494517
3586 6590.8055497477
3587 6588.092330008472
3588 6585.809642973649
3589 6583.991109140718
3590 6582.647553276651
3591 6581.732780017785
3592 6581.33436468561
3593 6581.42570322073
3594 6582.023359243997
3595 6583.060043017325
3596 6584.534108819354
3597 6586.380632864651
3598 6588.553615569939
3599 6591.055496183489
3600 6593.863989113263
3601 6596.967755003042
3602 6600.252765740882
3603 6603.767097461538
3604 6607.419333779219
3605 6611.173106615012
3606 6615.026309704725
3607 6618.953933659102
3608 6622.888585520243
3609 6626.827739168986
3610 6630.700071386099
3611 6634.503292319558
3612 6638.230186152071
3613 6641.822121816431
3614 6645.317598148514
3615 6648.646955102994
3616 6651.845521726328
3617 6654.889595998421
3618 6657.77690025118
3619 6660.464217734083
3620 6662.940435312486
3621 6665.30288663961
3622 6667.477143050543
3623 6669.528429389508
3624 6671.408850850462
3625 6673.144907519383
3626 6674.784371424536
3627 6676.293558247497
3628 6677.704474556495
3629 6678.993088226254
3630 6680.200025127956
3631 6681.372671904407
3632 6682.503546839993
3633 6683.559656831424
3634 6684.578838736485
3635 6685.603150639992
3636 6686.59137387875
3637 6687.590122199797
3638 6688.591927458641
3639 6689.585203655021
3640 6690.561187345551
3641 6691.550467755555
3642 6692.502429066858
3643 6693.434546402676
3644 6694.302406946613
3645 6695.120107599063
3646 6695.897811074499
3647 6696.615464349079
3648 6697.248228598541
3649 6697.819074146078
3650 6698.285040767792
3651 6698.627187863641
3652 6698.867234826008
3653 6698.96241797418
3654 6698.937240731058
3655 6698.767168969318
3656 6698.491710828085
3657 6698.067541245233
3658 6697.477009124285
3659 6696.743581858804
3660 6695.849173167851
3661 6694.798798171485
3662 6693.590330056053
3663 6692.242264604989
3664 6690.74000325726
3665 6689.095268394437
3666 6687.285056145343
3667 6685.35535239648
3668 6683.300664152758
3669 6681.120532573492
3670 6678.828272922247
3671 6676.445377233049
3672 6673.967318046693
3673 6671.414157328394
3674 6668.782073186564
3675 6666.107507289666
3676 6663.394585655519
3677 6660.662131908019
3678 6657.911808011137
3679 6655.147412845565
3680 6652.392207912231
3681 6649.636392830609
3682 6646.924739256458
3683 6644.22417869224
3684 6641.618199668148
3685 6639.056255718987
3686 6636.547089817216
3687 6634.107096417354
3688 6631.74922036989
3689 6629.459096441527
3690 6627.265744425905
3691 6625.153096468583
3692 6623.112750819345
3693 6621.186522188741
3694 6619.343893495089
3695 6617.582660859965
3696 6615.910359264933
3697 6614.334613073385
3698 6612.828727483583
3699 6611.38734401663
3700 6610.011083605669
3701 6608.707230177429
3702 6607.466837659777
3703 6606.297813275095
3704 6605.187110501703
3705 6604.122594371403
3706 6603.103456357101
3707 6602.114475391641
3708 6601.167095225617
3709 6600.248336079725
3710 6599.361854259331
3711 6598.488247934215
3712 6597.634361968932
3713 6596.800188414391
3714 6595.970937568037
3715 6595.135908632217
3716 6594.306254685523
3717 6593.490328571016
3718 6592.679979594998
3719 6591.871048274389
3720 6591.045533416062
3721 6590.22358961243
3722 6589.377436916934
3723 6588.534926708558
3724 6587.666353425322
3725 6586.775072062051
3726 6585.888368478697
3727 6584.95418698615
3728 6584.036139654578
3729 6583.099990023373
3730 6582.163071230392
3731 6581.189660465267
3732 6580.215476465311
3733 6579.267451269376
3734 6578.306722969198
3735 6577.322735951376
3736 6576.364848669958
3737 6575.42210875139
3738 6574.476385547407
3739 6573.560973150549
3740 6572.648959146845
3741 6571.775328957432
3742 6570.928253117872
3743 6570.081190243763
3744 6569.276815989622
3745 6568.504550355644
3746 6567.780156676243
3747 6567.100097362205
3748 6566.482224463201
3749 6565.905096035587
3750 6565.376337744855
3751 6564.900781045472
3752 6564.49245201048
3753 6564.13132145795
3754 6563.856028613295
3755 6563.618338151308
3756 6563.472732653242
3757 6563.356399161421
3758 6563.362193661632
3759 6563.41287597036
3760 6563.548327163873
3761 6563.720553552449
3762 6563.993343513089
3763 6564.352875768765
3764 6564.7723537778
3765 6565.279967409829
3766 6565.842616820119
3767 6566.498032076447
3768 6567.198065575994
3769 6567.988670389363
3770 6568.83110746737
3771 6569.720428894861
3772 6570.641174976902
3773 6571.601843186876
3774 6572.573758229339
3775 6573.552704306556
3776 6574.56955854183
3777 6575.573648285927
3778 6576.55072184526
3779 6577.486324162132
3780 6578.387893080437
3781 6579.27959155624
3782 6580.065929899978
3783 6580.809840251055
3784 6581.483321382027
3785 6582.025165513757
3786 6582.486844899201
3787 6582.767014040724
3788 6582.949228037915
3789 6583.02380501052
3790 6582.955741119041
3791 6582.746793931058
3792 6582.413235394272
3793 6581.950672892636
3794 6581.355801910281
3795 6580.632622442333
3796 6579.840791419517
3797 6578.945355865876
3798 6577.94289042783
3799 6576.880136158254
3800 6575.743800863325
3801 6574.608037884459
3802 6573.44699954342
3803 6572.300123012343
3804 6571.16553574834
3805 6570.082106220158
3806 6569.068420202701
3807 6568.098289822298
3808 6567.270720709809
3809 6566.553467039881
3810 6565.945002406917
3811 6565.52363538944
3812 6565.230594622623
3813 6565.090079139913
3814 6565.147594597762
3815 6565.408195171475
3816 6565.844527833299
3817 6566.467564603715
3818 6567.269678846849
3819 6568.255765458117
3820 6569.438816834501
3821 6570.798568588817
3822 6572.31051926596
3823 6574.012242079955
3824 6575.853067911491
3825 6577.82690392719
3826 6579.92788853647
3827 6582.143203347747
3828 6584.479818299415
3829 6586.904779982864
3830 6589.413577016591
3831 6592.010987478185
3832 6594.604964169185
3833 6597.263311483149
3834 6599.933604778751
3835 6602.593261928805
3836 6605.225565751765
3837 6607.848911356022
3838 6610.473473009592
3839 6613.077297462582
3840 6615.638180779003
3841 6618.111450996742
3842 6620.570933296769
3843 6622.996224679201
3844 6625.34919321781
3845 6627.652451338665
3846 6629.885236400441
3847 6632.082538444221
3848 6634.205853999188
3849 6636.244006823234
3850 6638.22725481869
3851 6640.183626717298
3852 6642.08101280948
3853 6643.951046892737
3854 6645.789801578519
3855 6647.563386236118
3856 6649.253986383872
3857 6650.852917546922
3858 6652.379540684663
3859 6653.874423455329
3860 6655.306559046101
3861 6656.689335968069
3862 6657.930136139047
3863 6659.046312288843
3864 6660.045235476198
3865 6660.925643923764
3866 6661.679003418606
3867 6662.327988753309
3868 6662.810462519311
3869 6663.176175393494
3870 6663.350780984968
3871 6663.385026813697
3872 6663.196700206774
3873 6662.833403136399
3874 6662.310102922122
3875 6661.625807595839
3876 6660.713530892489
3877 6659.589836163508
3878 6658.318672044544
3879 6656.878408829843
3880 6655.28408470386
3881 6653.564350359588
3882 6651.690485930434
3883 6649.700339158484
3884 6647.631762173273
3885 6645.441489918734
3886 6643.184615159942
3887 6640.832373404155
3888 6638.466242761439
3889 6636.024128026082
3890 6633.595007046563
3891 6631.173797439011
3892 6628.746926058683
3893 6626.341986764399
3894 6624.00291041303
3895 6621.723956518116
3896 6619.544199235393
3897 6617.455887155485
3898 6615.472670646663
3899 6613.592625334763
3900 6611.821686311849
3901 6610.183330733516
3902 6608.649982727482
3903 6607.236621994226
3904 6605.932500367073
3905 6604.748353109547
3906 6603.633220665191
3907 6602.642485022457
3908 6601.75014281954
3909 6600.935205279571
3910 6600.189200001229
3911 6599.555266409646
3912 6598.932624236553
3913 6598.359068149643
3914 6597.822486903333
3915 6597.314275597291
3916 6596.782221507464
3917 6596.222437086121
3918 6595.654483491273
3919 6595.044701669523
3920 6594.388767481322
3921 6593.751090877968
3922 6593.043274492932
3923 6592.305069609498
3924 6591.527877042387
3925 6590.707953932312
3926 6589.838635648784
3927 6588.986590056944
3928 6588.103445718499
3929 6587.236769958202
3930 6586.385029542405
3931 6585.56058032446
3932 6584.759946787798
3933 6584.024834855794
3934 6583.324577787126
3935 6582.711128408227
3936 6582.176964258768
3937 6581.790948976399
3938 6581.523719247127
3939 6581.370284099129
3940 6581.338890008024
3941 6581.448079376449
3942 6581.733467867704
3943 6582.148040406681
3944 6582.745550008039
3945 6583.501565077869
3946 6584.373489618663
3947 6585.353029335336
3948 6586.494740389348
3949 6587.794065618859
3950 6589.196826908346
3951 6590.680101697703
3952 6592.242621156221
3953 6593.883135744421
3954 6595.508542904051
3955 6597.14447152394
3956 6598.810787367368
3957 6600.379614388033
3958 6601.888319092476
3959 6603.351660319781
3960 6604.731882717591
3961 6606.00348409176
3962 6607.111289307422
3963 6608.092344381464
3964 6608.881584518679
3965 6609.544011262096
3966 6609.990076592546
3967 6610.22292033785
3968 6610.267758045626
3969 6610.134201010628
3970 6609.764959061886
3971 6609.212229367188
3972 6608.499059836741
3973 6607.631503335057
3974 6606.571543240888
3975 6605.384956599925
3976 6603.981834372592
3977 6602.5238517331
3978 6600.89550586539
3979 6599.236508595229
3980 6597.514202146084
3981 6595.753918333628
3982 6593.933122854989
3983 6592.142791881932
3984 6590.366707648965
3985 6588.572338271119
3986 6586.814941723928
3987 6585.129863090016
3988 6583.506807926218
3989 6581.932475909919
3990 6580.419535400009
3991 6578.988854693599
3992 6577.609149687403
3993 6576.326952248511
3994 6575.133759500543
3995 6574.023072297357
3996 6572.998630510156
3997 6572.052086402628
3998 6571.174643761764
3999 6570.332393122602
4000 6569.532255470061
4001 6568.778173757157
4002 6568.008658161089
4003 6567.252852267755
4004 6566.504915287143
4005 6565.74417923446
4006 6564.949023412926
4007 6564.162742912993
4008 6563.300255151813
4009 6562.411702498875
4010 6561.505335226047
4011 6560.553469329588
4012 6559.567886921291
4013 6558.508741984618
4014 6557.403407123044
4015 6556.279837813675
4016 6555.105822750829
4017 6553.936603483625
4018 6552.747426339786
4019 6551.574235915255
4020 6550.385524129082
4021 6549.224537563029
4022 6548.096797800935
4023 6547.001164763247
4024 6545.957551042375
4025 6544.989024384538
4026 6544.070237089267
4027 6543.219227629492
4028 6542.455682217038
4029 6541.785104127242
4030 6541.198319008956
4031 6540.71183307812
4032 6540.310077551541
4033 6539.999975056481
4034 6539.789782852127
4035 6539.683488897332
4036 6539.666554205896
4037 6539.75199065145
4038 6539.926512435894
4039 6540.211462313245
4040 6540.597378430847
4041 6541.071493425137
4042 6541.649863593569
4043 6542.308002090631
4044 6543.051419796429
4045 6543.890216172153
4046 6544.839117490621
4047 6545.872784888237
4048 6546.994439234753
4049 6548.181633854914
4050 6549.433869526545
4051 6550.791921776174
4052 6552.196858871223
4053 6553.698713535859
4054 6555.264157854511
4055 6556.907491057289
4056 6558.579614388376
4057 6560.35758272597
4058 6562.149557973022
4059 6563.982530772194
4060 6565.889545966977
4061 6567.760251397097
4062 6569.692475535148
4063 6571.643018238827
4064 6573.555433474709
4065 6575.444511809404
4066 6577.315873166865
4067 6579.13825874309
4068 6580.887458543134
4069 6582.541530970496
4070 6584.080576746726
4071 6585.546561324058
4072 6586.869374660298
4073 6588.099307246746
4074 6589.196801427888
4075 6590.160789411934
4076 6590.981948430731
4077 6591.598891252802
4078 6592.050221825429
4079 6592.293959471772
4080 6592.365244171949
4081 6592.297263504557
4082 6592.006121561091
4083 6591.543640887508
4084 6590.876201499294
4085 6590.014192383581
4086 6588.95102036861
4087 6587.722967245822
4088 6586.316774747093
4089 6584.763447983967
4090 6583.092954858616
4091 6581.302897282541
4092 6579.393501442315
4093 6577.358052415169
4094 6575.231514961444
4095 6573.015903288084
4096 6570.694539519329
4097 6568.36564129715
4098 6566.025681993797
4099 6563.649014305483
4100 6561.333867188278
4101 6559.047452525155
4102 6556.758321774753
4103 6554.587549572923
4104 6552.468662165129
4105 6550.506349957518
4106 6548.668707700178
4107 6546.968456554436
4108 6545.426870755864
4109 6544.057939382255
4110 6542.894542616817
4111 6541.88867668593
4112 6541.106498683516
4113 6540.555003611282
4114 6540.217347476965
4115 6540.203314018906
4116 6540.396569259958
4117 6540.840824351159
4118 6541.516898719075
4119 6542.421014159587
4120 6543.5866304946
4121 6545.006204188061
4122 6546.655695558131
4123 6548.551935094366
4124 6550.669759317002
4125 6552.978575505153
4126 6555.505574735414
4127 6558.165843897413
4128 6560.971622000317
4129 6563.934025841807
4130 6567.078458549729
4131 6570.323634307771
4132 6573.690536238787
4133 6577.120035254221
4134 6580.656357226559
4135 6584.288884690262
4136 6588.001458806926
4137 6591.693065313751
4138 6595.380677463992
4139 6599.045296364496
4140 6602.66135058431
4141 6606.237294506863
4142 6609.768431178003
4143 6613.294912725254
4144 6616.742610042444
4145 6620.111242008495
4146 6623.410938196761
4147 6626.586748653304
4148 6629.637300281535
4149 6632.549968657084
4150 6635.317004580731
4151 6637.976689050355
4152 6640.454210956123
4153 6642.752768723188
4154 6644.889280657223
4155 6646.863371016813
4156 6648.659716589074
4157 6650.272105400595
4158 6651.727140609902
4159 6652.989137746904
4160 6654.063346685149
4161 6654.951753207871
4162 6655.649199389554
4163 6656.181649458891
4164 6656.547796398931
4165 6656.729394114685
4166 6656.767991667118
4167 6656.632840545844
4168 6656.350820076118
4169 6655.945880769827
4170 6655.431704623763
4171 6654.825808177254
4172 6654.118985588325
4173 6653.326158628133
4174 6652.442340179805
4175 6651.531635267648
4176 6650.575618700585
4177 6649.619953442032
4178 6648.662056845247
4179 6647.716766758165
4180 6646.801274212728
4181 6645.938711973487
4182 6645.111975724448
4183 6644.339637084686
4184 6643.640494912227
4185 6643.024123281585
4186 6642.48584613717
4187 6642.032337063602
4188 6641.673200934379
4189 6641.419111376779
4190 6641.270378160862
4191 6641.236626404165
4192 6641.290339895916
4193 6641.461150509496
4194 6641.726388450735
4195 6642.09133926618
4196 6642.556678851055
4197 6643.103656365002
4198 6643.74292189297
4199 6644.460393143757
4200 6645.230349612906
4201 6646.063804039059
4202 6646.94329670706
4203 6647.883896099751
4204 6648.843259071703
4205 6649.834392427378
4206 6650.842907137286
4207 6651.847711975747
4208 6652.867033134583
4209 6653.861684884047
4210 6654.851952269634
4211 6655.817342707991
4212 6656.758012770594
4213 6657.684794702357
4214 6658.56883890415
4215 6659.423545331176
4216 6660.241597890942
4217 6661.01356484186
4218 6661.764731248528
4219 6662.482933889504
4220 6663.181677772568
4221 6663.856832711844
4222 6664.532444958689
4223 6665.190909773384
4224 6665.84199218136
4225 6666.485431395743
4226 6667.141029581921
4227 6667.798768695401
4228 6668.463839071563
4229 6669.150299790839
4230 6669.863945466774
4231 6670.61107198083
4232 6671.359527539159
4233 6672.13902811245
4234 6672.952222593154
4235 6673.800664999087
4236 6674.672540398741
4237 6675.555159700632
4238 6676.421011414733
4239 6677.311061734409
4240 6678.197925750123
4241 6679.035284610726
4242 6679.889820036699
4243 6680.720623007614
4244 6681.505836406155
4245 6682.243037284326
4246 6682.904073997408
4247 6683.511429275128
4248 6684.008207931211
4249 6684.426382719235
4250 6684.750657638942
4251 6684.993409663417
4252 6685.110404803601
4253 6685.123969151015
4254 6684.991226394493
4255 6684.739252454239
4256 6684.365676995475
4257 6683.856354424862
4258 6683.24905533082
4259 6682.534124336024
4260 6681.674531287302
4261 6680.717115675878
4262 6679.647795481586
4263 6678.467443270417
4264 6677.229762142682
4265 6675.905013979296
4266 6674.546118520319
4267 6673.119271411171
4268 6671.648848236867
4269 6670.116275443444
4270 6668.578987486524
4271 6667.057606571511
4272 6665.552518356519
4273 6664.080043861431
4274 6662.66718678809
4275 6661.290608113175
4276 6659.983933813876
4277 6658.738781623352
4278 6657.594808622059
4279 6656.501000819581
4280 6655.47635061183
4281 6654.561920497888
4282 6653.759449354202
4283 6653.061261988188
4284 6652.488415925375
4285 6651.989722087465
4286 6651.597049849649
4287 6651.328242122976
4288 6651.186438928985
4289 6651.096198609827
4290 6651.125058259177
4291 6651.227472046651
4292 6651.400962143498
4293 6651.681200023867
4294 6652.011954869216
4295 6652.392882790786
4296 6652.851099270188
4297 6653.398914778414
4298 6653.946252696071
4299 6654.586151358436
4300 6655.298042392359
4301 6656.014684357548
4302 6656.769957565286
4303 6657.535706691923
4304 6658.306626518431
4305 6659.09692765594
4306 6659.968959888555
4307 6660.899905469673
4308 6661.904216759263
4309 6662.977234875975
4310 6664.120278208457
4311 6665.302523514481
4312 6666.484450477894
4313 6667.730967126526
4314 6669.009846808642
4315 6670.324517389805
4316 6671.633972800837
4317 6672.979817528916
4318 6674.391516271116
4319 6675.772256778807
4320 6677.155735121299
4321 6678.567678841535
4322 6679.916938408489
4323 6681.269618301618
4324 6682.51066877535
4325 6683.723117161476
4326 6684.871890358127
4327 6685.990864793979
4328 6686.997552191167
4329 6687.924213107381
4330 6688.644074791108
4331 6689.274049734585
4332 6689.742621939477
4333 6690.077325798117
4334 6690.274030196901
4335 6690.300454333599
4336 6690.191386091948
4337 6689.906388500601
4338 6689.489821015231
4339 6688.878722953993
4340 6688.104229962197
4341 6687.278114000775
4342 6686.340705444767
4343 6685.299518459529
4344 6684.174562233748
4345 6683.040260552504
4346 6681.870470545289
4347 6680.701289973834
4348 6679.477886241393
4349 6678.3556593944
4350 6677.247688431969
4351 6676.173584297049
4352 6675.18145449358
4353 6674.268088133434
4354 6673.446119516268
4355 6672.690817311791
4356 6672.01663163932
4357 6671.474086238191
4358 6670.984857770796
4359 6670.609874949268
4360 6670.291746535061
4361 6670.045782964455
4362 6669.845739430766
4363 6669.73559791023
4364 6669.665225484659
4365 6669.566748257789
4366 6669.446780709872
4367 6669.279618910405
4368 6669.079013940608
4369 6668.761264252846
4370 6668.358458887823
4371 6667.869055221614
4372 6667.168169281742
4373 6666.283914796007
4374 6665.263789678711
4375 6663.992159412333
4376 6662.507403889733
4377 6660.691159657339
4378 6658.651514879848
4379 6656.329604678624
4380 6653.76098692212
4381 6650.860034437262
4382 6647.602654748212
4383 6644.072089997443
4384 6640.295758252699
4385 6636.210312334329
4386 6631.806129222472
4387 6627.24621572586
4388 6622.471101998055
4389 6617.530716303433
4390 6612.341639944703
4391 6607.000088242929
4392 6601.504488554522
4393 6595.906478494259
4394 6590.207522835137
4395 6584.457836692883
4396 6578.706326574202
4397 6572.93601498951
4398 6567.266315690078
4399 6561.646805549184
4400 6556.116297626872
4401 6550.750258490371
4402 6545.585231895094
4403 6540.660861747318
4404 6536.020060905915
4405 6531.67196768599
4406 6527.618626339236
4407 6523.936899503407
4408 6520.563471863941
4409 6517.537720918558
4410 6514.873462492741
4411 6512.613429929631
4412 6510.69677652273
4413 6509.215007679312
4414 6508.099743270638
4415 6507.341885202181
4416 6506.964500123698
4417 6506.937329732186
4418 6507.226910252949
4419 6507.857000714856
4420 6508.763954684545
4421 6509.911777943234
4422 6511.284958190737
4423 6512.804388718505
4424 6514.500752707415
4425 6516.360370821666
4426 6518.344070641081
4427 6520.4154180852
4428 6522.597812868018
4429 6524.797239075417
4430 6527.021216023866
4431 6529.288891594224
4432 6531.573274390355
4433 6533.828586686774
4434 6536.106250747196
4435 6538.294563782334
4436 6540.46683753577
4437 6542.61444185406
4438 6544.718775028545
4439 6546.746817848586
4440 6548.692684003422
4441 6550.5871363314
4442 6552.51102368445
4443 6554.392898576411
4444 6556.257310693671
4445 6558.135603462033
4446 6560.032926367744
4447 6561.908080414575
4448 6563.858160769231
4449 6565.794543565107
4450 6567.776289312328
4451 6569.770806919199
4452 6571.826536400094
4453 6573.998169425634
4454 6576.200006104347
4455 6578.463939802275
4456 6580.77590462197
4457 6583.129644352561
4458 6585.527597677308
4459 6588.006053522074
4460 6590.533032653309
4461 6593.096098420239
4462 6595.697918269771
4463 6598.313548101099
4464 6600.939235173062
4465 6603.562106347542
4466 6606.195211567444
4467 6608.736062997767
4468 6611.339028450359
4469 6613.864263653357
4470 6616.346010427829
4471 6618.807986909917
4472 6621.176700914983
4473 6623.474522995958
4474 6625.678361678148
4475 6627.794431857084
4476 6629.818169159897
4477 6631.709766739736
4478 6633.491989561499
4479 6635.140457418102
4480 6636.736038177442
4481 6638.242105835795
4482 6639.593697302747
4483 6640.88397663791
4484 6642.093137615419
4485 6643.302784942258
4486 6644.42600510767
4487 6645.403290765156
4488 6646.344357238926
4489 6647.29891085925
4490 6648.186063264334
4491 6649.029327026296
4492 6649.835990189551
4493 6650.641887610099
4494 6651.358387965514
4495 6652.15796810558
4496 6652.877353581895
4497 6653.635996864306
4498 6654.396091031304
4499 6655.15385808312
4500 6655.862195444422
4501 6656.602266285487
4502 6657.247227211131
4503 6657.926376200889
4504 6658.520377225055
4505 6659.123071030984
4506 6659.648358052365
4507 6660.140411202032
4508 6660.542180024694
4509 6660.771618381528
4510 6660.886940987918
4511 6660.884992362675
4512 6660.72344461789
4513 6660.412285068584
4514 6659.928462099156
4515 6659.285322120751
4516 6658.401615918177
4517 6657.419544733996
4518 6656.144196761463
4519 6654.722466840575
4520 6653.074665157158
4521 6651.198300230816
4522 6649.125476068404
4523 6646.838819860455
4524 6644.400351850549
4525 6641.768659344215
4526 6638.95920282698
4527 6635.977201801931
4528 6632.855930907238
4529 6629.603074478856
4530 6626.295507827062
4531 6622.864885182259
4532 6619.330205330447
4533 6615.797392173844
4534 6612.138173134248
4535 6608.441836176939
4536 6604.737553297066
4537 6601.072155303015
4538 6597.488904906328
4539 6593.992280770707
4540 6590.600401488404
4541 6587.327803498759
4542 6584.201922527581
4543 6581.257234887682
4544 6578.45959629108
4545 6575.899770848211
4546 6573.531120039029
4547 6571.408701039122
4548 6569.487939965305
4549 6567.834217582775
4550 6566.445820405153
4551 6565.320123183296
4552 6564.489894919336
4553 6563.927007662103
4554 6563.610895810988
4555 6563.52081144348
4556 6563.718332305184
4557 6564.136804273649
4558 6564.783365350962
4559 6565.643243569721
4560 6566.750877009207
4561 6568.06760292454
4562 6569.54205818588
4563 6571.198530601885
4564 6573.040551678749
4565 6574.996474969832
4566 6577.033501416535
4567 6579.179554224412
4568 6581.384252681067
4569 6583.685309498494
4570 6586.015614417858
4571 6588.393914186376
4572 6590.780737172728
4573 6593.202189430753
4574 6595.648519497171
4575 6598.040934889475
4576 6600.434603561703
4577 6602.762559425627
4578 6605.048354757647
4579 6607.315180480065
4580 6609.517098252801
4581 6611.707674700006
4582 6613.825001536664
4583 6615.852246839592
4584 6617.848893837813
4585 6619.775977660548
4586 6621.687418419719
4587 6623.508533307176
4588 6625.261610296144
4589 6626.951860872467
4590 6628.557659127768
4591 6630.137605253185
4592 6631.65910334421
4593 6633.065820543563
4594 6634.401681628824
4595 6635.68639269679
4596 6636.883561724897
4597 6638.027581774207
4598 6639.066210280435
4599 6640.000643106022
4600 6640.833916270441
4601 6641.55564844156
4602 6642.166564252682
4603 6642.658403030652
4604 6643.050811750585
4605 6643.312427039945
4606 6643.386448288078
4607 6643.356850228159
4608 6643.17029122142
4609 6642.81728673028
4610 6642.319093534376
4611 6641.663417817043
4612 6640.81341484845
4613 6639.77350612163
4614 6638.523942882671
4615 6637.126891800505
4616 6635.53556777201
4617 6633.793517401033
4618 6631.876540049608
4619 6629.797600024392
4620 6627.640569587698
4621 6625.35346664999
4622 6622.978696995662
4623 6620.500996350726
4624 6617.932295253999
4625 6615.351398067675
4626 6612.766407472178
4627 6610.158933011538
4628 6607.585292568002
4629 6605.111753874367
4630 6602.75982804449
4631 6600.525407887813
4632 6598.392922798319
4633 6596.418413600422
4634 6594.692900919687
4635 6593.147975359951
4636 6591.841704786202
4637 6590.752249005041
4638 6590.018151295117
4639 6589.546264016037
4640 6589.345536725913
4641 6589.430134832568
4642 6589.84243858058
4643 6590.53653954547
4644 6591.55929130394
4645 6592.871307248131
4646 6594.498541897679
4647 6596.304845199668
4648 6598.413589357136
4649 6600.710435703827
4650 6603.215099828152
4651 6605.867867731839
4652 6608.664648771471
4653 6611.573269055962
4654 6614.57668821851
4655 6617.557796854514
4656 6620.536889285187
4657 6623.453849125098
4658 6626.296473483685
4659 6629.047693662321
4660 6631.629574481243
4661 6634.013124477676
4662 6636.107476051385
4663 6637.997160825162
4664 6639.563763524799
4665 6640.843330963085
4666 6641.764829880428
4667 6642.336493285886
4668 6642.509582220794
4669 6642.289960648645
4670 6641.715539617931
4671 6640.72358802555
4672 6639.390670488434
4673 6637.674241806025
4674 6635.618263487602
4675 6633.202662371051
4676 6630.510936253277
4677 6627.477470035246
4678 6624.193614659049
4679 6620.675506031634
4680 6617.022227614163
4681 6613.136354965294
4682 6609.146164511182
4683 6605.037919787176
4684 6600.855881152398
4685 6596.653896086827
4686 6592.486129212728
4687 6588.315842051143
4688 6584.202338727609
4689 6580.180405122883
4690 6576.284171286805
4691 6572.510430999318
4692 6568.863079068141
4693 6565.394652058232
4694 6562.076673386799
4695 6558.967284428543
4696 6556.041427855504
4697 6553.361945993536
4698 6550.902167319266
4699 6548.6344240915
4700 6546.56435502594
4701 6544.726341055662
4702 6543.088682352519
4703 6541.609034054269
4704 6540.329961610276
4705 6539.23035526624
4706 6538.330770847478
4707 6537.589708930203
4708 6537.011875158088
4709 6536.570112005885
4710 6536.284585533741
4711 6536.1530794511
4712 6536.12397448681
4713 6536.241561426275
4714 6536.490569219426
4715 6536.86532120307
4716 6537.322094515182
4717 6537.887454465329
4718 6538.597328705598
4719 6539.372514816951
4720 6540.280651845633
4721 6541.321277956541
4722 6542.445044255182
4723 6543.67915909353
4724 6545.016253111242
4725 6546.510632852543
4726 6548.113992272836
4727 6549.829089817652
4728 6551.672441196945
4729 6553.64553742582
4730 6555.716265658536
4731 6557.915954384343
4732 6560.240570263954
4733 6562.688796076274
4734 6565.236238557396
4735 6567.876647245971
4736 6570.623253082239
4737 6573.456774723237
4738 6576.363192677404
4739 6579.355066145446
4740 6582.403724491255
4741 6585.513929538212
4742 6588.623853779993
4743 6591.759256449181
4744 6594.893021883532
4745 6598.016233568977
4746 6601.120708477722
4747 6604.202725773952
4748 6607.207299569463
4749 6610.126217481049
4750 6613.000839322986
4751 6615.786892894728
4752 6618.451153510291
4753 6621.007829416037
4754 6623.438367274196
4755 6625.738545629497
4756 6627.886971323675
4757 6629.870034314327
4758 6631.685245741701
4759 6633.344333026301
4760 6634.819195298377
4761 6636.106780944803
4762 6637.212562654742
4763 6638.158351391888
4764 6638.917350361056
4765 6639.524716277558
4766 6639.976103072653
4767 6640.264967716276
4768 6640.41448815615
4769 6640.406037755352
4770 6640.2879171739
4771 6640.048194192144
4772 6639.711631038957
4773 6639.266556965859
4774 6638.731949810932
4775 6638.14906344758
4776 6637.515387460003
4777 6636.844825535673
4778 6636.145235518821
4779 6635.449447791771
4780 6634.754931891497
4781 6634.019701164629
4782 6633.323817826891
4783 6632.667683886921
4784 6632.0208674596
4785 6631.450056367107
4786 6630.938596910093
4787 6630.470089665735
4788 6630.101053353147
4789 6629.771462343325
4790 6629.549066201072
4791 6629.41344016931
4792 6629.364062040754
4793 6629.392340697547
4794 6629.512579884625
4795 6629.710859623339
4796 6629.992665382944
4797 6630.339929381786
4798 6630.760445568349
4799 6631.239216702197
4800 6631.770144761248
4801 6632.364639018354
4802 6633.025969933304
4803 6633.706022201663
4804 6634.409270620179
4805 6635.125862780844
4806 6635.853303365102
4807 6636.581852018953
4808 6637.32750588511
4809 6638.054562729323
4810 6638.736593158294
4811 6639.396329647004
4812 6640.035913268614
4813 6640.660037852609
4814 6641.239510450324
4815 6641.76669090764
4816 6642.229644213376
4817 6642.63369517777
4818 6642.991971840872
4819 6643.30820422409
4820 6643.584925114115
4821 6643.796930489019
4822 6643.951705620208
4823 6644.062512219364
4824 6644.10804089571
4825 6644.103968829412
4826 6644.046724398356
4827 6643.96783612661
4828 6643.863138071057
4829 6643.751600975093
4830 6643.603303167143
4831 6643.451639086633
4832 6643.279405443614
4833 6643.099830112871
4834 6642.908627166298
4835 6642.703323878292
4836 6642.506749432314
4837 6642.306338993339
4838 6642.078442387312
4839 6641.859883951652
4840 6641.659755014787
4841 6641.453805111404
4842 6641.242387842918
4843 6641.037955255412
4844 6640.805583950115
4845 6640.578645298609
4846 6640.31760898041
4847 6640.045454926554
4848 6639.770084689525
4849 6639.472735956331
4850 6639.149331718917
4851 6638.794576853376
4852 6638.428861976699
4853 6638.02322152876
4854 6637.579098604442
4855 6637.104655055444
4856 6636.591559199062
4857 6636.028421776738
4858 6635.434580776368
4859 6634.798492574851
4860 6634.116492845533
4861 6633.3954448731
4862 6632.629498127476
4863 6631.816313958436
4864 6630.963707078763
4865 6630.079602523356
4866 6629.161503825736
4867 6628.212482838427
4868 6627.237491495492
4869 6626.236372034299
4870 6625.211891669929
4871 6624.180321656684
4872 6623.136535342005
4873 6622.077290259981
4874 6621.024866462233
4875 6619.984196520206
4876 6618.951742214489
4877 6617.952463585299
4878 6616.975056119602
4879 6616.032530842413
4880 6615.103822569932
4881 6614.226339286985
4882 6613.389386454308
4883 6612.587836927113
4884 6611.845903785861
4885 6611.152293984077
4886 6610.526351006152
4887 6609.963969572231
4888 6609.47749366847
4889 6609.054514144867
4890 6608.714113072072
4891 6608.450479396122
4892 6608.2646033562
4893 6608.177373458961
4894 6608.18027338361
4895 6608.277822916119
4896 6608.466418448987
4897 6608.754950033671
4898 6609.131825070907
4899 6609.57845200916
4900 6610.102341335558
4901 6610.718222034295
4902 6611.419224950178
4903 6612.200548086702
4904 6613.054179476424
4905 6613.98103984816
4906 6614.968994209007
4907 6615.995400094786
4908 6617.088236616095
4909 6618.204325228937
4910 6619.361068996498
4911 6620.551887087083
4912 6621.763622205029
4913 6622.985789447962
4914 6624.182847354369
4915 6625.39920325101
4916 6626.620278245013
4917 6627.828786605238
4918 6629.008570596297
4919 6630.125166549356
4920 6631.225526600982
4921 6632.265543754926
4922 6633.244539227974
4923 6634.168170600277
4924 6634.992038400991
4925 6635.712260953042
4926 6636.393437807689
4927 6636.936295216474
4928 6637.376883932075
4929 6637.718205730933
4930 6637.930835926512
4931 6638.02554340404
4932 6637.949474320049
4933 6637.758776694332
4934 6637.428584241671
4935 6636.921503025919
4936 6636.307248507417
4937 6635.580226406933
4938 6634.687513079698
4939 6633.603383977236
4940 6632.390351683022
4941 6631.066102851679
4942 6629.613788813155
4943 6627.977536844945
4944 6626.207150745816
4945 6624.3226313106
4946 6622.361925394667
4947 6620.310817031778
4948 6618.21227861328
4949 6616.066524153863
4950 6613.892380739421
4951 6611.741110108798
4952 6609.59908311267
4953 6607.50291775925
4954 6605.437748151179
4955 6603.517326258279
4956 6601.742463684065
4957 6600.070188716946
4958 6598.618731571362
4959 6597.352341355448
4960 6596.382628010682
4961 6595.595460969515
4962 6595.092322068807
4963 6594.893114209053
4964 6594.994982500984
4965 6595.462881487744
4966 6596.258687472307
4967 6597.394509194075
4968 6598.878853045015
4969 6600.732377696763
4970 6602.96805613002
4971 6605.547436151483
4972 6608.404298135397
4973 6611.744310661788
4974 6615.374530802732
4975 6619.311008306428
4976 6623.66012566948
4977 6628.194556997566
4978 6633.014457414285
4979 6638.043752952305
4980 6643.27676775559
4981 6648.686468652933
4982 6654.269772532258
4983 6659.973199147749
4984 6665.729411690237
4985 6671.495749333735
4986 6677.218680865268
4987 6682.948421192114
4988 6688.670470295082
4989 6694.286823952219
4990 6699.768124561433
4991 6705.151256855143
4992 6710.253175573228
4993 6715.167070979174
4994 6719.905024094154
4995 6724.429071346438
4996 6728.734785302916
4997 6732.780678280861
4998 6736.579222498713
4999 6740.158731126325
5000 6743.409009943049
5001 6746.367173971
5002 6749.040858139923
5003 6751.445968060936
5004 6753.570289708491
5005 6755.445445980946
5006 6757.031648891136
5007 6758.366423675467
5008 6759.497982070026
5009 6760.361886889162
5010 6760.984570306698
5011 6761.375910289667
5012 6761.574416598675
5013 6761.576109807193
5014 6761.376076380824
5015 6760.988590768787
5016 6760.456354202442
5017 6759.766921391267
5018 6758.935013110948
5019 6757.986257060209
5020 6756.964144331572
5021 6755.85307071051
5022 6754.709141031817
5023 6753.481532748697
5024 6752.231965173034
5025 6750.968246394312
5026 6749.710844623622
5027 6748.462009747083
5028 6747.219403288474
5029 6745.998329385528
5030 6744.810719472389
5031 6743.630326330481
5032 6742.461041629038
5033 6741.299286105306
5034 6740.169897326633
5035 6739.051809665343
5036 6737.965112562895
5037 6736.911182400844
5038 6735.861041684883
5039 6734.83267866128
5040 6733.821656724103
5041 6732.810957364773
5042 6731.797875309509
5043 6730.784581476791
5044 6729.745155398184
5045 6728.696480960317
5046 6727.618595317168
5047 6726.510797627565
5048 6725.367475437029
5049 6724.175008998593
5050 6722.97266360947
5051 6721.731471334838
5052 6720.475899108195
5053 6719.184285489334
5054 6717.851911625824
5055 6716.491026005147
5056 6715.112038774828
5057 6713.701474921552
5058 6712.272670742504
5059 6710.830083181726
5060 6709.390250064655
5061 6707.928655432387
5062 6706.494586403406
5063 6705.070530422757
5064 6703.658790228415
5065 6702.282167353609
5066 6700.931889690191
5067 6699.623333361211
5068 6698.358691662886
5069 6697.162839249767
5070 6696.032625692807
5071 6694.952498851398
5072 6693.936087555872
5073 6693.011572153999
5074 6692.164628360501
5075 6691.396200809852
5076 6690.694744653212
5077 6690.075875945719
5078 6689.551175835399
5079 6689.101272934788
5080 6688.737660618743
5081 6688.463600443411
5082 6688.257314189584
5083 6688.112906485452
5084 6688.037646139241
5085 6688.044309883809
5086 6688.096948944646
5087 6688.210842337325
5088 6688.372213563955
5089 6688.590815406577
5090 6688.823289641634
5091 6689.099934193468
5092 6689.392980701549
5093 6689.712265235693
5094 6690.038418840738
5095 6690.365021049168
5096 6690.698649947947
5097 6691.033089048716
5098 6691.35576976897
5099 6691.669510849402
5100 6691.970417325466
5101 6692.271029561095
5102 6692.552978692457
5103 6692.814490300182
5104 6693.051565772987
5105 6693.276348647308
5106 6693.480143539869
5107 6693.670025640514
5108 6693.853806380783
5109 6694.031010901464
5110 6694.204032687842
5111 6694.379997537338
5112 6694.552118747742
5113 6694.727761954344
5114 6694.90208071776
5115 6695.089323357482
5116 6695.284996465319
5117 6695.48927508732
5118 6695.708217759268
5119 6695.928550477081
5120 6696.154927899558
5121 6696.394153259728
5122 6696.64607863474
5123 6696.901836322219
5124 6697.159223163794
5125 6697.419651802558
5126 6697.670651109412
5127 6697.906832824006
5128 6698.135895935569
5129 6698.355103466527
5130 6698.549509488504
5131 6698.722884380334
5132 6698.880122912204
5133 6698.998018604664
5134 6699.073097720985
5135 6699.113914577479
5136 6699.101793587968
5137 6699.04028207618
5138 6698.914996921933
5139 6698.741249168619
5140 6698.515337365226
5141 6698.227196441422
5142 6697.888648363344
5143 6697.497981833186
5144 6697.051280763764
5145 6696.565009852559
5146 6696.028683684774
5147 6695.452581660155
5148 6694.83513671097
5149 6694.194609381137
5150 6693.536318306064
5151 6692.849061977315
5152 6692.163161673264
5153 6691.474850702309
5154 6690.795367683175
5155 6690.123283901306
5156 6689.484644132033
5157 6688.871542493323
5158 6688.294930418226
5159 6687.77254154342
5160 6687.310429007553
5161 6686.907375820621
5162 6686.570562428453
5163 6686.307067118983
5164 6686.115585465438
5165 6686.010809918382
5166 6685.990253907766
5167 6686.049224983975
5168 6686.192379024322
5169 6686.397057055616
5170 6686.684138442683
5171 6687.052695644949
5172 6687.462783167338
5173 6687.954725408804
5174 6688.507778980415
5175 6689.085998794213
5176 6689.71036040642
5177 6690.362536202021
5178 6691.046078550846
5179 6691.725217519527
5180 6692.417878526546
5181 6693.105702582556
5182 6693.759389409905
5183 6694.386424218809
5184 6694.96289918587
5185 6695.510182753356
5186 6695.982603355692
5187 6696.404716549756
5188 6696.77474764516
5189 6697.047870513908
5190 6697.235558783127
5191 6697.354384840235
5192 6697.374009703531
5193 6697.323176239697
5194 6697.170308818095
5195 6696.938425609111
5196 6696.635901627737
5197 6696.237281752158
5198 6695.757320848809
5199 6695.204017929333
5200 6694.568167284525
5201 6693.864692394931
5202 6693.133081911993
5203 6692.348097286542
5204 6691.525498525427
5205 6690.685678766848
5206 6689.827002085468
5207 6688.987578950649
5208 6688.158887301894
5209 6687.354308589659
5210 6686.554760828309
5211 6685.788308810132
5212 6685.089572711677
5213 6684.466334304857
5214 6683.915317385459
5215 6683.415194521634
5216 6683.013130454052
5217 6682.719968243959
5218 6682.529712887565
5219 6682.443084722815
5220 6682.465372763637
5221 6682.600660373181
5222 6682.836923123498
5223 6683.209556078233
5224 6683.676771979995
5225 6684.267369663249
5226 6684.955457107628
5227 6685.73962486453
5228 6686.609697513341
5229 6687.575337011495
5230 6688.621080935751
5231 6689.734099842528
5232 6690.90765531843
5233 6692.141869005763
5234 6693.439939299617
5235 6694.796580935314
5236 6696.153903125861
5237 6697.550560615896
5238 6698.96902412391
5239 6700.389454674447
5240 6701.806375800504
5241 6703.218067562668
5242 6704.610922059684
5243 6705.987644026583
5244 6707.327159307684
5245 6708.640512196385
5246 6709.899340901769
5247 6711.095140505729
5248 6712.247520418632
5249 6713.327704201668
5250 6714.352423259921
5251 6715.321647392308
5252 6716.232858319359
5253 6717.088658159852
5254 6717.84448684732
5255 6718.524290543817
5256 6719.147337660847
5257 6719.660355699579
5258 6720.108138101324
5259 6720.496882291322
5260 6720.778019339414
5261 6720.988734192927
5262 6721.096911487784
5263 6721.115961220113
5264 6721.050165145053
5265 6720.901097055292
5266 6720.675847878925
5267 6720.373210605397
5268 6719.956932692377
5269 6719.483604495465
5270 6718.92433254306
5271 6718.256615754241
5272 6717.50189182435
5273 6716.662895470828
5274 6715.739370540009
5275 6714.685494975823
5276 6713.601475802097
5277 6712.45851691096
5278 6711.245602149726
5279 6709.976516896017
5280 6708.639380206167
5281 6707.254804913342
5282 6705.807201263648
5283 6704.283746876543
5284 6702.745094093796
5285 6701.161527794496
5286 6699.586229569774
5287 6698.046900853814
