"mz-rfile"
"Iteration" "mz"
("Iteration" "mz")
1 1731.334766368671
2 1783.049915750263
3 1730.715885451985
4 1610.618320426003
5 1386.353423624683
6 1150.048778527131
7 984.5225721713399
8 820.6794042379144
9 665.0676819960355
10 535.5724187090826
11 420.2036545851176
12 337.4641787863608
13 276.7559136510287
14 248.3143402736276
15 240.4423255883066
16 249.011150155765
17 272.1529512107338
18 300.9484819238681
19 338.0410583388359
20 372.971501160299
21 408.5960069640132
22 443.4918335523195
23 475.5350277528186
24 501.7664857631886
25 528.9009894893959
26 552.1700069182731
27 573.548019325225
28 590.412871885631
29 604.2572388732005
30 613.0902019122827
31 620.0958222266177
32 624.6729575655339
33 627.9073915800768
34 629.9673253854213
35 631.5445222855412
36 632.9364922171792
37 634.3081418080815
38 635.5276380209334
39 637.0174600808762
40 638.3805879929865
41 640.2186986072711
42 642.2059615016801
43 644.5411165905903
44 646.7677165195389
45 649.1120856587231
46 651.1547812605277
47 652.961514394188
48 654.6781860922166
49 655.8847342335945
50 656.9042428015238
51 657.7898887030412
52 658.5145674670343
53 659.225213216076
54 659.9024494883714
55 660.3857339290955
56 660.9523930966212
57 661.5696261800274
58 662.1696308697547
59 662.8190076115958
60 663.527485434319
61 664.2726817184388
62 665.1983734813347
63 666.0230832745478
64 666.7599902386547
65 667.5364521118546
66 668.1290314906304
67 668.5297729959937
68 668.7909159487881
69 668.9114017089264
70 668.8961102383995
71 668.7581560377755
72 668.5959021054629
73 668.3900406403765
74 668.1568835182027
75 667.9561586081793
76 667.7520583655879
77 667.6067629214725
78 667.4650218749975
79 667.3320577109845
80 667.2102362835967
81 667.0805571683856
82 666.9456190461869
83 666.7956030912196
84 666.6301346087714
85 666.4563812110381
86 666.191683010513
87 665.9686651493378
88 665.6285030081475
89 665.2461778220131
90 664.819664955884
91 664.3512659124472
92 663.9873821565982
93 663.4709304113114
94 663.0612705601733
95 662.4942744593958
96 662.0521752198811
97 661.6038699413015
98 661.1470731224252
99 660.6909406864215
100 660.2332554824397
101 659.7811511164497
102 659.3355784618478
103 659.0535438528717
104 658.6315559943433
105 658.3593797624361
106 658.095119649952
107 657.702535195626
108 657.4436800101213
109 657.0733245224064
110 656.8252428020685
111 656.4740138714357
112 656.2430554462225
113 655.9086536551874
114 655.6876281647051
115 655.3533685016038
116 655.1373809968449
117 654.8297365349122
118 654.6205282214312
119 654.3227513486033
120 654.1207342136095
121 653.8202274529814
122 653.6354567015723
123 653.3586292146273
124 653.1778841673408
125 653.0138615915351
126 652.8522281222787
127 652.6972958738269
128 652.5614102106796
129 652.42929587924
130 652.3247224190566
131 652.2251078552579
132 652.1472197100378
133 652.0800330318458
134 652.0355932204463
135 651.9982224845127
136 651.985331456757
137 651.9855212604475
138 652.0213566058281
139 652.0852731909254
140 652.1388737878854
141 652.203698328866
142 652.3298187871845
143 652.415554821388
144 652.5197611618255
145 652.6771718120482
146 652.8022033637294
147 652.9270217242439
148 653.1364039131616
149 653.2726901685051
150 653.4280734662107
151 653.6564118039282
152 653.8214910591463
153 653.9843180208861
154 654.1748767755145
155 654.3692592075731
156 654.5856151712137
157 654.8032192314398
158 655.1586259935347
159 655.390000522803
160 655.6502019195647
161 655.906663544893
162 656.1916640424474
163 656.4729147652353
164 656.778106969564
165 657.0748357541671
166 657.5437613012429
167 657.839294551224
168 658.1567965033072
169 658.4586418781842
170 658.7808690687709
171 659.0856290063256
172 659.5601422681934
173 659.8563898893408
174 660.1640062292166
175 660.452196627289
176 660.7562644028046
177 661.1805427642744
178 661.4697709658456
179 661.7343745016135
180 662.0158771500953
181 662.279309357868
182 662.6822654699968
183 662.9297694244103
184 663.1895884594901
185 663.432642223274
186 663.6860591687891
187 664.038462525265
188 664.2770752790896
189 664.498022424712
190 664.7279097465704
191 664.9466291398545
192 665.1759027119433
193 665.4949221339264
194 665.7127257428929
195 665.9152682258525
196 666.1322046052852
197 666.3317315735331
198 666.5461901360563
199 666.7448223784169
200 666.9564525149588
201 667.1524964833736
202 667.4596615784585
203 667.6435068134078
204 667.8405002671873
205 668.0229466185738
206 668.2146400720268
207 668.3890248441277
208 668.5755851603158
209 668.7462114541202
210 668.9308001699351
211 669.0979054665283
212 669.2777735161158
213 669.439962197472
214 669.6134600369891
215 669.7719058664413
216 669.9415062819585
217 670.0983711782186
218 670.262684003106
219 670.4135742827748
220 670.5727565852083
221 670.721108059647
222 670.8767635859037
223 671.0210976433538
224 671.1744118449544
225 671.3168703136608
226 671.4689440589716
227 671.6101499040064
228 671.7606775422065
229 671.9012801600194
230 672.0504455920897
231 672.1902508653397
232 672.3383134734588
233 672.4772911385559
234 672.6266872230252
235 672.7672966175213
236 672.9187346689947
237 673.0613347060469
238 673.21593916804
239 673.3602539047478
240 673.5181883274195
241 673.6685312776577
242 673.831435164265
243 673.9851138609512
244 674.1529857527424
245 674.3120983354348
246 674.4859585447645
247 674.6508067788178
248 674.8303869596305
249 675.0004170690149
250 675.1853875444211
251 675.3614150372174
252 675.5512867049827
253 675.7340179208215
254 675.9294734413761
255 676.1194034273371
256 676.3217421225163
257 676.5178726422203
258 676.7271748295336
259 676.9311828300051
260 677.145621220932
261 677.3546658619613
262 677.5752923140356
263 677.7894613935757
264 678.0169285244476
265 678.2382771553978
266 678.4718208117557
267 678.6976056994042
268 678.9352858227955
269 679.1651759736631
270 679.4071125946446
271 679.6418467964645
272 679.8888867828763
273 680.127444731489
274 680.3784067963148
275 680.6195268409862
276 680.8730427834865
277 681.1172946015464
278 681.3736721908554
279 681.6219030857187
280 681.8804544751562
281 682.1295632596161
282 682.3902465629757
283 682.6425113222393
284 682.9057488545847
285 683.1600524634152
286 683.4228749466902
287 683.6789616373339
288 683.9440672094563
289 684.2020019237414
290 684.4675761521848
291 684.7268289603311
292 684.9927719710071
293 685.2515906772511
294 685.5183239059882
295 685.7771695302791
296 686.0453216782826
297 686.3057918071947
298 686.5743892212485
299 686.8330977051442
300 687.1010974713065
301 687.3589572519985
302 687.6252301254824
303 687.8814210068266
304 688.1468909535589
305 688.4029352739568
306 688.6663256979077
307 688.919842706039
308 689.1825034561404
309 689.4339082015666
310 689.6950925496307
311 689.9458149140314
312 690.2055603266604
313 690.4534124002359
314 690.7107803832265
315 690.9590052627041
316 691.2146147655916
317 691.4611314724932
318 691.7157836215953
319 691.9591713542828
320 692.2096034878452
321 692.4508175108151
322 692.6997389135109
323 692.9375942304814
324 693.1824195500569
325 693.4195940233722
326 693.6629476433332
327 693.8972588973852
328 694.1373625179045
329 694.3693754557686
330 694.6074010059548
331 694.8374585261143
332 695.073572470985
333 695.3013748558874
334 695.5350610542081
335 695.7613441401136
336 695.992457529679
337 696.2144695964045
338 696.4428127232217
339 696.6617941054487
340 696.8873987594956
341 697.1037153183145
342 697.3288875625138
343 697.5442344588569
344 697.7666731963973
345 697.9790224331077
346 698.1984954353107
347 698.4077460510232
348 698.6235661977705
349 698.8294432747165
350 699.043564425729
351 699.2470346232432
352 699.4579290190359
353 699.6587236538567
354 699.8669047171865
355 700.0649653061247
356 700.2689486434256
357 700.4645300637268
358 700.6657226402343
359 700.8574551209756
360 701.0553223475333
361 701.2451700922866
362 701.4414498636145
363 701.6286061496976
364 701.8220072167112
365 702.0066952274102
366 702.1981012963453
367 702.3800438538854
368 702.5690006942332
369 702.7485316300617
370 702.9360765910902
371 703.1133378175978
372 703.2977348080697
373 703.4717990109352
374 703.6535304628243
375 703.8254048733609
376 704.0049589702753
377 704.1756073610105
378 704.3522738830962
379 704.5191149828024
380 704.6924285490201
381 704.858247193523
382 705.0291910932605
383 705.191892057699
384 705.358899107241
385 705.5201570588507
386 705.6851138222323
387 705.8428972238071
388 706.0047737741704
389 706.1613496972276
390 706.3203230276406
391 706.4755807071107
392 706.6333364358043
393 706.7860571403264
394 706.9408649916862
395 707.0912613529899
396 707.2435230441231
397 707.391970263126
398 707.5421100700494
399 707.6881307921942
400 707.8359486405581
401 707.9804635527079
402 708.1254427601207
403 708.2669094635473
404 708.4103603286707
405 708.5500909185095
406 708.6909860511446
407 708.8284885896898
408 708.9674533273981
409 709.10277562908
410 709.2391551216375
411 709.372419128262
412 709.5072537374443
413 709.6387704944991
414 709.7713994197122
415 709.9016633693944
416 710.0334640463678
417 710.1615751819755
418 710.2922707943618
419 710.4181814342437
420 710.54803865888
421 710.6714665108295
422 710.7996630941027
423 710.9203535357479
424 711.0460750765496
425 711.1642630855297
426 711.2878317342137
427 711.4035459784599
428 711.5258652924784
429 711.6399940722662
430 711.7603542852446
431 711.8720995463633
432 711.9915372334868
433 712.1020008853865
434 712.2190575499411
435 712.3272758072314
436 712.4423400384662
437 712.5489180252422
438 712.6621605463785
439 712.766736451043
440 712.878000483678
441 712.981798890656
442 713.0924451829624
443 713.1947417239253
444 713.303484831995
445 713.4048486502652
446 713.512304784967
447 713.6114125728493
448 713.7170511399735
449 713.8146597276904
450 713.918882508509
451 714.0148861562926
452 714.1173757208194
453 714.2124100119149
454 714.313492987937
455 714.4065058354226
456 714.5058392149076
457 714.5975923260751
458 714.6955141023134
459 714.7864067944938
460 714.8819650352016
461 714.9708993507776
462 715.0649350144182
463 715.1524305136926
464 715.2452386712413
465 715.3317019612256
466 715.423207902875
467 715.5077484376831
468 715.597243387203
469 715.680918081418
470 715.7696904399129
471 715.8513905971499
472 715.938262998823
473 716.0184251573677
474 716.1036019751858
475 716.1823307637925
476 716.2667839258345
477 716.3455195480362
478 716.4287809313362
479 716.5056112754424
480 716.5870615077749
481 716.6635220443305
482 716.7436650232505
483 716.8180677138751
484 716.8967688494922
485 716.9708116010817
486 717.0484866092189
487 717.1209874168418
488 717.1980858552163
489 717.2699060823824
490 717.3452026158207
491 717.4156155687356
492 717.4894418880294
493 717.5587955939126
494 717.6320466432325
495 717.700486986575
496 717.7716061145437
497 717.8390083068971
498 717.9095037745877
499 717.9759134909444
500 718.0450771615282
501 718.1100545678344
502 718.1789334490082
503 718.2421469762858
504 718.309614014838
505 718.3719335543459
506 718.4387736260888
507 718.5001046292714
508 718.5658688426745
509 718.6259375216096
510 718.690766368273
511 718.7499302551383
512 718.8135203625529
513 718.8715642743003
514 718.934825508219
515 718.9924945491066
516 719.0549078998696
517 719.1110297616276
518 719.1734776587394
519 719.2291090865523
520 719.2901946933306
521 719.344748863128
522 719.4056735484533
523 719.4594540681763
524 719.5191699561913
525 719.5728949688006
526 719.631629957893
527 719.6838681798683
528 719.7414445048328
529 719.7931884317135
530 719.8502431681362
531 719.9009769454392
532 719.957288600876
533 720.0071399787557
534 720.0628072513924
535 720.111897347652
536 720.1670641684877
537 720.215530912012
538 720.2701438929802
539 720.3166105230373
540 720.3706757139878
541 720.4171110856956
542 720.4706400561391
543 720.5154175257138
544 720.568097775288
545 720.6125619800835
546 720.6653067370127
547 720.7080026998499
548 720.7601945215436
549 720.8035848346607
550 720.8543543806903
551 720.8962133055862
552 720.9466791792295
553 720.9887925791959
554 721.038367525798
555 721.0794195407176
556 721.128511055926
557 721.1697870455279
558 721.2182719986573
559 721.2582634977663
560 721.3062816239283
561 721.3466370678672
562 721.3943426573484
563 721.4331819170683
564 721.4803044229717
565 721.5187812901069
566 721.5658433668326
567 721.6036378806133
568 721.6495317729035
569 721.687460997434
570 721.7329351096482
571 721.7698134145076
572 721.8144241202262
573 721.8518677491707
574 721.8952773069154
575 721.9313333883041
576 721.973875977294
577 722.0105172752912
578 722.0526040870282
579 722.0879615341506
580 722.1291355797424
581 722.1654773408707
582 722.2060536960558
583 722.2411844310192
584 722.2809634813714
585 722.316663329181
586 722.3559988026485
587 722.3904173540174
588 722.4289044855155
589 722.463094470485
590 722.5011410265423
591 722.5346535686244
592 722.5720720809655
593 722.6053656928169
594 722.6426223416312
595 722.6750778580461
596 722.7121943503249
597 722.7452708908095
598 722.7820638960621
599 722.813719154157
600 722.8499002027978
601 722.8817061478339
602 722.9175337538734
603 722.9475767519856
604 722.9834585192508
605 723.0136387297007
606 723.0493445055872
607 723.0781449790874
608 723.1139972818162
609 723.1425520844456
610 723.1784011533946
611 723.2052414886473
612 723.2416503469991
613 723.2685916896621
614 723.3048606917614
615 723.3304317413809
616 723.3659329243205
617 723.3915122012445
618 723.4272197762036
619 723.4516838296852
620 723.4869803785086
621 723.5121663867616
622 723.5465929649965
623 723.5711112610499
624 723.6049372674889
625 723.6301248057156
626 723.6632260544811
627 723.6872775032234
628 723.7204540866045
629 723.7451519210241
630 723.7773205463189
631 723.8016275189322
632 723.8337678646341
633 723.858040190786
634 723.8891953470928
635 723.9127487397399
636 723.9433605933095
637 723.9668013186683
638 723.9979775225074
639 724.0205272533483
640 724.050938259574
641 724.0738386401013
642 724.1043030137168
643 724.1257910251551
644 724.156498308352
645 724.1785337250193
646 724.2085437327876
647 724.2294693095017
648 724.259146887534
649 724.2804170216424
650 724.3094404037647
651 724.3294829961138
652 724.3583556665617
653 724.3789589940078
654 724.4070378863305
655 724.4268524152666
656 724.4546716658651
657 724.4756302869346
658 724.5025424774773
659 724.5222004559454
660 724.5487684300357
661 724.5690437840658
662 724.5959992967298
663 724.6158730932001
664 724.6417343199682
665 724.6613036837368
666 724.6874432249679
667 724.7063697451722
668 724.7324979058707
669 724.7513956883066
670 724.7773329929181
671 724.7952475282834
672 724.820624522257
673 724.8386323133483
674 724.8642067726163
675 724.8815555580951
676 724.9067324305232
677 724.9242772372066
678 724.9495359395584
679 724.9661082855071
680 724.9911946877977
681 725.0078821857758
682 725.0330017172396
683 725.049141358841
684 725.0732965497657
685 725.0892304797724
686 725.1137585151779
687 725.1292742178381
688 725.1528189187835
689 725.1680351315671
690 725.1917332166041
691 725.2063916966273
692 725.2300253527486
693 725.2452154229361
694 725.2683972687543
695 725.2835189304143
696 725.3063406391625
697 725.3208317453054
698 725.3441768328224
699 725.3582415531694
700 725.3808095809788
701 725.3950099684307
702 725.4176942499934
703 725.431720604827
704 725.4539640065077
705 725.4680576022232
706 725.4896880457092
707 725.5032862327346
708 725.5245920877987
709 725.5378901365036
710 725.5590862031563
711 725.5724448290796
712 725.5928649091614
713 725.6061255089805
714 725.6266862757716
715 725.6396288164894
716 725.6596333303677
717 725.6725270894132
718 725.6924534102729
719 725.7053765024506
720 725.7245357555814
721 725.7371668025081
722 725.7565245060931
723 725.7691896443436
724 725.7877676362702
725 725.8007983983009
726 725.8193427575191
727 725.8322277797794
728 725.8501967761716
729 725.8632273568551
730 725.8807130813094
731 725.8931774052497
732 725.9102868555403
733 725.922101597723
734 725.9398685375106
735 725.9518168506587
736 725.9684898670267
737 725.9797642308621
738 725.9971556731891
739 726.0077574883666
740 726.0252756520809
741 726.0359451362469
742 726.053562618881
743 726.0634218871381
744 726.0810632152358
745 726.0906761342433
746 726.1086926867424
747 726.117964668817
748 726.1357059139536
749 726.1451690853213
750 726.1627996017995
751 726.1722072791777
752 726.1889796303751
753 726.1982313347188
754 726.2150382817163
755 726.2239011962398
756 726.2399908573913
757 726.2485037478224
758 726.265617448767
759 726.2737894099322
760 726.2901172314231
761 726.2976956280954
762 726.3150464311567
763 726.3222855000142
764 726.3393061249039
765 726.3464024770379
766 726.3633026438785
767 726.3698280830575
768 726.3868398762896
769 726.393494984879
770 726.4102131085793
771 726.4170628129687
772 726.4331282147973
773 726.4404147517523
774 726.4561857830785
775 726.4635000288864
776 726.4780833625149
777 726.4857842382784
778 726.5004649666918
779 726.5081289438575
780 726.5217056644823
781 726.5293124358512
782 726.5434762535848
783 726.5513586782589
784 726.5645480941687
785 726.5721930181252
786 726.5857356145051
787 726.5933136602785
788 726.6068691996322
789 726.6143526027646
790 726.6271853005677
791 726.6345182941901
792 726.6472989775847
793 726.6547339215598
794 726.6679532889704
795 726.6752141425392
796 726.6871730016885
797 726.6941852169667
798 726.7068066846709
799 726.7135377184757
800 726.7252548482791
801 726.7319021595411
802 726.7442914271808
803 726.7507564861312
804 726.7624179020264
805 726.7683854423317
806 726.7808888364738
807 726.7870067346568
808 726.7990357862463
809 726.8048166533277
810 726.8172536437503
811 726.8224084488052
812 726.8351946477657
813 726.8403375527303
814 726.8531515844546
815 726.8577951544171
816 726.8703467246949
817 726.8745632135989
818 726.887920023986
819 726.8920774489064
820 726.9047268756462
821 726.9087345149384
822 726.9217293547457
823 726.9256064837745
824 726.9380462463666
825 726.9421015878835
826 726.9544174846518
827 726.9589189240946
828 726.9704865522968
829 726.9748877258326
830 726.9865590763962
831 726.990923387525
832 727.0018844778239
833 727.0064260853287
834 727.0175205662018
835 727.0218422351757
836 727.0329722847031
837 727.0371353815968
838 727.0481007045959
839 727.052046984875
840 727.0625519515988
841 727.066555136784
842 727.0776006460108
843 727.0814609234792
844 727.0915340341439
845 727.0955261409462
846 727.1060705213687
847 727.1103090444354
848 727.1203737020095
849 727.1246743727984
850 727.1346743280258
851 727.1388837590849
852 727.1485816833305
853 727.15251061648
854 727.1624241905187
855 727.1658125023382
856 727.1751268385442
857 727.1783717748295
858 727.1887215394599
859 727.1911147359262
860 727.2013805430141
861 727.2037090224381
862 727.2148156427949
863 727.2165947962131
864 727.2275968389004
865 727.2289151625549
866 727.2406588642989
867 727.2414650619558
868 727.2527984758608
869 727.2534783804056
870 727.2650077447905
871 727.265820114781
872 727.2769915348739
873 727.2779975655322
874 727.2885987259664
875 727.2895004244173
876 727.2997526379289
877 727.3010314682174
878 727.3112045218979
879 727.3125199319588
880 727.3217360126562
881 727.32375672682
882 727.3332601362266
883 727.3349565492174
884 727.3438318629909
885 727.3456743413758
886 727.3550633217346
887 727.3569542896798
888 727.3660480159426
889 727.3679027797788
890 727.3772180013426
891 727.3794182881757
892 727.3876796277069
893 727.3897779977337
894 727.3986848582117
895 727.4008236876954
896 727.4088065887657
897 727.4112000193425
898 727.4190152803914
899 727.4208286039129
900 727.4282881532807
901 727.4301894483427
902 727.4383746183776
903 727.44031045945
904 727.4477091199921
905 727.4493616172148
906 727.4571442563265
907 727.4585759449733
908 727.4663204810777
909 727.4674452286565
910 727.4754753623114
911 727.4766025050565
912 727.4842121818047
913 727.4851850453681
914 727.4932771454035
915 727.4944555617324
916 727.5018495237574
917 727.5033287310479
918 727.5106686476259
919 727.5117720394452
920 727.5188823391642
921 727.5204672202053
922 727.5277623157687
923 727.5291868151115
924 727.5360765143182
925 727.5376987691594
926 727.5449946092597
927 727.546809435339
928 727.5532679695658
929 727.5549733959864
930 727.5618173118113
931 727.5633405725875
932 727.570015280249
933 727.5713022461491
934 727.5782653526562
935 727.5796630302742
936 727.586456411511
937 727.5872698767687
938 727.594757946177
939 727.595194800016
940 727.602553036494
941 727.6026875855401
942 727.6107789620593
943 727.610482513311
944 727.6183147503466
945 727.6180040943207
946 727.6261645221266
947 727.625595038465
948 727.6334274333936
949 727.6325905978292
950 727.6407898270255
951 727.639951667316
952 727.6471601126159
953 727.6461458043154
954 727.6536769119751
955 727.6527078734761
956 727.660063290076
957 727.6590164666683
958 727.6662291639627
959 727.6647182911472
960 727.6719149508265
961 727.670729491763
962 727.6788063193144
963 727.6773854130275
964 727.684899432479
965 727.6834678065902
966 727.6915520633297
967 727.6901848709036
968 727.6978231604246
969 727.6960145315338
970 727.7035901044948
971 727.7021992814584
972 727.709149544442
973 727.7078537686684
974 727.7147769978701
975 727.7138683681848
976 727.7199019007754
977 727.7194615468162
978 727.7256852511249
979 727.7249573948585
980 727.7308582607113
981 727.7307969886858
982 727.7365398899861
983 727.7360401186598
984 727.7414542641127
985 727.741232349246
986 727.747371631974
987 727.7469798353872
988 727.7527147161004
989 727.7521677728018
990 727.7582689615622
991 727.7581341437034
992 727.7640924373786
993 727.7635588953036
994 727.7696298481917
995 727.7689252610538
996 727.7753281939381
997 727.7747094075035
998 727.7809881911598
999 727.7796756604079
1000 727.7854431312712
1001 727.7839428660401
1002 727.7902682128458
1003 727.7885491964695
1004 727.7949733476785
1005 727.7939023565594
1006 727.8000335462854
1007 727.7989716189193
1008 727.8046630322841
1009 727.8034031261019
1010 727.8094876896131
1011 727.8089738217907
1012 727.8143141697626
1013 727.81340333793
1014 727.8192326305741
1015 727.8185482301639
1016 727.8238686331725
1017 727.8232301001158
1018 727.8285438714328
1019 727.8274108130806
1020 727.8326209564939
1021 727.8317475776402
1022 727.837070887553
1023 727.8361883312989
1024 727.8410302627578
1025 727.8403412112979
1026 727.8452567752845
1027 727.8445065897891
1028 727.8498497992256
1029 727.8488758213405
1030 727.8538608592808
1031 727.8530325667449
1032 727.8573541840638
1033 727.8561454416572
1034 727.8615160188617
1035 727.8601818014643
1036 727.8650782563965
1037 727.8637104142383
1038 727.8689311914892
1039 727.8669514493613
1040 727.872791761848
1041 727.8707196185007
1042 727.8765124798981
1043 727.8744243332003
1044 727.8803537307949
1045 727.8779413890368
1046 727.884618907216
1047 727.881946932013
1048 727.8886534784483
1049 727.8856304827113
1050 727.893284762727
1051 727.890006658066
1052 727.8972607642665
1053 727.8936542156102
1054 727.901271462081
1055 727.8978425430579
1056 727.9049490636115
1057 727.9012576396792
1058 727.9084897193662
1059 727.9048033226642
1060 727.911358240174
1061 727.9078839765898
1062 727.9146128718169
1063 727.9113655234262
1064 727.9180175619796
1065 727.9149538977855
1066 727.9212829330345
1067 727.9185635317033
1068 727.9245392636731
1069 727.9218972897761
1070 727.927699270453
1071 727.9258022636957
1072 727.9303795647617
1073 727.9286803064717
1074 727.9335784517029
1075 727.9322405575059
1076 727.9364625593155
1077 727.9350137857429
1078 727.9399028884988
1079 727.9382777391594
1080 727.9425417029353
1081 727.9411596434023
1082 727.9460695960721
1083 727.9443769294701
1084 727.9484988414271
1085 727.9467504013123
1086 727.9510246924555
1087 727.9492680314537
1088 727.9536054834839
1089 727.9519436586206
1090 727.9564321309473
1091 727.9547081347952
1092 727.9589944114865
1093 727.9575959358137
1094 727.9623672437157
1095 727.96112522357
1096 727.9652386660355
1097 727.9637050418255
1098 727.9686263115543
1099 727.9668180601871
1100 727.9714735709424
1101 727.9692192112949
1102 727.9745992817121
1103 727.9719141287377
1104 727.977194036272
1105 727.9742472564618
1106 727.9795760871322
1107 727.9768535291223
1108 727.9824663077789
1109 727.9794941319292
1110 727.9851239057061
1111 727.9825923955667
1112 727.9876392702326
1113 727.9850266676906
1114 727.9902798155166
1115 727.9882782687441
1116 727.992496284989
1117 727.9904748284596
1118 727.9951375808851
1119 727.9932074892598
1120 727.9970410638908
1121 727.9951015492397
1122 727.9994834388999
1123 727.9980034331559
1124 728.0017179589184
1125 728.0002720099258
1126 728.0040030872901
1127 728.0024518213614
1128 728.0063951562471
1129 728.0048805002555
1130 728.0091241864766
1131 728.0071939433559
1132 728.0112752374183
1133 728.0087790408895
1134 728.0133680346149
1135 728.0107816263245
1136 728.0150134203847
1137 728.0125003751931
1138 728.0176236426689
1139 728.0145756865043
1140 728.0193332856832
1141 728.0164817301421
1142 728.0220023755439
1143 728.0193248257716
1144 728.0246259296715
1145 728.0212121998636
1146 728.0264670278613
1147 728.0230700763885
1148 728.0285825250633
1149 728.0248345866299
1150 728.0304278727369
1151 728.0267354301684
1152 728.0322601221183
1153 728.0283125940075
1154 728.0341935587261
1155 728.030698940311
1156 728.0361665572624
1157 728.0318523328398
1158 728.0382226806065
1159 728.033971056914
1160 728.0395082471188
1161 728.0355263051215
1162 728.0410633760214
1163 728.0373853553332
1164 728.0427742931695
1165 728.0395945479792
1166 728.0445393363352
1167 728.0412900144163
1168 728.0464171025967
1169 728.0432468708926
1170 728.0480810185345
1171 728.0455685267051
1172 728.0502234405327
1173 728.0476659016216
1174 728.0525212953886
1175 728.0492659853608
1176 728.0544977897976
1177 728.0513188901164
1178 728.0568840218403
1179 728.0533306649314
1180 728.0584380548709
1181 728.054833427583
1182 728.0605017047034
1183 728.0571883560863
1184 728.0620793463239
1185 728.0590576339597
1186 728.0634148506888
1187 728.0603659923415
1188 728.0647182232385
1189 728.0619677061532
1190 728.0659747102692
1191 728.0634812522055
1192 728.0668076818102
1193 728.0650015797959
1194 728.068052549819
1195 728.0663444764234
1196 728.0690741061294
1197 728.0674262033283
1198 728.0709942348287
1199 728.0690750606943
1200 728.0718666025385
1201 728.070053180048
1202 728.073818836085
1203 728.0716309867609
1204 728.074920892495
1205 728.0725449206305
1206 728.0762742105537
1207 728.0737423793565
1208 728.0776193062603
1209 728.0747075269251
1210 728.0789246481086
1211 728.0760128634364
1212 728.0804741079536
1213 728.0776906865281
1214 728.0823957231602
1215 728.079258418675
1216 728.0834515085621
1217 728.0801560990284
1218 728.0846769868252
1219 728.0817253296219
1220 728.0855334446695
1221 728.0826004889263
1222 728.0868730862322
1223 728.0837510997184
1224 728.0876888011391
1225 728.084545767671
1226 728.0890057201026
1227 728.0855551050228
1228 728.0902179381263
1229 728.0864899702893
1230 728.0915826818879
1231 728.0879746153817
1232 728.0932304597254
1233 728.0891212742363
1234 728.0945563510321
1235 728.0901765143324
1236 728.0955680461811
1237 728.0914315225712
1238 728.0973076239671
1239 728.0928441330735
1240 728.0980366308182
1241 728.0936769718971
1242 728.0994456671923
1243 728.0951027229005
1244 728.100834156982
1245 728.0962922589672
1246 728.1018296232855
1247 728.097540613295
1248 728.1027719001404
1249 728.098397775101
1250 728.1039578374235
1251 728.1001488827823
1252 728.1051514819421
1253 728.1007340959003
1254 728.1058076181303
1255 728.1017161346632
1256 728.1068270987553
1257 728.1025597189149
1258 728.1076104360487
1259 728.1036465693862
1260 728.1082594187396
1261 728.104243220786
1262 728.1096748792241
1263 728.105619337265
1264 728.1103670123864
1265 728.106411175208
1266 728.1115494411484
1267 728.1072935553474
1268 728.1115527960676
1269 728.107852327509
1270 728.1123989272583
1271 728.108947529617
1272 728.1131256045005
1273 728.1095673693111
1274 728.1137101832576
1275 728.1103550916674
1276 728.1144270449219
1277 728.1110242945144
1278 728.1154312233446
1279 728.1113198891733
1280 728.1157443518917
1281 728.112153283913
1282 728.1169636077428
1283 728.1130483318352
1284 728.1176743596355
1285 728.1137250508854
1286 728.1187231212526
1287 728.1151032584189
1288 728.1200007406436
1289 728.1161469183927
1290 728.120736887074
1291 728.1176507594998
1292 728.1220840846473
1293 728.1190398204993
1294 728.1231407990452
1295 728.1202320435768
1296 728.1240348596199
1297 728.1208343538889
1298 728.125057705067
1299 728.1215280433436
1300 728.1256383278076
1301 728.1221791431802
1302 728.1261157825398
1303 728.122574684323
1304 728.1268348892015
1305 728.1235504827575
1306 728.1281170260417
1307 728.1247830481187
1308 728.1285699214835
1309 728.125156191799
1310 728.1292723358209
1311 728.1261211534049
1312 728.1298714018936
1313 728.1268512482608
1314 728.130636198026
1315 728.1276074855483
1316 728.1308897907008
1317 728.1278936495568
1318 728.1314758519978
1319 728.1286369183873
1320 728.1316513082845
1321 728.1293574113022
1322 728.132775947794
1323 728.1302326152831
1324 728.1336082351809
1325 728.130514384766
1326 728.1342259782259
1327 728.1311867041095
1328 728.1350552812431
1329 728.1317321037995
1330 728.1358683130931
1331 728.1324261767624
1332 728.1362529110523
1333 728.1322824255153
1334 728.1367642906969
1335 728.1327895957473
1336 728.1370075854639
1337 728.1327584747738
1338 728.1374711217233
1339 728.1329107766694
1340 728.1375392970284
1341 728.1332949413724
1342 728.1384784142181
1343 728.1337597609968
1344 728.1389915529088
1345 728.1344577417933
1346 728.1396903850592
1347 728.1352596090127
1348 728.1404925447703
1349 728.1359457731946
1350 728.1414585654945
1351 728.1369103938378
1352 728.14197034797
1353 728.1371547121772
1354 728.1430449954715
1355 728.1381241714373
1356 728.1436999936844
1357 728.1382030572794
1358 728.1442029859835
1359 728.1389457210806
1360 728.1445197592476
1361 728.1390403068795
1362 728.1453509614765
1363 728.14019751366
1364 728.1454440141237
1365 728.1404405530333
1366 728.1456898602314
1367 728.1410607395287
1368 728.145967876803
1369 728.1420715916286
1370 728.1463326922344
1371 728.1429542328173
1372 728.1465234437939
1373 728.14275300805
1374 728.1467456166566
1375 728.1432940158903
1376 728.1467826144466
1377 728.1430182348973
1378 728.1471270991992
1379 728.1433834343279
1380 728.1473666060307
1381 728.143499673736
1382 728.1483752703821
1383 728.1442686332158
1384 728.1485971744399
1385 728.1444135137195
1386 728.1489775463879
1387 728.1448589152329
1388 728.1491492956878
1389 728.1455841994489
1390 728.1503602946367
1391 728.1464787571072
1392 728.1507464740865
1393 728.1469419926292
1394 728.151118734835
1395 728.147696401963
1396 728.1514795759178
1397 728.1477518452591
1398 728.1518187523441
1399 728.1482652558246
1400 728.1518522470162
1401 728.1480877858896
1402 728.1520175338657
1403 728.1484253113969
1404 728.1521917866924
1405 728.148954783368
1406 728.1527678700829
1407 728.1494343760824
1408 728.1531137117923
1409 728.1498807422303
1410 728.1537464336963
1411 728.1505813585278
1412 728.1538850765293
1413 728.1500991150584
1414 728.1543956586255
1415 728.1503061900098
1416 728.154382723808
1417 728.1502023451243
1418 728.1547352057742
1419 728.1506909236475
1420 728.1546082566003
1421 728.150828339129
1422 728.1555146799875
1423 728.1517860921
1424 728.155455089101
1425 728.1517607935962
1426 728.1558579613204
1427 728.1519825042157
1428 728.1555514255142
1429 728.1517281691553
1430 728.1559546665754
1431 728.1520768023604
1432 728.1563405062108
1433 728.1524872375087
1434 728.1567926490206
1435 728.1527322344691
1436 728.1572158187859
1437 728.152922976643
1438 728.1577445092203
1439 728.1535200050683
1440 728.157832582348
1441 728.1532577599584
1442 728.1585175956025
1443 728.1534867061102
1444 728.158833779941
1445 728.1532353906641
1446 728.1587481773241
1447 728.1532579968881
1448 728.1586660902746
1449 728.1533874465202
1450 728.1589352101191
1451 728.1539729255933
1452 728.1591779224675
1453 728.1545185617371
1454 728.1593830572564
1455 728.1548963844602
1456 728.1591997018476
1457 728.154791857339
1458 728.1588138670356
1459 728.1550016183834
1460 728.1579820808316
1461 728.1544132199361
1462 728.1585746579434
1463 728.1552806539887
1464 728.1583734322431
1465 728.155324971441
1466 728.159049414688
1467 728.1560680658639
1468 728.1595530093651
1469 728.1567324079259
1470 728.1603292551767
1471 728.157221976062
1472 728.1609520564537
1473 728.1572880011636
1474 728.161449124788
1475 728.1577332322014
1476 728.1622082775056
1477 728.1581144918057
1478 728.1630163525996
1479 728.158781720247
1480 728.1632132968365
1481 728.1589321711715
1482 728.164185113947
1483 728.1601110265689
1484 728.1643202388029
1485 728.159956751888
1486 728.1648295411069
1487 728.1602025634304
1488 728.1644684607614
1489 728.1603805977793
1490 728.1646768339657
1491 728.160578174329
1492 728.1648690092933
1493 728.1606216166185
1494 728.1648644143146
1495 728.1608758349349
1496 728.1650277154189
1497 728.1610327854897
1498 728.1654278657895
1499 728.1617137049741
1500 728.1653611928767
1501 728.1613243782402
1502 728.1660911135799
1503 728.1618267559624
1504 728.1658289750541
1505 728.1613987428389
1506 728.1662868648832
1507 728.1616740644426
1508 728.1658997036678
1509 728.1617744678139
1510 728.1663713609634
1511 728.1625089506487
1512 728.1666774669301
1513 728.1629363315568
1514 728.166790627746
1515 728.1631842539584
1516 728.1665835536544
1517 728.1633599297948
1518 728.1666579802402
1519 728.1634000609804
1520 728.1663004835984
1521 728.163386166444
1522 728.1671838071077
1523 728.1638658118884
1524 728.1670050355807
1525 728.1638719462662
1526 728.1671550061499
1527 728.1635476800357
1528 728.1665694543271
1529 728.163027273122
1530 728.1667751888365
1531 728.1632663991494
1532 728.1667938590548
1533 728.1632098446363
1534 728.1674155646846
1535 728.1630908847487
1536 728.1677287574039
1537 728.163435073575
1538 728.1687090292704
1539 728.1639445664699
1540 728.1687577632642
1541 728.163733003297
1542 728.169693334835
1543 728.164626522987
1544 728.1694094420945
1545 728.1647297450658
1546 728.1701922077131
1547 728.1656541029224
1548 728.1704748693821
1549 728.1663163201041
1550 728.1710679247288
1551 728.1673450738829
1552 728.171557718798
1553 728.1673640187677
1554 728.171380942069
1555 728.1678130649187
1556 728.171326487453
1557 728.1676872956763
1558 728.171545433016
1559 728.1679246674225
1560 728.1709581664674
1561 728.168048731531
1562 728.1714102575932
1563 728.1683624720827
1564 728.1712007970705
1565 728.1678391326353
1566 728.1717541118642
1567 728.1682165651745
1568 728.1713775903138
1569 728.1674317505801
1570 728.1713577162164
1571 728.1676692227728
1572 728.1716769388415
1573 728.1674106152624
1574 728.1716358030001
1575 728.1672148613156
1576 728.1716491948232
1577 728.1665232108696
1578 728.1714193984089
1579 728.1664704757667
1580 728.1711227791483
1581 728.1657981814107
1582 728.1715241736808
1583 728.1662742412014
1584 728.1713672213994
1585 728.1660997557871
1586 728.1722118023421
1587 728.1662824455776
1588 728.1721636876213
1589 728.166497274311
1590 728.1728060680824
1591 728.1673302161872
1592 728.1732037984536
1593 728.1677105111567
1594 728.1738236196927
1595 728.1684323475286
1596 728.1738898200202
1597 728.1688260130803
1598 728.174250797788
1599 728.1694700630203
1600 728.1739827417995
1601 728.169302837721
1602 728.173964277318
1603 728.1697888623214
1604 728.1732329425835
1605 728.1691605139681
1606 728.1731434680453
1607 728.1692871328107
1608 728.1721966665076
1609 728.1688766617002
1610 728.1728920471254
1611 728.169909354522
1612 728.1734729225628
1613 728.1703158036075
1614 728.1736143851967
1615 728.1705578831572
1616 728.1736498422027
1617 728.1701893433093
1618 728.1737049290484
1619 728.1701995600733
1620 728.1736438860506
1621 728.1704359171119
1622 728.1742415108621
1623 728.1702838642011
1624 728.1739336981631
1625 728.1702918685811
1626 728.1742652653556
1627 728.1708062393724
1628 728.173944149611
1629 728.1709274953821
1630 728.173967780929
1631 728.1716037950492
1632 728.174288519138
1633 728.1720921516913
1634 728.1746443532917
1635 728.1721898648746
1636 728.1749088739158
1637 728.1721288914297
1638 728.1752731432598
1639 728.1724446607174
1640 728.1751931310323
1641 728.1722884237704
1642 728.1758539808644
1643 728.1725771882936
1644 728.1762113555704
1645 728.1723374122106
1646 728.176795824239
1647 728.1725714449408
1648 728.176338569291
1649 728.1719013569035
1650 728.1766695237827
1651 728.1720035282465
1652 728.1766999619783
1653 728.1718718619146
1654 728.1767802524263
1655 728.1716814135087
1656 728.1769113153471
1657 728.1716557825631
1658 728.1773769898512
1659 728.1720396474678
1660 728.1775095791133
1661 728.1722837033745
1662 728.1781036337845
1663 728.1725796578684
1664 728.1780268591347
1665 728.1723542860053
1666 728.1783478784495
1667 728.1726368716613
1668 728.1782564305169
1669 728.172524829906
1670 728.1787393248076
1671 728.1731445271763
1672 728.1791101506117
1673 728.1734643437521
1674 728.1795132200458
1675 728.1738715160805
1676 728.1796465658164
1677 728.1741851773284
1678 728.1797850816048
1679 728.1746069791102
1680 728.1797404750603
1681 728.1749008255763
1682 728.1803407094529
1683 728.1755313046981
1684 728.1804436966547
1685 728.1760521048653
1686 728.1809294865662
1687 728.1769634642042
1688 728.180524788
1689 728.1767982900578
1690 728.1807166805795
1691 728.1771033587858
1692 728.1800972771188
1693 728.1767095993912
1694 728.1796607093954
1695 728.1763067051264
1696 728.1789609653648
1697 728.1753122351247
1698 728.1788075659063
1699 728.1757287653775
1700 728.1783616366524
1701 728.1755361068376
1702 728.1785375691494
1703 728.1754239584844
1704 728.1786540999148
1705 728.1761679949806
1706 728.1792906950425
1707 728.1772940632729
1708 728.1799128182445
1709 728.1775334632557
1710 728.1807089683638
1711 728.1782581474055
1712 728.1809942755696
1713 728.1780092775882
1714 728.1813873777774
1715 728.1780769984531
1716 728.1809681085545
1717 728.1771845092413
1718 728.1807041446293
1719 728.1770228146622
1720 728.1806343303236
1721 728.1764190425851
1722 728.1803873621551
1723 728.176471449554
1724 728.1802587456707
1725 728.1759438118768
1726 728.1805059676485
1727 728.176497040971
1728 728.1802640164282
1729 728.1761556576488
1730 728.1806231566748
1731 728.1765684781245
1732 728.1807483753346
1733 728.1763054130051
1734 728.1808342696662
1735 728.176922967909
1736 728.1810218566608
1737 728.1763178247663
1738 728.181016022211
1739 728.1769422709197
1740 728.1809706343271
1741 728.1772625292946
1742 728.1815864541989
1743 728.1778039706826
1744 728.1815787030623
1745 728.1776623257349
1746 728.1816666977451
1747 728.178125499395
1748 728.1813223182132
1749 728.1778029816667
1750 728.1817553707415
1751 728.178092669846
1752 728.1815424307828
1753 728.1780195407449
1754 728.1820686649744
1755 728.1784470441161
1756 728.1821858207231
1757 728.1782892673741
1758 728.182082444322
1759 728.1783437475523
1760 728.181873065421
1761 728.1777292078824
1762 728.181636383591
1763 728.1775712603021
1764 728.1811688101326
1765 728.1773974951641
1766 728.181515299098
1767 728.1774155406666
1768 728.1813842684636
1769 728.1770285474192
1770 728.1818427483433
1771 728.1775347160101
1772 728.1821996396286
1773 728.1772985904095
1774 728.1827893224018
1775 728.1775860045121
1776 728.1831513514517
1777 728.1774559575607
1778 728.1835975850784
1779 728.1778219631011
1780 728.1837998819909
1781 728.1781313221082
1782 728.18434171851
1783 728.1783624113262
1784 728.1844100137392
1785 728.1782300754413
1786 728.1845858817798
1787 728.1786951359534
1788 728.1847895410646
1789 728.179063385974
1790 728.1847807462342
1791 728.1793249257915
1792 728.1846523829842
1793 728.1791698943556
1794 728.1845087955461
1795 728.1796076285124
1796 728.1839850124231
1797 728.1790009225546
1798 728.1838810489395
1799 728.1795305737497
1800 728.1838227146558
1801 728.1796540140505
1802 728.1840496828684
1803 728.1800033672251
1804 728.1834832003481
1805 728.1796094532041
1806 728.1833720005554
1807 728.1798723889978
1808 728.1829260950861
1809 728.1798693083833
1810 728.1826231399691
1811 728.179898892412
1812 728.1824131253996
1813 728.1801215399342
1814 728.1825868601003
1815 728.1803137719975
1816 728.1823271865482
1817 728.1800076294179
1818 728.1824537093676
1819 728.1802576609471
1820 728.1821913320426
1821 728.1796520847422
1822 728.1825061438788
1823 728.1798879623085
1824 728.182156984405
1825 728.179677544033
1826 728.1823431313554
1827 728.1795581387216
1828 728.1824953414492
1829 728.1799401542745
1830 728.1832021770175
1831 728.1803239416759
1832 728.1836733248373
1833 728.179965506118
1834 728.1839865125502
1835 728.1796045654928
1836 728.1837015586652
1837 728.1790400946436
1838 728.183494580902
1839 728.1788716229338
1840 728.1836290251151
1841 728.1782819206453
1842 728.1840566884111
1843 728.1782359446827
1844 728.1835320254328
1845 728.1776128358034
1846 728.1839760447745
1847 728.1782558038387
1848 728.1838124727713
1849 728.1781829336019
1850 728.1836471024731
1851 728.1780990565641
1852 728.1832456918557
1853 728.1779303997149
1854 728.1827243216374
1855 728.1774368045604
1856 728.1821726679328
1857 728.1768127036704
1858 728.1820915595691
1859 728.1769524258807
1860 728.1819356455001
1861 728.1764232672226
1862 728.1820552753359
1863 728.1768086719927
1864 728.181889540583
1865 728.1765687276312
1866 728.1818553531697
1867 728.1766456136903
1868 728.1811086136549
1869 728.1758934836899
1870 728.1804474062035
1871 728.1756237180127
1872 728.1799788228833
1873 728.1754992060697
1874 728.1796148070299
1875 728.1752806273164
1876 728.1797424044275
1877 728.1754983833392
1878 728.1801392129208
1879 728.1760926789872
1880 728.1800513973186
1881 728.1758682998434
1882 728.1805759627388
1883 728.1760642068369
1884 728.1800082327738
1885 728.1760877997874
1886 728.1802870278988
1887 728.1766815650004
1888 728.1800221614028
1889 728.1764417319131
1890 728.1801656304975
1891 728.1769652078292
1892 728.1803929574316
1893 728.1769645764923
1894 728.1803106077341
1895 728.1769917258999
1896 728.1804527833751
1897 728.1771586776321
1898 728.1804896928487
1899 728.1774026933221
1900 728.1806295612882
1901 728.1772915784869
1902 728.1806471275718
1903 728.1774330600131
1904 728.1803963575319
1905 728.1770987808027
1906 728.1801859681558
1907 728.1769781496668
1908 728.1794437692512
1909 728.1763667509277
1910 728.1793245436735
1911 728.1764687444415
1912 728.1791973065077
1913 728.1758089338771
1914 728.1791178591338
1915 728.1754429601859
1916 728.1790310174609
1917 728.1749272646402
1918 728.1791370493248
1919 728.1748097519593
1920 728.1792471478801
1921 728.1748709270895
1922 728.1796817618316
1923 728.1753234245167
1924 728.1798052571233
1925 728.1754749961761
1926 728.1802368940394
1927 728.1759483591478
1928 728.1800972641277
1929 728.1758712110739
1930 728.1803302157465
1931 728.1758679065446
1932 728.1801626160407
1933 728.1756831864788
1934 728.1798100109877
1935 728.1753417016132
1936 728.179723919658
1937 728.1747320446525
1938 728.1795870270577
1939 728.1747453866369
1940 728.179549121739
1941 728.1748294244752
1942 728.1796251169542
1943 728.1747344895367
1944 728.1797483979835
1945 728.1749455572245
1946 728.1800718911289
1947 728.1754783483551
1948 728.1799052740243
1949 728.1755480319396
1950 728.1801406478822
1951 728.1761088939592
1952 728.1801685599991
1953 728.1760854161164
1954 728.1797544280704
1955 728.1761609892757
1956 728.179602051895
1957 728.1762240983238
1958 728.1793338243622
1959 728.1760114155436
1960 728.179004126258
1961 728.1755975335807
1962 728.1790286186083
1963 728.1759900385615
1964 728.1790472640376
1965 728.1761771181351
1966 728.1796613236093
1967 728.176754008354
1968 728.1795797214149
1969 728.1762999994542
1970 728.1799172489372
1971 728.1768193041894
1972 728.1801753799509
1973 728.1764338969692
1974 728.1803712562487
1975 728.1766251549699
1976 728.1806982395183
1977 728.1761994782706
1978 728.1815320776923
1979 728.1769095786485
1980 728.182405683084
1981 728.1772419162239
1982 728.1828878672511
1983 728.1768881922096
1984 728.1827425827702
1985 728.1764958967683
1986 728.1827583039311
1987 728.1765198975314
1988 728.1817008980593
1989 728.1755817093767
1990 728.1816282047902
1991 728.1757679307455
1992 728.1812488262981
1993 728.1757373613235
1994 728.1813484138275
1995 728.1765681613492
1996 728.1814514265998
1997 728.1762371844164
1998 728.1816100488142
1999 728.177300169074
2000 728.181749271869
2001 728.1773012155113
2002 728.181827320705
2003 728.1771539086425
2004 728.1813334505036
2005 728.1768898429868
2006 728.1813059820548
2007 728.1769788276877
2008 728.1815260108555
2009 728.1771499640398
2010 728.1813841811473
2011 728.1774957881526
2012 728.1812931268529
2013 728.1773090296016
2014 728.1816321986505
2015 728.177694035112
2016 728.1814063560968
2017 728.1773547429638
2018 728.1814159326154
2019 728.1779906081238
2020 728.1817901794466
2021 728.1782817251685
2022 728.1823004836697
2023 728.1789367734405
2024 728.1826100327493
2025 728.1791217334574
2026 728.1831582546752
2027 728.179249338526
2028 728.1828289525766
2029 728.1793058977883
2030 728.1829879129576
2031 728.1795370100342
2032 728.1823009309632
2033 728.1784618526546
2034 728.1818894466227
2035 728.1783472158627
2036 728.1814223978581
2037 728.1776456279969
2038 728.1816167015079
2039 728.1782445662184
2040 728.1821224711705
2041 728.1785921714303
2042 728.1829017672311
2043 728.1789144384702
2044 728.1831200561769
2045 728.1792216610191
2046 728.1835255115151
2047 728.1797370788498
2048 728.1838810278102
2049 728.179779523047
2050 728.1836637528555
2051 728.1797711746163
2052 728.1835009971852
2053 728.1795487533667
2054 728.183633384883
2055 728.1798949711489
2056 728.1836486389578
2057 728.1791571729375
2058 728.1836804448567
2059 728.1792789560694
2060 728.1836807242696
2061 728.1789172724165
2062 728.1836412371553
2063 728.1787310868062
2064 728.1833190308241
2065 728.1785326633305
2066 728.1836493366479
2067 728.1789260234706
2068 728.1843505861513
2069 728.1793766238336
2070 728.1847939480763
2071 728.1798183888914
2072 728.1851360293347
2073 728.1798264525501
2074 728.18504931651
2075 728.1800350576153
2076 728.1847214244743
2077 728.1796583350938
2078 728.1847397067626
2079 728.1801679240393
2080 728.1849699613841
2081 728.1801407072802
2082 728.1850899943439
2083 728.1803343662236
2084 728.1847400857566
2085 728.1803267843535
2086 728.1849359768051
2087 728.1806117462526
2088 728.1846451165964
2089 728.1808156280343
2090 728.1845492009703
2091 728.1809174109193
2092 728.184565247309
2093 728.1809032126617
2094 728.1846208783221
2095 728.1814227711654
2096 728.1841003103551
2097 728.1807643861695
2098 728.1838956722305
2099 728.1807617389305
2100 728.1840468108145
2101 728.1808474622248
2102 728.184044342118
2103 728.180510968932
2104 728.1835479673257
2105 728.1796970748652
2106 728.182967760666
2107 728.1790200068853
2108 728.1823764610376
2109 728.1786220838247
2110 728.1822981363503
2111 728.178669154144
2112 728.1823220052082
2113 728.1787242777194
2114 728.1827227736488
2115 728.1789984964246
2116 728.1827673708033
2117 728.178775299393
2118 728.1831701542626
2119 728.1793673949566
2120 728.1833835695404
2121 728.1792384161138
2122 728.1837498417684
2123 728.1791363953945
2124 728.1836849938394
2125 728.1794488899752
2126 728.1840205168769
2127 728.1798089167189
2128 728.1840656496809
2129 728.1802332856697
2130 728.1842401496594
2131 728.1807453166422
2132 728.184698144545
2133 728.1813214743132
2134 728.1850079666855
2135 728.1817547779362
2136 728.1847221250226
2137 728.1814134844127
2138 728.1848134973362
2139 728.1819953884024
2140 728.1847314066063
2141 728.181525874935
2142 728.1851346899806
2143 728.1818732708551
2144 728.1849538914298
2145 728.1814068716552
2146 728.1850619435403
2147 728.181456172664
2148 728.1843742621967
2149 728.1811018356975
2150 728.1841544686556
2151 728.1807590180784
2152 728.1841313603101
2153 728.1807532721527
2154 728.1845325565984
2155 728.1809752398552
2156 728.1846646464286
2157 728.1804601239205
2158 728.1851007969075
2159 728.1809273419722
2160 728.1854131955537
2161 728.1808986409333
2162 728.1860200315834
2163 728.180926677411
2164 728.1856521162689
2165 728.1806429422978
2166 728.1860735179145
2167 728.180908606034
2168 728.1859707467112
2169 728.180834339622
2170 728.1862099043309
2171 728.1807697982082
2172 728.1859856182398
2173 728.181274293003
2174 728.1862516754112
2175 728.181335632701
2176 728.1860840035422
2177 728.1810521915772
2178 728.1860732347892
2179 728.1814576173321
2180 728.1859547496358
2181 728.1813299356786
2182 728.1861760800256
2183 728.1812186200315
2184 728.185540461964
2185 728.1807346170482
2186 728.185687101301
2187 728.180825885446
2188 728.1857684055129
2189 728.1810561369659
2190 728.1859942978908
2191 728.1812509628026
2192 728.1860244252497
2193 728.1812174313516
2194 728.1858747681296
2195 728.1810901445209
2196 728.1848119666876
2197 728.1802999990583
2198 728.1846258274178
2199 728.1805946184874
2200 728.1843556811924
2201 728.1800398430765
2202 728.184622011515
2203 728.1805652769423
2204 728.1844471719047
2205 728.1801056948788
2206 728.1847300491645
2207 728.1803946513367
2208 728.1842384776835
2209 728.1802739613285
2210 728.1838287030372
2211 728.1797110290887
2212 728.1834838306793
2213 728.1789799660913
2214 728.1829059459567
2215 728.1786881358059
2216 728.1821109392816
2217 728.1775587403014
2218 728.1817415079728
2219 728.1775548124137
2220 728.1813954395479
2221 728.1774650978199
2222 728.1818937054712
2223 728.1778514917531
2224 728.1818103433536
2225 728.1776549411048
2226 728.1820939884408
2227 728.1784113298851
2228 728.1820824101352
2229 728.1783956470862
2230 728.1820254013362
2231 728.1780112965976
2232 728.1817499603521
2233 728.1781527164574
2234 728.1815323944038
2235 728.1775705103184
2236 728.1811202543106
2237 728.1771134360622
2238 728.1809091388371
2239 728.1773444825137
2240 728.1810562772946
2241 728.1770986618203
2242 728.181625581585
2243 728.1771577974993
2244 728.1809538851676
2245 728.1765236496391
2246 728.1810833659212
2247 728.1766863764274
2248 728.1808675049438
2249 728.1762378817862
2250 728.1804830317928
2251 728.175926120976
2252 728.1799881454107
2253 728.1756686567561
2254 728.1799412225544
2255 728.1755831637405
2256 728.1798164035256
2257 728.1758856789287
2258 728.1799256016819
2259 728.1759509251812
2260 728.1798776040212
2261 728.176231514725
2262 728.1805704599369
2263 728.1767310259451
2264 728.1801813040072
2265 728.1765129494983
2266 728.1805922103873
2267 728.176509262133
2268 728.1803242442305
2269 728.1765621007684
2270 728.180556765848
2271 728.1763939785955
2272 728.1804503885623
2273 728.1761737341955
2274 728.1806470950953
2275 728.1758147136538
2276 728.1802862783085
2277 728.1757212454181
2278 728.1803602688029
2279 728.1759266371614
2280 728.1804832117917
2281 728.1755810352497
2282 728.1804554209966
2283 728.1756549910878
2284 728.1796487076093
2285 728.1750397122388
2286 728.1794982477845
2287 728.1751619519374
2288 728.1791282672889
2289 728.1752176751862
2290 728.1790779017872
2291 728.1748548754629
2292 728.1788092648526
2293 728.1748662920584
2294 728.1787890189566
2295 728.1747218748266
2296 728.1785091801994
2297 728.1743463023264
2298 728.1782273245543
2299 728.1745173175831
2300 728.1782477031394
2301 728.1744471170865
2302 728.1788484043509
2303 728.1746505590262
2304 728.1782463799177
2305 728.1741889225113
2306 728.178507823488
2307 728.1744459486451
2308 728.1787504980109
2309 728.1746457687584
2310 728.1792293498505
2311 728.1752984092325
2312 728.1792053529981
2313 728.1754181038425
2314 728.1797453151081
2315 728.1759155397906
2316 728.17991462745
2317 728.1761728920125
2318 728.1799209326117
2319 728.1767274923197
2320 728.1800511929129
2321 728.1764897372117
2322 728.1806456547899
2323 728.1770352882259
2324 728.180329199383
2325 728.1766194311544
2326 728.1807305521717
2327 728.1763119406561
2328 728.1800204677733
2329 728.1758506314741
2330 728.1800820472735
2331 728.1757867494138
2332 728.1797971455842
2333 728.175636359958
2334 728.1798967507552
2335 728.1759934559266
2336 728.1798955782259
2337 728.1761290804966
2338 728.1798810136177
2339 728.176051671704
2340 728.1799243285791
2341 728.1762374846816
2342 728.1803253459443
2343 728.1764213903748
2344 728.1796871093461
2345 728.17581109117
2346 728.1798553484005
2347 728.1759542679155
2348 728.1796483185734
2349 728.1757542188905
2350 728.1799632241444
2351 728.1760408246057
2352 728.1799863388096
2353 728.1757342984505
2354 728.1798687789184
2355 728.1758432655672
2356 728.1800337389667
2357 728.1762434429503
2358 728.1800328224894
2359 728.1767427210425
2360 728.1807398635061
2361 728.1772704464684
2362 728.1815370999045
2363 728.1780734654615
2364 728.1815855697938
2365 728.1778294804935
2366 728.1820788501283
2367 728.1782960073721
2368 728.1823195136677
2369 728.1781898054418
2370 728.1825436547933
2371 728.1786000183491
2372 728.1826744229757
2373 728.1782012297447
2374 728.1830739015195
2375 728.1784662086076
2376 728.1831376050426
2377 728.1779921838128
2378 728.1830112026179
2379 728.1778390902797
2380 728.1832444350408
2381 728.1778856871967
2382 728.1839278331551
2383 728.17847125169
2384 728.1838850711432
2385 728.1784753477797
2386 728.1844605850503
2387 728.1790309433109
2388 728.1844815161946
2389 728.1788161364515
2390 728.1843582666868
2391 728.1792906536582
2392 728.1843751011546
2393 728.1786480974932
2394 728.1842256024822
2395 728.1791856212136
2396 728.1839947763918
2397 728.1792426041337
2398 728.1837937341418
2399 728.1792350270739
2400 728.1833629026673
2401 728.1789850247361
2402 728.1828411934558
2403 728.1786954358209
2404 728.1825446257917
2405 728.1786954772735
2406 728.1824220528937
2407 728.1786407748481
2408 728.1821895661062
2409 728.178867692083
2410 728.1825185005151
2411 728.1794345544102
2412 728.1825594407914
2413 728.1792546207654
2414 728.1825844116199
2415 728.1789753573848
2416 728.1823040716437
2417 728.1786638716972
2418 728.1825525976205
2419 728.1787509493337
2420 728.1824448583062
2421 728.1789165767652
2422 728.1828496013954
2423 728.1790577161751
2424 728.1824921002135
2425 728.1791871436552
2426 728.1829357599453
2427 728.1794132767056
2428 728.1830767703414
2429 728.1799353085971
2430 728.1836780106429
2431 728.1807405158661
2432 728.1838691792752
2433 728.1801958950834
2434 728.184152691974
2435 728.1806599063704
2436 728.1845621902704
2437 728.1806876449068
2438 728.1845459859095
2439 728.1807530358152
2440 728.1850004451909
2441 728.1806299953289
2442 728.1849303446521
2443 728.1805903622477
2444 728.1846859467521
2445 728.1804676620173
2446 728.1848411485075
2447 728.1802941421195
2448 728.1846122664693
2449 728.1802680411658
2450 728.1845280699382
2451 728.180222805868
2452 728.1842563056372
2453 728.1793746357005
2454 728.184313056722
2455 728.1798251356703
2456 728.1844624855291
2457 728.179983446504
2458 728.1846768684401
2459 728.180110403067
2460 728.1845890272584
2461 728.1803570639182
2462 728.1849788147256
2463 728.180148312561
2464 728.1844945757898
2465 728.1801700460918
2466 728.1845179829215
2467 728.1801349144058
2468 728.1841185517449
2469 728.1799385306143
2470 728.1844816348887
2471 728.1803435846748
2472 728.1842628781186
2473 728.1796190888696
2474 728.1839458931589
2475 728.1795805155316
2476 728.1835463969985
2477 728.1787453982874
2478 728.1832330143534
2479 728.1793689889968
2480 728.1831448186865
2481 728.1788979590052
2482 728.1836471306568
2483 728.1793450859907
2484 728.1835437622092
2485 728.1796200264826
2486 728.1834079201366
2487 728.1795958006884
2488 728.1832331019405
2489 728.1798758105792
2490 728.1835848524241
2491 728.1803132368223
2492 728.1837575342336
2493 728.1804566818683
2494 728.1838807521142
2495 728.181043121575
2496 728.1842727078827
2497 728.1809835538257
2498 728.1847707501161
2499 728.1814447825982
2500 728.1849300447019
2501 728.1812790632117
2502 728.1853998634982
2503 728.1814865018372
2504 728.1850722607475
2505 728.1811412201573
2506 728.1851886981193
2507 728.1811733814056
2508 728.1851078044112
2509 728.1812272972331
2510 728.1850513177909
2511 728.1810848202097
2512 728.1850153970993
2513 728.1803325668839
2514 728.1847112551172
2515 728.1803898803178
2516 728.1845293469539
2517 728.1793977114406
2518 728.1845071943743
2519 728.1796961716248
2520 728.184071930022
2521 728.1791204933409
2522 728.1841803743389
2523 728.1793494942239
2524 728.1840328526126
2525 728.1792243422047
2526 728.18401892514
2527 728.1793788214784
2528 728.1837311223459
2529 728.1796143535374
2530 728.1838718221398
2531 728.1799860938903
2532 728.1836886805879
2533 728.1794976381881
2534 728.1835698409894
2535 728.1795656189042
2536 728.1831727019876
2537 728.1789457779678
2538 728.1831439552585
2539 728.1796221545642
2540 728.1831129677371
2541 728.1797069782591
2542 728.1839097714914
2543 728.1806473590269
2544 728.1842597626891
2545 728.1808663671754
2546 728.1849017390908
2547 728.1810070223368
2548 728.1852834248751
2549 728.181337548966
2550 728.1856941139567
2551 728.1813314662758
2552 728.1856137106701
2553 728.1806279824924
2554 728.1855459773114
2555 728.1806645661374
2556 728.18541780388
2557 728.1801072252847
2558 728.185452040845
2559 728.1805061977589
2560 728.1852629498518
2561 728.1800531491467
2562 728.1851398776517
2563 728.1798930694306
2564 728.1843537539949
2565 728.1796170876175
2566 728.1841637663803
2567 728.1795878143517
2568 728.1838722409232
2569 728.1799486086757
2570 728.1841716427165
2571 728.1801055419347
2572 728.1840684074283
2573 728.1799635254126
2574 728.1841514103412
2575 728.1799664780307
2576 728.1840979955501
2577 728.17978435259
2578 728.1842226531479
2579 728.1798283140844
2580 728.1836169239467
2581 728.1792126280022
2582 728.1833937211486
2583 728.1789028970466
2584 728.1825017741921
2585 728.1780133637286
2586 728.1818052936393
2587 728.1775266215053
2588 728.1810531360907
2589 728.1772664673125
2590 728.1808640582132
2591 728.1768834121615
2592 728.1804669874357
2593 728.1767060865404
2594 728.1801072537579
2595 728.1762366125351
2596 728.179964687764
2597 728.176242584674
2598 728.1802500640415
2599 728.1766813825272
2600 728.180063310537
2601 728.1761795538092
2602 728.1806407011875
2603 728.1764365421952
2604 728.180449193425
2605 728.1762780486412
2606 728.1803867406721
2607 728.1762862811838
2608 728.1802075061937
2609 728.1758038804768
2610 728.1802014100109
2611 728.1759008574954
2612 728.1802037365383
2613 728.1755000219819
2614 728.1804504607019
2615 728.1754942603196
2616 728.1805804800252
2617 728.1758431939827
2618 728.1809575912623
2619 728.1763583673719
2620 728.1807668304226
2621 728.1759746816085
2622 728.1811033536036
2623 728.176675479735
2624 728.1810788088851
2625 728.1765949242587
2626 728.1810238392566
2627 728.1766396308925
2628 728.1808540836784
2629 728.1770240549046
2630 728.180933932326
2631 728.1770354587818
2632 728.1806192518095
2633 728.1765773970827
2634 728.1801038430817
2635 728.1765902235314
2636 728.1798744562315
2637 728.1764939349382
2638 728.1799337162415
2639 728.1767624829143
2640 728.179394032296
2641 728.1762178648819
2642 728.1796018241224
2643 728.1760469249783
2644 728.1788601259661
2645 728.1752555242497
2646 728.1786393033785
2647 728.1753193517499
2648 728.178000981605
2649 728.1743754772609
2650 728.1779718881235
2651 728.1741527072205
2652 728.1775945069978
2653 728.1737891191804
2654 728.1776497136742
2655 728.1737170459809
2656 728.1779114519105
2657 728.1737658582869
2658 728.1783562527432
2659 728.1743087006533
2660 728.1787493502953
2661 728.1740714776548
2662 728.1798736907529
2663 728.1745305967661
2664 728.17941506811
2665 728.1743967707922
2666 728.1799004158177
2667 728.1748452545525
2668 728.1799457198682
2669 728.1752385352096
2670 728.180471060567
2671 728.176117734386
2672 728.1807943327801
2673 728.1760995812301
2674 728.1806275865007
2675 728.1762347550931
2676 728.1804334870667
2677 728.1764290604802
2678 728.1805764185772
2679 728.1766976769519
2680 728.1805150872665
2681 728.1762390971968
2682 728.1809809793377
2683 728.1768754735039
2684 728.1804690673428
2685 728.1764438865777
2686 728.1810093874963
2687 728.1768112377075
2688 728.1806276817376
2689 728.1764802121654
2690 728.1807125732256
2691 728.1767858234091
2692 728.1804348779267
2693 728.1763913672389
2694 728.179894747694
2695 728.1763418383946
2696 728.1799064253813
2697 728.176812327564
2698 728.1806518144996
2699 728.1774458649717
2700 728.1806621076256
2701 728.1772415457845
2702 728.181024476994
2703 728.1772922836643
2704 728.1803902794035
2705 728.1765899630043
2706 728.1804685120186
2707 728.1765044546377
2708 728.1799556984739
2709 728.1760019204007
2710 728.1801759581945
2711 728.1760168293392
2712 728.1800783400854
2713 728.1755461638134
2714 728.1798776124954
2715 728.1756973823867
2716 728.1800084160666
2717 728.1756183762385
2718 728.1800766536364
2719 728.1757583504303
2720 728.1799199417509
2721 728.1757793256073
2722 728.1803592856
2723 728.1759411601433
2724 728.1801187561276
2725 728.1760584737297
2726 728.1809073526347
2727 728.1770446249162
2728 728.1812582828824
2729 728.177375749469
2730 728.1819850816681
2731 728.1785061220187
2732 728.182571227299
2733 728.1785137093249
2734 728.1828501468577
2735 728.1787676089002
2736 728.1829185594603
2737 728.1787459463093
2738 728.1831914787643
2739 728.1788976815751
2740 728.1833305242625
2741 728.1788393487417
2742 728.1838577827826
2743 728.1792462121834
2744 728.1838688415074
2745 728.1792484125669
2746 728.1843483294523
2747 728.1796072573421
2748 728.1840091598782
2749 728.1796243122599
2750 728.1843105625688
2751 728.179673834244
2752 728.1839513567735
2753 728.178849411151
2754 728.1832771458597
2755 728.1785710940381
2756 728.1829623625049
2757 728.1781658440175
2758 728.1829034840274
2759 728.17826648376
2760 728.1828398557881
2761 728.1785728848193
2762 728.1831040736273
2763 728.1787240843792
2764 728.1831670597419
2765 728.1795023826293
2766 728.1838474900102
2767 728.1803332649171
2768 728.1834690911468
2769 728.1800599990805
2770 728.183937956501
2771 728.1805847304989
2772 728.1840420580404
2773 728.1804791172685
2774 728.183667930064
2775 728.1803501649575
2776 728.1838265690639
2777 728.1801489804159
2778 728.183819397076
2779 728.1802608015489
2780 728.1838280596621
2781 728.1795653438163
2782 728.1837834803525
2783 728.1795747893719
2784 728.1834321297044
2785 728.1793597815999
2786 728.1838060958642
2787 728.1794378822144
2788 728.1837197981121
2789 728.1794386633396
2790 728.1841069924168
2791 728.1804352854224
2792 728.1844888468421
2793 728.180245328987
2794 728.1846192502856
2795 728.1806964722107
2796 728.1845864629544
2797 728.1810247525877
2798 728.1847652767489
2799 728.1812183371979
2800 728.1846150114634
2801 728.1808635773521
2802 728.1844801602697
2803 728.1807682291585
2804 728.1838083648381
2805 728.1803753952699
2806 728.1843907401931
2807 728.1803541353042
2808 728.1840241100202
2809 728.1801395082437
2810 728.1845797831635
2811 728.1802396998195
2812 728.184847327101
2813 728.179659373957
2814 728.1848006315133
2815 728.179805024143
2816 728.1848211437868
2817 728.1793328879978
2818 728.18491230289
2819 728.1794966495715
2820 728.1842743811438
2821 728.1793003548395
2822 728.1841729304767
2823 728.1792592936708
2824 728.1835980016226
2825 728.1786871788378
2826 728.1830382496029
2827 728.1787537616442
2828 728.1823199983479
2829 728.1782808212272
2830 728.1822837227273
2831 728.1786192654197
2832 728.1820821189129
2833 728.1778517766288
2834 728.1818023192507
2835 728.1782944478315
2836 728.1817850337824
2837 728.177937959857
2838 728.1820374701975
2839 728.1785553877397
2840 728.1826925345888
2841 728.1788014750693
2842 728.1829983607898
2843 728.178982609827
2844 728.1831310902604
2845 728.1792864258576
2846 728.1839958394027
2847 728.1802715996489
2848 728.18433658641
2849 728.1801711317175
2850 728.1846947739592
2851 728.1806521739519
2852 728.1848969579413
2853 728.1802702509206
2854 728.1847231302751
2855 728.1807878990355
2856 728.184413459811
2857 728.180157326805
2858 728.1847302437634
2859 728.1806557779141
2860 728.1847873955103
2861 728.1806836915913
2862 728.1846457493408
2863 728.1806068986233
2864 728.1844486374175
2865 728.1806458168726
2866 728.1846335711456
2867 728.1812127908232
2868 728.1844079111029
2869 728.1810176478474
2870 728.1846562833646
2871 728.181431931385
2872 728.18447759446
2873 728.1808647633037
2874 728.1848956107602
2875 728.18166328884
2876 728.1852602850295
2877 728.1818639098457
2878 728.1855212012872
2879 728.1823918575591
2880 728.1855045305856
2881 728.1819147542919
2882 728.1855737400273
2883 728.1819170993781
2884 728.1850483760454
2885 728.1810388655277
2886 728.1847588058498
2887 728.1806869222625
2888 728.1845855245685
2889 728.1801985488794
2890 728.1846284382873
2891 728.1801740774529
2892 728.1846936093141
2893 728.1796312530064
2894 728.1845619543824
2895 728.1798202549563
2896 728.1841289367516
2897 728.1788552717834
2898 728.1836915257301
2899 728.1788469891283
2900 728.1833491740567
2901 728.178794943434
2902 728.1834393776381
2903 728.178574495125
2904 728.1836388966408
2905 728.1791546922118
2906 728.1840647217592
2907 728.179329028628
2908 728.1843647183628
2909 728.1797185615959
2910 728.1846905953022
2911 728.1802743270268
2912 728.1850997035883
2913 728.1803603748943
2914 728.1851311552305
2915 728.1803883735099
2916 728.1847488489924
2917 728.1797444469028
2918 728.1845323961491
2919 728.1800281296115
2920 728.1840178061108
2921 728.1790774993211
2922 728.1837006266908
2923 728.1790463325615
2924 728.1830448847032
2925 728.1789190523946
2926 728.1833203484845
2927 728.1791596599394
2928 728.1831024812955
2929 728.1793444870499
2930 728.1830963694067
2931 728.1799836458146
2932 728.1832508673683
2933 728.1800018800433
2934 728.1831537553222
2935 728.1801747610564
2936 728.1827536042367
2937 728.1797530308435
2938 728.1829546930583
2939 728.1801741578651
2940 728.182721384499
2941 728.1797138804158
2942 728.1827189455147
2943 728.1795399093472
2944 728.1821609852296
2945 728.1785423311711
2946 728.1816400318157
2947 728.1775979176431
2948 728.1809193531383
2949 728.1766196606955
2950 728.1803231770901
2951 728.1759672835516
2952 728.1799318675174
2953 728.1755401710797
2954 728.1800601830025
2955 728.1756505594421
2956 728.1797879325024
2957 728.1749594551687
2958 728.1797510426131
2959 728.1750555585376
2960 728.1799091816465
2961 728.1748702015777
2962 728.1802114017659
2963 728.1750648519212
2964 728.1800128518279
2965 728.1752612492782
2966 728.1804163850474
2967 728.1756570706762
2968 728.1801801101108
2969 728.1757894143792
2970 728.1802983959319
2971 728.1758834661498
2972 728.1804142790739
2973 728.1757992899328
2974 728.1806060384865
2975 728.1764096999307
2976 728.1804966274955
2977 728.1759667946516
2978 728.1808488948034
2979 728.1763231288345
2980 728.1805795829708
2981 728.1758173998056
2982 728.1806537654516
2983 728.1758975269074
2984 728.1802100925664
2985 728.1756202814287
2986 728.1802861599983
2987 728.1755711860964
2988 728.1797434559588
2989 728.1754337831426
2990 728.1798353236098
2991 728.175376239418
2992 728.1796058507859
2993 728.1753002051563
2994 728.1792938401028
2995 728.1753872093094
2996 728.1793233839012
2997 728.1751791167995
2998 728.179745292335
2999 728.1757316472492
3000 728.1794835716889
3001 728.1752951490699
3002 728.179808555893
3003 728.1757217443376
3004 728.1794288720428
3005 728.1752302289435
3006 728.1793837828661
3007 728.1753196836149
3008 728.1792273682798
3009 728.175086937926
3010 728.1788953228202
3011 728.1748553232711
3012 728.1791116122899
3013 728.1744682834866
3014 728.1789647941176
3015 728.1747232791689
3016 728.1789001671468
3017 728.1744805774709
3018 728.1790137698026
3019 728.1746818410477
3020 728.1789826669867
3021 728.1746264684913
3022 728.1793972160126
3023 728.1756622597146
3024 728.1795290970593
3025 728.1758017956806
3026 728.1802020121567
3027 728.176444843253
3028 728.1801656683715
3029 728.1766445672896
3030 728.1802624265258
3031 728.1768573443117
3032 728.1801357669353
3033 728.1767301994158
3034 728.180003328983
3035 728.1766001310508
3036 728.1800136927469
3037 728.1764080471822
3038 728.180045362532
3039 728.1768932070185
3040 728.1794685506571
3041 728.1762473048556
3042 728.1796214795745
3043 728.1765204895057
3044 728.1796815318341
3045 728.1764099982402
3046 728.1800843033797
3047 728.1769277309375
3048 728.1801559220673
3049 728.1767760347524
3050 728.1802155775827
3051 728.1762316850502
3052 728.1802911431861
3053 728.1760627262823
3054 728.1802064632025
3055 728.1760998986186
3056 728.1804983960347
3057 728.176041269096
3058 728.1807929842512
3059 728.1760350184107
3060 728.1806300729314
3061 728.1758788627849
3062 728.1809227963295
3063 728.1761091947047
3064 728.180291510424
3065 728.1751017226372
3066 728.1805714822464
3067 728.1755469464724
3068 728.1806451164484
3069 728.1759354504676
3070 728.1808567170843
3071 728.175971025486
3072 728.181035805085
3073 728.176227202468
3074 728.1811663545145
3075 728.1763954047647
3076 728.1809543820269
3077 728.1760329409315
3078 728.1807737751236
3079 728.1761908483827
3080 728.1807115410612
3081 728.1765094922124
3082 728.1812732700334
3083 728.1771044941983
3084 728.1813986901608
3085 728.1774170143648
3086 728.1817727191851
3087 728.1782543414491
3088 728.1817830293339
3089 728.178270514618
3090 728.1816261286961
3091 728.1784463057609
3092 728.1819783772961
3093 728.1785255180108
3094 728.181630051182
3095 728.1782392958435
3096 728.1818758204782
3097 728.178095724707
3098 728.1821575747822
3099 728.1781816841543
3100 728.1821499261274
3101 728.1780225086737
3102 728.1824770995654
3103 728.1782820145897
3104 728.1822981238529
3105 728.1780967630872
3106 728.1827381062495
3107 728.1787327444247
3108 728.1827892473449
3109 728.1792235306375
3110 728.1832839377015
3111 728.1794652062481
3112 728.1834674445228
3113 728.1799435313368
3114 728.1834371387179
3115 728.1800197140982
3116 728.1835539692022
3117 728.1803734262808
3118 728.1836845887293
3119 728.18041917377
3120 728.1830235673712
3121 728.1798796895838
3122 728.1830798170181
3123 728.1797907596095
3124 728.1825240269186
3125 728.1795063970807
3126 728.1826914831306
3127 728.1797626047972
3128 728.1826786493716
3129 728.1794762161911
3130 728.1825563985523
3131 728.1792515386638
3132 728.1823661047117
3133 728.1788737799542
3134 728.182302261619
3135 728.1786304550263
3136 728.1822659770196
3137 728.1782684130415
3138 728.1822958297286
3139 728.1781669223399
3140 728.1821011383308
3141 728.1783911201635
3142 728.1828547351187
3143 728.1788352381271
3144 728.182809162009
3145 728.1786642869311
3146 728.1833827249842
3147 728.1792808433195
3148 728.1832843225533
3149 728.178865867406
3150 728.1838531195855
3151 728.1790812270302
3152 728.1841446013721
3153 728.1787987831622
3154 728.1842799182266
3155 728.1791479651083
3156 728.1849836017016
3157 728.1792751648156
3158 728.185352556924
3159 728.1796306594407
3160 728.1854818677078
3161 728.1797228203615
3162 728.1856459264941
3163 728.1802869422901
3164 728.1852558779599
3165 728.1799228927125
3166 728.1846798544788
3167 728.1796240704665
3168 728.1841744735979
3169 728.1794746707186
3170 728.1842162674919
3171 728.1800456924962
3172 728.1844914903945
3173 728.1800925333155
3174 728.1849411730926
3175 728.1807024466154
3176 728.1856362200551
3177 728.1809111441787
3178 728.1856177187362
3179 728.1805241668321
3180 728.1853916773973
3181 728.1800970234646
3182 728.1853594989524
3183 728.1801469641835
3184 728.1846935941944
3185 728.1793404347195
3186 728.1847252060046
3187 728.1793029513333
3188 728.1842060796833
3189 728.1792846807584
3190 728.1837763640067
3191 728.1794657045002
3192 728.18370088316
3193 728.1790507886096
3194 728.1834516332325
3195 728.179601750285
3196 728.1835674057367
3197 728.179388600326
3198 728.1834273717941
3199 728.179422196714
3200 728.1830834537167
3201 728.1794877163464
3202 728.1832804511752
3203 728.1793950036782
3204 728.1828888139391
3205 728.1790500034836
3206 728.1832566772047
3207 728.1795443203413
3208 728.1829640322768
3209 728.1794391492089
3210 728.1832218967946
3211 728.1796169736566
3212 728.1829353985974
3213 728.1794819410153
3214 728.183075915424
3215 728.1798202572608
3216 728.1832648540176
3217 728.180317090009
3218 728.1835386008042
3219 728.1802749064491
3220 728.1835195068924
3221 728.1802007171159
3222 728.1838840810942
3223 728.1806602148861
3224 728.1839608384129
3225 728.1806970656851
3226 728.1844611378594
3227 728.1808502631208
3228 728.1844097943122
3229 728.1811795167439
3230 728.1851481024636
3231 728.1813815070234
3232 728.185274800366
3233 728.1812864303485
3234 728.1852873268105
3235 728.1815908974442
3236 728.1856536924568
3237 728.1818652643485
3238 728.1856513792374
3239 728.1813720179407
3240 728.1856776872784
3241 728.1813052218291
3242 728.186458277454
3243 728.1815585737739
3244 728.1865425104089
3245 728.1811993831923
3246 728.1866421255744
3247 728.1810343320786
3248 728.1864409433504
3249 728.1807011559674
3250 728.186207590768
3251 728.1807065152177
3252 728.1854330399614
3253 728.1802590492322
3254 728.1853145731594
3255 728.1807518099511
3256 728.1850585682432
3257 728.1806368957745
3258 728.1850376914792
3259 728.1807909414583
3260 728.1851053331131
3261 728.1809406484748
3262 728.1850293662685
3263 728.1811478086717
3264 728.1848017531129
3265 728.1811875099612
3266 728.184727329526
3267 728.1810894001296
3268 728.1844831473747
3269 728.1811926153622
3270 728.1845169241784
3271 728.1813449340165
3272 728.1846282849846
3273 728.1810781929481
3274 728.1847966371323
3275 728.1813808331857
3276 728.1851025536719
3277 728.1808006467999
3278 728.184876900515
3279 728.180372395373
3280 728.1843993876121
3281 728.1795081426066
3282 728.1837216599265
3283 728.1786311643473
3284 728.1829681392433
3285 728.1782692545174
3286 728.1827600512875
3287 728.1777178411655
3288 728.1823004414744
3289 728.1775831318502
3290 728.1824701786313
3291 728.1779065082603
3292 728.182094640105
3293 728.1776992327664
3294 728.1815839925392
3295 728.1776852098981
3296 728.1812979522437
3297 728.1773473083784
3298 728.1810441056829
3299 728.1770654059493
3300 728.1806128971634
3301 728.1767847889663
3302 728.1809272334207
3303 728.1769084210459
3304 728.1806002721593
3305 728.1765799254491
3306 728.1805636722703
3307 728.1766805628091
3308 728.1804665738164
3309 728.176839505718
3310 728.180890355125
3311 728.1779038935775
3312 728.1808164085654
3313 728.177482102673
3314 728.1807597289863
3315 728.1779654088774
3316 728.180910823068
3317 728.1778803223546
3318 728.1810199940627
3319 728.1780616124967
3320 728.1805564795654
3321 728.1773691956602
3322 728.180833215745
3323 728.177729855562
3324 728.1803771386348
3325 728.1774212696913
3326 728.180225556364
3327 728.1767609284124
3328 728.1796821203918
3329 728.1765426489774
3330 728.1797170819038
3331 728.1761431382719
3332 728.179179647047
3333 728.1753148805587
3334 728.1793123273695
3335 728.1753090895356
3336 728.1792593891357
3337 728.1749769859626
3338 728.1798809731047
3339 728.1753211098842
3340 728.1799755308955
3341 728.1753118970369
3342 728.180578019683
3343 728.1752770784435
3344 728.180434246643
3345 728.175037966187
3346 728.1807108414409
3347 728.1748098700067
3348 728.1802568558332
3349 728.1750738525909
3350 728.1805190443683
3351 728.1747503041801
3352 728.1802161350693
3353 728.1744543472851
3354 728.1800170190739
3355 728.1743120924484
3356 728.1793526655116
3357 728.1738462613534
3358 728.1792344716932
3359 728.173795969048
3360 728.178667921308
3361 728.173244408134
3362 728.1788410937751
3363 728.1737502254344
3364 728.1787377010514
3365 728.1738133121382
3366 728.1787083953276
3367 728.1737881154611
3368 728.178261457402
3369 728.1739444489591
3370 728.1782626832701
3371 728.1740433970303
3372 728.1780697896313
3373 728.1740744681763
3374 728.1783088920776
3375 728.1742518329794
3376 728.1781576974837
3377 728.1742371706515
3378 728.178464113995
3379 728.1750739353167
3380 728.1782971164459
3381 728.1747845513373
3382 728.1787445478503
3383 728.1751686828784
3384 728.1787641817067
3385 728.1752651798005
3386 728.1790082736596
3387 728.1753407240553
3388 728.1791283403843
3389 728.1754145884456
3390 728.1794544307263
3391 728.1757683149474
3392 728.179661367123
3393 728.1753384488547
3394 728.1794661059882
3395 728.1752092256365
3396 728.1794040528191
3397 728.1750276681296
3398 728.1792869132651
3399 728.1750264510024
3400 728.1788894479104
3401 728.1746413596298
3402 728.1794449137666
3403 728.1749764409946
3404 728.1789863518123
3405 728.1744736042651
3406 728.179243653402
3407 728.1744027569027
3408 728.1790637028416
3409 728.1743796835001
3410 728.1794033691757
3411 728.1748957019312
3412 728.1795451822046
3413 728.1749800242344
3414 728.1798916140202
3415 728.1758634814795
3416 728.1802433305752
3417 728.1762678870582
3418 728.1805663355955
3419 728.1768676062593
3420 728.1805727634302
3421 728.177023632392
3422 728.181324675458
3423 728.1775105615563
3424 728.1812621750403
3425 728.1774037009868
3426 728.1814470271875
3427 728.1775721338278
3428 728.1809987643301
3429 728.1770549849266
3430 728.1808045759806
3431 728.1769427836542
3432 728.1806631136093
3433 728.1767907272194
3434 728.1806729046909
3435 728.1767605866603
3436 728.181098348056
3437 728.1769700827375
3438 728.1813719254736
3439 728.1774112405167
3440 728.1811748367529
3441 728.1770643023069
3442 728.1818823503741
3443 728.1772087015377
3444 728.1814472556395
3445 728.1771211734131
3446 728.1816655255865
3447 728.1769423938783
3448 728.1814719851264
3449 728.1771186863275
3450 728.1817679020292
3451 728.1773292379834
3452 728.1816675445174
3453 728.1777662203991
3454 728.1821288681749
3455 728.1783122109159
3456 728.1822946446244
3457 728.1791959646725
3458 728.1830009276699
3459 728.1799699829335
3460 728.183106747984
3461 728.1800097173727
3462 728.1838508580075
3463 728.1807600525276
3464 728.1840363994529
3465 728.1806978157907
3466 728.1842828844874
3467 728.1805458966099
3468 728.1841202820824
3469 728.1805941980003
3470 728.1848630612914
3471 728.1805806835887
3472 728.1848597527999
3473 728.1802648508752
3474 728.1842697875563
3475 728.1800141859364
3476 728.1836671749426
3477 728.1793696284365
3478 728.1835762339233
3479 728.1792567167661
3480 728.1828919040877
3481 728.1786267873141
3482 728.1832344113698
3483 728.1788578624752
3484 728.1828013860571
3485 728.1782639033129
3486 728.1832457187431
3487 728.1789154139907
3488 728.1832638662752
3489 728.1790100805285
3490 728.1839479619958
3491 728.1795006442983
3492 728.1841152164798
3493 728.1797062140997
3494 728.1840423091178
3495 728.1797828896263
3496 728.1841515104848
3497 728.1792982574011
3498 728.1840630535648
3499 728.179510500363
3500 728.1833793542643
3501 728.1793930453293
3502 728.1835777661248
3503 728.1800971852465
3504 728.1829996348691
3505 728.1795625853332
3506 728.1829332714719
3507 728.1795181865059
3508 728.1827267245293
3509 728.1793793439394
3510 728.182635780891
3511 728.1798590682483
3512 728.1826113043827
3513 728.1795759844365
3514 728.1827807549989
3515 728.17997700561
3516 728.1833511843855
3517 728.1805252513681
3518 728.1843272809914
3519 728.1810189975628
3520 728.1844086424215
3521 728.1805605603073
3522 728.1851407364632
3523 728.1810321226247
3524 728.1848854327319
3525 728.1805805236037
3526 728.1854639942117
3527 728.1806930002434
3528 728.1848430963622
3529 728.1804417802372
3530 728.1852248520139
3531 728.1811409891984
3532 728.1854257493595
3533 728.1812033900904
3534 728.1853083762969
3535 728.1813909672966
3536 728.1854054757891
3537 728.1812029290909
3538 728.1854850078317
3539 728.1811206370288
3540 728.1849298841622
3541 728.1802407857588
3542 728.1848845322385
3543 728.1795184069772
3544 728.1840813732629
3545 728.1782056197542
3546 728.1838387485923
3547 728.1782019467375
3548 728.1833539430718
3549 728.177648524308
3550 728.1835877130518
3551 728.1780596890923
3552 728.1842006846705
3553 728.1786257205639
3554 728.1849459289571
3555 728.1795083313527
3556 728.1854410382437
3557 728.1798183807219
3558 728.185813431312
3559 728.1806253702259
3560 728.1851936581872
3561 728.1803985622622
3562 728.1851391353225
3563 728.180596279671
3564 728.1844189013752
3565 728.1805393371136
3566 728.1846739220056
3567 728.1809102426291
3568 728.1846887222733
3569 728.1806341223539
3570 728.1848875106198
3571 728.1810892111851
3572 728.1849044546872
3573 728.1809095751297
3574 728.1851312286931
3575 728.1809763406193
3576 728.1849325151755
3577 728.1807771873954
3578 728.1849482164572
3579 728.1809130729433
3580 728.1848066369163
3581 728.1810704209724
3582 728.1852686927981
3583 728.1815634000571
3584 728.1850312057643
3585 728.1809810808342
3586 728.1849886997649
3587 728.1809232429588
3588 728.1841238481908
3589 728.1803081003079
3590 728.1840011770482
3591 728.1803717683638
3592 728.1838187589256
3593 728.1798305903872
3594 728.1834651332108
3595 728.1799410142914
3596 728.1832521397243
3597 728.1794366154113
3598 728.1833494850798
3599 728.1797190897692
3600 728.1832013754133
3601 728.1801461450819
3602 728.1841582613258
3603 728.1804551646022
3604 728.1842863553971
3605 728.1808140147127
3606 728.1849930874446
3607 728.1812863631968
3608 728.184662345218
3609 728.1808603899498
3610 728.1849110688516
3611 728.1811639301333
3612 728.1849203123024
3613 728.1812959826794
3614 728.1852005166348
3615 728.1808999642049
3616 728.1853506418232
3617 728.1808172458307
3618 728.1851877995377
3619 728.1808113847227
3620 728.1850370923244
3621 728.1804710338229
3622 728.1851947397644
3623 728.1801366832345
3624 728.1847714204085
3625 728.180096046775
3626 728.185300389204
3627 728.1806687101267
3628 728.1853529615269
3629 728.1803534193044
3630 728.1860003367328
3631 728.1812691857263
3632 728.186147632808
3633 728.1811311282167
3634 728.1860798440395
3635 728.1811296439173
3636 728.1856432505432
3637 728.1808373209843
3638 728.1852049501074
3639 728.180882105542
3640 728.1846626758959
3641 728.1803229225692
3642 728.1844566147131
3643 728.1800692158686
3644 728.1838764114548
3645 728.1798443386978
3646 728.1839539269799
3647 728.179993730563
3648 728.1830114473948
3649 728.179284506948
3650 728.182871182938
3651 728.1791567477222
3652 728.1825153506599
3653 728.1783666294498
3654 728.1823074981837
3655 728.1787024092644
3656 728.1821691502887
3657 728.178248111224
3658 728.1820989244344
3659 728.1785773444431
3660 728.1820343672623
3661 728.1784033345214
3662 728.1820339619245
3663 728.1784241409796
3664 728.1814369899299
3665 728.1777816732225
3666 728.1811219193843
3667 728.1773712582046
3668 728.180192525711
3669 728.1761885467253
3670 728.1801753344166
3671 728.176371428994
3672 728.1798655996065
3673 728.1756731151811
3674 728.1801796564072
3675 728.1764382513692
3676 728.1803796148637
3677 728.1764329766702
3678 728.1808049716582
3679 728.1767788651292
3680 728.1804543986448
3681 728.1765034536749
3682 728.1805262207502
3683 728.1761990910065
3684 728.1799891079935
3685 728.1762924175474
3686 728.1801700302473
3687 728.1761652135056
3688 728.1802543328972
3689 728.1760175861079
3690 728.1800875768569
3691 728.1758353429192
3692 728.1796293700132
3693 728.174846267618
3694 728.179356656852
3695 728.1751955415042
3696 728.1793436554249
3697 728.1746364423261
3698 728.1790808686957
3699 728.1751213466797
3700 728.179215223495
3701 728.1748740601703
3702 728.1794805598189
3703 728.1755873269949
3704 728.1795176937549
3705 728.1754886699936
3706 728.179553387056
3707 728.1753654255411
3708 728.1789064880719
3709 728.175348102676
3710 728.1789763903116
3711 728.1754782144636
3712 728.1789388691861
3713 728.1749162516209
3714 728.1790558160299
3715 728.1753342546016
3716 728.1788954676119
3717 728.1747159564983
3718 728.1792824149749
3719 728.1750660563483
3720 728.179495534142
3721 728.1752142390818
3722 728.1800531192501
3723 728.1754168614494
3724 728.1802140380838
3725 728.175945923513
3726 728.1805099291061
3727 728.1759052114982
3728 728.1800430183758
3729 728.1755156904966
3730 728.1797869907697
3731 728.1750214961916
3732 728.179109942001
3733 728.1745229360757
3734 728.1788106047325
3735 728.174930508634
3736 728.1785698341962
3737 728.1742271352689
3738 728.1782731382551
3739 728.1747826481893
3740 728.1779496930072
3741 728.1743245298044
3742 728.178069862331
3743 728.1742964277053
3744 728.1779706571079
3745 728.174615747008
3746 728.1786472810651
3747 728.1748747920898
3748 728.179256484191
3749 728.175445865832
3750 728.1798893215927
3751 728.1760244006423
3752 728.1802699417718
3753 728.1757284582654
3754 728.1808135360185
3755 728.1763348486567
3756 728.1806228457148
3757 728.1757781462679
3758 728.1807204836524
3759 728.1762414294242
3760 728.1805482525301
3761 728.1759808886264
3762 728.1805596333007
3763 728.1758453382027
3764 728.1802931858116
3765 728.175487845637
3766 728.1803490929088
3767 728.1752365770617
3768 728.1797578294307
3769 728.1750307768626
3770 728.179602431108
3771 728.1752059252232
3772 728.1799232019084
3773 728.1754138580067
3774 728.1801280490936
3775 728.1762091100989
3776 728.1801478052412
3777 728.1753647246637
3778 728.1800248324887
3779 728.1755051241261
3780 728.1794375134863
3781 728.1751865811883
3782 728.1793824177489
3783 728.1747423240965
3784 728.1787151770814
3785 728.1742822511848
3786 728.1787581965868
3787 728.1742819342696
3788 728.1791648263852
3789 728.1744136552589
3790 728.179517332451
3791 728.1747152517495
3792 728.1798383438513
3793 728.1749377179942
3794 728.180281343645
3795 728.1756684539764
3796 728.1805754606088
3797 728.1759342443702
3798 728.1814654965066
3799 728.1771967818945
3800 728.1821830658362
3801 728.1780577581642
3802 728.1829172020575
3803 728.1787195888943
3804 728.1827920437173
3805 728.1790734988303
3806 728.1835105384494
3807 728.1794896056308
3808 728.1830576906336
3809 728.1789211525585
3810 728.1827401610099
3811 728.1790327352863
3812 728.1824726624765
3813 728.1790287906789
3814 728.1822161458711
3815 728.179104413654
3816 728.1817719597327
3817 728.1788169308736
3818 728.1825520610856
3819 728.1796334458578
3820 728.182801185598
3821 728.1794952142195
3822 728.1832879295843
3823 728.1802554259084
3824 728.1835356551319
3825 728.1801675381876
3826 728.1836380402139
3827 728.1799473099799
3828 728.1830136206644
3829 728.17955266527
3830 728.1830416781139
3831 728.1797233373426
3832 728.1828847438607
3833 728.1793171865118
3834 728.1831280609646
3835 728.1795615793075
3836 728.1830890657819
3837 728.178922063899
3838 728.1831339102918
3839 728.1789299042948
3840 728.182923574965
3841 728.1784712592525
3842 728.1833684709255
3843 728.1787107244264
3844 728.1828344831692
3845 728.1784127355927
3846 728.1833347841742
3847 728.1788984934766
3848 728.1835625450764
3849 728.1792927813553
3850 728.1837554110526
3851 728.1794106862041
3852 728.1838515193348
3853 728.1794883466902
3854 728.1842523453691
3855 728.1797232100016
3856 728.1837603020736
3857 728.1788597658074
3858 728.1835779643181
3859 728.17899086633
3860 728.1834803534132
3861 728.1790960559529
3862 728.18441580544
3863 728.1795713284237
3864 728.1839861520259
3865 728.1795771341557
3866 728.1845544611227
3867 728.1800114676058
3868 728.1845658868092
3869 728.1801829126665
3870 728.1843076766494
3871 728.1803330906823
3872 728.1842792437965
3873 728.1803746989054
3874 728.1844390664837
3875 728.1806509833275
3876 728.1842483612101
3877 728.1802606646178
3878 728.1844126864082
3879 728.180889225934
3880 728.1843677980783
3881 728.1804257453848
3882 728.1845119537303
3883 728.1805796439691
3884 728.1840828464735
3885 728.1801575344563
3886 728.1842192530079
3887 728.1803143664883
3888 728.1841197660048
3889 728.1801172504626
3890 728.1841198420963
3891 728.1798177526491
3892 728.1838597871439
3893 728.1796570820436
3894 728.183840524288
3895 728.1800593101104
3896 728.1836306734355
3897 728.1796040553543
3898 728.183624908262
3899 728.1792609926529
3900 728.1828791735016
3901 728.1787072687724
3902 728.1831096900643
3903 728.1790253079432
3904 728.1826047409551
3905 728.1783163707494
3906 728.1826009121849
3907 728.1782408015625
3908 728.1823814983985
3909 728.1783485109547
3910 728.1826204220934
3911 728.1782666232313
3912 728.1824871177021
3913 728.1785364022237
3914 728.1830927421742
3915 728.179211989886
3916 728.1833827984276
3917 728.1796727175118
3918 728.183784010291
3919 728.1804280610734
3920 728.1841803448681
3921 728.1806877400594
3922 728.1848954964254
3923 728.1812473213932
3924 728.1843943158306
3925 728.1810315684538
3926 728.185120693342
3927 728.1814459677817
3928 728.1849594029788
3929 728.1811843418224
3930 728.1851546755098
3931 728.1810798362479
3932 728.1852503019289
3933 728.1810073630537
3934 728.1852262383352
3935 728.1811130019481
3936 728.1851659609837
3937 728.1805412510863
3938 728.1851084299371
3939 728.1804804773158
3940 728.1847509147823
3941 728.1805333958498
3942 728.184919665399
3943 728.1805796722253
3944 728.1845544740582
3945 728.1804886880807
3946 728.1851342765007
3947 728.1808976076118
3948 728.1850190671507
3949 728.1806638114989
3950 728.1849538260503
3951 728.1806302743668
3952 728.184884691665
3953 728.1804860130644
3954 728.1849797936178
3955 728.1805050436692
3956 728.1849247437611
3957 728.1803360399355
3958 728.1849556659236
3959 728.1804937395819
3960 728.1851186953788
3961 728.1805664402571
3962 728.186136408154
3963 728.180750487757
3964 728.1856228516805
3965 728.180138614102
3966 728.1860130099949
3967 728.1802686666069
3968 728.185890504383
3969 728.1799355534444
3970 728.1853881476438
3971 728.1794195590637
3972 728.1849946528532
3973 728.1792047850884
3974 728.1848278545998
3975 728.1793611651414
3976 728.1843048606862
3977 728.1786064996567
3978 728.1840970462735
3979 728.1792535514602
3980 728.184235029358
3981 728.179637412989
3982 728.1847718311949
3983 728.1800210611884
3984 728.1843403030099
3985 728.1797562603178
3986 728.184793308594
3987 728.1801107148573
3988 728.184025909713
3989 728.1791404652153
3990 728.183692604498
3991 728.1792398501527
3992 728.1836867903012
3993 728.1795518040925
3994 728.1834563338616
3995 728.180268800974
3996 728.1836715936969
3997 728.1803600543227
3998 728.183725424709
3999 728.180814665806
4000 728.1833894767054
4001 728.1804655853683
4002 728.1833005404633
4003 728.1805495807445
4004 728.1824683057465
4005 728.1798134349681
4006 728.1824596827803
4007 728.1798204663385
4008 728.1817110614483
4009 728.1791119132944
4010 728.1817052886079
4011 728.1794408857824
4012 728.1813876510541
4013 728.1784971957629
4014 728.1818206222913
4015 728.1787487821744
4016 728.1820682308048
4017 728.1783057829998
4018 728.1820968370128
4019 728.1779283028685
4020 728.1817161916393
4021 728.1774888180712
4022 728.1821921612718
4023 728.177853516054
4024 728.1820205368286
4025 728.1778059141972
4026 728.1826435526086
4027 728.1782854444397
4028 728.1822086594934
4029 728.1777070007156
4030 728.1822541514623
4031 728.1779998540405
4032 728.1816387370427
4033 728.1767549906301
4034 728.1809768614629
4035 728.1767263879534
4036 728.1805348559112
4037 728.1758852294316
4038 728.180274110191
4039 728.1758069066344
4040 728.1799390019468
4041 728.1758657320213
4042 728.1804635929419
4043 728.1760610489088
4044 728.1803717648052
4045 728.1761867327963
4046 728.1805707317601
4047 728.1761046053787
4048 728.1799955744949
4049 728.1758429357478
4050 728.1796989485248
4051 728.1762515801538
4052 728.1797037443024
4053 728.1755549489957
4054 728.1798907578868
4055 728.1762375148462
4056 728.1799029835763
4057 728.1757770872783
4058 728.1803545624076
4059 728.1762795022319
4060 728.1803878845332
4061 728.1761673144204
4062 728.1805710531631
4063 728.1758595986256
4064 728.1803146623832
4065 728.1753840506829
4066 728.1804378063841
4067 728.175084902468
4068 728.1800754739015
4069 728.1749646972974
4070 728.1802967853423
4071 728.1751606389355
4072 728.180246595296
4073 728.1749806794089
4074 728.1800053832391
4075 728.1753182271805
4076 728.1796322177931
4077 728.1748762842831
4078 728.1793718292868
4079 728.1749268365827
4080 728.1784574006585
4081 728.1746739489206
4082 728.178631066302
4083 728.1747717368552
4084 728.178349127609
4085 728.1744747250865
4086 728.1782399876282
4087 728.1741720168795
4088 728.178221792646
4089 728.1738591861439
4090 728.1782272411315
4091 728.17416529501
4092 728.1782405704499
4093 728.1739801486572
4094 728.178664324707
4095 728.1750426960608
4096 728.1788471081918
4097 728.1749857416376
4098 728.1790023208546
4099 728.1758388569218
4100 728.1793448129823
4101 728.1760944615074
4102 728.1800232535868
4103 728.1768813886869
4104 728.179637889806
4105 728.1765970169781
4106 728.1800617402138
4107 728.1770483033621
4108 728.1799034432424
4109 728.176795216407
4110 728.1797008692797
4111 728.1765650639437
4112 728.1798149826624
4113 728.1764254066877
4114 728.1793285284484
4115 728.1759185808028
4116 728.1788862892278
4117 728.1753614412006
4118 728.1791200535816
4119 728.1760068615171
4120 728.1788466932907
4121 728.175263752948
4122 728.1793700996468
4123 728.1756524268943
4124 728.1790977692574
4125 728.1754827594592
4126 728.1797638920499
4127 728.1758656144982
4128 728.1796735694642
4129 728.1757897402754
4130 728.1798906089033
4131 728.1761889962437
4132 728.1802392628711
4133 728.1763902147347
4134 728.1810200558749
4135 728.1767260378559
4136 728.1808412028354
4137 728.1763095958909
4138 728.1811439846285
4139 728.1767236571965
4140 728.1809236244446
4141 728.1763175761721
4142 728.1816046952457
4143 728.1767692452459
4144 728.1812274615892
4145 728.1761962258694
4146 728.1815027540167
4147 728.1762945538591
4148 728.1811528889833
4149 728.176095672774
4150 728.1804189562021
4151 728.1752767740168
4152 728.1802481584393
4153 728.1753173077317
4154 728.1805292089994
4155 728.1753471660905
4156 728.1805706828274
4157 728.1751328988205
4158 728.1809496153276
4159 728.1762117634506
4160 728.1813265159697
4161 728.1761731535347
4162 728.1821093173177
4163 728.1769902765197
4164 728.1820888863324
4165 728.1771283784335
4166 728.1826446316093
4167 728.1776472035189
4168 728.1828454424926
4169 728.1777426388037
4170 728.183317655427
4171 728.1783301198392
4172 728.1835913275659
4173 728.178647389374
4174 728.1839684603756
4175 728.1788325523087
4176 728.1835622309068
4177 728.1785602148973
4178 728.1838420586899
4179 728.179381564494
4180 728.1834380259154
4181 728.1790108895711
4182 728.1839023842323
4183 728.1798708876818
4184 728.1835032589948
4185 728.1798197458641
4186 728.1838555644771
4187 728.1800214312508
4188 728.1835996862133
4189 728.1800429201318
4190 728.1835245869954
4191 728.180230354862
4192 728.1835395104331
4193 728.1799719288106
4194 728.1829298322376
4195 728.1793164348642
4196 728.1822877374329
4197 728.1789609470879
4198 728.1820622232897
4199 728.1786242862863
4200 728.1818983636025
4201 728.178473564827
4202 728.1825761125685
4203 728.1790450241729
4204 728.1824161978343
4205 728.1788772803257
4206 728.1831079799836
4207 728.1796309237997
4208 728.1836181123722
4209 728.1795596125853
4210 728.1837034656241
4211 728.1795913086022
4212 728.1839180037845
4213 728.1795763516191
4214 728.1842867169462
4215 728.1795498595903
4216 728.1841397039149
4217 728.1791932183557
4218 728.1839573862414
4219 728.1796446616088
4220 728.1843455366879
4221 728.1799838942302
4222 728.1850664698496
4223 728.1804666404137
4224 728.1842757067457
4225 728.1801212547258
4226 728.1845687200175
4227 728.1805008084795
4228 728.1840655470839
4229 728.1802004577009
4230 728.1838764663963
4231 728.1804224480505
4232 728.1840464626933
4233 728.1802352227871
4234 728.1839910022942
4235 728.180361168524
4236 728.1836640679227
4237 728.1801002019292
4238 728.1839196970989
4239 728.1805640044197
4240 728.1835019002901
4241 728.1802047260487
4242 728.1838073033103
4243 728.1804019241212
4244 728.1834338739552
4245 728.180590184021
4246 728.1844347767249
4247 728.1809566543562
4248 728.1842892413865
4249 728.1812167667665
4250 728.1850390272284
4251 728.1815459557131
4252 728.1851052178301
4253 728.1813426185965
4254 728.1852700468568
4255 728.1812676093458
4256 728.185361558238
4257 728.1809252935598
4258 728.185296389083
4259 728.1809326606985
4260 728.1853622419638
4261 728.1808326560389
4262 728.1858384588301
4263 728.1809206788513
4264 728.1850579406447
4265 728.1800623003639
4266 728.1850135490897
4267 728.1798872404507
4268 728.1843902629048
4269 728.1789819613838
4270 728.1837547249229
4271 728.1789119210305
4272 728.1836041058718
4273 728.1784356080515
4274 728.1837493958317
4275 728.1789872539725
4276 728.1837615972044
4277 728.178813760599
4278 728.1836525307882
4279 728.1791649893257
4280 728.1838165211711
4281 728.179478975519
4282 728.1842390389747
4283 728.1797768697445
4284 728.183359765282
4285 728.1792654257677
4286 728.1838627495093
4287 728.1796130128498
4288 728.1833058427151
4289 728.1790646377233
4290 728.1835545917934
4291 728.1796836364155
4292 728.1836560694433
4293 728.179839948582
4294 728.184063514256
4295 728.1801025792799
4296 728.1841903648968
4297 728.1801379942416
4298 728.1840331235027
4299 728.1801835319774
4300 728.1840063516119
4301 728.180337843072
4302 728.1847309492039
4303 728.1807401075582
4304 728.1844185202378
4305 728.1809307729493
4306 728.1847782199972
4307 728.1811473574336
4308 728.1845793218711
4309 728.1811170452786
4310 728.185152463734
4311 728.1818795234215
4312 728.1851235274416
4313 728.1814561966019
4314 728.1852415317813
4315 728.1814430075774
4316 728.184921925017
4317 728.1810832632843
4318 728.1849655271084
4319 728.1814079278753
4320 728.1849145665989
4321 728.1812756529465
4322 728.1849318594443
4323 728.1813499930443
4324 728.1847666243312
4325 728.1810220022244
4326 728.1850174430149
4327 728.1811810410414
4328 728.1845260817206
4329 728.1802851750082
4330 728.1844456985502
4331 728.1805595695716
4332 728.1845997059878
4333 728.1801882329398
4334 728.1846140203365
4335 728.1804016361486
4336 728.1847318991404
4337 728.1798820029301
4338 728.1843606456721
4339 728.1801356813999
4340 728.1842653480579
4341 728.1802446465938
4342 728.18480617828
4343 728.1802737118744
4344 728.1845646552256
4345 728.1803339018833
4346 728.1851112670701
4347 728.1804382206037
4348 728.1849680014263
4349 728.1802663154087
4350 728.1850011058211
4351 728.1806132980356
4352 728.1845827568659
4353 728.1799357509683
4354 728.1844126708014
4355 728.1799192855559
4356 728.1839664479015
4357 728.1793617675288
4358 728.1835046011828
4359 728.1792155036496
4360 728.1830495349553
4361 728.1786767091041
4362 728.1832826764711
4363 728.178794220175
4364 728.1828688094253
4365 728.1787405514112
4366 728.1830468044213
4367 728.1786384241573
4368 728.1825843254585
4369 728.1787811032497
4370 728.1827804259029
4371 728.1794300119652
4372 728.1827707864492
4373 728.17882910311
4374 728.1825232221058
4375 728.1783680491701
4376 728.1825635198863
4377 728.1779063277712
4378 728.1823294089749
4379 728.1776166801578
4380 728.1821814802232
4381 728.17697852755
4382 728.1824731634599
4383 728.1766905235031
4384 728.1819142013399
4385 728.176010088176
4386 728.1814590508262
4387 728.1755501010749
4388 728.1811484892307
4389 728.1755358266137
4390 728.1809446100933
4391 728.1758605673548
4392 728.1803343513847
4393 728.1753895672069
4394 728.1803335812853
4395 728.1756132349149
4396 728.1799751941013
4397 728.1753262306588
4398 728.1799707047561
4399 728.1754127945288
4400 728.1797813149876
4401 728.1754619434575
4402 728.180366626027
4403 728.1760568539058
4404 728.1804403513081
4405 728.1766034298325
4406 728.1813013318961
4407 728.1769589686401
4408 728.1807551889636
4409 728.1766301991502
4410 728.1809285655335
4411 728.1770864432398
4412 728.1807407002497
4413 728.1766038526965
4414 728.1804812334751
4415 728.1765815866747
4416 728.1800903946187
4417 728.1761442310425
4418 728.179864763438
4419 728.1764961926651
4420 728.1796870135951
4421 728.1764287792104
4422 728.1801012325377
4423 728.1765126962238
4424 728.1797224843077
4425 728.1764442027347
4426 728.1796851377899
4427 728.176230286091
4428 728.1791766501682
4429 728.1761064331567
4430 728.1793352250633
4431 728.1760224710715
4432 728.1788050028989
4433 728.1751291466144
4434 728.1787042968407
4435 728.175286377916
4436 728.1785455315925
4437 728.1752372834554
4438 728.1783302118898
4439 728.1753389354215
4440 728.178312795498
4441 728.1752065824711
4442 728.1787200035219
4443 728.1753816980242
4444 728.1783694467886
4445 728.175468484701
4446 728.1786087072776
4447 728.1754294670679
4448 728.1786614067236
4449 728.1753611422046
4450 728.1788476471337
4451 728.1758386334324
4452 728.1790463875946
4453 728.1752429492062
4454 728.1795010258552
4455 728.1754491718258
4456 728.1793286197138
4457 728.1746685389709
4458 728.1793147695565
4459 728.1750274999487
4460 728.1794613717826
4461 728.1749607991754
4462 728.1804130947181
4463 728.1757545150057
4464 728.1806581031525
4465 728.1758077397533
4466 728.1814486618837
4467 728.1763043241223
4468 728.1813247790141
4469 728.1761751812081
4470 728.1814250553228
4471 728.1763470629639
4472 728.1814057923056
4473 728.1757502520987
4474 728.1809801686944
4475 728.1755751548783
4476 728.1802953376217
4477 728.1751537799308
4478 728.1803537774525
4479 728.1754814011828
4480 728.1800650053705
4481 728.1751387245952
4482 728.1804826988815
4483 728.1756277346451
4484 728.1802762246133
4485 728.1759802528159
4486 728.1807502371057
4487 728.1764733172251
4488 728.1807323214319
4489 728.1766031814396
4490 728.180914153569
4491 728.1770868261001
4492 728.1808298951447
4493 728.1770661322298
4494 728.1807872838625
4495 728.1775344572825
4496 728.1808178704658
4497 728.1775171578072
4498 728.1811126957971
4499 728.17813045527
4500 728.1811673149994
4501 728.1778123584249
4502 728.1818937982455
4503 728.1785490884574
4504 728.181855681926
4505 728.1780971444141
4506 728.1819772266925
4507 728.1778472219456
4508 728.1817141544421
4509 728.1776866595408
4510 728.1819750732863
4511 728.1778658455937
4512 728.182113304519
4513 728.1779345984085
4514 728.1821047825964
4515 728.1778302043725
4516 728.1819165200269
4517 728.1778927308104
4518 728.1821719830547
4519 728.1783219936318
4520 728.1820832757353
4521 728.1781033333202
4522 728.1825879591663
4523 728.1783425453035
4524 728.1828562787814
4525 728.1784214832039
4526 728.1832889250586
4527 728.1784449414439
4528 728.1832198532481
4529 728.178297650123
4530 728.1831247707507
4531 728.1783351879407
4532 728.1830045096782
4533 728.1780669064664
4534 728.1826421082809
4535 728.1776510264664
4536 728.1821994509918
4537 728.1777596643974
4538 728.1824476699619
4539 728.1784003573291
4540 728.1819683179992
4541 728.1781412178019
4542 728.182173976357
4543 728.178889170263
4544 728.1822290949129
4545 728.1791588531015
4546 728.1828407776248
4547 728.1797443175121
4548 728.1828127196221
4549 728.1798653578655
4550 728.1831134468235
4551 728.1804496606707
4552 728.1835236043909
4553 728.1806760973786
4554 728.1836070894958
4555 728.1803665678306
4556 728.1838389833971
4557 728.1801377571542
4558 728.1841553676002
4559 728.1802471153783
4560 728.1842349890171
4561 728.1795999640483
4562 728.1848024991817
4563 728.1796747420622
4564 728.1845809164258
4565 728.1789419995225
4566 728.184354623275
4567 728.1789537263094
4568 728.1841973615441
4569 728.1785796381957
4570 728.1837484410455
4571 728.1787090040262
4572 728.1838237352152
4573 728.1789488497789
4574 728.1840147042683
4575 728.1794235268816
4576 728.1840084229627
4577 728.1792850239741
4578 728.1841804747437
4579 728.1798402245086
4580 728.1839005170572
4581 728.1793794505446
4582 728.1845379137462
4583 728.1797562337075
4584 728.1841265489214
4585 728.1797332958083
4586 728.1849504318694
4587 728.1805045532095
4588 728.1847255848752
4589 728.1800389362504
4590 728.1850236196547
4591 728.1805384985469
4592 728.1851428088577
4593 728.1804674538344
4594 728.1846035605961
4595 728.1797706002104
4596 728.184112620128
4597 728.1794933260715
4598 728.1837729656744
4599 728.1796333441994
4600 728.183020608604
4601 728.1786527837619
4602 728.1833128731589
4603 728.1792035487335
4604 728.183381464798
4605 728.1792888427586
4606 728.1838572538147
4607 728.17975745656
4608 728.1842090676139
4609 728.1800221945541
4610 728.1848306326895
4611 728.180666244182
4612 728.1850751944395
4613 728.1808247067647
4614 728.18459685221
4615 728.1805658225547
4616 728.1843890805491
4617 728.1808857704623
4618 728.1843397771307
4619 728.1812901505953
4620 728.1839615662634
4621 728.1809809026606
4622 728.1843770452238
4623 728.1812956131747
4624 728.1834008670887
4625 728.1803870779938
4626 728.1835858269158
4627 728.1805399685272
4628 728.1828431433769
4629 728.1801296413427
4630 728.183398650945
4631 728.1805247021787
4632 728.1835132043012
4633 728.1804991964434
4634 728.1836066858364
4635 728.1805824414582
4636 728.1838047196748
4637 728.1808201649351
4638 728.1843583231705
4639 728.1815167954454
4640 728.1847390702981
4641 728.1812086699492
4642 728.1852042613998
4643 728.1813129344899
4644 728.184869678897
4645 728.1808770159907
4646 728.185210600491
4647 728.1811289032966
4648 728.1848045463175
4649 728.1803668213687
4650 728.1845119888926
4651 728.1804045390177
4652 728.1845826638752
4653 728.1805590918725
4654 728.1844693425948
4655 728.1802918309911
4656 728.1842658916253
4657 728.1797169488957
4658 728.1843860042146
4659 728.1798264985824
4660 728.1841299792054
4661 728.1790954151058
4662 728.1845531388694
4663 728.1795446233039
4664 728.1841526785898
4665 728.1791845794338
4666 728.1844438184929
4667 728.1796512315005
4668 728.1844450863031
4669 728.1795120776873
4670 728.185032322821
4671 728.1806106043537
4672 728.185312816091
4673 728.1808594867111
4674 728.1851310749149
4675 728.1810348720517
4676 728.1851783829781
4677 728.181252233808
4678 728.1854057891111
4679 728.181836258097
4680 728.1846918181674
4681 728.1809319667852
4682 728.1849196234006
4683 728.1811486288516
4684 728.1844059547491
4685 728.1806726133054
4686 728.1848345846842
4687 728.1809690642228
4688 728.1847801212496
4689 728.180637490902
4690 728.1847548859353
4691 728.1807238554412
4692 728.1846211693015
4693 728.1806545791951
4694 728.1841330688641
4695 728.1800755053334
4696 728.1837592068863
4697 728.1799781314676
4698 728.1838741078419
4699 728.1798895458637
4700 728.1839119651967
4701 728.1798451073663
4702 728.1845658737412
4703 728.1798608329885
4704 728.1846035195434
4705 728.1798120625862
4706 728.1853185885507
4707 728.1803684506675
4708 728.1854075368241
4709 728.1798214395179
4710 728.1856110688269
4711 728.180564334192
4712 728.1858885646285
4713 728.1807096786312
4714 728.1858266192041
4715 728.1807262754699
4716 728.1855066509029
4717 728.1806996232189
4718 728.1850230915944
4719 728.1806276567796
4720 728.1843214217357
4721 728.1798605163933
4722 728.1836801594673
4723 728.1794553414993
4724 728.1827089890717
4725 728.1786510399063
4726 728.1821281860547
4727 728.1785749710778
4728 728.1812072747067
4729 728.1778136102672
4730 728.1811587958791
4731 728.177947703625
4732 728.1808147513824
4733 728.1771940540073
4734 728.1802355205709
4735 728.1770414594589
4736 728.1803126465534
4737 728.1768110494785
4738 728.1801529545895
4739 728.1767055822996
4740 728.1801443406704
4741 728.1765000601664
4742 728.1805771759961
4743 728.1763168226281
4744 728.1804982612691
4745 728.1760527044956
4746 728.1809343111702
4747 728.1762636629967
4748 728.1808856638083
4749 728.1759056892079
4750 728.18138760095
4751 728.1766784079781
4752 728.1816390324435
4753 728.1762115095679
4754 728.181668260294
4755 728.1763785938575
4756 728.1814015581605
4757 728.1758004292232
4758 728.181119464486
4759 728.1757164512006
4760 728.1806281994533
4761 728.1755248418762
4762 728.1804321555577
4763 728.1755838776828
4764 728.1799916834336
4765 728.1753681342992
4766 728.1800044396156
4767 728.1757162464532
4768 728.1791722084691
4769 728.1751288796903
4770 728.1791916945156
4771 728.1751310256739
4772 728.1791787837177
4773 728.1747731419681
4774 728.1785648686709
4775 728.1745525431509
4776 728.1786990806006
4777 728.1749430926775
4778 728.1790300456073
4779 728.1756454138333
4780 728.179132368195
4781 728.1760158399358
4782 728.1795614973207
4783 728.1761700302796
4784 728.1795086251159
4785 728.1760070517799
4786 728.1798133319602
4787 728.1761807421556
4788 728.1794150449946
4789 728.1754752426448
4790 728.1801339813785
4791 728.1759565474104
4792 728.1797999847803
4793 728.1753041046122
4794 728.1795971056114
4795 728.1753603598322
4796 728.1794540138793
4797 728.1751277835734
4798 728.1797794485634
4799 728.1758651667025
4800 728.1798341654904
4801 728.1758276928934
4802 728.1802566284258
4803 728.1759776653942
4804 728.1799211589323
4805 728.1755467026131
4806 728.1803933493726
4807 728.1759528452923
4808 728.1800973378654
4809 728.1756708576042
4810 728.1803244751853
4811 728.1761191937676
4812 728.1803270390426
4813 728.1760378255141
4814 728.1803190040293
4815 728.1762955398303
4816 728.1799845198692
4817 728.1758115828928
4818 728.1802080532899
4819 728.1763689854664
4820 728.1800791420163
4821 728.1766863001709
4822 728.18068852456
4823 728.1769687927815
4824 728.1805827353792
4825 728.1767468454806
4826 728.1811565580231
4827 728.1775607563169
4828 728.1811259432411
4829 728.177107236866
4830 728.1812921583507
4831 728.1772656895183
4832 728.1810273467686
4833 728.1764814619717
4834 728.1807165834318
4835 728.1764934400773
4836 728.180193255412
4837 728.175775266825
4838 728.1797712035773
4839 728.1759956441911
4840 728.1793481402264
4841 728.1759166885532
4842 728.1796489443699
4843 728.1758834252087
4844 728.1796748108018
4845 728.1757302624342
4846 728.1801332490863
4847 728.1762069290926
4848 728.1801428548516
4849 728.1757591724491
4850 728.1807576702656
4851 728.1764203103857
4852 728.1807153338923
4853 728.1759915138666
4854 728.1806401415887
4855 728.17638481237
4856 728.1802497980045
4857 728.1760222424779
4858 728.1807050858126
4859 728.1766788425035
4860 728.1808549729122
4861 728.1772499967059
4862 728.1820795603248
4863 728.1777504809958
4864 728.1821623342281
4865 728.1778065267501
4866 728.182741141517
4867 728.1781918347783
4868 728.1828718100926
4869 728.1783201882204
4870 728.1829667998345
4871 728.1783487367821
4872 728.1828200138392
4873 728.1782319194807
4874 728.1827141320267
4875 728.1783350573908
4876 728.1824595205617
4877 728.1778281691819
4878 728.1823642775695
4879 728.178402647836
4880 728.1822280847349
4881 728.1786288085806
4882 728.1823228999901
4883 728.1791010555045
4884 728.1822156315112
4885 728.1788840770027
4886 728.1823367034407
4887 728.179106369812
4888 728.1821817695607
4889 728.1789229871739
4890 728.1823372871635
4891 728.1792415059398
4892 728.1829318655311
4893 728.1791470634718
4894 728.1832495617748
4895 728.1793970596146
4896 728.1831768326508
4897 728.1788549536886
4898 728.1836626023511
4899 728.1793850166941
4900 728.183237115152
4901 728.1786008253199
4902 728.1831432732396
4903 728.1785820926144
4904 728.1828627173772
4905 728.1783489036638
4906 728.1832684265278
4907 728.1787548832677
4908 728.1833293750997
4909 728.1793078579785
4910 728.1838868100664
4911 728.1799340162371
4912 728.1839735652229
4913 728.1798747292465
4914 728.1840648971989
4915 728.179996650822
4916 728.1836408986095
4917 728.1797377342702
4918 728.1839259143593
4919 728.1799408774444
4920 728.1840804669481
4921 728.1800190182473
4922 728.1849088803098
4923 728.1800994122577
4924 728.1845715848797
4925 728.1797638735569
4926 728.1843165643935
4927 728.1793205724352
4928 728.1839153903049
4929 728.1793121994184
4930 728.1840081240136
4931 728.1794368595361
4932 728.1839092678641
4933 728.1793296466103
4934 728.1843037391523
4935 728.1796116631208
4936 728.1841183681747
4937 728.1796199417983
4938 728.1844368033803
4939 728.1799851943233
4940 728.1842920313245
4941 728.1797071639396
4942 728.1844766531608
4943 728.1798035964777
4944 728.1842536641118
4945 728.1793782420461
4946 728.1843533977046
4947 728.1796522740848
4948 728.184095129594
4949 728.1793049669629
4950 728.1841994043801
4951 728.1794060484204
4952 728.1843768509774
4953 728.179313513813
4954 728.1843752797128
4955 728.1795514277602
4956 728.1843889363432
4957 728.1793521601261
4958 728.1846545330994
4959 728.1799080543195
4960 728.1837908144747
4961 728.1791953856277
4962 728.1838293126362
4963 728.1793252001085
4964 728.183170212688
4965 728.1787945312873
4966 728.1833463616713
4967 728.1790500477092
4968 728.1831574953869
4969 728.1788433442662
4970 728.1833885083294
4971 728.1793610139108
4972 728.1834416777035
4973 728.1792489538873
4974 728.1833422355098
4975 728.1796433011243
4976 728.183148226685
4977 728.1793640185135
4978 728.1831235412091
4979 728.1797423777654
4980 728.1827883140295
4981 728.1798910561747
4982 728.1835333641511
4983 728.1808813614753
4984 728.183448389524
4985 728.1801962659123
4986 728.1832958522292
4987 728.1806465800843
4988 728.1829062513605
4989 728.1804392690527
4990 728.1825968638976
4991 728.1804597722952
4992 728.1829874384847
4993 728.1800078765018
4994 728.1831977399427
4995 728.1805594427253
4996 728.1838279030221
4997 728.1803367730678
4998 728.184606609983
4999 728.1812578309159
5000 728.1850541959549
5001 728.1815298193391
5002 728.1862220635771
5003 728.1821879599718
5004 728.1863837007633
5005 728.1818224359099
5006 728.186822821719
5007 728.1823562232004
5008 728.1868974006919
5009 728.1820547334552
5010 728.186677471011
5011 728.1817593154918
5012 728.1862878744914
5013 728.1812978849415
5014 728.1860473083033
5015 728.1813018706727
5016 728.1854005733539
5017 728.1808664660529
5018 728.1857698254639
5019 728.1816507795795
5020 728.1857369273687
5021 728.1811873098708
5022 728.1857891511731
5023 728.1811620544717
5024 728.1853135087368
5025 728.1804948649308
5026 728.185153916602
5027 728.1805811470474
5028 728.184844014379
5029 728.1801315321883
5030 728.1849568076893
5031 728.1800728863695
5032 728.1849439499475
5033 728.1798833654758
5034 728.1843603421879
5035 728.1797231006626
5036 728.1843323769242
5037 728.1797795573369
5038 728.1843527780434
5039 728.1799151773795
5040 728.1839203512437
5041 728.1796764498899
5042 728.1842879707303
5043 728.1802807862273
5044 728.1842327450235
5045 728.1805017157496
5046 728.184637013906
5047 728.1809349096218
5048 728.1848328733978
5049 728.1813034883593
5050 728.185044141757
5051 728.1815881054454
5052 728.1851916878975
5053 728.1818544963909
5054 728.1852579177461
5055 728.1816797662577
5056 728.1850872965005
5057 728.1812832112586
5058 728.1846270131848
5059 728.1810346518341
5060 728.1841300914352
5061 728.1806523088545
5062 728.1838478514289
5063 728.1805062067557
5064 728.1827098565357
5065 728.1792159856038
5066 728.1826364961685
5067 728.179214852703
5068 728.1829072876051
5069 728.1790531079199
5070 728.1832994724459
5071 728.1791908487749
5072 728.1833903480092
5073 728.1792071881273
5074 728.1832060059141
5075 728.1788263692941
5076 728.1831135733543
5077 728.1786619927211
5078 728.1830928142288
5079 728.1785761525939
5080 728.1824942856127
5081 728.1784601912708
5082 728.1830855921417
5083 728.1785581340414
5084 728.1824608646147
5085 728.1781513985981
5086 728.1822901744234
5087 728.1778772257662
5088 728.1817271528944
5089 728.1779482131362
5090 728.1817557419542
5091 728.1778022892975
5092 728.1813950965452
5093 728.177319750919
5094 728.1812782056545
5095 728.1771545991101
5096 728.1813774697363
5097 728.1769970719581
5098 728.1812727281468
5099 728.1764118903279
5100 728.1812682661974
5101 728.1763327757909
5102 728.1820105281203
5103 728.1766074505365
5104 728.181455435379
5105 728.1758888837595
5106 728.1811435966442
5107 728.1758911170195
5108 728.1805566106397
5109 728.1756782886869
5110 728.1803717817239
5111 728.1761013588449
5112 728.1805557839078
5113 728.1759671819638
5114 728.1807312986822
5115 728.1765112476405
5116 728.1809816485953
5117 728.1765780640668
5118 728.1807682744085
5119 728.1764493153296
5120 728.1805252821065
5121 728.176547906666
5122 728.1807328916257
5123 728.1766620056126
5124 728.1802109621364
5125 728.1760361331889
5126 728.180194555259
5127 728.1761740246239
5128 728.1798467886777
5129 728.1757821583383
5130 728.1799669505914
5131 728.1761588179659
5132 728.1796553363225
5133 728.1752940657321
5134 728.1792621015265
5135 728.1756157023389
5136 728.1792446442611
5137 728.1755747350597
5138 728.1790860938974
5139 728.1753352890801
5140 728.1788531713163
5141 728.1753119836947
5142 728.1794854922156
5143 728.1754968925933
5144 728.1794781105352
5145 728.1748070616235
5146 728.1794341215872
5147 728.1744007262878
5148 728.1791730748719
5149 728.1742134378758
5150 728.1790865869543
5151 728.1745603599836
5152 728.1789267364785
5153 728.1738024052553
5154 728.1785586341274
5155 728.1738555084181
5156 728.1785340071267
5157 728.1737399190293
5158 728.1785471452522
5159 728.1742571463791
5160 728.1788678767068
5161 728.1748066008948
5162 728.18001570043
5163 728.1758809899483
5164 728.1796427369444
5165 728.1754488772253
5166 728.1796864187769
5167 728.175839729463
5168 728.1793676136193
5169 728.1758368436814
5170 728.1792791238106
5171 728.1759203879438
5172 728.1792109966194
5173 728.175846352224
5174 728.1794499859384
5175 728.1763715354575
5176 728.1798162628805
5177 728.175992006188
5178 728.1799071399765
5179 728.1758574550076
5180 728.1797223331008
5181 728.1753669497017
5182 728.1798023686007
5183 728.1753508868957
5184 728.1791855649921
5185 728.1746099122124
5186 728.1798718949256
5187 728.1753060993572
5188 728.1799120832311
5189 728.1752989356347
5190 728.1806047592426
5191 728.1759348685034
5192 728.1806717308979
5193 728.1756810407563
5194 728.1806269635138
5195 728.1759041677384
5196 728.1803299720801
5197 728.1762431032527
5198 728.1805463400266
5199 728.1764754666141
5200 728.1803306855575
5201 728.1765807545092
5202 728.1805014335239
5203 728.1766217619025
5204 728.1804137530341
5205 728.176913200771
5206 728.1809697710406
5207 728.1772017421746
5208 728.1807713955491
5209 728.1770454624772
5210 728.1811274145152
5211 728.177333350186
5212 728.1810155842869
5213 728.1770153879995
5214 728.1810177798802
5215 728.1770696428058
5216 728.1806623455691
5217 728.1768747145168
5218 728.1801004139603
5219 728.1769797143137
5220 728.1801054514127
5221 728.1772952782245
5222 728.1806979536391
5223 728.1775056027031
5224 728.1803139956362
5225 728.177255921987
5226 728.1803336654174
5227 728.1773353407353
5228 728.1803947617567
5229 728.1772410425793
5230 728.1806422860603
5231 728.1777164698673
5232 728.180915585161
5233 728.1774176121233
5234 728.1815009856589
5235 728.1781422424474
5236 728.1818230546447
5237 728.178075275248
5238 728.1824063239935
5239 728.1783807749559
5240 728.182750140193
5241 728.1786910478859
5242 728.1836668153452
5243 728.178911021115
5244 728.1837970178719
5245 728.1788603643619
5246 728.1843054137288
5247 728.1791768597834
5248 728.184402481106
5249 728.1793760370145
5250 728.1843793972808
5251 728.1798461610376
5252 728.184297831011
5253 728.179502467922
5254 728.1841975698773
5255 728.1799143722018
5256 728.1840992969558
5257 728.1796243065173
5258 728.1839956347794
5259 728.1794818108746
5260 728.1840349085047
5261 728.1793554911784
5262 728.1842730963442
5263 728.1791212993819
5264 728.1839602306341
5265 728.1787975005367
5266 728.1840006446629
5267 728.1786327527243
5268 728.1834133299333
5269 728.1786526630003
5270 728.1835555013179
5271 728.1789696631413
5272 728.1829568298966
5273 728.1783814153101
5274 728.1830366717975
5275 728.1790453298858
5276 728.1829933377475
5277 728.1787719305688
5278 728.1831286698745
5279 728.1792058968135
5280 728.183072301195
5281 728.1789317705628
5282 728.1837544420089
5283 728.1795904324492
5284 728.1837021386876
5285 728.1794951702781
5286 728.1836939548579
5287 728.1796990695339
5288 728.1839665115519
