"x-rfile"
"Iteration" "x"
("Iteration" "x")
1 4806.30691192302
2 4310.633677784183
3 3173.903001561402
4 2599.240350291089
5 1876.239967576227
6 1385.43914239788
7 1076.819153481393
8 812.3628756627966
9 586.9427805991091
10 410.5330475474045
11 258.7322491503865
12 148.5004835940564
13 64.71739189972936
14 17.86871736872827
15 -10.56128707574211
16 -19.06015080315889
17 -18.89186306640394
18 -12.32290894627523
19 -0.6992263667046683
20 11.64449849403139
21 24.96989794096082
22 37.96425562432864
23 49.92998536729381
24 59.46779569952117
25 68.94611103566665
26 76.73203542199008
27 83.69771090030902
28 88.90727555013787
29 93.08034565472838
30 95.72421359527314
31 97.51017931008606
32 98.64581296937737
33 99.19612361131927
34 99.27263070316762
35 98.98911506403557
36 98.39454774495681
37 97.55775917397511
38 96.69017884924244
39 95.58780161983391
40 94.52847050867311
41 93.08581983506951
42 91.61314092792819
43 89.89873818190435
44 88.28899270750711
45 86.52373629138057
46 84.92513982995834
47 83.37669268776651
48 81.80294371298307
49 80.40675233505362
50 79.07535893623509
51 77.75101109691985
52 76.58080951047144
53 75.37636918910042
54 74.18794088414151
55 73.22549744855186
56 72.20311575465689
57 71.11911748070122
58 70.19879115264739
59 69.18812217369947
60 68.18214156016866
61 67.13461625840499
62 65.94217207736685
63 64.79816162564127
64 63.7273948949044
65 62.57197831128649
66 61.55270913466777
67 60.5798689455656
68 59.70280161505769
69 58.84985813203772
70 58.067058956522
71 57.28401655181412
72 56.6252043548814
73 55.92973847002143
74 55.25855984062554
75 54.6408207713165
76 54.02196960138033
77 53.4613374100611
78 52.89030670279934
79 52.27475528461284
80 51.66506551649412
81 51.02305618628209
82 50.39774417969225
83 49.75021375176841
84 49.12588595935315
85 48.49279134099185
86 47.75500673342207
87 47.17293596393294
88 46.49223545047553
89 45.84352859369965
90 45.24977548117351
91 44.67243854273322
92 44.23506463348748
93 43.68802064114755
94 43.27703503230053
95 42.75558689268119
96 42.36490459403169
97 41.95230723443354
98 41.56036046098672
99 41.15308499190118
100 40.77127486267276
101 40.37213715727074
102 40.00565807621319
103 39.71367019628509
104 39.34587402590517
105 39.05984272871444
106 38.7904355014908
107 38.40479889102107
108 38.14888341053286
109 37.77855649839483
110 37.53451319616698
111 37.18272122982894
112 36.95374334447257
113 36.62567442898387
114 36.41367886250824
115 36.10425435841982
116 35.90557125113969
117 35.61373529031949
118 35.42663962588656
119 35.15433472224716
120 34.98098519460742
121 34.7232884349453
122 34.56283201141811
123 34.32275639180229
124 34.1729240145516
125 34.00489916982982
126 33.85797146200191
127 33.69565899936593
128 33.55326926925652
129 33.39700599426673
130 33.26381230894264
131 33.11599414286285
132 32.99020380903136
133 32.85320738290303
134 32.73714916269223
135 32.60765268971995
136 32.50159818363282
137 32.38371718287947
138 32.29049738602855
139 32.15035678031047
140 32.07336486108663
141 31.97879157153622
142 31.88190307559294
143 31.79990985417361
144 31.73738055623141
145 31.63501143058547
146 31.58508074263149
147 31.51125950367178
148 31.44006263005172
149 31.3744310792373
150 31.32761068850276
151 31.24172109231208
152 31.20370069355319
153 31.14071997031285
154 31.10152645853195
155 31.03982680630134
156 31.00168348421069
157 30.94337021823459
158 30.89440485778441
159 30.84383382181436
160 30.81433023316417
161 30.76574887917528
162 30.73980335415555
163 30.6946280623265
164 30.67028808223186
165 30.62873947581647
166 30.59715947893323
167 30.56329650929871
168 30.54522847699596
169 30.51047679006697
170 30.49280547891361
171 30.45725829787725
172 30.4312540109272
173 30.40050674855858
174 30.38238456134122
175 30.34697407551657
176 30.32779849928626
177 30.28027541654641
178 30.26566574260071
179 30.2292357051199
180 30.20900190521342
181 30.16906848978806
182 30.1345345706732
183 30.09883022376699
184 30.07748198953876
185 30.03603613589243
186 30.01271400501475
187 29.95674478367238
188 29.93637681202908
189 29.89390186178579
190 29.86862674846472
191 29.82468684286371
192 29.79752513136715
193 29.73729637905359
194 29.71423077554682
195 29.67072091746117
196 29.64491784454345
197 29.5996629269186
198 29.57154500349505
199 29.5284521103377
200 29.49962655148491
201 29.45461622307271
202 29.40717877369646
203 29.36732191784537
204 29.33966072952031
205 29.29692587754013
206 29.26856041106948
207 29.22356516777838
208 29.19539767374942
209 29.149746238606
210 29.1200501852278
211 29.07369007961058
212 29.04365321504858
213 28.99638513412008
214 28.96572003654574
215 28.91916685335374
216 28.88845777535258
217 28.84261758271099
218 28.81044613168472
219 28.76592385085534
220 28.73475828943973
221 28.69062874844042
222 28.65948263815441
223 28.61689409086324
224 28.58564150212128
225 28.54358976422293
226 28.51225701325308
227 28.47041999421069
228 28.44068510698905
229 28.40037858861661
230 28.37043599411286
231 28.3303535096013
232 28.30288095351776
233 28.26234835272215
234 28.23471545070454
235 28.19481068119574
236 28.16931179069735
237 28.12957041089102
238 28.10418272721639
239 28.06509438172602
240 28.04104061524029
241 28.00290632642709
242 27.97896815509007
243 27.94160000334625
244 27.91976662342123
245 27.88396561573072
246 27.86275332170787
247 27.82808708817198
248 27.80894823786727
249 27.77451072935869
250 27.75587049675428
251 27.72181125693601
252 27.70493297721682
253 27.67263320211339
254 27.65600295201259
255 27.62527867785096
256 27.6106310656193
257 27.58068398881203
258 27.56660462626661
259 27.53774156281203
260 27.52488118302747
261 27.4969604167943
262 27.48397482427935
263 27.45656104175189
264 27.44459945189528
265 27.41821691600456
266 27.40611418341836
267 27.38040857641516
268 27.36963049273252
269 27.3443041830612
270 27.33342147263726
271 27.30924019777117
272 27.29984789054802
273 27.27693366016716
274 27.2675049716437
275 27.24523227976921
276 27.23796076481665
277 27.21683494384696
278 27.20912646479901
279 27.18864442042708
280 27.18223241591289
281 27.16243628859532
282 27.15535565446202
283 27.13580501424448
284 27.12950722620153
285 27.11054959517394
286 27.10356875892609
287 27.08444128455367
288 27.07843166765412
289 27.05950016042761
290 27.05305233257354
291 27.03438799642912
292 27.02846130193128
293 27.00971774883727
294 27.0039770051881
295 26.98622834224099
296 26.98206325006582
297 26.96455627100145
298 26.96023931695899
299 26.94264620304427
300 26.93920334526239
301 26.92174349529336
302 26.91779668055933
303 26.90024165932725
304 26.89679962015594
305 26.87850988517312
306 26.87399183962079
307 26.85481375470197
308 26.85030166667395
309 26.83100701962955
310 26.82631611354953
311 26.80724465798228
312 26.80326649613304
313 26.78456571341038
314 26.77997720077769
315 26.76216539674273
316 26.75874271678321
317 26.74107722143544
318 26.73721932666357
319 26.71990983708796
320 26.71671765639325
321 26.70069436598402
322 26.69622342528933
323 26.68026712713543
324 26.67563572462121
325 26.65945030232762
326 26.65373316836051
327 26.6370642709611
328 26.63185061249088
329 26.61432410017595
330 26.60762531560756
331 26.59010624266284
332 26.58413637152536
333 26.56604091459665
334 26.55847753631519
335 26.54100810519282
336 26.53461321983212
337 26.51676865311194
338 26.51045834353498
339 26.49313046592112
340 26.48756879058687
341 26.47032471926587
342 26.46443514543341
343 26.44826502375921
344 26.44289755841512
345 26.42673243104187
346 26.42126821157155
347 26.40560609813632
348 26.40071436653607
349 26.38459653738485
350 26.37905698572768
351 26.36332587085509
352 26.35888978920709
353 26.34252997885555
354 26.3380946211744
355 26.32185311402569
356 26.3185575304711
357 26.30163379241992
358 26.29757059264069
359 26.28000374752598
360 26.27681977807145
361 26.25913047403533
362 26.25518294045631
363 26.2375821774284
364 26.23435986035089
365 26.21657770432003
366 26.21267799617159
367 26.19591443785529
368 26.19210474273475
369 26.17526307254246
370 26.17119196739782
371 26.15485787068869
372 26.15107951764336
373 26.13496015480304
374 26.13017948457868
375 26.11454125334678
376 26.11064099987903
377 26.09417156692806
378 26.09032230183519
379 26.07399969906736
380 26.06996732204829
381 26.05358377101701
382 26.04992431091864
383 26.03328322374633
384 26.03023847506634
385 26.01444606096303
386 26.00990987837076
387 25.99421109486842
388 25.99110601029202
389 25.97508095371444
390 25.97140474401604
391 25.95593794835776
392 25.95325904961607
393 25.93812916437212
394 25.93562376448218
395 25.92046397495632
396 25.91838115607011
397 25.90342892994736
398 25.90115499363874
399 25.88669895135746
400 25.88472190894061
401 25.86978257925823
402 25.86723937609952
403 25.85225225686826
404 25.85009802979619
405 25.83514214815263
406 25.83260438194718
407 25.81646751999032
408 25.81497465941616
409 25.79899608729927
410 25.79652492953456
411 25.78041470149723
412 25.77867745479674
413 25.76264123351214
414 25.75995960547218
415 25.74453577612006
416 25.74213371606044
417 25.72763653151599
418 25.72504606831475
419 25.71047941471055
420 25.70804369012253
421 25.6947251404664
422 25.69194253312845
423 25.67899983673726
424 25.67632969962811
425 25.66336882631265
426 25.66067377202961
427 25.64775995721567
428 25.64583533643619
429 25.63326904182231
430 25.63109978411438
431 25.61792151281196
432 25.61668992903498
433 25.60369761684186
434 25.60154102421374
435 25.58804367707522
436 25.58705611120751
437 25.5730196502588
438 25.5717402280989
439 25.55742029331758
440 25.55704771613203
441 25.54279589098474
442 25.54283505391409
443 25.52809669566374
444 25.52901472472246
445 25.51425436649598
446 25.51514279348806
447 25.50079246575834
448 25.50246366615314
449 25.48768739357631
450 25.48830535436358
451 25.47380267571373
452 25.47492819711589
453 25.46098098785217
454 25.46066909740593
455 25.44655520117617
456 25.44704454029632
457 25.43355015382844
458 25.43346399542478
459 25.41974925558229
460 25.4209221273322
461 25.40681884497928
462 25.4075589501728
463 25.39440002123494
464 25.39544280570078
465 25.38341080705275
466 25.38419056509969
467 25.37208407779239
468 25.37359498057982
469 25.36141942150803
470 25.36245123418448
471 25.35098581186917
472 25.35210694763543
473 25.34024715652323
474 25.34026606911275
475 25.32862806757585
476 25.3286977661808
477 25.31628815600255
478 25.31526123367453
479 25.30249324798138
480 25.30183129993747
481 25.28960253553594
482 25.28874133136287
483 25.27630778178026
484 25.27590651041611
485 25.26370297989575
486 25.26322981359067
487 25.2510179739758
488 25.25219625921022
489 25.24051431323675
490 25.24147647118685
491 25.22969550642595
492 25.23203483324
493 25.22027123830803
494 25.22277668014133
495 25.21159451176657
496 25.21460728883379
497 25.20305747262308
498 25.20590263462556
499 25.19432875906903
500 25.19694676429327
501 25.18458023530198
502 25.1875740517642
503 25.17460445548547
504 25.17772114166829
505 25.16517059210142
506 25.16776868875207
507 25.15514009285059
508 25.15849776608815
509 25.14634442205971
510 25.14843009302831
511 25.13675477892119
512 25.13922632239421
513 25.1280917041917
514 25.12930104063891
515 25.11858544208258
516 25.11978045064111
517 25.10967443791854
518 25.11071353860425
519 25.10085324467532
520 25.10138656019091
521 25.09181511199359
522 25.09225698565793
523 25.0829339268311
524 25.08364750184887
525 25.07474272714813
526 25.0753149433507
527 25.0658130425636
528 25.0674003304616
529 25.05802972179339
530 25.05957902896247
531 25.04973218138004
532 25.05268798318668
533 25.04267703812457
534 25.04555575513777
535 25.03547967544082
536 25.03946884496122
537 25.02923532304336
538 25.0333168898045
539 25.02188766786659
540 25.0269628768837
541 25.01525930010439
542 25.01980429423871
543 25.00775777100884
544 25.01200272286443
545 24.99967202955188
546 25.0037704369886
547 24.99139516298302
548 24.99602963162441
549 24.98382850697415
550 24.98779790725011
551 24.97525385338741
552 24.98000668514914
553 24.96854018310442
554 24.97202695959061
555 24.96072132729338
556 24.96498421206583
557 24.95406832052809
558 24.95802441542444
559 24.94752599749571
560 24.95178411426107
561 24.94201662737899
562 24.94552520498664
563 24.93592651240246
564 24.93876621956768
565 24.930351700691
566 24.93251978984465
567 24.92417374901563
568 24.92652793601628
569 24.9181597163937
570 24.92070731294449
571 24.91239112880866
572 24.91564317032972
573 24.90783910702073
574 24.91040514611938
575 24.90193116975697
576 24.90544477708326
577 24.89746681869595
578 24.90083807066237
579 24.89238253163192
580 24.89643368167933
581 24.88767076725313
582 24.89151662522757
583 24.88283358117138
584 24.88628577141618
585 24.87727556489276
586 24.88059773235269
587 24.87073733277515
588 24.87489697488481
589 24.86485578954686
590 24.8685277501663
591 24.85837542926578
592 24.86262020463248
593 24.85247960544057
594 24.85680104713403
595 24.84675826774333
596 24.85186778038046
597 24.84213536180528
598 24.84714186141255
599 24.83630063639674
600 24.84266042623295
601 24.83237692855183
602 24.83896816375623
603 24.82823076951712
604 24.83491546234298
605 24.82380408386862
606 24.83007885464899
607 24.81891495176228
608 24.82523233692278
609 24.81438815203903
610 24.81999557194783
611 24.80925667751972
612 24.81422564432784
613 24.8047597958209
614 24.8088430762623
615 24.80028708521173
616 24.80400913313684
617 24.79622694971063
618 24.80007289134327
619 24.79309468861689
620 24.7971071961976
621 24.79086248974171
622 24.79448495512633
623 24.78743993642227
624 24.79163910782804
625 24.7843169835286
626 24.78749311757485
627 24.7791974940587
628 24.78297810126886
629 24.77390580755631
630 24.77748473421591
631 24.76772000702001
632 24.77284974612041
633 24.76352763742008
634 24.76832440129121
635 24.75837788001102
636 24.76450992097072
637 24.75481142112546
638 24.76103058023263
639 24.75146440848785
640 24.75800539115054
641 24.74849541688401
642 24.75498821547293
643 24.74582167682992
644 24.7520699691572
645 24.74337207685161
646 24.74886353253504
647 24.73964435067522
648 24.74573482647705
649 24.73645702566569
650 24.74164890604369
651 24.73182153806608
652 24.73804024952607
653 24.72836366877638
654 24.73415904755047
655 24.72448627717507
656 24.73080014877932
657 24.722459134489
658 24.72817173702423
659 24.71978109309108
660 24.72521822754632
661 24.71746392003973
662 24.7224701256551
663 24.71501466830924
664 24.71947919820254
665 24.712296496644
666 24.71630274695528
667 24.70894642773478
668 24.71305254733031
669 24.70524617093836
670 24.70896872192164
671 24.70090326722869
672 24.70504307271405
673 24.69698820766343
674 24.70076597696833
675 24.6922445496817
676 24.69694298394314
677 24.68889789571409
678 24.6938236423808
679 24.68530381700931
680 24.69143503760945
681 24.68311549019094
682 24.68996306217293
683 24.68163310512549
684 24.68903187209979
685 24.68051061518644
686 24.6878013092928
687 24.67902847456938
688 24.68676992348699
689 24.67692872052985
690 24.68415809762464
691 24.6745630658003
692 24.68181425906072
693 24.67208135588688
694 24.67839076990116
695 24.66890827175178
696 24.67531187028577
697 24.66635504354204
698 24.67226395945116
699 24.66302768102778
700 24.66921518719765
701 24.66015549190055
702 24.66615445064932
703 24.6576883062907
704 24.66387863532511
705 24.65565203520286
706 24.6609682246789
707 24.6524661951207
708 24.65843367574702
709 24.65036101258239
710 24.65526205321809
711 24.64744410300135
712 24.65238641592643
713 24.64463533342848
714 24.64858762744971
715 24.6413022597912
716 24.64548930210287
717 24.63903988879117
718 24.64333103445487
719 24.63666777744101
720 24.64185179545155
721 24.63594476304572
722 24.64119091039435
723 24.63500862285583
724 24.64063828627219
725 24.63443735110367
726 24.63997347303607
727 24.63309422446333
728 24.63919749983178
729 24.63142488444353
730 24.6372501224759
731 24.62815723178993
732 24.63501022848321
733 24.62555557078023
734 24.63219138680124
735 24.62268899146932
736 24.63005455787084
737 24.62021009171536
738 24.62798686145053
739 24.61861562316125
740 24.62645266891283
741 24.61782939060137
742 24.62451690400616
743 24.61548533316535
744 24.62236880143487
745 24.61386033453148
746 24.62012076856225
747 24.61129499540989
748 24.61805091064946
749 24.60912753657957
750 24.61534077761595
751 24.60656131400749
752 24.61291581080116
753 24.60467711675651
754 24.61048841032747
755 24.60249217249657
756 24.60854264481766
757 24.60098318185699
758 24.60675084980019
759 24.59942879900311
760 24.60518033536743
761 24.59818026926569
762 24.60413912724939
763 24.5976180411717
764 24.60366441733806
765 24.59757960841774
766 24.60308082499005
767 24.596479563057
768 24.60266184911551
769 24.59610275609581
770 24.60146747038394
771 24.59443412128524
772 24.60027311214022
773 24.59265786166201
774 24.59811399748576
775 24.59031513961933
776 24.59593217847142
777 24.58788995573135
778 24.59384567510762
779 24.58516653475773
780 24.59144688885062
781 24.58293357657038
782 24.5895937018984
783 24.58124858080071
784 24.58793588779326
785 24.57973852133765
786 24.58643568528468
787 24.57840226681587
788 24.58549203921687
789 24.57758514438435
790 24.58380888725077
791 24.57534241044164
792 24.58256440871657
793 24.57388127762339
794 24.58063255635601
795 24.5718985472885
796 24.57922403624495
797 24.57031863757529
798 24.5779835605738
799 24.56913350271352
800 24.57688470467175
801 24.56866914173186
802 24.57634397047992
803 24.56807615300238
804 24.57603085028459
805 24.56790321477182
806 24.57502120944904
807 24.56733157487762
808 24.57405235649483
809 24.56642538769151
810 24.57182096594125
811 24.56479218886655
812 24.57050451474467
813 24.56409575031736
814 24.56810155411838
815 24.56195856089845
816 24.56625125161121
817 24.56119745745433
818 24.56491404090921
819 24.55925124885708
820 24.5637630036534
821 24.55802174166902
822 24.5630659783225
823 24.5566699085321
824 24.56204232111959
825 24.55570847840866
826 24.56157304369098
827 24.55374673785431
828 24.56067170377393
829 24.55202405076427
830 24.55935989212305
831 24.54996917581965
832 24.55854247951534
833 24.54910348587683
834 24.5575452346068
835 24.54771137986342
836 24.55674546076752
837 24.54806617596544
838 24.55670913706467
839 24.54766221922379
840 24.55649084353686
841 24.54837210040526
842 24.55636461502611
843 24.54771512344286
844 24.55535683987085
845 24.54686875340846
846 24.55381482402791
847 24.54546861339567
848 24.55236501225796
849 24.54442993865436
850 24.55060511739321
851 24.54278724086462
852 24.54955195657502
853 24.54257616268756
854 24.54792565708766
855 24.54075244140679
856 24.54682294370362
857 24.54007773737363
858 24.54525811788426
859 24.53839531277216
860 24.54420431167493
861 24.53763800241844
862 24.54311975024412
863 24.53633474230814
864 24.54195082744216
865 24.53552327652408
866 24.54076711769807
867 24.53411226804357
868 24.54046086085459
869 24.53316568237889
870 24.53896309399719
871 24.5318097682324
872 24.53881052788443
873 24.53214057645717
874 24.53804346956705
875 24.53100906835433
876 24.53825132213778
877 24.53125073177319
878 24.53846067856498
879 24.53087467447178
880 24.53884074563925
881 24.53140564691009
882 24.53890554675488
883 24.53121867297242
884 24.53839103188571
885 24.53095590831974
886 24.53766779724517
887 24.5296386612236
888 24.53676534828345
889 24.52858527679226
890 24.5350448256014
891 24.52678189501912
892 24.533829651161
893 24.52492373279468
894 24.53138813421551
895 24.52285929947236
896 24.53011313839616
897 24.5221304469652
898 24.52910323547237
899 24.52056355355577
900 24.52852827828786
901 24.52109122745306
902 24.52806908946737
903 24.52087998044832
904 24.52742597334769
905 24.52050956033904
906 24.52664035827258
907 24.51991691709039
908 24.52603181661524
909 24.51941027968328
910 24.52479629442784
911 24.5180205276969
912 24.52382303245039
913 24.51780162163856
914 24.52285065551639
915 24.51721070209887
916 24.52357016684806
917 24.51759417889379
918 24.52358958050846
919 24.51691900416302
920 24.52428567382823
921 24.51791295430618
922 24.52465303799277
923 24.51749742628712
924 24.52486291652644
925 24.51710525559576
926 24.52388778270463
927 24.51574500881035
928 24.52328389629564
929 24.51414443529703
930 24.52147358243359
931 24.51232920197289
932 24.52066046783967
933 24.51133962915589
934 24.51913548324188
935 24.50989364297974
936 24.51829400400545
937 24.51010339567572
938 24.51757226725121
939 24.50926096469265
940 24.5175265587947
941 24.50973156026207
942 24.51703956205809
943 24.50937649371652
944 24.51680668810398
945 24.50966062552335
946 24.51658032628308
947 24.50893317443525
948 24.51649438265534
949 24.50846691381744
950 24.51522878924953
951 24.50774950382372
952 24.51488899538655
953 24.50737242605683
954 24.5137189745363
955 24.50659365200843
956 24.51342937979654
957 24.50711458134186
958 24.51279269109315
959 24.50637366416672
960 24.51210450501608
961 24.50683549925632
962 24.51155273359531
963 24.50672686120593
964 24.51156652871951
965 24.50651610063081
966 24.51080916867008
967 24.50513512697332
968 24.51048430210463
969 24.50388788997272
970 24.50916911342163
971 24.50185635182362
972 24.50888001868904
973 24.50110108311883
974 24.50783140018895
975 24.49957506819015
976 24.50782297896706
977 24.49927238385162
978 24.50753402164488
979 24.49891070947941
980 24.50854170660715
981 24.50007857703354
982 24.50906457470611
983 24.50063395219694
984 24.5097517678944
985 24.50172817992238
986 24.50980027882328
987 24.50173181746243
988 24.51006678491758
989 24.5016590979936
990 24.50910634042033
991 24.50061743939934
992 24.50829593353858
993 24.50045373163415
994 24.50715521986718
995 24.49920270875386
996 24.50605962593433
997 24.49899698136707
998 24.50514859215275
999 24.49805056320967
1000 24.50484432895604
1001 24.49836661610244
1002 24.5048448503202
1003 24.49803908157322
1004 24.50505480384414
1005 24.4986648943035
1006 24.50478897346243
1007 24.49759381864432
1008 24.5040928489859
1009 24.49709912031219
1010 24.50273776923065
1011 24.4954140905854
1012 24.50136431848392
1013 24.49418793738578
1014 24.49948560849176
1015 24.49281425152249
1016 24.49918179194742
1017 24.4931484080471
1018 24.49873104484056
1019 24.49223540224445
1020 24.49922252520338
1021 24.49354893307102
1022 24.49988324167362
1023 24.49367442596177
1024 24.5012389107835
1025 24.49497679712882
1026 24.50154654726174
1027 24.49429608133294
1028 24.5023818733766
1029 24.49429282232631
1030 24.50187837975899
1031 24.49304099362264
1032 24.50111957038262
1033 24.49220827718711
1034 24.49972164804729
1035 24.49109463608313
1036 24.49946038150411
1037 24.49072201073867
1038 24.49833079183089
1039 24.48983112250252
1040 24.49852941262013
1041 24.49054068148255
1042 24.49858483395771
1043 24.49021109933339
1044 24.49849411733885
1045 24.49091038263151
1046 24.49796192447921
1047 24.49056688433667
1048 24.4976832295355
1049 24.49058226143345
1050 24.49676963360329
1051 24.49008578500339
1052 24.49619927580687
1053 24.49014251113383
1054 24.49559877793211
1055 24.48942138337653
1056 24.49517481771085
1057 24.48944859508579
1058 24.49489784306579
1059 24.48868399857935
1060 24.49501875259801
1061 24.48878338715824
1062 24.4945749432416
1063 24.48803269061252
1064 24.49509758878516
1065 24.48904990794777
1066 24.49534855793875
1067 24.48825963632151
1068 24.49619286104254
1069 24.488787244383
1070 24.49604368966113
1071 24.4882445220983
1072 24.49626499301853
1073 24.48796011700703
1074 24.49487700283692
1075 24.48677193783554
1076 24.49446029894829
1077 24.48676769688321
1078 24.49391854947773
1079 24.48601289764801
1080 24.49378883899599
1081 24.48676144552695
1082 24.4939444045424
1083 24.48685721250287
1084 24.49445290458256
1085 24.48768811021921
1086 24.49447493918759
1087 24.48708158158153
1088 24.49469696544639
1089 24.48712417413989
1090 24.49433587310385
1091 24.48626791537036
1092 24.49338798073462
1093 24.48541904118544
1094 24.49194786381878
1095 24.48421371036688
1096 24.49110132802632
1097 24.48393977403268
1098 24.4907523825904
1099 24.48352574699466
1100 24.49042822097087
1101 24.48424880149019
1102 24.49095920796326
1103 24.48477032338663
1104 24.49144315370681
1105 24.48610598839826
1106 24.4915532173933
1107 24.48547870621119
1108 24.49177675502861
1109 24.48528300304483
1110 24.49087822456685
1111 24.48415339690702
1112 24.4904009964027
1113 24.48371257741558
1114 24.48934631574384
1115 24.48231870506942
1116 24.48940365186983
1117 24.48218196754664
1118 24.48939040470352
1119 24.48196152299654
1120 24.49021069519028
1121 24.48248607693888
1122 24.49070798979008
1123 24.48247998908856
1124 24.49135803762555
1125 24.48322424769511
1126 24.49088723584427
1127 24.4818123450795
1128 24.49076436700473
1129 24.4819739672376
1130 24.48978363114205
1131 24.48128316959766
1132 24.4899684991627
1133 24.48145250552835
1134 24.4888505937083
1135 24.48085469651077
1136 24.4887978305682
1137 24.48119756828127
1138 24.4887826498002
1139 24.48089864110656
1140 24.48867681954499
1141 24.48152574948374
1142 24.48855889324383
1143 24.48155807805313
1144 24.4882465432097
1145 24.48146232966142
1146 24.48747751397293
1147 24.48072335942302
1148 24.48731269317484
1149 24.48112601213899
1150 24.48698614681669
1151 24.48045769265594
1152 24.48670206298888
1153 24.48086700524089
1154 24.48597902366039
1155 24.48080240385725
1156 24.48649554237383
1157 24.48094044738389
1158 24.48617876196532
1159 24.48084518793124
1160 24.48651450576115
1161 24.48106057111258
1162 24.48670595035157
1163 24.48004085717565
1164 24.48724157629132
1165 24.48022827188426
1166 24.48711680110723
1167 24.47907018740629
1168 24.48791077541256
1169 24.47899374599398
1170 24.48733420292803
1171 24.47768333998395
1172 24.48765548178901
1173 24.47820882762142
1174 24.48646820880711
1175 24.47668626036838
1176 24.48592267027832
1177 24.47723820334561
1178 24.48528154684829
1179 24.47729368810726
1180 24.48547994615765
1181 24.47811567330414
1182 24.48581529050663
1183 24.47862955134537
1184 24.48613856096476
1185 24.47972518271364
1186 24.48620763393127
1187 24.4787600990266
1188 24.48607038977054
1189 24.47893607491566
1190 24.48524081887179
1191 24.4780026011548
1192 24.48528892322157
1193 24.47799632432672
1194 24.48423218253119
1195 24.47706942290187
1196 24.48434339371942
1197 24.47783787979338
1198 24.48493946001266
1199 24.4781754030554
1200 24.48526346817171
1201 24.47889068946345
1202 24.48536104274629
1203 24.47897672535601
1204 24.48555812427171
1205 24.47938334021002
1206 24.48460329931635
1207 24.47837502566691
1208 24.48439749598526
1209 24.47813641366677
1210 24.48320704307009
1211 24.47661167079635
1212 24.48330070028985
1213 24.47690092448279
1214 24.48278808043522
1215 24.47624777124982
1216 24.48378987156591
1217 24.47721061618325
1218 24.48477922343136
1219 24.47709466423424
1220 24.48601597221365
1221 24.47804682057293
1222 24.48670594762706
1223 24.47745907370218
1224 24.48675538923759
1225 24.47794238724608
1226 24.48558192907888
1227 24.47662274430682
1228 24.48545912107234
1229 24.47630296439307
1230 24.48405015722215
1231 24.47519564684512
1232 24.48394496216004
1233 24.47600291443757
1234 24.4832922403651
1235 24.47559146370702
1236 24.48303675107684
1237 24.47624774465978
1238 24.48305417473544
1239 24.47619136115064
1240 24.48331884952795
1241 24.47664282702389
1242 24.48333479026865
1243 24.47656785387916
1244 24.48313290838153
1245 24.47676186872091
1246 24.48236428344281
1247 24.47565106781262
1248 24.48165177889636
1249 24.474829737019
1250 24.48051751583041
1251 24.47371948229294
1252 24.48063218028127
1253 24.47376158708902
1254 24.48014936265085
1255 24.47355001674292
1256 24.48123775553481
1257 24.4749465217674
1258 24.48213366466391
1259 24.47519641762065
1260 24.482964457888
1261 24.4761982811341
1262 24.48325924236672
1263 24.47634605079457
1264 24.48423719800433
1265 24.47684184403472
1266 24.48393711692946
1267 24.47602134745326
1268 24.48429120428793
1269 24.47549391495202
1270 24.48336881019556
1271 24.47434988570544
1272 24.48314867195258
1273 24.4743254960371
1274 24.48167021059896
1275 24.47296238715176
1276 24.48166805673887
1277 24.47333061577938
1278 24.48126593917511
1279 24.47303642158334
1280 24.48143901203574
1281 24.47436705516034
1282 24.48206526872334
1283 24.47491113928886
1284 24.48219532901243
1285 24.47558707571532
1286 24.48191363754924
1287 24.47511995316408
1288 24.48167455741396
1289 24.47480257050188
1290 24.48075475049168
1291 24.473814434049
1292 24.48017787583662
1293 24.47394602150598
1294 24.47980749153628
1295 24.47287960059716
1296 24.48007934514642
1297 24.47399952413865
1298 24.48090778795764
1299 24.47456656149656
1300 24.48252627457113
1301 24.4762838262874
1302 24.48250231151525
1303 24.47624962085668
1304 24.48297020136489
1305 24.47682091144102
1306 24.48283981161373
1307 24.47595235212381
1308 24.48277019935138
1309 24.47532521093542
1310 24.48169724009844
1311 24.47391044811121
1312 24.48150724436868
1313 24.47357825848632
1314 24.48024665958544
1315 24.47241589977364
1316 24.48063526699032
1317 24.4728587917084
1318 24.48092833428329
1319 24.47256469127034
1320 24.48162776724889
1321 24.47345154392251
1322 24.48172442645249
1323 24.47331556172716
1324 24.48253162790888
1325 24.47407427268435
1326 24.48159415470915
1327 24.47305337642758
1328 24.48157420859981
1329 24.47348419930229
1330 24.48104595201693
1331 24.47282780639111
1332 24.48005596442906
1333 24.47249799096036
1334 24.47941002946518
1335 24.47229510169846
1336 24.47934373245705
1337 24.47325651778188
1338 24.47937161437409
1339 24.47326256873786
1340 24.47965853511909
1341 24.47438063439383
1342 24.48019893196634
1343 24.47420048867816
1344 24.48018128397968
1345 24.47490330279214
1346 24.48009662563477
1347 24.47395764377973
1348 24.47982786859225
1349 24.47349897726435
1350 24.47908615453864
1351 24.47244467553354
1352 24.47873484036797
1353 24.47191756878302
1354 24.47817160518509
1355 24.47106972754173
1356 24.47875552342855
1357 24.47167800498243
1358 24.47888648148108
1359 24.4716590360734
1360 24.48012932806817
1361 24.47239880412722
1362 24.480714334632
1363 24.47272916983145
1364 24.48138225994162
1365 24.47347173216222
1366 24.48162393178143
1367 24.47260040906698
1368 24.48161602754642
1369 24.47302571960413
1370 24.4813406320552
1371 24.47229749967549
1372 24.4817631582295
1373 24.47224872633077
1374 24.48140959130647
1375 24.47186746777804
1376 24.48094246611742
1377 24.47219293064202
1378 24.48058281389086
1379 24.47216275358561
1380 24.48051389582594
1381 24.47336275349615
1382 24.48057249652904
1383 24.47383483935605
1384 24.48108558053189
1385 24.47482409910452
1386 24.4806660944706
1387 24.47399081917854
1388 24.47954912166834
1389 24.47353535812437
1390 24.47839003677356
1391 24.47193108928053
1392 24.47715747362403
1393 24.47117840614313
1394 24.47590325406981
1395 24.46976406714262
1396 24.47587020958779
1397 24.4699145465949
1398 24.47631253644041
1399 24.47041934241644
1400 24.47695928288569
1401 24.47141954318029
1402 24.47851533180789
1403 24.47210334264042
1404 24.47962039130127
1405 24.47315382202925
1406 24.48017447263144
1407 24.47284483913471
1408 24.48059623623286
1409 24.47322333894374
1410 24.48112192812517
1411 24.47323818776455
1412 24.48122675438533
1413 24.47301577350497
1414 24.4813768842976
1415 24.47260268605951
1416 24.48106778343994
1417 24.47254745521263
1418 24.48075163302612
1419 24.47213290487792
1420 24.48092223338869
1421 24.47243915245557
1422 24.48120439108797
1423 24.47265394014616
1424 24.48105955583035
1425 24.47286436592136
1426 24.48043706034466
1427 24.47185450455802
1428 24.47989314311445
1429 24.47222111900402
1430 24.47889496147106
1431 24.47085710972354
1432 24.4789276687621
1433 24.47091403714517
1434 24.4775897644277
1435 24.46984442879842
1436 24.47739890308607
1437 24.47034293442357
1438 24.47730130671422
1439 24.47024141585376
1440 24.47749338828118
1441 24.47132926616869
1442 24.47753392968305
1443 24.47120716913555
1444 24.4778801032311
1445 24.47211987633799
1446 24.47825451762338
1447 24.47189391213739
1448 24.47846360376299
1449 24.4725001796588
1450 24.47907250315981
1451 24.47218148039579
1452 24.47958924963464
1453 24.47308753465052
1454 24.47956742032845
1455 24.47257612368767
1456 24.48019717889003
1457 24.47317963754495
1458 24.480797625771
1459 24.47339096942547
1460 24.48098756836637
1461 24.4730767238826
1462 24.48130450991134
1463 24.47247930372784
1464 24.48042260414398
1465 24.47171788844193
1466 24.47953734208135
1467 24.4702532941761
1468 24.47879743396533
1469 24.46991899680474
1470 24.47796231942305
1471 24.46933764369189
1472 24.47760013478734
1473 24.46969159191062
1474 24.47685799268484
1475 24.46891456164396
1476 24.47682335469161
1477 24.46995950764406
1478 24.47648557754847
1479 24.46956671932539
1480 24.47721585775119
1481 24.4706924988422
1482 24.4780158568904
1483 24.47186976944251
1484 24.4789117021233
1485 24.47266598919489
1486 24.47959946834537
1487 24.47248984595843
1488 24.47974727305226
1489 24.4730903357723
1490 24.47937072152498
1491 24.47212089178343
1492 24.47921083929551
1493 24.47195484431073
1494 24.47823249483251
1495 24.47102607460317
1496 24.47775934311407
1497 24.47151080109496
1498 24.4781378182218
1499 24.4710700501427
1500 24.47801632714463
1501 24.47128313633616
1502 24.47793063617023
1503 24.47105558452919
1504 24.47803768465079
1505 24.47112138504612
1506 24.47827796230141
1507 24.47113247236063
1508 24.47835141802849
1509 24.47082159117758
1510 24.47863927749321
1511 24.47017352424193
1512 24.47861703244893
1513 24.47049761395451
1514 24.4781030333418
1515 24.4696596870808
1516 24.4784410412732
1517 24.47040814138883
1518 24.47882500394043
1519 24.47079598503109
1520 24.47867355786064
1521 24.47109526766346
1522 24.47897948960485
1523 24.47131508931738
1524 24.47940857119616
1525 24.47235121611505
1526 24.47897164435272
1527 24.4718296410899
1528 24.47899181227832
1529 24.47185363066535
1530 24.47856462148926
1531 24.47172310096406
1532 24.47902849234196
1533 24.47251261016897
1534 24.47896675151883
1535 24.47247702405993
1536 24.47955111240578
1537 24.47382563576335
1538 24.47923842270022
1539 24.47345061029373
1540 24.47917377184456
1541 24.47300154469048
1542 24.47856067660255
1543 24.47212360455246
1544 24.47763952590448
1545 24.4709871958888
1546 24.47723505125339
1547 24.46988477488826
1548 24.47671822791581
1549 24.46931766984257
1550 24.47626867285083
1551 24.46877220205631
1552 24.47653554840412
1553 24.46944955029882
1554 24.47684752058701
1555 24.469916112318
1556 24.47780716728145
1557 24.47121866917528
1558 24.4791963877042
1559 24.47186009585845
1560 24.47993396764822
1561 24.4722501474894
1562 24.48050478431933
1563 24.4720375565158
1564 24.48059327982081
1565 24.47161128347834
1566 24.48018584946719
1567 24.47079714579231
1568 24.47897105825047
1569 24.47012068810263
1570 24.47817534628368
1571 24.46950916092093
1572 24.47792426180323
1573 24.46991842768487
1574 24.47684208720232
1575 24.46919425864755
1576 24.4768831256421
1577 24.47038970076354
1578 24.47709772035522
1579 24.47090908186767
1580 24.47747462533507
1581 24.47154881823872
1582 24.47770359001905
1583 24.47190386984085
1584 24.47785342849122
1585 24.47235420330514
1586 24.47697650756329
1587 24.47137400744783
1588 24.47643661698623
1589 24.47074110200409
1590 24.47604435116893
1591 24.47000232787896
1592 24.4758846895987
1593 24.46952604954692
1594 24.47570661548957
1595 24.469117422184
1596 24.47647659827549
1597 24.47042181464169
1598 24.47755196894247
1599 24.47092993151234
1600 24.4791507816895
1601 24.47196785389981
1602 24.48021683280976
1603 24.4726553294667
1604 24.48067849368725
1605 24.47274079090153
1606 24.48059402437206
1607 24.47220085580521
1608 24.47983958909133
1609 24.47156824392367
1610 24.47925078076895
1611 24.47052566936263
1612 24.47902704006997
1613 24.47020896742831
1614 24.47858596325747
1615 24.46995537913315
1616 24.47823510342702
1617 24.470184576519
1618 24.47820669713267
1619 24.47026142716414
1620 24.47852013205093
1621 24.47135301177484
1622 24.47845101604405
1623 24.47104481525258
1624 24.47874561554806
1625 24.47154037431008
1626 24.47848120808412
1627 24.47100501765429
1628 24.4782781865729
1629 24.47054876208963
1630 24.47762400880074
1631 24.46991687050098
1632 24.47747058933227
1633 24.47045709443977
1634 24.47638957999704
1635 24.46971871418717
1636 24.47685039735615
1637 24.47110724637417
1638 24.47741438189636
1639 24.47175359893239
1640 24.47823272711378
1641 24.47267434262321
1642 24.4786938752333
1643 24.47257636964523
1644 24.47825105451498
1645 24.47298626750262
1646 24.47762020200858
1647 24.47157733883466
1648 24.4772521270025
1649 24.47072595529532
1650 24.47690136783195
1651 24.4699474486212
1652 24.47664954784697
1653 24.46963184154042
1654 24.47632619139305
1655 24.46861235050559
1656 24.47678595179144
1657 24.46948084166469
1658 24.47713224463891
1659 24.46905166006438
1660 24.4779784508107
1661 24.46993718275915
1662 24.4786397504817
1663 24.47052847075289
1664 24.47930862809
1665 24.4716074294071
1666 24.47935196295926
1667 24.47123885936664
1668 24.4788626838735
1669 24.47131947478236
1670 24.47797318188621
1671 24.47047924546372
1672 24.47784147649452
1673 24.47089373180368
1674 24.47715422330139
1675 24.47020153566659
1676 24.4775854160134
1677 24.47103901355679
1678 24.47797197608896
1679 24.47096344777143
1680 24.47895989527758
1681 24.47213944291219
1682 24.47885830388954
1683 24.4718486509161
1684 24.47884569521752
1685 24.47217920070325
1686 24.47877264922812
1687 24.47183954247172
1688 24.4782756981538
1689 24.47113433723669
1690 24.47773438319291
1691 24.46971231617685
1692 24.4767682355244
1693 24.46925860055511
1694 24.47540693303153
1695 24.46826866204224
1696 24.47534438986705
1697 24.46867830376615
1698 24.47587342812072
1699 24.4696638459373
1700 24.47714584505298
1701 24.47141757196079
1702 24.47850946754583
1703 24.47193179402532
1704 24.4793234860086
1705 24.47275186888496
1706 24.47940349457997
1707 24.47181562196256
1708 24.47919763671617
1709 24.47107234999614
1710 24.47854371544776
1711 24.47043429987287
1712 24.47795685177747
1713 24.47013165298586
1714 24.47758660835357
1715 24.46993459470164
1716 24.47769709724909
1717 24.47068242959223
1718 24.4773809932943
1719 24.47043721712918
1720 24.47807923610575
1721 24.47162914568871
1722 24.47797080888534
1723 24.4713340051976
1724 24.47789233461033
1725 24.47159340375502
1726 24.47770501429804
1727 24.47065230610066
1728 24.47709367160033
1729 24.47052076449819
1730 24.47612308096161
1731 24.46934017382101
1732 24.47554519979147
1733 24.468752096434
1734 24.47475080040737
1735 24.46868983582787
1736 24.47540728315744
1737 24.46937223287658
1738 24.47619588999443
1739 24.46958049721941
1740 24.47779089868625
1741 24.47104192397721
1742 24.47808002681262
1743 24.47090881963813
1744 24.47887035624744
1745 24.47163917445777
1746 24.47876660056597
1747 24.47134575299047
1748 24.4789509182045
1749 24.47163875771795
1750 24.47888476087036
1751 24.47120452563966
1752 24.47914234606212
1753 24.47136047547903
1754 24.47835399245334
1755 24.47049300446506
1756 24.47897080605774
1757 24.47069105867256
1758 24.47885531857223
1759 24.47057470814703
1760 24.47873159427185
1761 24.47072217976945
1762 24.47843152539926
1763 24.47018709730813
1764 24.47795483040701
1765 24.47092968951813
1766 24.47733270820303
1767 24.47049543391454
1768 24.47726009948252
1769 24.47033252937932
1770 24.47657320730573
1771 24.47006933085063
1772 24.47635276138402
1773 24.46988717391575
1774 24.47655798762295
1775 24.46972393125796
1776 24.47647239173557
1777 24.47063020654753
1778 24.47606994034168
1779 24.47005267379851
1780 24.47688550197621
1781 24.47091248239371
1782 24.47675862332118
1783 24.47047278865958
1784 24.47733417420388
1785 24.47143684839788
1786 24.47743081151939
1787 24.4709644958833
1788 24.47821838820327
1789 24.47175639977483
1790 24.47782398286801
1791 24.47053871801307
1792 24.47831999667951
1793 24.47084633080144
1794 24.47765175890333
1795 24.46965032234963
1796 24.47736510361101
1797 24.4699179431495
1798 24.47737309526282
1799 24.46944241664949
1800 24.47771803883817
1801 24.47014846484927
1802 24.47727700821115
1803 24.46925445314134
1804 24.47795813137849
1805 24.46968732919714
1806 24.47723907275665
1807 24.46867235205636
1808 24.47725604936358
1809 24.46852687108164
1810 24.47697655512779
1811 24.4680854960874
1812 24.47713558602645
1813 24.46927166851229
1814 24.47659682300879
1815 24.46927065193235
1816 24.47680083457813
1817 24.46979227898688
1818 24.47675083510901
1819 24.47018159330712
1820 24.47702156878265
1821 24.47077968423542
1822 24.47748026473558
1823 24.4711356884775
1824 24.47750755339632
1825 24.47204627293164
1826 24.47683859014107
1827 24.47083301684294
1828 24.47742414598106
1829 24.47140254547289
1830 24.47743621448743
1831 24.47143687547096
1832 24.47839761720702
1833 24.47234599649003
1834 24.47842496357848
1835 24.47199845306445
1836 24.47876629722892
1837 24.4722316649767
1838 24.47804721825056
1839 24.47126424566009
1840 24.47827477871423
1841 24.47160808357268
1842 24.4782695765031
1843 24.47123692256039
1844 24.47799364159354
1845 24.47114715117272
1846 24.47768063398493
1847 24.46991199984264
1848 24.47781556603909
1849 24.47030598476571
1850 24.47679276397044
1851 24.46853869047725
1852 24.47746827862188
1853 24.46889395969545
1854 24.47717948880901
1855 24.46869412134755
1856 24.47774736623553
1857 24.46975182819967
1858 24.47812635369324
1859 24.46989485460411
1860 24.47801261175361
1861 24.4703335034977
1862 24.47764848022704
1863 24.47002129007817
1864 24.47720614192704
1865 24.47001822270833
1866 24.47649940889302
1867 24.46975491599035
1868 24.47632595384407
1869 24.47017139231552
1870 24.47663720538958
1871 24.469967271049
1872 24.47703978459268
1873 24.47106444702257
1874 24.4764975402032
1875 24.47051955112022
1876 24.47735946303454
1877 24.47133307554088
1878 24.47706587765197
1879 24.47100077779685
1880 24.4773316739171
1881 24.47085910642071
1882 24.47749335151829
1883 24.47011627518149
1884 24.4775322022406
1885 24.47014711879337
1886 24.47688504833766
1887 24.4690396259605
1888 24.47729856495485
1889 24.46913319716187
1890 24.47668360390766
1891 24.46906719817034
1892 24.47714061424542
1893 24.46985677664276
1894 24.47687056039109
1895 24.46971076135297
1896 24.47763117728158
1897 24.47110356966748
1898 24.47734809425054
1899 24.47027183138154
1900 24.47828884126507
1901 24.47108388618797
1902 24.47823295048125
1903 24.47055990230744
1904 24.47848389188955
1905 24.47119635066053
1906 24.47824610560264
1907 24.47024283102024
1908 24.47780039199497
1909 24.47043361580213
1910 24.47717211358565
1911 24.46969829524003
1912 24.47729758423039
1913 24.47009979971104
1914 24.47647084803233
1915 24.4697658496544
1916 24.47705116710687
1917 24.47111138788327
1918 24.47784166675831
1919 24.47115100129911
1920 24.47817798027525
1921 24.47182458935164
1922 24.47739670704891
1923 24.47045350908812
1924 24.47702087882649
1925 24.47014711756739
1926 24.47570053364372
1927 24.46898483785167
1928 24.47528217690797
1929 24.46874498657158
1930 24.47490725002292
1931 24.46807274888459
1932 24.47551005835771
1933 24.469124841143
1934 24.47553449387637
1935 24.46916292512088
1936 24.47770911276958
1937 24.47108252626603
1938 24.478866452493
1939 24.47167905325899
1940 24.48011043087673
1941 24.47273153900413
1942 24.48054202085968
1943 24.47236382636193
1944 24.48039345897825
1945 24.47260261841578
1946 24.47920373831174
1947 24.47131242178343
1948 24.47870847772018
1949 24.47048440671347
1950 24.47765086453862
1951 24.46968447380597
1952 24.47770017390863
1953 24.470101365415
1954 24.47747512032664
1955 24.46964430082068
1956 24.478138959699
1957 24.47075425881141
1958 24.4777568986394
1959 24.47033004619428
1960 24.4779628974767
1961 24.47072961826149
1962 24.47746004599966
1963 24.47018774334213
1964 24.4768684008515
1965 24.46977694621149
1966 24.47614937184618
1967 24.46924244465612
1968 24.47593662081285
1969 24.46910123962826
1970 24.47478316395622
1971 24.46861112945329
1972 24.47515435708517
1973 24.46908408282222
1974 24.47443591602243
1975 24.46908432700685
1976 24.47496476892416
1977 24.46975329112299
1978 24.47570960685512
1979 24.47042710382435
1980 24.47737851170614
1981 24.47214882320435
1982 24.47831511733612
1983 24.47218365377346
1984 24.47950113538503
1985 24.47310105574525
1986 24.47974258400755
1987 24.47272953234144
1988 24.47990324350886
1989 24.47199523548228
1990 24.47956727251981
1991 24.47069756375162
1992 24.47954415818984
1993 24.47047421104035
1994 24.47836995325624
1995 24.46940964952712
1996 24.47855148820221
1997 24.46937720560812
1998 24.47803628635809
1999 24.46895754502469
2000 24.47830907338881
2001 24.46980482208063
2002 24.47839004312067
2003 24.46953853629197
2004 24.47825505976522
2005 24.47029661985076
2006 24.47716739728044
2007 24.46943799098248
2008 24.47692782426186
2009 24.46963414092747
2010 24.47585619479573
2011 24.46910453692208
2012 24.47603028248951
2013 24.46930440014393
2014 24.47610084364251
2015 24.47006400262162
2016 24.47729247241675
2017 24.47147026463198
2018 24.47771655404103
2019 24.47190884968583
2020 24.47874229480364
2021 24.47288151957984
2022 24.47876560247678
2023 24.47255287182375
2024 24.47890862400696
2025 24.47226374595988
2026 24.47815846658091
2027 24.4706382377625
2028 24.47794480125989
2029 24.47057321343969
2030 24.47708505455454
2031 24.46938162057657
2032 24.47657488324941
2033 24.46905725464478
2034 24.47559187906752
2035 24.46879537860084
2036 24.47572545502381
2037 24.46922599271208
2038 24.47578402583726
2039 24.46908954777531
2040 24.47627923674285
2041 24.47004421824555
2042 24.47587297537649
2043 24.46939658047426
2044 24.47626635275634
2045 24.46997945332293
2046 24.47628791568299
2047 24.46925116171175
2048 24.47638028678974
2049 24.46928277527211
2050 24.47637549070142
2051 24.46859509286013
2052 24.47695754111625
2053 24.46937582500868
2054 24.47682352544714
2055 24.46959405949958
2056 24.47829052534682
2057 24.47084307633222
2058 24.47909639270365
2059 24.47167422946372
2060 24.48004351558852
2061 24.47270809933728
2062 24.48016712244813
2063 24.47222743726659
2064 24.47981973401642
2065 24.47298364635942
2066 24.47960927312366
2067 24.47235353603547
2068 24.47928088291386
2069 24.4722951290875
2070 24.47801645214854
2071 24.47128518370859
2072 24.47746602074389
2073 24.47128967989153
2074 24.47637435208473
2075 24.4699516570987
2076 24.47602422379016
2077 24.46944504096908
2078 24.47519250365858
2079 24.46847010071768
2080 24.47558195001528
2081 24.46868492999066
2082 24.47562735570745
2083 24.46889624278841
2084 24.47654760321243
2085 24.46997429052975
2086 24.47728143912408
2087 24.47000188733283
2088 24.4782765138537
2089 24.4706277590993
2090 24.47786218302768
2091 24.46991677154769
2092 24.47834284693477
2093 24.47010897126473
2094 24.47793749242709
2095 24.47005546706193
2096 24.47803568126278
2097 24.47047242698187
2098 24.47815372269066
2099 24.47043986831169
2100 24.4784001374033
2101 24.47181027945859
2102 24.47843988996625
2103 24.47150440678173
2104 24.47891169099155
2105 24.47190346294711
2106 24.47834024175343
2107 24.47114051007812
2108 24.47806499179493
2109 24.47090495194558
2110 24.47711604840286
2111 24.46959091224761
2112 24.47664391925268
2113 24.46988496141975
2114 24.47547865584513
2115 24.46879605966537
2116 24.47604028380448
2117 24.46907978199699
2118 24.47530472955459
2119 24.46829932465268
2120 24.47526227780001
2121 24.46879003651487
2122 24.4752984487949
2123 24.46800097623369
2124 24.47547635909915
2125 24.4684071571539
2126 24.4747133300943
2127 24.46785523244309
2128 24.47538489331169
2129 24.46895628309619
2130 24.47570812646088
2131 24.46963325415949
2132 24.47743364821529
2133 24.47121971704816
2134 24.47840707864122
2135 24.47192694559808
2136 24.47964994880701
2137 24.4731026693865
2138 24.47975599684779
2139 24.47224584326287
2140 24.48011033276084
2141 24.47212415136982
2142 24.47983321379032
2143 24.47145507904007
2144 24.47928315720337
2145 24.47081110370951
2146 24.47879957755144
2147 24.47026691017292
2148 24.478516753485
2149 24.47034093051273
2150 24.47736713686788
2151 24.46904058342509
2152 24.47743299226685
2153 24.46960683053955
2154 24.47676712465619
2155 24.46942271610319
2156 24.47652168777539
2157 24.46948057311735
2158 24.47620791051744
2159 24.46893507440425
2160 24.47611855551158
2161 24.469468563669
2162 24.47557065746146
2163 24.46908994380068
2164 24.47559460384095
2165 24.46955450655603
2166 24.47555666856168
2167 24.47016254224103
2168 24.47641816082018
2169 24.47114406489609
2170 24.47724113155871
2171 24.47088871845211
2172 24.478079593776
2173 24.47175984116114
2174 24.47827570107058
2175 24.47130705864109
2176 24.47853807436719
2177 24.47136909339456
2178 24.47865447511735
2179 24.4712091203008
2180 24.47876757710441
2181 24.47119154058494
2182 24.47923398765216
2183 24.47124640716031
2184 24.47889046165591
2185 24.47118937177816
2186 24.47842178490027
2187 24.47032382436121
2188 24.47821155255579
2189 24.46984497604251
2190 24.47732112718769
2191 24.46873613530146
2192 24.47680924713902
2193 24.46885253955993
2194 24.47683703144578
2195 24.46869007723167
2196 24.47701958989834
2197 24.46970597767484
2198 24.47666000953397
2199 24.46930908832177
2200 24.47699629493451
2201 24.46966406369886
2202 24.47649463731368
2203 24.46977312234288
2204 24.47637827583121
2205 24.46986160077003
2206 24.47638253604196
2207 24.46970952213173
2208 24.47721056687214
2209 24.47095481675131
2210 24.47732113046602
2211 24.47050829342631
2212 24.47835813453024
2213 24.47111778669904
2214 24.47829572670635
2215 24.47108604590819
2216 24.478449728477
2217 24.47150571514603
2218 24.47867227764497
2219 24.47102655951541
2220 24.47838649083142
2221 24.470854955908
2222 24.47739927751753
2223 24.46980232468004
2224 24.47663777551442
2225 24.4692414168485
2226 24.47602582999174
2227 24.46868344165379
2228 24.4758346641115
2229 24.46880269900322
2230 24.47600268879209
2231 24.46833857809687
2232 24.47645395180783
2233 24.46968768737635
2234 24.47661625260496
2235 24.46974039908001
2236 24.4774833948215
2237 24.4706340886502
2238 24.47752912744824
2239 24.47068629518113
2240 24.47794380953194
2241 24.47139545651078
2242 24.47827060327169
2243 24.47109902086126
2244 24.47794772031602
2245 24.47090432921771
2246 24.47779205619819
2247 24.47041699092486
2248 24.47824507454745
2249 24.47018996402216
2250 24.47758505565526
2251 24.46925076474748
2252 24.47766115689261
2253 24.47003657337545
2254 24.47761505439977
2255 24.46974392964964
2256 24.47830803246159
2257 24.47104275607293
2258 24.47821483171058
2259 24.47084508432482
2260 24.4787561745502
2261 24.47123732851601
2262 24.47816406852082
2263 24.47050001523059
2264 24.47676768588455
2265 24.4692769286651
2266 24.47615892029477
2267 24.46870298792275
2268 24.47589648775557
2269 24.4689653499349
2270 24.47520591024499
2271 24.46824209635304
2272 24.47572664855639
2273 24.46924166674223
2274 24.4759046776537
2275 24.46955265423155
2276 24.47718415676085
2277 24.47109550546874
2278 24.47787643242598
2279 24.47135279816091
2280 24.47865453065071
2281 24.47270460489125
2282 24.47883323529558
2283 24.47215594505493
2284 24.47867319549729
2285 24.47169164407456
2286 24.47855445834336
2287 24.47099984609424
2288 24.47800590429733
2289 24.47054552039289
2290 24.4775671191238
2291 24.46941346815411
2292 24.47734656967707
2293 24.46984430274665
2294 24.47654948988615
2295 24.46926762541123
2296 24.47733132623545
2297 24.47012391540263
2298 24.47726177724083
2299 24.47029375235358
2300 24.47751210788557
2301 24.47098276304549
2302 24.47748859327274
2303 24.47047310561188
2304 24.47674845517058
2305 24.4702624867051
2306 24.47580460650338
2307 24.46897269348937
2308 24.47548362894812
2309 24.46888116549666
2310 24.47479714419837
2311 24.46854880891431
2312 24.47564870741053
2313 24.46913230558635
2314 24.47596216624072
2315 24.46943054826289
2316 24.47800380197089
2317 24.4715886248704
2318 24.47868200559555
2319 24.47162167565316
2320 24.48044029269718
2321 24.472791052651
2322 24.48062754326952
2323 24.47278210311944
2324 24.48031900910749
2325 24.47219436304901
2326 24.47937121061729
2327 24.47071659386953
2328 24.47854290833275
2329 24.4707489197249
2330 24.47730151718846
2331 24.46943420809514
2332 24.47765028338064
2333 24.46945085883032
2334 24.4767114292735
2335 24.46921985687031
2336 24.47713402092996
2337 24.47009116383629
2338 24.47705794538497
2339 24.46939835524235
2340 24.47704877369052
2341 24.47000880638797
2342 24.47698993842578
2343 24.46964197241129
2344 24.47676010202854
2345 24.4693045733616
2346 24.47629373755271
2347 24.46907768135437
2348 24.47606763573861
2349 24.46908317347979
2350 24.47594035893939
2351 24.46891256796123
2352 24.47605804750289
2353 24.46965737190617
2354 24.47567199568529
2355 24.46968018194639
2356 24.47670487143899
2357 24.47082512925593
2358 24.47671934032616
2359 24.47095603602511
2360 24.47786035693895
2361 24.47192356527199
2362 24.47846529612588
2363 24.47197382063969
2364 24.47853204570497
2365 24.472262553252
2366 24.47801683957351
2367 24.4714059359467
2368 24.47812686841519
2369 24.47064019450107
2370 24.47698659855379
2371 24.46962181836513
2372 24.47739659254102
2373 24.46982618916538
2374 24.47725631104583
2375 24.46937085689166
2376 24.47790167023027
2377 24.47049707863255
2378 24.47741281237188
2379 24.46988590433559
2380 24.47843151832325
2381 24.47080958396421
2382 24.47841557185892
2383 24.47084711197908
2384 24.47859157044558
2385 24.47121856909195
2386 24.47894806782783
2387 24.47122573006112
2388 24.47882788497543
2389 24.47109038193678
2390 24.47800084954771
2391 24.47025253439994
2392 24.47794388936211
2393 24.47028568840559
2394 24.47756935706609
2395 24.47047607468389
2396 24.47788074390225
2397 24.47118300082715
2398 24.47805473961079
2399 24.47092794572625
2400 24.47876258216897
2401 24.47193924536652
2402 24.47864300825732
2403 24.47114169087251
2404 24.47850362537949
2405 24.47088389957575
2406 24.47724853044557
2407 24.46958968391669
2408 24.47675995813863
2409 24.46968959380691
2410 24.47654414173171
2411 24.46895791169713
2412 24.47690352194861
2413 24.46973623930582
2414 24.47644772247698
2415 24.46955307281215
2416 24.47721811641355
2417 24.47055243024212
2418 24.47673541824669
2419 24.47001672201879
2420 24.47704459951278
2421 24.47070148385562
2422 24.4770202265086
2423 24.46979934223308
2424 24.47714794426582
2425 24.47034228758199
2426 24.47657869419008
2427 24.46917959056302
2428 24.47745986911493
2429 24.46968210240453
2430 24.47748771824864
2431 24.46911223790198
2432 24.47733324400075
2433 24.46926426563112
2434 24.47694098833311
2435 24.46935073915656
2436 24.47734498706584
2437 24.47039143903574
2438 24.47690286862998
2439 24.46965002265076
2440 24.47735605708003
2441 24.4704483142309
2442 24.47738590668526
2443 24.47054816259458
2444 24.47729514054841
2445 24.47082221615316
2446 24.47751949067106
2447 24.47051452146559
2448 24.4777882357553
2449 24.47127501155076
2450 24.47735335526369
2451 24.47043648408448
2452 24.47798665929718
2453 24.47049791425461
2454 24.47719994499226
2455 24.46966229436476
2456 24.47743357737255
2457 24.4699984198776
2458 24.47719838790157
2459 24.46916611910306
2460 24.47780593718719
2461 24.46988151878669
2462 24.47724569331647
2463 24.46943968624045
2464 24.47746129409812
2465 24.47024652465094
2466 24.47711323219345
2467 24.46992334130225
2468 24.47740062823163
2469 24.47079248260002
2470 24.47719199605975
2471 24.47063897229243
2472 24.47770473579633
2473 24.47151592107005
2474 24.47719035033841
2475 24.47099542179581
2476 24.47772969390844
2477 24.47100389086349
2478 24.47698275119428
2479 24.47030207314283
2480 24.47725914969076
2481 24.47018747763486
2482 24.47709353725086
2483 24.46978695786699
2484 24.4770984178733
2485 24.47051618980548
2486 24.47721555155161
2487 24.4704059112992
2488 24.47790786265055
2489 24.47095164781562
2490 24.47774821298235
2491 24.47090829157496
2492 24.47776671267751
2493 24.47098918623266
2494 24.47765664959339
2495 24.47102271967409
2496 24.47776728062058
2497 24.47165336749414
2498 24.47716574151024
2499 24.47086067950806
2500 24.4774705757227
2501 24.47081591578961
2502 24.47682119462075
2503 24.46986324871206
2504 24.47663007668348
2505 24.47003149279189
2506 24.47641544428386
2507 24.4688731565673
2508 24.47707967974135
2509 24.46950569501696
2510 24.47697013746183
2511 24.46889438207889
2512 24.47829415027364
2513 24.46985705091533
2514 24.4783617920695
2515 24.47019732408709
2516 24.47927688634537
2517 24.47075427666642
2518 24.47924935083383
2519 24.47026503073755
2520 24.47892778889245
2521 24.47036575937839
2522 24.47759214901005
2523 24.46919682171886
2524 24.47716705887674
2525 24.46935571342727
2526 24.47653550674084
2527 24.46884376103467
2528 24.4761447908128
2529 24.46934700963563
2530 24.47631190434405
2531 24.46948442902813
2532 24.4766853337763
2533 24.47059141028036
2534 24.47687477586145
2535 24.47053314137434
2536 24.47758986373441
2537 24.47082365628593
2538 24.47744297282397
2539 24.47064720265167
2540 24.47722312081983
2541 24.4703892261623
2542 24.47679860707003
2543 24.46977478249823
2544 24.47636914781377
2545 24.47001021889096
2546 24.47556780100791
2547 24.46904632550423
2548 24.47612347620672
2549 24.4696874936022
2550 24.47613330737956
2551 24.46975031658081
2552 24.47688276459721
2553 24.47026892286308
2554 24.47714043916426
2555 24.47034431740947
2556 24.47795866882251
2557 24.47117098721821
2558 24.47785114343385
2559 24.47152492099087
2560 24.4790350810433
2561 24.4723094351894
2562 24.47875188176517
2563 24.47207162252792
2564 24.47859867070594
2565 24.47213496633249
2566 24.47800063103076
2567 24.47098035258788
2568 24.47853877350136
2569 24.47117486930285
2570 24.47770465622488
2571 24.47019514951356
2572 24.47882571034847
2573 24.47057240635956
2574 24.47822717485177
2575 24.47042262783209
2576 24.47882890553478
2577 24.47060243007849
2578 24.47850276585782
2579 24.47000340629062
2580 24.47806303621329
2581 24.46977174743996
2582 24.47708543391585
2583 24.46888895263983
2584 24.47676169936539
2585 24.46893280062518
2586 24.47598732519098
2587 24.46823025125719
2588 24.47611483868287
2589 24.46864436290206
2590 24.47587779501388
2591 24.46836296708773
2592 24.47631442361324
2593 24.46974564996597
2594 24.4760118953957
2595 24.46978034453141
2596 24.47691937324253
2597 24.47090296051465
2598 24.47727675532973
2599 24.47161460050356
2600 24.47776627995061
2601 24.4717552032962
2602 24.47829302524646
2603 24.47139679883664
2604 24.47786438006047
2605 24.47111969531367
2606 24.47699632695814
2607 24.46969717269199
2608 24.47650780455791
2609 24.46952968169163
2610 24.4765470120305
2611 24.46958416353771
2612 24.4772412924061
2613 24.47044399358084
2614 24.47759170938983
2615 24.47038863423892
2616 24.47826378191103
2617 24.47153152515099
2618 24.47820068360877
2619 24.47091159582742
2620 24.4781532721726
2621 24.47042768770194
2622 24.47749654985749
2623 24.46972288433893
2624 24.47701007349787
2625 24.46975078633006
2626 24.47675848434004
2627 24.46902957767078
2628 24.47690997329331
2629 24.46959712164504
2630 24.47640634666023
2631 24.46930739392975
2632 24.47738571931085
2633 24.47034447145559
2634 24.47756646228239
2635 24.47063317917917
2636 24.47855319544813
2637 24.47175102735103
2638 24.47898270368787
2639 24.47155546942979
2640 24.47917159904104
2641 24.47216460188806
2642 24.47869791983751
2643 24.47127678150327
2644 24.47798921977171
2645 24.47059497780495
2646 24.47731103525033
2647 24.46969548929125
2648 24.47658112315117
2649 24.46870260981074
2650 24.47588971831
2651 24.46799439675341
2652 24.47609575978804
2653 24.46856988269909
2654 24.47584246003951
2655 24.46832668310521
2656 24.47614619937842
2657 24.4692626889046
2658 24.47663551045616
2659 24.46995269591866
2660 24.47705817132162
2661 24.47076357974917
2662 24.47759325535516
2663 24.47109724285643
2664 24.4778804129807
2665 24.47141727994637
2666 24.47782130160085
2667 24.4705972572493
2668 24.47760663068836
2669 24.47019067546137
2670 24.4771177464407
2671 24.46995275917393
2672 24.47708725670869
2673 24.47050168940662
2674 24.47722455020737
2675 24.47043691442302
2676 24.47816099921436
2677 24.47179743560707
2678 24.4778620925007
2679 24.47113677231837
2680 24.47817492461964
2681 24.47175756110687
2682 24.47781229859307
2683 24.47104763963883
2684 24.47718404630697
2685 24.47066734386175
2686 24.47677317587432
2687 24.46974732426686
2688 24.47661386043571
2689 24.46994118329604
2690 24.47598960929007
2691 24.46886132988697
2692 24.47619572919637
2693 24.46924852974072
2694 24.47596252112542
2695 24.46870586912581
2696 24.47656886460076
2697 24.46937347342229
2698 24.47704364355866
2699 24.46960351007663
2700 24.47806917194888
2701 24.47095341796387
2702 24.47901569190115
2703 24.47140922394643
2704 24.47921057451943
2705 24.4715416413314
2706 24.47894080390812
2707 24.47140917933752
2708 24.47862807857535
2709 24.47093183517791
2710 24.4781307524114
2711 24.47064440790558
2712 24.47806456980251
2713 24.4711780763875
2714 24.4776332524939
2715 24.47054964574341
2716 24.47826808583663
2717 24.47109254810464
2718 24.4780641152633
2719 24.47079060944342
2720 24.47819261441675
2721 24.47076943671632
2722 24.47771354822958
2723 24.46965016819445
2724 24.47740600897672
2725 24.46998901371364
2726 24.47656815918812
2727 24.46919827285492
2728 24.47647893802195
2729 24.46928253628208
2730 24.4758639579144
2731 24.46874699352813
2732 24.47627370751155
2733 24.46950923627664
2734 24.47620875618455
2735 24.46943989196056
2736 24.47733206038951
2737 24.47095980491225
2738 24.47724045640688
2739 24.47070109533159
2740 24.47791762091789
2741 24.47166422874193
2742 24.47810797902895
2743 24.47145963928836
2744 24.47809088422548
2745 24.47194721315945
2746 24.47844054834236
2747 24.47111800782481
2748 24.47835409949977
2749 24.47108768226988
2750 24.47809054974775
2751 24.47030892877293
2752 24.47821159291968
2753 24.4706178041408
2754 24.47761480723982
2755 24.47024213734714
2756 24.47737238452751
2757 24.4703161183962
2758 24.47700899738116
2759 24.46972090989323
2760 24.47687910911387
2761 24.4702915443381
2762 24.47641724965156
2763 24.469130335299
2764 24.47644243625525
2765 24.46944499227653
2766 24.47647221071558
2767 24.46953725892036
2768 24.47648248495986
2769 24.46917444313928
2770 24.47648771927177
2771 24.46880315133293
2772 24.47702036924344
2773 24.46960275758791
2774 24.47636266800695
2775 24.46914887418729
2776 24.4773476209934
2777 24.4700810018914
2778 24.47766967644742
2779 24.47032586856702
2780 24.47822668479444
2781 24.47098050258188
2782 24.47809109974064
2783 24.47047883663388
2784 24.478336692861
2785 24.4720359915373
2786 24.47815779904134
2787 24.47174523562142
2788 24.47867871315111
2789 24.47187301773858
2790 24.47788723360368
2791 24.47118264236621
2792 24.47828101817063
2793 24.47127639310561
2794 24.47750831378676
2795 24.47009007584788
2796 24.47779501279433
2797 24.47025188516653
2798 24.47681919408044
2799 24.46903428767598
2800 24.47723225680179
2801 24.46971281722962
2802 24.4770746591302
2803 24.46950104566495
2804 24.47716174665712
2805 24.47028031014868
2806 24.47708606684592
2807 24.46980084915746
2808 24.47724174927166
2809 24.47057204225895
2810 24.4770501881995
2811 24.47019428855333
2812 24.47789280215613
2813 24.47096283751501
2814 24.47744672106414
2815 24.47102800716489
2816 24.47815451682728
2817 24.47139168423715
2818 24.478126149485
2819 24.47100044812369
2820 24.47819851544726
2821 24.47126448048567
2822 24.47745511866207
2823 24.47031726189412
2824 24.47734678443462
2825 24.47017645978451
2826 24.47702699906128
2827 24.46984572732544
2828 24.47734005845902
2829 24.46992223432628
2830 24.47758015678428
2831 24.46985858503652
2832 24.47758003195414
2833 24.46993433419085
2834 24.47714631864463
2835 24.46960914663734
2836 24.47711066428221
2837 24.46933502074609
2838 24.4760354897885
2839 24.46846449761651
2840 24.47613746900445
2841 24.46890443483293
2842 24.47556385122877
2843 24.46795858332184
2844 24.47611377113817
2845 24.46853225342148
2846 24.47607666065602
2847 24.46849810797102
2848 24.4767980895953
2849 24.46934167215961
2850 24.4773685370696
2851 24.47013535360594
2852 24.47874297621652
2853 24.47166864207394
2854 24.47927465790983
2855 24.47240677117054
2856 24.47973669712057
2857 24.47332488411799
2858 24.47957456180107
2859 24.47333575794846
2860 24.47953559165818
2861 24.47274308936448
2862 24.47765004021197
2863 24.47080797180741
2864 24.47672874122369
2865 24.47074781060777
2866 24.47606176992822
2867 24.47001321887874
2868 24.47563553156516
2869 24.46967811299323
2870 24.47539242074821
2871 24.46950944508234
2872 24.47579853196142
2873 24.46972264465397
2874 24.47606645923461
2875 24.46972155224185
2876 24.47663093462993
2877 24.46996647517809
2878 24.47661195457644
2879 24.46930489947733
2880 24.47687115993791
2881 24.46956037884716
2882 24.4764270024082
2883 24.46890429427724
2884 24.47670430136947
2885 24.46941332177492
2886 24.47651563647844
2887 24.46916931192109
2888 24.477195343716
2889 24.4702440395217
2890 24.4776426073708
2891 24.47047705694336
2892 24.47900422074767
2893 24.47185337119691
2894 24.47941438118166
2895 24.47211674767557
2896 24.48062209044845
2897 24.47276117446417
2898 24.48009872655734
2899 24.47245969406336
2900 24.4800632218416
2901 24.47276079294637
2902 24.47886401092422
2903 24.47090463002066
2904 24.47799523776762
2905 24.47092676469382
2906 24.47673399784434
2907 24.46923664167254
2908 24.47611466837456
2909 24.46880567301413
2910 24.47515063845015
2911 24.46760525149511
2912 24.47555682925124
2913 24.46846016195328
2914 24.4759191415368
2915 24.46837838743605
2916 24.4768328110446
2917 24.46961521290932
2918 24.47722319899346
2919 24.4701114522949
2920 24.4777831511868
2921 24.4705548313757
2922 24.47731632177236
2923 24.46997723104406
2924 24.47708498298276
2925 24.47087149378422
2926 24.47684743376109
2927 24.47003497212448
2928 24.47711541430569
2929 24.47116508324922
2930 24.47751413608262
2931 24.47167710922401
2932 24.47862499215336
2933 24.47295443268643
2934 24.47899787369811
2935 24.47342245906768
2936 24.4794524978982
2937 24.47309770291065
2938 24.478960932601
2939 24.47149670436908
2940 24.47810219061116
2941 24.47055136383287
2942 24.47717557763328
2943 24.46881834975003
2944 24.47677116142756
2945 24.46857060805397
2946 24.47583815889669
2947 24.46725435001436
2948 24.47554120055461
2949 24.46751468300464
2950 24.47549019484618
2951 24.46715494931261
2952 24.47609213205706
2953 24.46843262890916
2954 24.47637913045117
2955 24.46902407423883
2956 24.47698316582137
2957 24.46956279378534
2958 24.47741765596679
2959 24.47008337097953
2960 24.47799418542157
2961 24.47124775919965
2962 24.47829092453583
2963 24.47092391335869
2964 24.47836970593573
2965 24.47225297435891
2966 24.47847307007224
2967 24.4720976727921
2968 24.4789651620396
2969 24.47261697999413
2970 24.47853192709393
2971 24.47215638610432
2972 24.47896928700654
2973 24.472514648496
2974 24.47881345264137
2975 24.47188028017159
2976 24.47854976104484
2977 24.47181781539405
2978 24.47801715948849
2979 24.47094661914446
2980 24.47748801147156
2981 24.47029619563003
2982 24.4765027213295
2983 24.46899159218491
2984 24.47532481595634
2985 24.46832555044582
2986 24.47456399681563
2987 24.46697004896354
2988 24.47438740418292
2989 24.46703488609464
2990 24.47423097193143
2991 24.46657177582821
2992 24.47525056166782
2993 24.46751000009438
2994 24.47582615229089
2995 24.46835927097541
2996 24.47711470992641
2997 24.46972403000055
2998 24.47785522136356
2999 24.4702997977067
3000 24.47828095441447
3001 24.47154883998991
3002 24.47866238648661
3003 24.47169683401781
3004 24.4784426469947
3005 24.47184234403588
3006 24.47834603991833
3007 24.4715881158182
3008 24.47856093950257
3009 24.47218009258069
3010 24.47770799596393
3011 24.47115129706111
3012 24.47777650513637
3013 24.47169114458942
3014 24.47726102345314
3015 24.47113474235006
3016 24.4779901156179
3017 24.4715935123306
3018 24.47796301850397
3019 24.47105268448761
3020 24.47803888325153
3021 24.47080045868208
3022 24.47738637159753
3023 24.46971491337749
3024 24.47668474386038
3025 24.46927569669082
3026 24.47608611111922
3027 24.46882710897207
3028 24.47577815812192
3029 24.46880579439246
3030 24.47542335170574
3031 24.46850253320041
3032 24.4758798591926
3033 24.46980052579321
3034 24.47650685293371
3035 24.46960909491653
3036 24.47736444932769
3037 24.47087828338844
3038 24.47837949474005
3039 24.47116796154752
3040 24.47909004470201
3041 24.47145010088942
3042 24.47943920210681
3043 24.47159730743407
3044 24.47988053054945
3045 24.47197890169561
3046 24.48006345084294
3047 24.47154349657765
3048 24.47964083197262
3049 24.47139847101632
3050 24.47903082358754
3051 24.47070318430671
3052 24.47868166041884
3053 24.47077602627689
3054 24.47756553947553
3055 24.46993463981246
3056 24.4773458440793
3057 24.47020265132989
3058 24.47664299943588
3059 24.46968436286654
3060 24.4763738872152
3061 24.47018798144561
3062 24.47588027679781
3063 24.47013621260444
3064 24.47589927299336
3065 24.47037721513454
3066 24.47600029807458
3067 24.47025642963558
3068 24.47642425313608
3069 24.47040885587665
3070 24.47619141462946
3071 24.46940155121074
3072 24.47639327373227
3073 24.46970525981276
3074 24.47615835018012
3075 24.46891763897087
3076 24.47665210410756
3077 24.46920240710535
3078 24.47640899684217
3079 24.46901145231017
3080 24.4770283346344
3081 24.47004409675816
3082 24.47725478364747
3083 24.4699816052104
3084 24.47802080844027
3085 24.470861630678
3086 24.47841622749384
3087 24.47061089204573
3088 24.47870258375822
3089 24.47097325711163
3090 24.47780717681991
3091 24.46978988197842
3092 24.47790952501074
3093 24.47046890798429
3094 24.47696123666177
3095 24.4693098151198
3096 24.47706854133959
3097 24.4699920652048
3098 24.47615008345486
3099 24.46973442657992
3100 24.47692190973595
3101 24.47025206638611
3102 24.47714301657224
3103 24.47053110384542
3104 24.47742954943295
3105 24.47083700434525
3106 24.47758504958697
3107 24.47062589338411
3108 24.47762628704054
3109 24.47101863636477
3110 24.47736975835679
3111 24.47041483662726
3112 24.47809068522085
3113 24.47090321017374
3114 24.47769345322059
3115 24.47047112491627
3116 24.47818517626405
3117 24.47125530188195
3118 24.47790416944312
3119 24.47075699206569
3120 24.47777353485661
3121 24.47123769500688
3122 24.47727841906596
3123 24.4707572237934
3124 24.47735379476815
3125 24.47070487535895
3126 24.47681897150233
3127 24.47042305380548
3128 24.47702821972648
3129 24.47079682646007
3130 24.4765729378266
3131 24.46988540918877
3132 24.47728833774639
3133 24.47031915594545
3134 24.4772690232416
3135 24.46997936908557
3136 24.47829602855593
3137 24.47064060497562
3138 24.47804311849842
3139 24.46978078362428
3140 24.47854084908663
3141 24.47041351345172
3142 24.4784455475026
3143 24.46947761836588
3144 24.47833466566487
3145 24.47004990372422
3146 24.47772829747187
3147 24.46951565443593
3148 24.47793590891768
3149 24.47004451604079
3150 24.47752443642797
3151 24.47003532156088
3152 24.47771899057224
3153 24.47027893634069
3154 24.47699826525642
3155 24.46956824634671
3156 24.47639085217341
3157 24.47001056343401
3158 24.47565748085098
3159 24.46949087487585
3160 24.47576280923897
3161 24.4696560265604
3162 24.47556586291997
3163 24.46963636884072
3164 24.47578279025613
3165 24.47026251784989
3166 24.47654525003239
3167 24.46986906201558
3168 24.4770592069978
3169 24.47031028499251
3170 24.47724005521667
3171 24.47013291038278
3172 24.47806037815194
3173 24.4702070969068
3174 24.47746196961917
3175 24.47009325166209
3176 24.47800569748928
3177 24.47056542141691
3178 24.47726974220242
3179 24.46971511356941
3180 24.47766349574691
3181 24.47018773647128
3182 24.47780577968776
3183 24.47016812238016
3184 24.47815911838681
3185 24.47068946358828
3186 24.47816599112125
3187 24.47094343101579
3188 24.47927367948649
3189 24.47174734266746
3190 24.47912389679152
3191 24.47116994297784
3192 24.47908142709277
3193 24.47138405706007
3194 24.47818268004889
3195 24.47079269130379
3196 24.47841523956177
3197 24.47105475030718
3198 24.47786940888946
3199 24.47025867236196
3200 24.47776625744752
3201 24.4704837264348
3202 24.47759358449844
3203 24.46955234406554
3204 24.47672923212158
3205 24.46938445677462
3206 24.47587959285347
3207 24.46899917440058
3208 24.47568170776376
3209 24.46909270770593
3210 24.47559485744891
3211 24.46961222918809
3212 24.47684773974539
3213 24.47111508157561
3214 24.4772626506502
3215 24.47136694023559
3216 24.4784219025145
3217 24.47198649379283
3218 24.47788658179053
3219 24.4707594200386
3220 24.47788498018597
3221 24.47017360315767
3222 24.47691038395335
3223 24.46910939655098
3224 24.47633746974242
3225 24.46896451764106
3226 24.47575322359161
3227 24.46798860983596
3228 24.47582633743893
3229 24.46842513676507
3230 24.47631417395531
3231 24.46912983114936
3232 24.47806483222463
3233 24.47036375745337
3234 24.47877245371093
3235 24.47118275516145
3236 24.4800829368717
3237 24.47216937024178
3238 24.47952067197905
3239 24.4708688670338
3240 24.47922661826599
3241 24.4710531461226
3242 24.47778917668671
3243 24.46987207071979
3244 24.47756936420184
3245 24.47023812316779
3246 24.47664142180156
3247 24.46980593780612
3248 24.47675947684202
3249 24.47099274507399
3250 24.47708731124778
3251 24.47108181279379
3252 24.47768631291521
3253 24.47196113120098
3254 24.47758052848693
3255 24.47168942197565
3256 24.4780655686466
3257 24.47164938593553
3258 24.47744187366484
3259 24.47072314456956
3260 24.47734142558252
3261 24.47114368154481
3262 24.47687733511689
3263 24.46981890391585
3264 24.47629366867232
3265 24.46996118770032
3266 24.47620314178702
3267 24.46947259943542
3268 24.47665619461872
3269 24.46969950226475
3270 24.47597635088746
3271 24.46950134647769
3272 24.476641925582
3273 24.47022035321366
3274 24.47694517353926
3275 24.47047302189743
3276 24.47820014364954
3277 24.47146473119122
3278 24.47839928517222
3279 24.47095299306748
3280 24.47909103130076
3281 24.47119304401454
3282 24.47887426703924
3283 24.47038665145441
3284 24.47925864644646
3285 24.47093596966542
3286 24.47886035911247
3287 24.46961382386016
3288 24.4786142348898
3289 24.4700318037736
3290 24.47769602667672
3291 24.46950958990064
3292 24.47809612291795
3293 24.47027199134925
3294 24.47728576755724
3295 24.47012287595354
3296 24.47728569128564
3297 24.47071710719043
3298 24.47687897673526
3299 24.47013962323996
3300 24.47653189439088
3301 24.47056987389866
3302 24.47564396085615
3303 24.46931168690052
3304 24.47533241328063
3305 24.46961443283129
3306 24.47462852569177
3307 24.46826301844055
3308 24.47477488343046
3309 24.46872130807571
3310 24.47514316500746
3311 24.46883659377523
3312 24.47589825727467
3313 24.46985184210802
3314 24.47664543055959
3315 24.47036724246488
3316 24.47827015791706
3317 24.47163241432638
3318 24.47894553938824
3319 24.47166032633044
3320 24.47887680226076
3321 24.471434901536
3322 24.47875572922658
3323 24.4708094384438
3324 24.47784761462258
3325 24.47039313015098
3326 24.47711677710924
3327 24.46969657745658
3328 24.47724368473394
3329 24.46988186346243
3330 24.47700924063276
3331 24.46994008615888
3332 24.47758141603087
3333 24.4705375339793
3334 24.47793840384704
3335 24.47075091410428
3336 24.47816658534814
3337 24.4709174726951
3338 24.47786154743149
3339 24.47048594114011
3340 24.47791002415158
3341 24.47019811966081
3342 24.47769996076673
3343 24.47009817883181
3344 24.4777128843056
3345 24.47042000340295
3346 24.47775136086127
3347 24.47013639188188
3348 24.47787027788838
3349 24.47068124061936
3350 24.47723448982232
3351 24.47025030010225
3352 24.47786516926596
3353 24.47109529039681
3354 24.47777769150533
3355 24.47130165421668
3356 24.47830689173523
3357 24.47171339629022
3358 24.47816513234831
3359 24.47160240276661
3360 24.47841154898937
3361 24.47213512386478
3362 24.47835886551627
3363 24.47146265616737
3364 24.47813026861203
3365 24.47112586916627
3366 24.47724201405738
3367 24.46978656290143
3368 24.47658889873395
3369 24.46941105531699
3370 24.47617078961974
3371 24.46798309796004
3372 24.47584231367211
3373 24.46831714641504
3374 24.47539177409449
3375 24.46803768875874
3376 24.47603364699384
3377 24.46880849256153
3378 24.47679148763906
3379 24.46955207553839
3380 24.47723869842414
3381 24.47012285904209
3382 24.47816855924586
3383 24.47039577705263
3384 24.47825272556615
3385 24.47096490881902
3386 24.47747586950342
3387 24.47004246123341
3388 24.47747190557381
3389 24.4704205317812
3390 24.47687776433066
3391 24.47012394396002
3392 24.47720005015947
3393 24.47107311098607
3394 24.47696752341618
3395 24.47095677915555
3396 24.47744668923315
3397 24.47208033882008
3398 24.47725370504285
3399 24.47165857684941
3400 24.47749852255644
3401 24.47161373693056
3402 24.47736360802749
3403 24.47123149629739
3404 24.47732617678206
3405 24.47096241644198
3406 24.47690957995887
3407 24.4696438585607
3408 24.47701975767117
3409 24.46974619452692
3410 24.47651970868718
3411 24.46863800737376
3412 24.4770816926885
3413 24.4687824838704
3414 24.47669055776435
3415 24.46844732672889
3416 24.4769019064309
3417 24.46922658818518
3418 24.47752376297811
3419 24.46927445235748
3420 24.47724981068778
3421 24.46957789411763
3422 24.47752827295045
3423 24.46990395484768
3424 24.47790194334755
3425 24.47072038485689
3426 24.47838243173086
3427 24.47066624394077
3428 24.47879905167108
3429 24.47123498300426
3430 24.47924029930588
3431 24.47096646541184
3432 24.47944631659536
3433 24.47175573933218
3434 24.47916885775397
3435 24.47117628516431
3436 24.47919537786601
3437 24.47158005323471
3438 24.47857780106117
3439 24.47102230046708
3440 24.47747050143176
3441 24.47058846709445
3442 24.47689447055405
3443 24.47024492875707
3444 24.47640119608064
3445 24.4707911073044
3446 24.47540750656714
3447 24.46960661736511
3448 24.47545691715509
3449 24.4700606302818
3450 24.47528400657625
3451 24.46978350051654
3452 24.47591466070723
3453 24.47004657117441
3454 24.47567123599204
3455 24.46925257442551
3456 24.47603508567075
3457 24.47024359832329
3458 24.47600552299711
3459 24.46977274114735
3460 24.47656853559904
3461 24.4700807998327
3462 24.47766298750326
3463 24.47096307839592
3464 24.47852432935455
3465 24.47181158985878
3466 24.47933755076027
3467 24.47138957468101
3468 24.47957627761396
3469 24.47191675376809
3470 24.47922888647559
3471 24.47107999020544
3472 24.47923001686108
3473 24.47143962913551
3474 24.47897923264408
3475 24.47063529216652
3476 24.47889811118568
3477 24.47053704016242
3478 24.47843251548468
3479 24.4693708689769
3480 24.47771977200608
3481 24.4689111783482
3482 24.47739648588929
3483 24.46842986302511
3484 24.47703459565268
3485 24.46823472044268
3486 24.47674114629295
3487 24.46846891037481
3488 24.47643488727562
3489 24.46884312083598
3490 24.47620565474712
3491 24.46897183422991
3492 24.47656725235181
3493 24.47046982287932
3494 24.47600287193097
3495 24.47012786775657
3496 24.47661941719214
3497 24.47116444188049
3498 24.47640469802707
3499 24.47141893086376
3500 24.47678165998938
3501 24.47181260565659
3502 24.47740182531738
3503 24.47167787673718
3504 24.47777923516217
3505 24.47229119522164
3506 24.47798046554462
3507 24.47177675697958
3508 24.47848575573714
3509 24.47182556235531
3510 24.4786769473788
3511 24.47149306098288
3512 24.47914208604702
3513 24.47197276161075
3514 24.47886813880841
3515 24.47071052394237
3516 24.47852787821687
3517 24.47090331640101
3518 24.47734827477155
3519 24.46947691175954
3520 24.4762620346407
3521 24.46869987342248
3522 24.47539628956526
3523 24.46828884813787
3524 24.47480977706761
3525 24.46809509564488
3526 24.47499885336598
3527 24.46780728059475
3528 24.47529486570234
3529 24.46852029964753
3530 24.47644572871266
3531 24.46869686673546
3532 24.47800934717665
3533 24.46983388107484
3534 24.47831464324887
3535 24.46976533685092
3536 24.47887105267034
3537 24.47062589048569
3538 24.47917194207346
3539 24.47053363449271
3540 24.47895049414282
3541 24.47109336831141
3542 24.47836918838889
3543 24.47091486115144
3544 24.47826385666708
3545 24.47144843930908
3546 24.47793989700091
3547 24.47195567287842
3548 24.47797378622269
3549 24.4723395909029
3550 24.4778573968284
3551 24.47196368597913
3552 24.47797687813596
3553 24.47214200668497
3554 24.47655610341635
3555 24.4706255417002
3556 24.47622649019905
3557 24.46983548083956
3558 24.475739462885
3559 24.46905735164132
3560 24.47587971780261
3561 24.46849364967009
3562 24.47651083789495
3563 24.46806880416349
3564 24.47661134443265
3565 24.46824761066384
3566 24.47669981449529
3567 24.46796283201265
3568 24.47728996376497
3569 24.46871801373111
3570 24.47782601142857
3571 24.46970764442417
3572 24.47924019009315
3573 24.47135738347584
3574 24.47968704196698
3575 24.47163955473473
3576 24.48007211574401
3577 24.4727169228639
3578 24.47976929212854
3579 24.47193413067738
3580 24.479309525433
3581 24.4720384726488
3582 24.47871930170591
3583 24.47187533337922
3584 24.47835182182087
3585 24.47228902560083
3586 24.4779002871703
3587 24.47133494623155
3588 24.4773902602309
3589 24.47125903159601
3590 24.47664769618429
3591 24.47025450508306
3592 24.47715076775575
3593 24.47065766442424
3594 24.47671450675387
3595 24.47010425956026
3596 24.47690829170723
3597 24.47047468601792
3598 24.47645917707052
3599 24.46918641988018
3600 24.47587183221419
3601 24.4689470602961
3602 24.47514650310663
3603 24.46775637123677
3604 24.47455728187438
3605 24.46756149096933
3606 24.47438170222341
3607 24.46735309886452
3608 24.47510016351182
3609 24.46830608445265
3610 24.47652671524608
3611 24.46903728907944
3612 24.47825486167427
3613 24.47120412715857
3614 24.4789716996537
3615 24.47115500034126
3616 24.48044070952809
3617 24.47267859628897
3618 24.48053449491716
3619 24.47220717374426
3620 24.47999072779022
3621 24.47166962365367
3622 24.47951057012815
3623 24.47071970338789
3624 24.47867624753213
3625 24.47074971727122
3626 24.47798780338464
3627 24.46953957427891
3628 24.47735295555099
3629 24.46878128746732
3630 24.47651606733325
3631 24.46846963371403
3632 24.47644257664354
3633 24.46908687749301
3634 24.47639903023814
3635 24.46893841036117
3636 24.47708301994458
3637 24.47034957186778
3638 24.47648141566064
3639 24.4698554570742
3640 24.47655215664172
3641 24.4703287816495
3642 24.47615377384801
3643 24.47059879016921
3644 24.47629472068869
3645 24.47128016126613
3646 24.47683658372858
3647 24.4713764028761
3648 24.47721952924399
3649 24.4719063604999
3650 24.4773329824699
3651 24.47144082085845
3652 24.47763179825852
3653 24.47177762521497
3654 24.47767561481587
3655 24.47162729255987
3656 24.47794468516797
3657 24.47157657980652
3658 24.47835204270995
3659 24.47112547914789
3660 24.47868878277241
3661 24.47155082721536
3662 24.47885305756931
3663 24.47070160737193
3664 24.47870355423402
3665 24.47064215520521
3666 24.47840385277906
3667 24.47015589565697
3668 24.47795121071294
3669 24.46957019677229
3670 24.47770195880864
3671 24.4688107845049
3672 24.47747561520094
3673 24.4689362279141
3674 24.47700204410467
3675 24.46854253866868
3676 24.47742730016579
3677 24.46883721343422
3678 24.47738951593121
3679 24.46923961220435
3680 24.47764076446735
3681 24.47013267138644
3682 24.47713214014533
3683 24.46958621415367
3684 24.47668222940674
3685 24.47002375013239
3686 24.47573517513243
3687 24.4691101647556
3688 24.47618435537457
3689 24.47011391646451
3690 24.47644290091212
3691 24.47046054518584
3692 24.47709578068799
3693 24.47131259850927
3694 24.47741314234436
3695 24.47196384742275
3696 24.47822087667088
3697 24.47287837090528
3698 24.47804649859247
3699 24.47236769148634
3700 24.47795618988368
3701 24.47187088899818
3702 24.47763729241284
3703 24.47066299182412
3704 24.47658564367207
3705 24.46987845459257
3706 24.47595815997886
3707 24.46805012045412
3708 24.47537821886327
3709 24.46828241587884
3710 24.4751853442155
3711 24.46773507639685
3712 24.47571123058294
3713 24.46816381343633
3714 24.47618449208379
3715 24.46895819616801
3716 24.47711797112559
3717 24.4700730760076
3718 24.47803313276896
3719 24.47037909879285
3720 24.47852396788225
3721 24.47084864034423
3722 24.47843219150716
3723 24.4703141993361
3724 24.47859808070828
3725 24.47065595137217
3726 24.47835288706808
3727 24.47002961927763
3728 24.47841456912603
3729 24.47071715711207
3730 24.4780808832415
3731 24.46980257249883
3732 24.47816694462358
3733 24.47066778302286
3734 24.47704309295736
3735 24.47003037358059
3736 24.4768682856324
3737 24.47023885979991
3738 24.47653764062657
3739 24.47007244348302
3740 24.47709430378654
3741 24.47083150396102
3742 24.47732958985252
3743 24.47068982406761
3744 24.47767090986361
3745 24.47159138675409
3746 24.47727711258253
3747 24.47046230087541
3748 24.47694150944452
3749 24.4702068489789
3750 24.47633117863517
3751 24.46941825858569
3752 24.47623664808961
3753 24.46970020801998
3754 24.47637302047743
3755 24.4694592542612
3756 24.47682052671069
3757 24.46984207036344
3758 24.47705407888399
3759 24.46987800361375
3760 24.47800585773417
3761 24.47064434479153
3762 24.4784338377635
3763 24.47099993366854
3764 24.47877367967654
3765 24.47161302443103
3766 24.47906052136829
3767 24.47105523351499
3768 24.4788733012502
3769 24.47132714079948
3770 24.47863274371213
3771 24.47028927010152
3772 24.47860484135278
3773 24.47005385492418
3774 24.47802404551223
3775 24.46949396861695
3776 24.47791671988636
3777 24.46943851335826
3778 24.47752333833511
3779 24.46924370558372
3780 24.47718210866393
3781 24.47000112593029
3782 24.47612130176634
3783 24.46922524545113
3784 24.47548514713186
3785 24.46982171059871
3786 24.47499596539729
3787 24.46950869076076
3788 24.47553854273281
3789 24.47055104041918
3790 24.47575799069578
3791 24.47017539580425
3792 24.47680270669805
3793 24.471258151066
3794 24.47695431975763
3795 24.47115527489265
3796 24.47722235803599
3797 24.47029353165103
3798 24.47681564068169
3799 24.46964517183833
3800 24.47709394415548
3801 24.4700962107058
3802 24.47779636995248
3803 24.4696269707089
3804 24.47814432953076
3805 24.47009474514913
3806 24.47842477729603
3807 24.46999267878734
3808 24.47883921052475
3809 24.47046582409864
3810 24.47875026265091
3811 24.4703700124428
3812 24.47906766551221
3813 24.4711734504144
3814 24.47883227325857
3815 24.47104551745693
3816 24.47866017680619
3817 24.47101184851747
3818 24.47832129636636
3819 24.47050317148764
3820 24.47776995717888
3821 24.47022786917692
3822 24.4774108926122
3823 24.46987822526946
3824 24.47719442769182
3825 24.47026278136948
3826 24.47732167878546
3827 24.47004233079227
3828 24.47800058289075
3829 24.47103759260984
3830 24.47778849459458
3831 24.47081722900388
3832 24.47834693553783
3833 24.47109412539483
3834 24.47736427263925
3835 24.47077468951403
3836 24.47727196137776
3837 24.470876674861
3838 24.4764087459892
3839 24.46986198042503
3840 24.47568656959708
3841 24.46992127421921
3842 24.47538408369965
3843 24.46978351556586
3844 24.47512687078822
3845 24.46935017369709
3846 24.47539290087921
3847 24.46926800497986
3848 24.47602783101266
3849 24.47002800082723
3850 24.47689606016777
3851 24.46959559657071
3852 24.47786012523524
3853 24.47011185931791
3854 24.47811731904523
3855 24.47004944475129
3856 24.47873027975321
3857 24.47010319108955
3858 24.47856032831443
3859 24.46980310595983
3860 24.47812381226189
3861 24.46996072092707
3862 24.478175381583
3863 24.46990851890502
3864 24.47821793380342
3865 24.47055451072485
3866 24.47820351940615
3867 24.47041616405074
3868 24.47835665417372
3869 24.47087804201838
3870 24.47790540823901
3871 24.47051379637779
3872 24.47833734958777
3873 24.47144697784609
3874 24.47796514182015
3875 24.47078544757924
3876 24.47799387395949
3877 24.47149501067537
3878 24.47766361373793
3879 24.47116036900991
3880 24.47768237855353
3881 24.47135320631341
3882 24.47741240879122
3883 24.4709914937612
3884 24.47709840060111
3885 24.47122985485263
3886 24.47691785674147
3887 24.47080822205054
3888 24.47693471718012
3889 24.47156500451548
3890 24.47697451614832
3891 24.47130774865312
3892 24.4777793814315
3893 24.47165489828794
3894 24.47775648299923
3895 24.47139796532185
3896 24.47781332513413
3897 24.47092532150446
3898 24.47742639089667
3899 24.4697088909722
3900 24.47716806516381
3901 24.46901552491253
3902 24.47718698969267
3903 24.46849252917481
3904 24.47698086646077
3905 24.46830887186165
3906 24.47685872208871
3907 24.46840422683102
3908 24.47723179306972
3909 24.46948678017345
3910 24.47733070143176
3911 24.46944773516102
3912 24.47792177416976
3913 24.47070246350584
3914 24.4781278550847
3915 24.47096751015481
3916 24.47841949982139
3917 24.47120664784689
3918 24.47800836572977
3919 24.4706537761454
3920 24.47808956201598
3921 24.47104651578967
3922 24.47787160292519
3923 24.47011220768477
3924 24.47714764020695
3925 24.47002663856434
3926 24.4764582796742
3927 24.4696178696012
3928 24.47662330089611
3929 24.4701914509265
3930 24.47649712119912
3931 24.4699980954125
3932 24.47747704402505
3933 24.47151833687596
3934 24.47725278650912
3935 24.47081775224637
3936 24.47749736124725
3937 24.47112350067331
3938 24.47663026404943
3939 24.4700832699515
3940 24.47637453302742
3941 24.46975158118595
3942 24.47612986873219
3943 24.46927206163513
3944 24.47578103493337
3945 24.46918861761894
3946 24.47584813920416
3947 24.4687273243972
3948 24.47633337666115
3949 24.46922697161565
3950 24.47677512162558
3951 24.46916815742908
3952 24.4779614042746
3953 24.47016684144201
3954 24.47846458869255
3955 24.47039948120532
3956 24.47943176713627
3957 24.4718008049373
3958 24.4796286853088
3959 24.47107200541649
3960 24.47954159035426
3961 24.47160683470847
3962 24.47945243949704
3963 24.47121930838555
3964 24.47874643528673
3965 24.47070016388242
3966 24.47807309576329
3967 24.47043462674141
3968 24.47813448153024
3969 24.47123484257018
3970 24.47821572501385
3971 24.47049592518493
3972 24.47855025326443
3973 24.47119392201399
3974 24.47771441149802
3975 24.47092057527604
3976 24.47784720683796
3977 24.47125069557952
3978 24.47686082975885
3979 24.47033374046408
3980 24.47653506051542
3981 24.4708785966117
3982 24.47620099862615
3983 24.47012815074369
3984 24.47560034942043
3985 24.47028639619317
3986 24.47520898218962
3987 24.46980281121748
3988 24.47514485628525
3989 24.46991073478548
3990 24.47536922921275
3991 24.46995784359478
3992 24.47631488785607
3993 24.47099619513985
3994 24.47726447009854
3995 24.47108190052197
3996 24.47852758034181
3997 24.47163393455724
3998 24.47900938295861
3999 24.47075773439311
4000 24.47939486730306
4001 24.47066403331833
4002 24.47932999634198
4003 24.46992167285207
4004 24.47883116036349
4005 24.46974176706791
4006 24.47871784007438
4007 24.46914543752927
4008 24.4783731767877
4009 24.46930769367841
4010 24.47815165137496
4011 24.46924883341713
4012 24.47815963939854
4013 24.46939483698653
4014 24.47739064250635
4015 24.46940833866507
4016 24.47745386795351
4017 24.47070265141505
4018 24.47728807594073
4019 24.47026894569353
4020 24.47706245763421
4021 24.47095603415328
4022 24.47603015610083
4023 24.4701278865729
4024 24.47557354720564
4025 24.46990425214791
4026 24.47499521221939
4027 24.46905889483496
4028 24.47504426197487
4029 24.46949050541464
4030 24.47545934344257
4031 24.46956755177295
4032 24.47647911940013
4033 24.47073195068983
4034 24.47696329984132
4035 24.47133094642136
4036 24.47800302761197
4037 24.47201701963331
4038 24.4781894474968
4039 24.47166748826617
4040 24.47833862798663
4041 24.47248013895704
4042 24.47863686292025
4043 24.47154483064742
4044 24.47826426065411
4045 24.47134437721355
4046 24.4778470709482
4047 24.47007201089228
4048 24.47757011668035
4049 24.46989302080768
4050 24.47745062100105
4051 24.46922749174864
4052 24.47725928110788
4053 24.46919136363653
4054 24.47717261214681
4055 24.46906054002486
4056 24.47731951963478
4057 24.46903847044308
4058 24.47696112771208
4059 24.46888938643741
4060 24.47730429410395
4061 24.46898417858969
4062 24.47701509092918
4063 24.46884199140311
4064 24.4771207578084
4065 24.46970584367133
4066 24.47658793912958
4067 24.46902457533863
4068 24.47704492006216
4069 24.47039962619158
4070 24.47676898073685
4071 24.47028561532716
4072 24.477343830524
4073 24.47110634940017
4074 24.47708142336218
4075 24.47093440249545
4076 24.47726061083203
4077 24.47147359967398
4078 24.47698521472263
4079 24.47100908148376
4080 24.47773428776593
4081 24.47213212462356
4082 24.47766437464428
4083 24.47180845492183
4084 24.47800508442511
4085 24.47164036995279
4086 24.47712309373316
4087 24.47023518046107
4088 24.47669310034265
4089 24.47028640491047
4090 24.47656818169821
4091 24.46935460145482
4092 24.47673577140766
4093 24.46971782541217
4094 24.47699002787786
4095 24.46970465764047
4096 24.47735809274795
4097 24.46958487421202
4098 24.477229913186
4099 24.46942904824973
4100 24.47787355061432
4101 24.47006702802182
4102 24.47836481905696
4103 24.46977129073951
4104 24.47797436113202
4105 24.47004961575789
4106 24.4779078023369
4107 24.46979908349491
4108 24.47790414094995
4109 24.46975559623252
4110 24.47751598717986
4111 24.46945050970604
4112 24.4778098103136
4113 24.47030141719571
4114 24.47772150515081
4115 24.47020557913659
4116 24.47775359321273
4117 24.47051409489945
4118 24.47706778921086
4119 24.47035898678085
4120 24.47727490068559
4121 24.47050821022612
4122 24.47692508199796
4123 24.47019155093842
4124 24.47666635311095
4125 24.47060734519404
4126 24.47644628245189
4127 24.47043934872173
4128 24.47680545187012
4129 24.47145633983695
4130 24.47669479419761
4131 24.4708842351506
4132 24.47714092202576
4133 24.47108678270752
4134 24.47674135070311
4135 24.47028453445825
4136 24.47679309544394
4137 24.47011932477889
4138 24.47636280264911
4139 24.46931542410666
4140 24.47653972652569
4141 24.46969871554436
4142 24.47720241631687
4143 24.47011387948405
4144 24.47813123777046
4145 24.47096073712245
4146 24.4790184031873
4147 24.47126343780601
4148 24.47970858350395
4149 24.47194801533961
4150 24.47957257718301
4151 24.47047083122819
4152 24.47930240955065
4153 24.47046851906151
4154 24.47849311884729
4155 24.46965730601794
4156 24.47783230601207
4157 24.46918910969208
4158 24.47717737165233
4159 24.46866551577979
4160 24.47695001958723
4161 24.46912210745996
4162 24.47662941682746
4163 24.46849683276697
4164 24.47596835053272
4165 24.46916389861935
4166 24.47553130918989
4167 24.46913096497867
4168 24.47568521813213
4169 24.4697556895344
4170 24.47525605640615
4171 24.46978227345681
4172 24.4759041612175
4173 24.47059332174263
4174 24.47569625353384
4175 24.47012104502426
4176 24.47583654901609
4177 24.47057370525207
4178 24.4759367265582
4179 24.47033348584665
4180 24.47646190444182
4181 24.4706534448394
4182 24.476963451162
4183 24.47104762883703
4184 24.47759510684685
4185 24.47203373897409
4186 24.47880489147271
4187 24.47202528441366
4188 24.47956628039746
4189 24.47262621923403
4190 24.48015370378979
4191 24.4721812990783
4192 24.48095280969648
4193 24.47266366342521
4194 24.48068873891003
4195 24.47174216512522
4196 24.48063712226492
4197 24.47205131574925
4198 24.48005352872823
4199 24.47067948510661
4200 24.47909436324683
4201 24.4703910181154
4202 24.4783847408006
4203 24.46956951536241
4204 24.47725405856349
4205 24.46895809539349
4206 24.4765910939035
4207 24.46847487590789
4208 24.47627336689471
4209 24.46881723668678
4210 24.47655603279628
4211 24.46887968793348
4212 24.47717353250144
4213 24.47034187698159
4214 24.47688810029555
4215 24.46995926049747
4216 24.47718975418928
4217 24.47058795264888
4218 24.47640184872138
4219 24.4699829942425
4220 24.47660424378208
4221 24.47081924162381
4222 24.47684352532351
4223 24.47068014324223
4224 24.47670162866373
4225 24.47112827991035
4226 24.47656008707242
4227 24.47066382115103
4228 24.47673736169407
4229 24.47104180164658
4230 24.47663168402141
4231 24.47065249150894
4232 24.4771643749432
4233 24.47128573003694
4234 24.47727789461709
4235 24.47062204252251
4236 24.47750225034736
4237 24.47086388789509
4238 24.47719203573707
4239 24.46986894437833
4240 24.47720337230629
4241 24.46993114628346
4242 24.47681645828714
4243 24.46927441332723
4244 24.47662467297446
4245 24.46945857115718
4246 24.4772811047053
4247 24.46957551600095
4248 24.47802902947923
4249 24.47057469336551
4250 24.47828686449178
4251 24.47051388055499
4252 24.47895107970737
4253 24.47071715318177
4254 24.47878307221437
4255 24.4704021804394
4256 24.47903018582308
4257 24.47087844090138
4258 24.47842268311469
4259 24.47001169858799
4260 24.4782935983178
4261 24.47109496753706
4262 24.47825314705203
4263 24.47082884049788
4264 24.47787000854648
4265 24.47065661123165
4266 24.4773767965501
4267 24.47029084814871
4268 24.47715174010311
4269 24.47045120544765
4270 24.47664677656544
4271 24.47004394200681
4272 24.47636526382164
4273 24.47025938832169
4274 24.47592326706202
4275 24.47015992664763
4276 24.47617939847142
4277 24.47030055828882
4278 24.47587643322582
4279 24.46954585148488
4280 24.47557594823705
4281 24.46994011823429
4282 24.47570969601327
4283 24.46926965502114
4284 24.47550991824657
4285 24.46921342976719
4286 24.47577744102515
4287 24.46925797929187
4288 24.47658591888154
4289 24.46987558110249
4290 24.47722714303033
4291 24.47037517657572
4292 24.47851531395959
4293 24.47153201363789
4294 24.47946085871602
4295 24.47183481655238
4296 24.48029594464468
4297 24.47260013526716
4298 24.48025455191858
4299 24.47187161959272
4300 24.48017509740262
4301 24.47135626123677
4302 24.47920121956348
4303 24.47011728348101
4304 24.47798470790806
4305 24.46963533854841
4306 24.47693954728451
4307 24.46866745086103
4308 24.47670041168186
4309 24.46897494503828
4310 24.47650536589999
4311 24.46921176263969
4312 24.47707896080719
4313 24.46995242055238
4314 24.47692223459228
4315 24.47032331586514
4316 24.47738866210604
4317 24.47146960274257
4318 24.47699711164265
4319 24.47047711537581
4320 24.47650546958934
4321 24.47064204143899
4322 24.47561145929475
4323 24.46964705939729
4324 24.47516351480091
4325 24.4699154677802
4326 24.47523449761543
4327 24.47018425663369
4328 24.47587404504235
4329 24.47061288386473
4330 24.47706084205034
4331 24.47108473880628
4332 24.47824323314477
4333 24.47184392303931
4334 24.47895518247941
4335 24.47185120297938
4336 24.47997999054674
4337 24.47216459336028
4338 24.47994225736197
4339 24.47140485007117
4340 24.4801832172473
4341 24.4713621133963
4342 24.47944042312372
4343 24.46975723950482
4344 24.4783117898795
4345 24.46973317397721
4346 24.47730812821104
4347 24.46894461380741
4348 24.47678578680585
4349 24.46878964374694
4350 24.47601823284822
4351 24.46847185437591
4352 24.47604315533696
4353 24.46928040640645
4354 24.47581537569913
4355 24.46906978280366
4356 24.47605222563353
4357 24.46986035634033
4358 24.47570063652174
4359 24.46931081129602
4360 24.47643746789673
4361 24.47028066113254
4362 24.47652205038572
4363 24.47011267910521
4364 24.47688999778194
4365 24.47074041537021
4366 24.47666056322397
4367 24.47046912128156
4368 24.47722134819526
4369 24.47110156558468
4370 24.47749152173025
4371 24.47133211673736
4372 24.47837539602047
4373 24.47152168081126
4374 24.47833800510308
4375 24.47155525678345
4376 24.4786048001784
4377 24.47199854721337
4378 24.47862579324813
4379 24.47112626927227
4380 24.47828374598106
4381 24.47127111142232
4382 24.47788130004015
4383 24.47013419478286
4384 24.47697944287516
4385 24.46936758325562
4386 24.4761460967945
4387 24.46819754001766
4388 24.4764168539578
4389 24.46865763904538
4390 24.47676296909694
4391 24.46827383137549
4392 24.47681683433098
4393 24.46833043326092
4394 24.47695014537534
4395 24.46862426507532
4396 24.47776204066029
4397 24.4690042886964
4398 24.47730137031979
4399 24.46876907903676
4400 24.47784026141499
4401 24.47009716672638
4402 24.47770693954093
4403 24.47002831683988
4404 24.4777248169603
4405 24.47119736054037
4406 24.47728585313394
4407 24.47072709425096
4408 24.47753785264159
4409 24.47183048708214
4410 24.47751192048844
4411 24.47190180299368
4412 24.47784203692446
4413 24.47269448882235
4414 24.47769047314426
4415 24.47247385182507
4416 24.47816402933157
4417 24.47300583115244
4418 24.47761224294855
4419 24.47215656553427
4420 24.47732457717987
4421 24.47133193965398
4422 24.47680776493399
4423 24.47029087575551
4424 24.47600477194233
4425 24.46991053141677
4426 24.47585224322944
4427 24.46846269260021
4428 24.47562313617536
4429 24.46829431182832
4430 24.47583423778963
4431 24.46837235455065
4432 24.47624858002217
4433 24.46876593556093
4434 24.47628890638462
4435 24.46891728115567
4436 24.47667119553955
4437 24.46957312018661
4438 24.47696959064335
4439 24.46917886905731
4440 24.47747863985487
4441 24.46999371828925
4442 24.47760767819246
4443 24.46967333955269
4444 24.47760852006848
4445 24.47004757598334
4446 24.47795502493364
4447 24.4700355740226
4448 24.4787549141998
4449 24.47077485777391
4450 24.47898040377452
4451 24.47089114461323
4452 24.47901586517006
4453 24.47152219546906
4454 24.47795131287647
4455 24.47070215516041
4456 24.47763032495113
4457 24.47028616414428
4458 24.4768082945914
4459 24.4697118909743
4460 24.476901645004
4461 24.47018173778994
4462 24.4766070592546
4463 24.4701659414088
4464 24.47675420509621
4465 24.47078911503124
4466 24.4760499686957
4467 24.47000165110663
4468 24.47568607376046
4469 24.46978525149874
4470 24.47546195367124
4471 24.46914751781028
4472 24.47520580258425
4473 24.46902844589565
4474 24.47492396539126
4475 24.4685766389144
4476 24.47498977254983
4477 24.46890716144307
4478 24.47553335723878
4479 24.46923061433177
4480 24.47651756707324
4481 24.46994517263647
4482 24.47732410053361
4483 24.47040560049725
4484 24.47821787658685
4485 24.47123659690715
4486 24.47899812604081
4487 24.47103648989107
4488 24.47938529916576
4489 24.47165460240341
4490 24.4795540736166
4491 24.47125793221438
4492 24.48007738833578
4493 24.47168708874681
4494 24.47997019079855
4495 24.4716807002856
4496 24.47963304033585
4497 24.47161672261439
4498 24.47913870548569
4499 24.47080697206893
4500 24.47855574266178
4501 24.47087595413582
4502 24.47794815084707
4503 24.47047688241271
4504 24.47754964395597
4505 24.47032001836069
4506 24.4765610687035
4507 24.46977087532786
4508 24.47663226837678
4509 24.47023774005638
4510 24.47642506985908
4511 24.46982182018901
4512 24.47675484466972
4513 24.4706137257765
4514 24.47600075526771
4515 24.46991510620788
4516 24.47614349004988
4517 24.46985837844628
4518 24.47566064309925
4519 24.46920891774611
4520 24.47607050289753
4521 24.46955845039408
4522 24.4759739939849
4523 24.46914453246955
4524 24.47645630785166
4525 24.47012138832709
4526 24.47730496511421
4527 24.47062766145776
4528 24.47904260919972
4529 24.47192009896579
4530 24.47948528039815
4531 24.47188081053936
4532 24.48051344038023
4533 24.47269060648305
4534 24.47973307370059
4535 24.47134319368759
4536 24.47939365001167
4537 24.47130500884398
4538 24.47846084148816
4539 24.4704641581492
4540 24.47840156228345
4541 24.47016717276334
4542 24.47767054610123
4543 24.46985190401452
4544 24.47692812946152
4545 24.46980517201123
4546 24.47679897717457
4547 24.46951129028953
4548 24.47706864935881
4549 24.47044426971629
4550 24.47673969003543
4551 24.46962197058263
4552 24.47687220576226
4553 24.47005101225925
4554 24.47555815716422
4555 24.46913769877814
4556 24.47570865914038
4557 24.46987952692729
4558 24.47589393280989
4559 24.46971161077048
4560 24.47587307640424
4561 24.47016186255623
4562 24.47601884040423
4563 24.47043065364221
4564 24.47706675640781
4565 24.47118785708712
4566 24.47714502887834
4567 24.47111001181909
4568 24.47820237491498
4569 24.47164487766058
4570 24.47807259100921
4571 24.47056856575954
4572 24.4785517390858
4573 24.47129522737836
4574 24.47808587935618
4575 24.47066550690157
4576 24.47862427518682
4577 24.47118916752666
4578 24.47846630475201
4579 24.47088796219513
4580 24.47855893765836
4581 24.47079819747829
4582 24.4779760477796
4583 24.4697224304309
4584 24.4776123279373
4585 24.46918614632357
4586 24.47690026270104
4587 24.46844777899865
4588 24.47735556799647
4589 24.46864862678515
4590 24.47692998928003
4591 24.46881074799933
4592 24.47768200305149
4593 24.47027756582465
4594 24.47748540094655
4595 24.46982410321399
4596 24.47755222797607
4597 24.47015105133042
4598 24.47699192380093
4599 24.46967536733674
4600 24.47641228180304
4601 24.46929818162144
4602 24.47578698592018
4603 24.4690426103984
4604 24.47555770925108
4605 24.46996425617613
4606 24.476161457375
4607 24.47077869088416
4608 24.476922703586
4609 24.47202991468398
4610 24.47705166792375
4611 24.4724560660542
4612 24.47842311346446
4613 24.47356300102522
4614 24.47823931944724
4615 24.4730718357253
4616 24.47900795986495
4617 24.4729280674768
4618 24.47849224013686
4619 24.47159671805657
4620 24.47831641555202
4621 24.47072377882842
4622 24.47741090653425
4623 24.46950822047651
4624 24.47723491670303
4625 24.46903592400218
4626 24.47696557668334
4627 24.46865725940372
4628 24.47761836494256
4629 24.46916369583153
4630 24.47760044522088
4631 24.46872704478099
4632 24.47836759564666
4633 24.46959343571456
4634 24.4774630862751
4635 24.46888725168639
4636 24.47810927675624
4637 24.4693612910287
4638 24.47787793921946
4639 24.46943627323297
4640 24.4779831029172
4641 24.47019277348452
4642 24.47793162955878
4643 24.47018142726169
4644 24.477893992494
4645 24.47058796373549
4646 24.47774756311536
4647 24.4707482788392
4648 24.47787298047739
4649 24.47098025707044
4650 24.47788221112323
4651 24.47122712236655
4652 24.47836479634839
4653 24.47240497590638
4654 24.47800572171909
4655 24.47159715133968
4656 24.47789312938701
4657 24.47201433509494
4658 24.47698135635622
4659 24.47120648449621
4660 24.47679990632583
4661 24.47080132269834
4662 24.47577561864559
4663 24.46979430404946
4664 24.47534862954594
4665 24.46945193804772
4666 24.47500669413868
4667 24.46842923396534
4668 24.47534723575081
4669 24.46901758115553
4670 24.47572118203165
4671 24.46915408143706
4672 24.47715530917372
4673 24.46996575142409
4674 24.47686004387856
4675 24.46987043869088
4676 24.47822681720953
4677 24.47151512369119
4678 24.47899517302986
4679 24.47157209299915
4680 24.47946559597687
4681 24.47191767866922
4682 24.47879314935458
4683 24.47089852048677
4684 24.47849543148544
4685 24.47030778875774
4686 24.47748416829196
4687 24.46968764087346
4688 24.47775501427252
4689 24.47030404620127
4690 24.47822384813261
4691 24.47041625546719
4692 24.47896501769164
4693 24.4716601779323
4694 24.4788348710353
4695 24.47092585217623
4696 24.47888603742425
4697 24.47091810369364
4698 24.47794296340296
4699 24.46966627345197
4700 24.47744850068225
4701 24.46959761494705
4702 24.47637074800416
4703 24.46822960956118
4704 24.47538687127469
4705 24.46847981757839
4706 24.47451249650946
4707 24.46798385171568
4708 24.47474736164695
4709 24.46809921352457
4710 24.47443921468445
4711 24.4684761169961
4712 24.47633128027134
4713 24.47037591495678
4714 24.47667708074917
4715 24.47019336909756
4716 24.47773673566788
4717 24.47176542505128
4718 24.47814220488454
4719 24.47176885219176
4720 24.47918635099106
4721 24.47238854715452
4722 24.47895841774793
4723 24.47192839407393
4724 24.4793199784906
4725 24.47263867067884
4726 24.47917716555574
4727 24.47181288645396
4728 24.47924093024445
4729 24.47156712192762
4730 24.4789955517535
4731 24.47050365377746
4732 24.47928752408344
4733 24.46999216145953
4734 24.47809539405068
4735 24.46893672709987
4736 24.47763797957661
4737 24.4690763615033
4738 24.47707584250578
4739 24.46820397132954
4740 24.4763994641174
4741 24.46852333419982
4742 24.47622589533766
4743 24.46857365283034
4744 24.47605327057297
4745 24.46918251920279
4746 24.47555731835894
4747 24.46887059590674
4748 24.47538468486755
4749 24.46903818521165
4750 24.47509377349472
4751 24.46888471327439
4752 24.47567529300785
4753 24.47019879157212
4754 24.47578326665854
4755 24.47045748598843
4756 24.47660117967288
4757 24.47117472245281
4758 24.47703096049839
4759 24.47125584298998
4760 24.47756140455685
4761 24.47205996552592
4762 24.4779340541878
4763 24.47129783642959
4764 24.47816062054429
4765 24.47166978976671
4766 24.47864260843755
4767 24.47140995351602
4768 24.47865027218513
4769 24.47095159437344
4770 24.47818624732916
4771 24.47044002154997
4772 24.47831178298874
4773 24.47091068783298
4774 24.47780139339622
4775 24.46988766741124
4776 24.47771288335019
4777 24.47041003660868
4778 24.47736910346659
4779 24.46970267435386
4780 24.47758854320575
4781 24.46993776663787
4782 24.4769809295049
4783 24.46917477330069
4784 24.47636717858612
4785 24.46880599558138
4786 24.47613763045489
4787 24.46843705873116
4788 24.47579398424113
4789 24.46850187564356
4790 24.47597194041323
4791 24.46892958301256
4792 24.47707873611488
4793 24.46983918480521
4794 24.47712125652686
4795 24.46998685993488
4796 24.47784083937672
4797 24.47033428828212
4798 24.47791057179089
4799 24.47028683422882
4800 24.4778123297097
4801 24.4709063181909
4802 24.47695395338622
4803 24.47040816602794
4804 24.47665422979084
4805 24.47071509921436
4806 24.47656450144265
4807 24.47046143381185
4808 24.47646786110781
4809 24.47044328120074
4810 24.47617499009379
4811 24.4699197236602
4812 24.47651379815883
4813 24.47042290982254
4814 24.47638327392953
4815 24.46981886788125
4816 24.47665391424899
4817 24.46989682462248
4818 24.47694078849031
4819 24.47016858695679
4820 24.47787003848308
4821 24.47078194878473
4822 24.47826379311745
4823 24.47010860747301
4824 24.47800991099577
4825 24.47042340716997
4826 24.47848196354837
4827 24.47035714997356
4828 24.47872277429859
4829 24.47037658059365
4830 24.47885521839192
4831 24.47009623515741
4832 24.47919887483834
4833 24.47047766699645
4834 24.47866442745879
4835 24.46998557465984
4836 24.47829522249961
4837 24.47048237528476
4838 24.47756524338817
4839 24.47048664202307
4840 24.4776349299197
4841 24.47103762613434
4842 24.47722598226277
4843 24.47114816778627
4844 24.47742900961245
4845 24.47204973941406
4846 24.4775471809127
4847 24.47157994967517
4848 24.47727653971172
4849 24.47141692693018
4850 24.47666126073739
4851 24.47045793455261
4852 24.47625925225627
4853 24.46981306055256
4854 24.47582518625001
4855 24.46922087807121
4856 24.4758150906169
4857 24.46937451043615
4858 24.47613973388696
4859 24.46897414667556
4860 24.47640736707206
4861 24.46950815460014
4862 24.4768001105566
4863 24.46950569479491
4864 24.47730870862919
4865 24.47055766515177
4866 24.47761827861887
4867 24.47075845085482
4868 24.47835863486231
4869 24.47185339840986
4870 24.47881038291089
4871 24.47179403136553
4872 24.47915209085
4873 24.47243825372897
4874 24.47898150182663
4875 24.4718113045689
4876 24.47879798270977
4877 24.47138881995167
4878 24.47846452468176
4879 24.47053184637507
4880 24.4778843381553
4881 24.46995636278155
4882 24.47712532899838
4883 24.46832129944625
4884 24.4766698854077
4885 24.46869672402578
4886 24.47645336673552
4887 24.46837371641064
4888 24.47698545331842
4889 24.46888821288365
4890 24.47702828392579
4891 24.46893554262007
4892 24.47767230020541
4893 24.47012078430668
4894 24.47749408018008
4895 24.46970293691392
4896 24.4767499181444
4897 24.47005477416152
4898 24.47603943629125
4899 24.46998866315764
4900 24.47580616033074
4901 24.46993807901413
4902 24.47471388938251
4903 24.46926973360815
4904 24.47504062670315
4905 24.47038816585108
4906 24.47619004829525
4907 24.47062207871677
4908 24.47738655521655
4909 24.47168523019137
4910 24.47831829353676
4911 24.47183156308096
4912 24.47957906999298
4913 24.47252014178346
4914 24.47993284030585
4915 24.47204698407
4916 24.47983211130295
4917 24.47170660867651
4918 24.47919520591731
4919 24.47056861033261
4920 24.47859680673492
4921 24.47058893458464
4922 24.47801221684097
4923 24.46967061463066
4924 24.4773783875925
4925 24.46948048795323
4926 24.47681692363322
4927 24.4688144898549
4928 24.47745451126601
4929 24.46977267692347
4930 24.47753082625839
4931 24.46916379325098
4932 24.47777006392251
4933 24.46990877092435
4934 24.47717454999043
4935 24.46939461509863
4936 24.47721625997246
4937 24.46987530426346
4938 24.47734802429986
4939 24.46990877913366
4940 24.47766860212381
4941 24.47082359367483
4942 24.4777674653103
4943 24.47071450604388
4944 24.47751634016356
4945 24.4712907343041
4946 24.47734311444482
4947 24.47148406370091
4948 24.47828140339443
4949 24.47221912884003
4950 24.4778269102739
4951 24.4717185191339
4952 24.47826045906463
4953 24.47225447712788
4954 24.47754473052201
4955 24.47099412758782
4956 24.47753000445982
4957 24.47068095334303
4958 24.47698063657374
4959 24.46941925923887
4960 24.4768123939899
4961 24.46890217986028
4962 24.47621349729123
4963 24.46822474054667
4964 24.47645245700382
4965 24.46880246715759
4966 24.4766274223085
4967 24.46838096323813
4968 24.47723400365076
4969 24.46977514727647
4970 24.47726113012826
4971 24.46986174845025
4972 24.47828321138106
4973 24.47096276925155
4974 24.47776355830728
4975 24.47058651204468
4976 24.47821759770613
4977 24.47148714701819
4978 24.47825067902811
4979 24.47103575772412
4980 24.47796850505361
4981 24.4712811536115
4982 24.47737854102729
4983 24.47106599131124
4984 24.47740649302447
4985 24.47129939724485
4986 24.47742730145402
4987 24.47099813429181
4988 24.4780501322861
4989 24.47176728234169
4990 24.47830624283434
4991 24.4712737345385
4992 24.47846718491119
4993 24.47161537921585
4994 24.47794945093521
4995 24.47098280104759
4996 24.4775264058973
4997 24.47050661963481
4998 24.47636020231242
4999 24.46934469922337
5000 24.47538241924856
5001 24.46836653514626
5002 24.47408461658533
5003 24.46712109242934
5004 24.47381533669568
5005 24.46750831740152
5006 24.47410521354121
5007 24.46756718319447
5008 24.47557387507009
5009 24.4689360552962
5010 24.47638002434082
5011 24.46965484545569
5012 24.4784762429698
5013 24.4714098483521
5014 24.47924260145014
5015 24.47139905223514
5016 24.48001101047241
5017 24.47202180583578
5018 24.47981804050928
5019 24.47182054677978
5020 24.48014495749674
5021 24.47176031399013
5022 24.47928485321261
5023 24.47087248181787
5024 24.47856163875578
5025 24.47084077001112
5026 24.47801014157055
5027 24.4700162493771
5028 24.47771997757979
5029 24.47027747253098
5030 24.47666447761882
5031 24.46961907120181
5032 24.47705599986589
5033 24.47014967007094
5034 24.47664869294296
5035 24.46985410992443
5036 24.47749950674501
5037 24.4705167384667
5038 24.47729967842263
5039 24.46984447251443
5040 24.47720591504308
5041 24.47015934747351
5042 24.47646400969419
5043 24.46938565408084
5044 24.47610352736271
5045 24.4696257473589
5046 24.47579368501761
5047 24.46977639145713
5048 24.47662506641778
5049 24.47067889496008
5050 24.47642398512138
5051 24.47002766495093
5052 24.4771167524354
5053 24.4714455294591
5054 24.47697988283366
5055 24.47095310536342
5056 24.47810218454664
5057 24.47170868393039
5058 24.47817667486022
5059 24.47163431219402
5060 24.47914850571823
5061 24.47244596054752
5062 24.47940127937658
5063 24.4716029634623
5064 24.47885743314299
5065 24.47092050672765
5066 24.47798631343453
5067 24.46994572691585
5068 24.47772186860095
5069 24.46977228074109
5070 24.4766254096888
5071 24.46869386162981
5072 24.47693891115978
5073 24.46947099204565
5074 24.47641886182097
5075 24.46873803131167
5076 24.47662844802139
5077 24.46953530928404
5078 24.47617733833049
5079 24.46916913220612
5080 24.47653764439919
5081 24.46979507617601
5082 24.47651000383463
5083 24.4697305259346
5084 24.47691560309861
5085 24.47021923904056
5086 24.47703816581157
5087 24.46998567844788
5088 24.47745792846981
5089 24.47068669329058
5090 24.47728987968486
5091 24.47035775069102
5092 24.47822526686297
5093 24.47083044315579
5094 24.47760366761377
5095 24.47078553031994
5096 24.47853061087293
5097 24.47228676304519
5098 24.47799752342547
5099 24.47142732934996
5100 24.47778927947873
5101 24.47152225478581
5102 24.47706975847008
5103 24.47029511443038
5104 24.47676684487408
5105 24.47002610946834
5106 24.47646606370023
5107 24.46935653744422
5108 24.47665772324891
5109 24.46971332955516
5110 24.4766277403737
5111 24.46917957951649
5112 24.47718032213357
5113 24.46922632132889
5114 24.47671616766747
5115 24.4687893196809
5116 24.47709534895806
5117 24.46921224572135
5118 24.4767450042187
5119 24.4685337182632
5120 24.47697097931765
5121 24.46923982686077
5122 24.47690999000741
5123 24.46884694776783
5124 24.47693088908326
5125 24.46955553462281
5126 24.4766037731825
5127 24.46939909965929
5128 24.47686916178824
5129 24.46967710852275
5130 24.47631886123412
5131 24.46949821578254
5132 24.47666410687668
5133 24.47000092939816
5134 24.47632671362921
5135 24.46962319139693
5136 24.47670855882655
5137 24.47092707418116
5138 24.4766240561589
5139 24.47046029654949
5140 24.47748154694782
5141 24.47107353486922
5142 24.47735094319463
5143 24.47079115798041
5144 24.47771014986528
5145 24.47150982292899
5146 24.47809431845964
5147 24.47114224812347
5148 24.47814777476995
5149 24.4706469935973
5150 24.47738702430141
5151 24.47033007231229
5152 24.47785494647061
5153 24.47052311373872
5154 24.47731501627213
5155 24.47037448924937
5156 24.4782543844845
5157 24.47107391844578
5158 24.47809746526119
5159 24.47036014747416
5160 24.47836644406857
5161 24.47095048423644
5162 24.47839714193512
5163 24.47078632335897
5164 24.47824688239726
5165 24.47067963801679
5166 24.47797329354596
5167 24.47036747277836
5168 24.47859131525384
5169 24.47079477517599
5170 24.47875541466423
5171 24.47026424550302
5172 24.47842195364619
5173 24.47046217975508
5174 24.47746609018201
5175 24.46969232238547
5176 24.47742685922942
5177 24.47006264690944
5178 24.47627965069746
5179 24.46922833375881
5180 24.47624408125007
5181 24.4700514055287
5182 24.47595786042613
5183 24.46961739980981
5184 24.47524937995396
5185 24.46981182451826
5186 24.47547170714729
5187 24.4700366626117
5188 24.47595551504186
5189 24.47009226487741
5190 24.47630046913254
5191 24.47008535518806
5192 24.4769137702176
5193 24.47094322695396
5194 24.477414272606
5195 24.47060853037593
5196 24.47813987561174
5197 24.47124551990149
5198 24.47793863055971
5199 24.47017403131892
5200 24.4777470534964
5201 24.47015465992698
5202 24.47771834415454
5203 24.46979139025467
5204 24.47780605009319
5205 24.47043039018071
5206 24.47795438598341
5207 24.47025862518689
5208 24.47789398488598
5209 24.47085347488673
5210 24.47793977233503
5211 24.47076954607623
5212 24.47791195300735
5213 24.47074012625432
5214 24.47729343183549
5215 24.47005602571631
5216 24.47749207346086
5217 24.47051024070668
5218 24.47707247717543
5219 24.46949050713409
5220 24.47716709479046
5221 24.47008859081147
5222 24.47695065895383
5223 24.4696151880002
5224 24.47716042762516
5225 24.47015618349508
5226 24.47719356414246
5227 24.47002697795168
5228 24.4779482608898
5229 24.47103875130504
5230 24.47812328611923
5231 24.47056117209336
5232 24.47843168503039
5233 24.47077370173777
5234 24.47735892322207
5235 24.47004116245407
5236 24.47710769102213
5237 24.47043351224767
5238 24.4764813996036
5239 24.46986344443862
5240 24.47645131398022
5241 24.47063476727369
5242 24.47629410244125
5243 24.47036313967152
5244 24.47661473534542
5245 24.4710962442474
5246 24.47705161142088
5247 24.47102643127031
5248 24.47765764256649
5249 24.47150639246747
5250 24.47859444841558
5251 24.47159272691403
5252 24.47920228398605
5253 24.47159358819213
5254 24.47903296522352
5255 24.47051039436097
5256 24.4787732340248
5257 24.47052133517345
5258 24.47803251184817
5259 24.46939881042178
5260 24.47744323806472
5261 24.46931698095121
5262 24.47675785793977
5263 24.46919890071025
5264 24.47724761951694
5265 24.47053161264986
5266 24.47746416936958
5267 24.47033728106315
5268 24.47802884564553
5269 24.47123193223765
5270 24.4780944928277
5271 24.47121482191265
5272 24.4784112954607
5273 24.4709299935697
5274 24.47762280267832
5275 24.47032246015013
5276 24.47770956677296
5277 24.4709284977991
5278 24.47745991738444
5279 24.47036342038045
5280 24.4769863236633
5281 24.47011366698056
5282 24.47633691383365
5283 24.46955455213155
5284 24.47610565883722
5285 24.4695059672053
5286 24.47611791536226
5287 24.46923987497065
5288 24.47643858732233
