"cx-rfile"
"Iteration" "cx"
("Iteration" "cx")
1 2.220157316455091
2 1.998050399240693
3 1.52131199949985
4 1.232164359936079
5 0.9452058181393764
6 0.7243419293610573
7 0.5743762667566401
8 0.4572047460354055
9 0.3426115320838959
10 0.2395651440231493
11 0.1474675481853061
12 0.07693144521725126
13 0.0226609625822829
14 -0.01679823546656352
15 -0.04357563158483142
16 -0.05772033939115708
17 -0.06461418349974385
18 -0.06495736424761327
19 -0.06085459484484285
20 -0.05399342693027387
21 -0.04640712465076628
22 -0.03667576568712688
23 -0.02730800027429541
24 -0.01770608292125321
25 -0.009294529120951399
26 -0.001816646253684
27 0.004676965692030342
28 0.01031233835192187
29 0.01521504582147399
30 0.01880880882247749
31 0.02180828018821299
32 0.0240030855879234
33 0.02573679920360818
34 0.02686579720866703
35 0.02765533894128402
36 0.02815034700402606
37 0.02828209807860552
38 0.02816676296305065
39 0.02769671117625904
40 0.02685577494789886
41 0.02575317102473838
42 0.02444345662789602
43 0.02285946609748811
44 0.02118980853130839
45 0.01958379650740748
46 0.01791747996314897
47 0.01643782395230152
48 0.01491218405107861
49 0.01361144651558434
50 0.0122821450002999
51 0.01089415205037196
52 0.009560697470404797
53 0.00822057798504482
54 0.006979661475372174
55 0.005766900694024949
56 0.004439071263662183
57 0.003258629797793421
58 0.0022656590068557
59 0.001363936631127169
60 0.0007298756459251103
61 -1.263355980811912e-05
62 -0.0005271257513037188
63 -0.001064182133558753
64 -0.001527774449639534
65 -0.0019449065322846
66 -0.002333873506110912
67 -0.002773783927592583
68 -0.00317195677773719
69 -0.003622192733266579
70 -0.00403450774562256
71 -0.004396242905282336
72 -0.004850053226577162
73 -0.005331426012108852
74 -0.005772059236657299
75 -0.006240409470204822
76 -0.006668598716828534
77 -0.007125048350922307
78 -0.007538726382213083
79 -0.007981274891861585
80 -0.008378642886196216
81 -0.00880785692524255
82 -0.009191856191666674
83 -0.009613624903428906
84 -0.009989085410904182
85 -0.01039762007610727
86 -0.01076136625681409
87 -0.01106269391021424
88 -0.01144122854279393
89 -0.01174064039424852
90 -0.01201764988736771
91 -0.01233670456649822
92 -0.01262350822844499
93 -0.01295151423735588
94 -0.01324488515908702
95 -0.01357481186803788
96 -0.01386635483825558
97 -0.01419388680327379
98 -0.01447785361646356
99 -0.01479392389698412
100 -0.01506680284584958
101 -0.01536970904597316
102 -0.0156285276537625
103 -0.0159150912716367
104 -0.01615454261536987
105 -0.0164227891126795
106 -0.01664524012800065
107 -0.01689732013486299
108 -0.01710410044693932
109 -0.01733938963912486
110 -0.01752922718328459
111 -0.01774813477086081
112 -0.0179199804195727
113 -0.01812388427198024
114 -0.01828141197827591
115 -0.01847211077755352
116 -0.0186161592565798
117 -0.01879268504452916
118 -0.01892316224521533
119 -0.01908562805475301
120 -0.01920434284236747
121 -0.01935798665732892
122 -0.01946526493724682
123 -0.01960636190076426
124 -0.01970199626140396
125 -0.01983092840229655
126 -0.01991665791771459
127 -0.020036343427651
128 -0.02011060954874258
129 -0.02022101136993467
130 -0.02028701769401494
131 -0.02038802303442347
132 -0.02044690878323955
133 -0.02054156150276037
134 -0.02059454082835309
135 -0.02067983829782887
136 -0.02072875909481951
137 -0.02080956651337524
138 -0.02085242694551259
139 -0.02092771891073229
140 -0.02096532631974052
141 -0.02103559030927335
142 -0.02106940811132286
143 -0.02113467957963925
144 -0.0211629865312869
145 -0.02122400857126087
146 -0.02124754319781649
147 -0.02130255817702515
148 -0.02132227628851511
149 -0.02137229781439111
150 -0.02138885054492807
151 -0.0214351348937765
152 -0.02144814289510853
153 -0.02149306636087357
154 -0.02150078025066952
155 -0.02154268537552204
156 -0.02154933661627627
157 -0.02158698678848626
158 -0.02158887756020979
159 -0.0216244808732174
160 -0.02162699843260803
161 -0.02166594681084271
162 -0.0216637323609429
163 -0.021696328236129
164 -0.02169984998743837
165 -0.02172995223719987
166 -0.02172867167011467
167 -0.0217699023135211
168 -0.02176642137558376
169 -0.02180863191457108
170 -0.02180581355136124
171 -0.02185030324645612
172 -0.0218497272272581
173 -0.02189866410540023
174 -0.02190058870753905
175 -0.02195198957798164
176 -0.02195521453633502
177 -0.0220077119811741
178 -0.02201177058312773
179 -0.02206712010276146
180 -0.02207197636660839
181 -0.02212857900080066
182 -0.02213691281332985
183 -0.02218255433901575
184 -0.02220976503039825
185 -0.02225415701234623
186 -0.02228193087127973
187 -0.02232616637733344
188 -0.02235487076487617
189 -0.02239833271788839
190 -0.02241655306399734
191 -0.02248072134381354
192 -0.02249847965997949
193 -0.02254798603893755
194 -0.0225714793677816
195 -0.02262594332909507
196 -0.02265313307489646
197 -0.0227110243256243
198 -0.02274327757059958
199 -0.02280365358312156
200 -0.02283992198330384
201 -0.02290205251088861
202 -0.02293990815688988
203 -0.02300458183140277
204 -0.0230447055756242
205 -0.02311083117981556
206 -0.02315190842684743
207 -0.02322226278334848
208 -0.0232643169265316
209 -0.0233349913570277
210 -0.02337813552523847
211 -0.02345191878853117
212 -0.02349667093115089
213 -0.02356986945965087
214 -0.02361573305655627
215 -0.02368997530491919
216 -0.0237340203303717
217 -0.02380677209891154
218 -0.02385144154609693
219 -0.02392458625462359
220 -0.0239686005309134
221 -0.02404026228823701
222 -0.02408401451113153
223 -0.02415426590237846
224 -0.02419676139636037
225 -0.02426522943606115
226 -0.02430633107455565
227 -0.02437460650718337
228 -0.02441430907164124
229 -0.02447970723611454
230 -0.0245170433603738
231 -0.02458250338809697
232 -0.02461872973501077
233 -0.02468043120330663
234 -0.02471482056860998
235 -0.02477611606290403
236 -0.02480844397917601
237 -0.02486579522811532
238 -0.0248973314259812
239 -0.02495278041316739
240 -0.02498237084274142
241 -0.0250349612672147
242 -0.02506307720021653
243 -0.02511304105956914
244 -0.02513934726329478
245 -0.0251867318666568
246 -0.02521262183281862
247 -0.02525824211913157
248 -0.02528128108295312
249 -0.02532393494454731
250 -0.0253449390363167
251 -0.0253865275023568
252 -0.0254042083216805
253 -0.02544425877890696
254 -0.02545940767303237
255 -0.0254982269813834
256 -0.0255098366330412
257 -0.02554628713198131
258 -0.02555557969753016
259 -0.02559081201944771
260 -0.02559700729987189
261 -0.02562974119913359
262 -0.02563484091854507
263 -0.02566677389679567
264 -0.02566917222099552
265 -0.02569865851717754
266 -0.02570017658292605
267 -0.02572863195855455
268 -0.02572778702244237
269 -0.02575574724589978
270 -0.02575564438007939
271 -0.02578320985599021
272 -0.0257815419100833
273 -0.02580707724200914
274 -0.02580591765496554
275 -0.02583109570866294
276 -0.02582986668705172
277 -0.02585342514777094
278 -0.02585209610739718
279 -0.02587526078068633
280 -0.02587455249074005
281 -0.02589745536575616
282 -0.02589630387358366
283 -0.02592010347781635
284 -0.02591841675479454
285 -0.02594081589394443
286 -0.02594031404951385
287 -0.02596351095492133
288 -0.0259628658761822
289 -0.02598557805146943
290 -0.02598482766542299
291 -0.02600889362824599
292 -0.0260084195598
293 -0.02603064444505859
294 -0.02602899673907724
295 -0.0260542340648802
296 -0.0260519516844166
297 -0.02607526968941325
298 -0.0260722575580289
299 -0.02609779149012971
300 -0.02609580041811443
301 -0.02612044233181575
302 -0.02611801470171461
303 -0.02614383850178125
304 -0.02614222807278615
305 -0.02616757683962656
306 -0.02616654239107517
307 -0.02619292633900113
308 -0.0261917940852404
309 -0.02621760670687679
310 -0.02621831947222749
311 -0.02624537896916404
312 -0.02624449826309038
313 -0.02627103833656901
314 -0.02627058361201513
315 -0.02629837972916609
316 -0.02629719811288915
317 -0.02632472124696916
318 -0.02632363811021367
319 -0.02635177825248988
320 -0.02635087347474143
321 -0.02637837236314441
322 -0.02637696476514022
323 -0.02640589992687675
324 -0.0264045647149782
325 -0.02643301557115918
326 -0.02643210687258787
327 -0.02646142319773399
328 -0.02645949894801959
329 -0.02648817864170788
330 -0.02648679394871731
331 -0.02651627173893129
332 -0.02651541219131937
333 -0.02654397889713199
334 -0.02654404731591689
335 -0.0265729391533256
336 -0.02657322741083422
337 -0.02660127958182807
338 -0.02660220269557231
339 -0.02662905253055421
340 -0.02663053424110597
341 -0.0266578663000579
342 -0.02665897503995441
343 -0.02668623712215969
344 -0.02668803487204105
345 -0.02671354862496006
346 -0.02671489743681854
347 -0.02674083086918948
348 -0.02674239673443293
349 -0.02676776757054028
350 -0.02676872366858335
351 -0.02679504117008287
352 -0.02679467910907434
353 -0.02682091305948716
354 -0.02682026101894473
355 -0.02684692279735139
356 -0.02684467216144184
357 -0.02687138539998405
358 -0.02686918905636493
359 -0.02689685943195559
360 -0.02689491369005754
361 -0.02692227674443077
362 -0.02692107858643197
363 -0.02694874706015723
364 -0.02694731134222512
365 -0.02697438136911272
366 -0.0269741429489578
367 -0.02700155845825621
368 -0.02700208514787541
369 -0.02702784102398511
370 -0.0270295725470375
371 -0.02705534981237438
372 -0.0270578498802107
373 -0.02708292333935356
374 -0.02708637979543297
375 -0.02711183569840346
376 -0.02711593988939051
377 -0.0271424892586932
378 -0.02714645688621435
379 -0.02717327562445921
380 -0.02717750775070998
381 -0.02720320458191862
382 -0.02720696466095362
383 -0.02723352651503285
384 -0.02723661629228081
385 -0.02726236492994553
386 -0.02726350591896864
387 -0.02728990963200519
388 -0.02728995314416014
389 -0.02731600291517409
390 -0.02731444802060718
391 -0.0273402232994953
392 -0.02733851921749808
393 -0.02736205298334014
394 -0.0273594126971885
395 -0.02738357274440006
396 -0.02738126067592335
397 -0.02740280489979059
398 -0.02739975402979643
399 -0.02742051829374314
400 -0.02741808711892424
401 -0.02743753253753025
402 -0.02743562555543325
403 -0.02745618598761052
404 -0.02745388935346831
405 -0.02747387078062029
406 -0.02747255722671405
407 -0.02749307390306945
408 -0.02749163021322965
409 -0.02751366962386747
410 -0.02751303569478051
411 -0.02753615125748562
412 -0.02753641662309329
413 -0.02755944104953336
414 -0.02756037971520347
415 -0.02758560117542377
416 -0.02758589450278491
417 -0.02761111384052059
418 -0.02761311611202664
419 -0.02763935212950045
420 -0.02763975266564467
421 -0.02766526751170224
422 -0.02766712948973323
423 -0.02769285811205505
424 -0.02769368779755298
425 -0.02771893907283548
426 -0.02772021998600349
427 -0.02774372541700951
428 -0.02774439148347409
429 -0.02776702092084186
430 -0.02776794103749346
431 -0.02779148033635456
432 -0.02778981505881953
433 -0.02781156566643973
434 -0.02780997950842546
435 -0.02783147778571906
436 -0.02782893030932166
437 -0.02784944966137662
438 -0.02784601225741407
439 -0.02786595347055303
440 -0.02786242162249404
441 -0.02788191267128426
442 -0.02787821434724846
443 -0.02789794422417115
444 -0.02789440248197344
445 -0.02791382013291321
446 -0.02790938915150486
447 -0.02792915925135967
448 -0.02792562239943933
449 -0.02794585166588341
450 -0.02794242157772657
451 -0.0279613108533431
452 -0.02795893216026584
453 -0.02797814952239138
454 -0.02797491029614609
455 -0.02799523001653438
456 -0.02799241111609572
457 -0.0280119305266413
458 -0.02801058173195708
459 -0.02803038725972344
460 -0.02802925489519122
461 -0.02804834410556102
462 -0.0280481772391346
463 -0.02806772883116352
464 -0.02806746142915694
465 -0.02808706630762073
466 -0.02808632133636455
467 -0.02810598781833214
468 -0.02810459227316848
469 -0.02812361374128056
470 -0.02812202064970131
471 -0.0281423662262575
472 -0.02814106461720486
473 -0.02816026053514121
474 -0.02815883434401201
475 -0.02817758921246184
476 -0.02817637823866265
477 -0.02819549102199326
478 -0.0281938319358642
479 -0.02821354887939112
480 -0.02821110035672985
481 -0.02823207708366571
482 -0.02822905152050465
483 -0.02825062417632064
484 -0.02824669318981549
485 -0.02826731362604666
486 -0.02826383559657097
487 -0.02828342385368143
488 -0.02827844153092127
489 -0.02829821492007477
490 -0.02829407625518499
491 -0.02831319786595802
492 -0.02830650287645014
493 -0.0283254056084418
494 -0.02831982902397927
495 -0.02833696143769013
496 -0.02833072111626259
497 -0.02834765386684673
498 -0.02834183330147431
499 -0.02835780486014388
500 -0.02835051400536567
501 -0.02836663400500665
502 -0.02836042719461365
503 -0.02837384674157374
504 -0.02836776109249981
505 -0.02838192820462286
506 -0.02837556076031965
507 -0.02839156786404662
508 -0.02838659584867739
509 -0.02840212538167209
510 -0.02839776145701967
511 -0.02841471468553182
512 -0.02841231123532845
513 -0.02842966043094989
514 -0.02842620407708376
515 -0.02844579550364973
516 -0.02844349178349888
517 -0.02846262441761405
518 -0.02846018453579952
519 -0.02847935099107408
520 -0.02847646586477644
521 -0.02849629850869397
522 -0.0284934534032577
523 -0.02851366419886449
524 -0.02851062892480353
525 -0.0285303476795628
526 -0.02852682756078333
527 -0.02854509817765865
528 -0.02854129848623852
529 -0.02855923574591333
530 -0.02855519493266838
531 -0.02857264621112471
532 -0.02856690654264755
533 -0.02858352279836432
534 -0.02857700054082849
535 -0.02859175499421003
536 -0.0285842122563282
537 -0.02859921411556877
538 -0.028590041730982
539 -0.02860535245239351
540 -0.02859616786764406
541 -0.02861208388817436
542 -0.02860229237015816
543 -0.02861684057208555
544 -0.02860861212317792
545 -0.02862330848968195
546 -0.02861483545488633
547 -0.02862991886029575
548 -0.02862355348542019
549 -0.028638033082571
550 -0.02863173532626156
551 -0.02864642265076661
552 -0.02864019315368551
553 -0.02865565344823389
554 -0.02865060585293073
555 -0.02866484425110767
556 -0.02866092277475197
557 -0.02867586376822746
558 -0.0286719118799777
559 -0.02868600326705523
560 -0.02868298821365269
561 -0.02869684981981224
562 -0.02869310601243177
563 -0.0287077236624914
564 -0.02870458280077689
565 -0.02871887328858603
566 -0.0287147557122466
567 -0.02872835491153712
568 -0.02872376633674015
569 -0.02873876421251225
570 -0.02873294443492828
571 -0.02874679290505587
572 -0.02874136840421718
573 -0.02875467495075033
574 -0.02874902056249571
575 -0.02876268588695928
576 -0.02875721741288252
577 -0.02877128145159649
578 -0.02876570844895563
579 -0.02877922982415058
580 -0.02877344182306787
581 -0.02878845886160404
582 -0.02878142786749216
583 -0.02879603139464329
584 -0.02878890219965477
585 -0.02880356554830898
586 -0.02879565498938884
587 -0.02881115898471293
588 -0.028803175776836
589 -0.02881849235981295
590 -0.02881007825295927
591 -0.02882548417737658
592 -0.0288175724826409
593 -0.02883290555670602
594 -0.0288241859775164
595 -0.02883999129092905
596 -0.02883137389100228
597 -0.02884599426335052
598 -0.02883807763194108
599 -0.02885278779602744
600 -0.02884460766662029
601 -0.02885867644030746
602 -0.02884963266406078
603 -0.02886235907818458
604 -0.02885478398551352
605 -0.02886814392388752
606 -0.0288604485637619
607 -0.02887320557728287
608 -0.02886690345456168
609 -0.02887989948682028
610 -0.02887358162897499
611 -0.02888806291753392
612 -0.02888176194595335
613 -0.02889564740935679
614 -0.02888912030910879
615 -0.02890373618769963
616 -0.02889733463149501
617 -0.02891097941942809
618 -0.02890372313071625
619 -0.02891699032327631
620 -0.02891018539716977
621 -0.0289236244182782
622 -0.02891528668645308
623 -0.02892795261532146
624 -0.02892034432643052
625 -0.02893206808666939
626 -0.0289238545230465
627 -0.02893636106933153
628 -0.02892909670815207
629 -0.0289403281671667
630 -0.02893169584144272
631 -0.02894365302236766
632 -0.02893679690731674
633 -0.02894919422566944
634 -0.02894138571268909
635 -0.02895300696317746
636 -0.02894641696318437
637 -0.02895893752186267
638 -0.02895137823869675
639 -0.02896456990300157
640 -0.02895832598883658
641 -0.02897238401148448
642 -0.02896539000585329
643 -0.02897987108797827
644 -0.02897350251590321
645 -0.02898897956607066
646 -0.02898155330007022
647 -0.0289967464456027
648 -0.02898997843864309
649 -0.02900577779578796
650 -0.02899784921280651
651 -0.02901262531361202
652 -0.02900558861560597
653 -0.02902031729055952
654 -0.02901092541935199
655 -0.02902425339499532
656 -0.02901524699798548
657 -0.02902772692275668
658 -0.02901723223684195
659 -0.02902918673213131
660 -0.02901944274712384
661 -0.02903183871518036
662 -0.02902025115838506
663 -0.02903138174117833
664 -0.02902026237794086
665 -0.02903157954534551
666 -0.02901870897678503
667 -0.0290305549497286
668 -0.02901910993071864
669 -0.02903130986827189
670 -0.02901827424771838
671 -0.02903139254758513
672 -0.02902115230006564
673 -0.02903404819413308
674 -0.02902273039637318
675 -0.02903644886305246
676 -0.02902703506002525
677 -0.02904154256476619
678 -0.02903146242702253
679 -0.02904694983864591
680 -0.02903935342565893
681 -0.02905519838180988
682 -0.02904626098181083
683 -0.02906240606414176
684 -0.02905504521174829
685 -0.0290725504310578
686 -0.02906477984251851
687 -0.02908191403736671
688 -0.02907649612110848
689 -0.02909332542601306
690 -0.02908518512299477
691 -0.02910205038910669
692 -0.02909605605239111
693 -0.02911025512414961
694 -0.02910255853544061
695 -0.02911578672709871
696 -0.02910901433042482
697 -0.02912147464123225
698 -0.02911154528061561
699 -0.02912231929857051
700 -0.02911359317582056
701 -0.02912449982638293
702 -0.02911313991202556
703 -0.02912395446097646
704 -0.02911277329434798
705 -0.02912249694522455
706 -0.02910956936421496
707 -0.02911927482417799
708 -0.02910684409005743
709 -0.02911586323731281
710 -0.02910183386981638
711 -0.02911216314960642
712 -0.02910057449269219
713 -0.02911059520910668
714 -0.02909796173963594
715 -0.02910850070320687
716 -0.02909818351819362
717 -0.02910972091773774
718 -0.02909802146645104
719 -0.02911123677638971
720 -0.02910204112578703
721 -0.0291158858891086
722 -0.02910595728540032
723 -0.0291201953400396
724 -0.02911204392358348
725 -0.0291270706861855
726 -0.02911777104597457
727 -0.02913280277599539
728 -0.02912524316441318
729 -0.02914051754855553
730 -0.02913185138856318
731 -0.02914691192667748
732 -0.02913996002455632
733 -0.02915611919523146
734 -0.02914785261692848
735 -0.02916345682887017
736 -0.02915741840991622
737 -0.02917220436976611
738 -0.02916451234572061
739 -0.02917920691035372
740 -0.0291724257672431
741 -0.02918595434475348
742 -0.02917704898827802
743 -0.02918943546623892
744 -0.02918161897692154
745 -0.02919373321033742
746 -0.02918274978960944
747 -0.02919370572886363
748 -0.02918387981934597
749 -0.02919448733603006
750 -0.02918146520375348
751 -0.0291914296016144
752 -0.02918005120941368
753 -0.02918963202199755
754 -0.02917671653996163
755 -0.02918573268768573
756 -0.02917408830677278
757 -0.02918237297510869
758 -0.02916892240361136
759 -0.02917624199860802
760 -0.02916508815111169
761 -0.02917349467494502
762 -0.02916133569180103
763 -0.02917028869678105
764 -0.02916156546532422
765 -0.02917159985258044
766 -0.02916145564125145
767 -0.02917301396923127
768 -0.02916507843567709
769 -0.02917850858351614
770 -0.02917009226634331
771 -0.02918373325523619
772 -0.02917711600650728
773 -0.02919143543553929
774 -0.02918328349614378
775 -0.02919887659552226
776 -0.02919294694039276
777 -0.02920813639780747
778 -0.02920060042472429
779 -0.02921631088466471
780 -0.0292098649674657
781 -0.02922546746844285
782 -0.02921711574703252
783 -0.02923151359144973
784 -0.02922371928991304
785 -0.02923767122000232
786 -0.02922816428064636
787 -0.02924055846600771
788 -0.02923150760325719
789 -0.02924298371056557
790 -0.02923169802041104
791 -0.02924146269992135
792 -0.02923034833532393
793 -0.02924040250728231
794 -0.02922778937406478
795 -0.02923711897701648
796 -0.02922564337604246
797 -0.02923462896798545
798 -0.02922216361433396
799 -0.02923131700723305
800 -0.02922042480652908
801 -0.02923050219312389
802 -0.0292183513403501
803 -0.02922854819364893
804 -0.02921829221185899
805 -0.02922900176866148
806 -0.02921670476526
807 -0.02922741537806652
808 -0.02921738237860617
809 -0.02922931313190639
810 -0.02921725679816181
811 -0.02922945742954871
812 -0.02921940613167782
813 -0.02923270964406802
814 -0.0292216784883156
815 -0.02923522293534323
816 -0.02922656579315322
817 -0.02923980031357478
818 -0.02922945819436137
819 -0.02924304965071088
820 -0.02923458894977171
821 -0.02924769520636944
822 -0.02923736293167527
823 -0.02925010252394551
824 -0.02924144980647102
825 -0.02925405585129411
826 -0.02924376058743662
827 -0.02925565937509956
828 -0.02924711837347876
829 -0.02925917311335431
830 -0.02924962963994967
831 -0.02926020918861497
832 -0.02925198489737818
833 -0.02926241436418177
834 -0.0292526567605625
835 -0.02926272932888589
836 -0.02925466043743168
837 -0.02926471606685723
838 -0.02925476455158331
839 -0.02926486447872642
840 -0.02925618910329316
841 -0.02926749030107981
842 -0.02925707419184275
843 -0.02926824958024245
844 -0.02925940290687811
845 -0.02927127028459444
846 -0.02925988504276594
847 -0.02927182787947439
848 -0.02926166145919329
849 -0.02927404469484931
850 -0.02926180951172025
851 -0.02927332176876131
852 -0.0292628199340072
853 -0.02927445471457523
854 -0.0292621954469302
855 -0.02927403338924486
856 -0.02926353973087078
857 -0.02927461875954648
858 -0.02926330253177659
859 -0.02927367253954772
860 -0.02926413072683634
861 -0.02927511531759697
862 -0.02926475261605148
863 -0.02927578801123487
864 -0.02926680052656063
865 -0.02927922536651324
866 -0.02926865590107749
867 -0.02928047471611417
868 -0.02927128119342396
869 -0.02928367588009637
870 -0.02927257229651469
871 -0.02928496551034351
872 -0.02927521790104448
873 -0.02928725612297319
874 -0.02927508836189996
875 -0.0292872957845182
876 -0.02927634569923241
877 -0.02928813253450647
878 -0.02927649124803457
879 -0.02928772105284646
880 -0.02927670229103076
881 -0.02928750431878534
882 -0.02927523422517405
883 -0.02928670583390896
884 -0.02927525948748107
885 -0.02928641958176441
886 -0.02927467253444915
887 -0.02928625769924511
888 -0.02927574257368858
889 -0.02928778378107797
890 -0.02927695249343712
891 -0.02928937454181661
892 -0.02928036508002699
893 -0.02929279521077244
894 -0.02928271255117269
895 -0.02929579960456926
896 -0.02928785387901405
897 -0.02930014943181634
898 -0.02929163555274018
899 -0.02930359342269761
900 -0.02929623591885313
901 -0.02930803216319457
902 -0.02929940548173629
903 -0.0293108326188452
904 -0.02930335907668949
905 -0.02931415763519725
906 -0.0293045818585086
907 -0.02931555994210866
908 -0.02930699413904618
909 -0.02931676515094247
910 -0.02930629975551288
911 -0.02931584546029609
912 -0.02930556374130741
913 -0.02931413265746475
914 -0.02930177409957348
915 -0.02930970589425083
916 -0.02929899364853964
917 -0.02930645811972791
918 -0.02929445115373464
919 -0.02930155190692146
920 -0.02929069582132848
921 -0.02929833694719225
922 -0.02928643447672667
923 -0.02929587975598496
924 -0.02928563552356776
925 -0.02929549761299649
926 -0.02928460915658395
927 -0.02929592218478226
928 -0.02928620748275111
929 -0.02929779039882264
930 -0.02928736346201076
931 -0.02930014020945246
932 -0.02929094204505314
933 -0.02930359465660454
934 -0.02929278335819054
935 -0.02930645866060744
936 -0.02929712149447195
937 -0.0293115346093788
938 -0.02930084636253386
939 -0.02931548507171479
940 -0.0293069060362984
941 -0.02932122239290766
942 -0.02931133244932072
943 -0.02932582751756634
944 -0.02931677895864999
945 -0.02933075540804034
946 -0.02932001486769127
947 -0.02933451490928818
948 -0.02932394644354127
949 -0.02933714964880081
950 -0.02932429570660219
951 -0.02933707063581971
952 -0.02932481829672064
953 -0.02933725274734501
954 -0.02932375292768163
955 -0.02933581006944662
956 -0.02932302129808135
957 -0.02933402918972459
958 -0.02932024273792816
959 -0.02933142463107063
960 -0.02931932430759198
961 -0.02932789867996368
962 -0.02931379339394565
963 -0.0293235373570272
964 -0.02931091421850036
965 -0.02931916907312824
966 -0.0293059074826625
967 -0.02931461640912803
968 -0.02930330129558066
969 -0.0293126937028132
970 -0.02930056848866539
971 -0.02931099534359218
972 -0.02930095466478142
973 -0.02931162288474124
974 -0.02930086305531483
975 -0.02931210657218833
976 -0.02930255575865543
977 -0.02931346400349925
978 -0.02930388108024165
979 -0.02931578413135064
980 -0.02930647326957014
981 -0.02931892632462017
982 -0.02930799437525609
983 -0.02932132059428473
984 -0.02931258646773255
985 -0.02932586625211679
986 -0.02931611644504047
987 -0.02932981163116651
988 -0.02932185590781819
989 -0.02933509568687685
990 -0.02932609330584736
991 -0.02933972808165015
992 -0.02933215120710032
993 -0.02934551930719316
994 -0.0293362799470966
995 -0.02934961612323396
996 -0.02934044721867502
997 -0.02935248959120963
998 -0.02934193920466598
999 -0.02935353446523816
1000 -0.02934315107728328
1001 -0.02935333884291685
1002 -0.02934093586020236
1003 -0.02935273328572066
1004 -0.02934087802742819
1005 -0.02935182931429467
1006 -0.02933771635379252
1007 -0.02934820690680937
1008 -0.02933492231893733
1009 -0.02934458567108573
1010 -0.02933021930847889
1011 -0.02933977371891036
1012 -0.02932582959004316
1013 -0.02933456853254812
1014 -0.0293189977010281
1015 -0.02932920700468998
1016 -0.02931547615474766
1017 -0.02932590859775976
1018 -0.0293117460784407
1019 -0.02932446520032563
1020 -0.02931227938843704
1021 -0.02932417904630214
1022 -0.02931184470366465
1023 -0.02932512417790726
1024 -0.02931505074465517
1025 -0.02932780909255754
1026 -0.02931681647313512
1027 -0.02933092234214642
1028 -0.02932148358674538
1029 -0.02933474913012768
1030 -0.02932434918377662
1031 -0.02933928917747699
1032 -0.02932984927576713
1033 -0.02934452023915862
1034 -0.0293339545759792
1035 -0.02934895939574842
1036 -0.02933881957050558
1037 -0.0293522613405513
1038 -0.02934077388784181
1039 -0.02935550954544801
1040 -0.02934535966667271
1041 -0.02935694753185462
1042 -0.02934561902025926
1043 -0.02935765943699559
1044 -0.02934587126461201
1045 -0.02935675054719027
1046 -0.02934459969419029
1047 -0.02935488048371648
1048 -0.02934391400312963
1049 -0.02935306437006124
1050 -0.02934128665473284
1051 -0.02935150315895155
1052 -0.02934098864496603
1053 -0.02934998134433561
1054 -0.02933880100235676
1055 -0.02934848634300882
1056 -0.02933842220301792
1057 -0.02934752177180692
1058 -0.0293373067656815
1059 -0.02934616164640861
1060 -0.02933729441215925
1061 -0.02934578434520684
1062 -0.02933558868212881
1063 -0.02934463658751237
1064 -0.02933554565351244
1065 -0.02934403703765335
1066 -0.02933378622132843
1067 -0.02934394551753403
1068 -0.02933490058088134
1069 -0.02934432609403106
1070 -0.02933455276721649
1071 -0.0293443555097352
1072 -0.02933443924590546
1073 -0.0293436654461937
1074 -0.02933270653748044
1075 -0.02934342000205377
1076 -0.02933331009730336
1077 -0.02934359878756065
1078 -0.02933248508002167
1079 -0.02934396202282118
1080 -0.02933418216759624
1081 -0.02934482106313572
1082 -0.02933517506850374
1083 -0.02934655600673665
1084 -0.02933710279405102
1085 -0.02934922321341436
1086 -0.02933824528120579
1087 -0.02935085521365407
1088 -0.02934123393748811
1089 -0.02935293597796957
1090 -0.02934210199599607
1091 -0.02935508183601366
1092 -0.02934542452877262
1093 -0.02935688649312812
1094 -0.02934600301270575
1095 -0.02935865985197728
1096 -0.02934918542621059
1097 -0.02936108787929269
1098 -0.02934939093852253
1099 -0.02936248211258049
1100 -0.0293524810697245
1101 -0.02936379788835466
1102 -0.02935202449058018
1103 -0.02936386979848542
1104 -0.02935241788083896
1105 -0.0293630800692368
1106 -0.02935007186340131
1107 -0.02936164003973279
1108 -0.02934911127836192
1109 -0.02935982450102578
1110 -0.02934618112907262
1111 -0.02935842677243668
1112 -0.02934561309930152
1113 -0.02935743276067258
1114 -0.02934291021006963
1115 -0.0293564807181898
1116 -0.0293438820973004
1117 -0.02935591350033217
1118 -0.02934176073511357
1119 -0.02935518311690049
1120 -0.02934251419566295
1121 -0.02935500779511953
1122 -0.02934189777762867
1123 -0.02935480215684273
1124 -0.0293426371779392
1125 -0.02935484880952785
1126 -0.02934146193050404
1127 -0.02935369658609767
1128 -0.02934183093860109
1129 -0.02935262510149496
1130 -0.0293405402132402
1131 -0.02935254747291708
1132 -0.02934153488633066
1133 -0.02935200158887423
1134 -0.02933964197190849
1135 -0.02935031487413485
1136 -0.02933999722982473
1137 -0.02935028038691073
1138 -0.02933925774068997
1139 -0.02934966816957742
1140 -0.02933992267413962
1141 -0.02935035025477597
1142 -0.02934036639303342
1143 -0.02935245258487955
1144 -0.02934394920635881
1145 -0.02935578047562476
1146 -0.0293467354935809
1147 -0.02936070817728271
1148 -0.02935250104295288
1149 -0.02936497926211999
1150 -0.02935571709805207
1151 -0.0293691770740589
1152 -0.02936032830041225
1153 -0.02937271127543463
1154 -0.02936273854858957
1155 -0.02937445306870008
1156 -0.02936619055766743
1157 -0.02937613507009323
1158 -0.02936623436788366
1159 -0.02937678898118766
1160 -0.02936694643534183
1161 -0.02937689063420862
1162 -0.02936527475215346
1163 -0.02937556109755842
1164 -0.02936395690112061
1165 -0.0293727404716578
1166 -0.02935879320194276
1167 -0.02936773144014008
1168 -0.02935399006505044
1169 -0.02936230890427596
1170 -0.02934696802510518
1171 -0.02935583135304346
1172 -0.02934146480153807
1173 -0.02935123456744862
1174 -0.02933660145100487
1175 -0.02934692347849671
1176 -0.02933386921062911
1177 -0.02934555909069598
1178 -0.02933256321347969
1179 -0.02934477098876352
1180 -0.02933388553189076
1181 -0.0293454269996705
1182 -0.02933476623596617
1183 -0.0293476910057527
1184 -0.02933901447410568
1185 -0.0293503002016112
1186 -0.02934218005001002
1187 -0.02935335616818426
1188 -0.02934658075833635
1189 -0.02935803896188111
1190 -0.02935008534045149
1191 -0.02936131451858176
1192 -0.02935468481695019
1193 -0.02936690205989498
1194 -0.02935846697134249
1195 -0.02937139479307585
1196 -0.02936394822792719
1197 -0.0293750375230848
1198 -0.02936583539305039
1199 -0.0293775018737397
1200 -0.02936857650603895
1201 -0.02937991237649898
1202 -0.02936865309470771
1203 -0.02937921524027276
1204 -0.02936796897746848
1205 -0.02937923592978936
1206 -0.02936627670351288
1207 -0.02937827216419096
1208 -0.02936621273272391
1209 -0.02937713288411131
1210 -0.02936387405034384
1211 -0.02937510324660669
1212 -0.0293624347628449
1213 -0.02937255601966285
1214 -0.02935852007636624
1215 -0.02936757173219945
1216 -0.02935474610306435
1217 -0.02936337483320403
1218 -0.02934952232521438
1219 -0.02935858808039488
1220 -0.02934699386242346
1221 -0.0293542842684302
1222 -0.02934232283300575
1223 -0.02935222474887012
1224 -0.02934170565995337
1225 -0.02935182732211701
1226 -0.02934077000797259
1227 -0.02935102692827098
1228 -0.02934158548574889
1229 -0.02935258715443518
1230 -0.02934179715392005
1231 -0.02935319132248113
1232 -0.02934388355853263
1233 -0.0293547319208455
1234 -0.02934473168779622
1235 -0.02935748887652403
1236 -0.02934861354887259
1237 -0.02936166548184784
1238 -0.02935270223769953
1239 -0.02936587064031509
1240 -0.02935853185833171
1241 -0.02937083449742976
1242 -0.02936205184612851
1243 -0.02937477035318842
1244 -0.0293663129004758
1245 -0.02937805296463112
1246 -0.02936834247403673
1247 -0.02938058902810769
1248 -0.029371276768551
1249 -0.02938269537406948
1250 -0.02937143480887477
1251 -0.02938238695998718
1252 -0.02937143973671198
1253 -0.02938234728410239
1254 -0.02936975639891908
1255 -0.02938075958890728
1256 -0.02936794573957564
1257 -0.02937785817214088
1258 -0.02936440396318834
1259 -0.02937449852100365
1260 -0.02936176648079025
1261 -0.02937111888014694
1262 -0.02935637270182686
1263 -0.02936664606390776
1264 -0.02935352613288192
1265 -0.02936359356393102
1266 -0.02934958756076312
1267 -0.02935913352889876
1268 -0.02934739137450563
1269 -0.02935765236352548
1270 -0.02934512718652286
1271 -0.02935588520602734
1272 -0.02934541036126637
1273 -0.02935634815088728
1274 -0.02934466623974409
1275 -0.02935627651071938
1276 -0.02934688351881178
1277 -0.02935680110402458
1278 -0.02934707708381562
1279 -0.02935887968058648
1280 -0.02935144291008689
1281 -0.02936161737800427
1282 -0.02935329481872246
1283 -0.0293648733685885
1284 -0.02935775773670185
1285 -0.02936958872807896
1286 -0.02936109029380578
1287 -0.0293724507276335
1288 -0.02936468967088065
1289 -0.02937598235983713
1290 -0.02936595023521996
1291 -0.02937719471826518
1292 -0.02936717992091602
1293 -0.02937720407705847
1294 -0.02936498909668442
1295 -0.02937507722872256
1296 -0.02936331322865008
1297 -0.02937271707310336
1298 -0.02935985691726274
1299 -0.02937022916055596
1300 -0.02935923579307525
1301 -0.02936979304981673
1302 -0.02935756401978529
1303 -0.02936920071261877
1304 -0.02935761025389877
1305 -0.02936823162193444
1306 -0.02935608276977448
1307 -0.02936736288636561
1308 -0.02935746064763015
1309 -0.02936840150364336
1310 -0.02935762292216658
1311 -0.029368878504765
1312 -0.02935902083708922
1313 -0.02936992841173452
1314 -0.02936022829606911
1315 -0.02937251930293118
1316 -0.02936279739317656
1317 -0.02937404340539291
1318 -0.02936302930474491
1319 -0.02937384794309979
1320 -0.02936427642817012
1321 -0.02937557753251822
1322 -0.02936361689860132
1323 -0.02937492423577246
1324 -0.02936354943314417
1325 -0.02937361625855199
1326 -0.02936113423547979
1327 -0.02937256357772394
1328 -0.02936056611773125
1329 -0.02937096870683181
1330 -0.029358750780756
1331 -0.02936993274298007
1332 -0.02935820515423062
1333 -0.02936981313700371
1334 -0.02935705969111407
1335 -0.02936909306307832
1336 -0.02935719063946632
1337 -0.02936790799091731
1338 -0.02935560596849826
1339 -0.02936693592383147
1340 -0.02935596562169864
1341 -0.02936635233035871
1342 -0.02935488916512043
1343 -0.02936438661378448
1344 -0.02935396887755488
1345 -0.02936473334877548
1346 -0.02935393507374883
1347 -0.02936504402702064
1348 -0.02935575682866497
1349 -0.02936678360891421
1350 -0.02935654725778486
1351 -0.02936911800036329
1352 -0.02935919813404151
1353 -0.0293718674098453
1354 -0.0293607874392355
1355 -0.02937345546766241
1356 -0.02936317370110748
1357 -0.02937527579511557
1358 -0.02936316081992999
1359 -0.0293753723727684
1360 -0.02936462552657896
1361 -0.02937646922412383
1362 -0.02936570289924425
1363 -0.02937782645490097
1364 -0.0293678676395542
1365 -0.02937929921897727
1366 -0.02936877078846583
1367 -0.0293804404160335
1368 -0.02937069003096886
1369 -0.02938217812099983
1370 -0.02936989659574149
1371 -0.02938109258859472
1372 -0.02936979628083223
1373 -0.02937961526224674
1374 -0.02936689090437625
1375 -0.02937718877988141
1376 -0.0293660365433726
1377 -0.02937559299479762
1378 -0.02936401932548383
1379 -0.02937261312231604
1380 -0.02936177464766297
1381 -0.02937002471749341
1382 -0.02935740941731746
1383 -0.02936597559212396
1384 -0.0293546123296624
1385 -0.02936245309694318
1386 -0.0293492809033492
1387 -0.02935870610596967
1388 -0.02934723451794087
1389 -0.0293563881711229
1390 -0.02934343169041215
1391 -0.02935433346118301
1392 -0.02934320803723761
1393 -0.02935490827093781
1394 -0.0293425012061438
1395 -0.02935543531786663
1396 -0.02934472696546728
1397 -0.02935891135365378
1398 -0.02934748147543438
1399 -0.02936281207294996
1400 -0.0293538806897124
1401 -0.02936860008124225
1402 -0.0293579597759033
1403 -0.02937514682288424
1404 -0.02936543502121712
1405 -0.02938087484494864
1406 -0.02937061129329506
1407 -0.02938607354430224
1408 -0.02937663197573231
1409 -0.02939022457472146
1410 -0.02938014521366563
1411 -0.0293934634117493
1412 -0.0293838452694308
1413 -0.02939538982204632
1414 -0.0293840986409426
1415 -0.0293950334609895
1416 -0.02938433142924949
1417 -0.02939330583237497
1418 -0.02938090771390231
1419 -0.02938976331647358
1420 -0.02937739291944319
1421 -0.02938431128512139
1422 -0.02937018457504377
1423 -0.02937733196635887
1424 -0.02936401258839523
1425 -0.0293696207414717
1426 -0.02935538080094426
1427 -0.02936364625048469
1428 -0.02935074281496429
1429 -0.02935893813047806
1430 -0.0293455952366472
1431 -0.02935478945938277
1432 -0.02934254383785087
1433 -0.02935211320692369
1434 -0.02933960638762696
1435 -0.02935106969886144
1436 -0.02933985263529148
1437 -0.02935164545148441
1438 -0.02934076105396818
1439 -0.02935407838008249
1440 -0.02934489751315532
1441 -0.02935761857205937
1442 -0.0293478990425955
1443 -0.02936130786170167
1444 -0.02935302149615258
1445 -0.0293660134606417
1446 -0.02935685899441617
1447 -0.02937116856914163
1448 -0.02936320820652136
1449 -0.02937656172049103
1450 -0.02936661545979864
1451 -0.02938108462830815
1452 -0.02937257087939075
1453 -0.02938577392742614
1454 -0.02937527936855698
1455 -0.02938909900440392
1456 -0.02937929719672076
1457 -0.02939211095228728
1458 -0.02938082716405352
1459 -0.02939437541376868
1460 -0.02938365936713987
1461 -0.0293950825001256
1462 -0.02938275000802638
1463 -0.0293946777091032
1464 -0.02938295165345567
1465 -0.02939319836213389
1466 -0.02937905870557838
1467 -0.0293878012492263
1468 -0.02937516121169035
1469 -0.02938353508111815
1470 -0.02936925844322245
1471 -0.02937713398657304
1472 -0.02936405473432396
1473 -0.02937121140031648
1474 -0.02935689306877829
1475 -0.02936487379258091
1476 -0.02935181391421002
1477 -0.02935979924309864
1478 -0.02934663563023605
1479 -0.02935585481785025
1480 -0.02934426001076757
1481 -0.02935287300835362
1482 -0.02934079405910918
1483 -0.02935141335244605
1484 -0.02934099661794503
1485 -0.02935184518895655
1486 -0.02934087754442346
1487 -0.02935308537618699
1488 -0.02934437768228538
1489 -0.02935775392040867
1490 -0.02934782776686437
1491 -0.02936213739223416
1492 -0.02935390316519925
1493 -0.02936816842925162
1494 -0.02935944659346741
1495 -0.02937449535465419
1496 -0.02936632134133587
1497 -0.02938044553138016
1498 -0.02937001030521675
1499 -0.02938432850798526
1500 -0.02937588373670687
1501 -0.02938921835542591
1502 -0.02937901522386034
1503 -0.02939185827188011
1504 -0.02938254440718166
1505 -0.02939364302594594
1506 -0.02938306193108837
1507 -0.02939466875672304
1508 -0.029383039050961
1509 -0.02939368844131385
1510 -0.029380986944978
1511 -0.02939009778794913
1512 -0.02937763753617146
1513 -0.02938613045468442
1514 -0.02937230504719999
1515 -0.02938046313398386
1516 -0.02936765533653604
1517 -0.02937491625701933
1518 -0.02936119261590618
1519 -0.02936994675135438
1520 -0.02935721717788883
1521 -0.02936555753608201
1522 -0.02935246649232401
1523 -0.02936159885918663
1524 -0.02934992526887818
1525 -0.02935996651019369
1526 -0.02934736722103051
1527 -0.02935828639636525
1528 -0.02934650976579479
1529 -0.02935816184644533
1530 -0.02934652160471097
1531 -0.02935967632758612
1532 -0.02934908932945139
1533 -0.0293617892317932
1534 -0.02935115744440475
1535 -0.02936495184977492
1536 -0.02935472895498232
1537 -0.02936942643333912
1538 -0.02935777730129091
1539 -0.02937309660906186
1540 -0.02936271410924393
1541 -0.0293776340317959
1542 -0.02936557424162163
1543 -0.02938053979356856
1544 -0.02936999264079513
1545 -0.02938288460935294
1546 -0.0293710488642878
1547 -0.02938298727414792
1548 -0.02937266366596304
1549 -0.02938407746414809
1550 -0.02937224463780342
1551 -0.02938309689968332
1552 -0.02937227781516293
1553 -0.02938148140304965
1554 -0.02936933315350126
1555 -0.02938037635683276
1556 -0.0293698353995098
1557 -0.02937928828852273
1558 -0.02936691810825169
1559 -0.02937676125575425
1560 -0.02936638268350158
1561 -0.02937659513853184
1562 -0.02936465960641578
1563 -0.02937489119074974
1564 -0.02936429326714461
1565 -0.02937385147578342
1566 -0.02936161673896244
1567 -0.02937315976949709
1568 -0.0293624905143821
1569 -0.02937373034258456
1570 -0.02936182611209606
1571 -0.02937315143928375
1572 -0.02936237405734235
1573 -0.02937390906085108
1574 -0.02936139481633742
1575 -0.0293732804549087
1576 -0.02936162484173641
1577 -0.02937257942050942
1578 -0.02935934729278635
1579 -0.02937151441747438
1580 -0.02935952399606654
1581 -0.02937079832492571
1582 -0.02935862659225406
1583 -0.02937055800394586
1584 -0.02936013411548092
1585 -0.02937161737696013
1586 -0.02936010992255028
1587 -0.02937174545728339
1588 -0.02936194369570334
1589 -0.02937234899620094
1590 -0.02936203046781038
1591 -0.02937380299608668
1592 -0.02936353092704558
1593 -0.02937428775118718
1594 -0.02936263635089293
1595 -0.02937379409067103
1596 -0.02936299381378886
1597 -0.02937409432315142
1598 -0.02936211670015384
1599 -0.0293735101520534
1600 -0.02936205323171461
1601 -0.02937323383036917
1602 -0.02936172743309631
1603 -0.02937295537254252
1604 -0.02936266123439472
1605 -0.02937222870778626
1606 -0.02936109726812543
1607 -0.02937127749486801
1608 -0.02936154990443549
1609 -0.02937130671741177
1610 -0.02936081407738763
1611 -0.02937118558251866
1612 -0.02936197876627502
1613 -0.02937187703351157
1614 -0.02936167930896144
1615 -0.02937323512011063
1616 -0.02936475223160519
1617 -0.02937598837370375
1618 -0.02936656306152128
1619 -0.02937746535841129
1620 -0.02936889163296482
1621 -0.02938123576570815
1622 -0.0293711053393003
1623 -0.02938380828408392
1624 -0.02937348630473218
1625 -0.02938536303664728
1626 -0.02937360492204739
1627 -0.02938556061442231
1628 -0.02937450554439266
1629 -0.02938533672866257
1630 -0.02937223912905556
1631 -0.02938348008041753
1632 -0.02937177117670369
1633 -0.02938176198211563
1634 -0.02936809021552769
1635 -0.02937843659791109
1636 -0.02936554434615427
1637 -0.02937469886943745
1638 -0.02936070802785948
1639 -0.02936948283807395
1640 -0.02935643284052586
1641 -0.02936518544654789
1642 -0.02935144934922318
1643 -0.02936059250450195
1644 -0.02935014122177343
1645 -0.02935916179627904
1646 -0.02934757541936209
1647 -0.02935794068503445
1648 -0.02934867465252003
1649 -0.02935811035801885
1650 -0.02934929144169245
1651 -0.02936024018240888
1652 -0.0293520415888945
1653 -0.02936383302905046
1654 -0.02935494072151938
1655 -0.02936702977715137
1656 -0.02935988638112845
1657 -0.02937236424248133
1658 -0.02936414056220713
1659 -0.02937690997263968
1660 -0.02937001422791512
1661 -0.02938196667250127
1662 -0.02937334443969518
1663 -0.02938704323995754
1664 -0.02937831143419244
1665 -0.0293914647144001
1666 -0.02938067871081627
1667 -0.02939483337563328
1668 -0.02938380876657105
1669 -0.02939666972535725
1670 -0.02938306469302312
1671 -0.02939479162435623
1672 -0.02938174613837899
1673 -0.02939287977826332
1674 -0.02937748549835155
1675 -0.02938873424243084
1676 -0.02937367686792039
1677 -0.02938367532150289
1678 -0.02936774224304474
1679 -0.02937871084785011
1680 -0.02936400278329807
1681 -0.02937327239768687
1682 -0.0293577273948429
1683 -0.02936749681846235
1684 -0.02935455596018063
1685 -0.02936442749413142
1686 -0.02935076938415847
1687 -0.02936078975986023
1688 -0.0293494162760806
1689 -0.0293586873607013
1690 -0.02934678652931329
1691 -0.02935797946554523
1692 -0.02934771189704942
1693 -0.02935834171138182
1694 -0.02934793758501018
1695 -0.02935868707953243
1696 -0.02935018731791135
1697 -0.02936158857003483
1698 -0.02935187630867729
1699 -0.02936438012830431
1700 -0.02935669541061865
1701 -0.02936757890092149
1702 -0.02935873073987316
1703 -0.02937063508940611
1704 -0.02936245026398333
1705 -0.02937423992200784
1706 -0.02936514468143855
1707 -0.02937758470511176
1708 -0.02936941797657556
1709 -0.02938270699975633
1710 -0.0293727608667797
1711 -0.02938656223566963
1712 -0.02937777644679097
1713 -0.02939122280194071
1714 -0.02938127000372038
1715 -0.02939405755017783
1716 -0.02938400163433779
1717 -0.02939537115120808
1718 -0.02938333819527512
1719 -0.02939473185693355
1720 -0.02938331247406216
1721 -0.02939236300294627
1722 -0.02937873672124564
1723 -0.02938887083693217
1724 -0.02937652745714144
1725 -0.02938512711547582
1726 -0.02937105487804712
1727 -0.02937924372524596
1728 -0.02936567289493014
1729 -0.02937425815069539
1730 -0.02935949111764872
1731 -0.02936729662044643
1732 -0.02935430379801343
1733 -0.02936311745477094
1734 -0.02934833439637771
1735 -0.02935855213506133
1736 -0.02934519087577886
1737 -0.02935545905793959
1738 -0.02934206305640443
1739 -0.02935414651405177
1740 -0.02934236271240202
1741 -0.02935503062217791
1742 -0.02934330353465119
1743 -0.02935648488200625
1744 -0.02934712929347434
1745 -0.02936106695114399
1746 -0.02935117308138519
1747 -0.02936540007814804
1748 -0.02935723892322173
1749 -0.02936946554438841
1750 -0.02936078560568092
1751 -0.02937409933672395
1752 -0.02936631380085259
1753 -0.02937932427246447
1754 -0.02937079751304792
1755 -0.0293830059101323
1756 -0.0293759174073669
1757 -0.02938692415891736
1758 -0.02937784866550844
1759 -0.02938970097473127
1760 -0.02938131795626635
1761 -0.02939079966494588
1762 -0.02938045134397407
1763 -0.02939107899194359
1764 -0.02937982092378724
1765 -0.02938977195183816
1766 -0.02937647985327182
1767 -0.02938678023194791
1768 -0.02937396145006079
1769 -0.02938459845253635
1770 -0.02937031183991994
1771 -0.0293815040655052
1772 -0.02936844246994901
1773 -0.02937887892481764
1774 -0.02936510885936889
1775 -0.02937669677064871
1776 -0.02936380056257739
1777 -0.02937417923556514
1778 -0.02936055716338514
1779 -0.02937071626566254
1780 -0.0293591187515797
1781 -0.0293683404375156
1782 -0.02935622890650069
1783 -0.02936561891549458
1784 -0.02935489877880122
1785 -0.02936408852107425
1786 -0.02935376749732459
1787 -0.02936484979400433
1788 -0.0293562190722242
1789 -0.02936679388531332
1790 -0.0293573231863991
1791 -0.02936801738035491
1792 -0.02935990581884768
1793 -0.02937096178899354
1794 -0.02936162841130148
1795 -0.02937217719038336
1796 -0.02936344357110125
1797 -0.02937356915491014
1798 -0.02936320793725349
1799 -0.02937479531479543
1800 -0.02936601383451126
1801 -0.02937630044909807
1802 -0.02936575405958795
1803 -0.02937688162442983
1804 -0.02936731285192866
1805 -0.02937858411660741
1806 -0.02936754414413707
1807 -0.02937914157515841
1808 -0.02936836906067593
1809 -0.02937931700722493
1810 -0.02936746497805275
1811 -0.02937959615033382
1812 -0.0293683173738732
1813 -0.02937942886878049
1814 -0.02936744641717303
1815 -0.02937924305208149
1816 -0.02936825237651731
1817 -0.02937957858013298
1818 -0.02936760640907784
1819 -0.02937959391792746
1820 -0.02936818487376022
1821 -0.02938056048942016
1822 -0.02936821493925366
1823 -0.02938022290595931
1824 -0.0293693840609215
1825 -0.02937963781058942
1826 -0.02936761516980485
1827 -0.02937887802478997
1828 -0.02936749755982713
1829 -0.02937752687799247
1830 -0.02936430417766455
1831 -0.02937446169392948
1832 -0.0293624313770122
1833 -0.02937238510504515
1834 -0.02935977126956755
1835 -0.02937037325554339
1836 -0.02935993982050021
1837 -0.02937012847783102
1838 -0.02935897225298854
1839 -0.02937025148422548
1840 -0.02936067010861745
1841 -0.02937031385456615
1842 -0.02935989951804231
1843 -0.02937088622305161
1844 -0.02936111101793945
1845 -0.02937149027525469
1846 -0.02936017018578344
1847 -0.02937112923272275
1848 -0.02936139109592958
1849 -0.02937274842867019
1850 -0.02936105677419445
1851 -0.02937293473576892
1852 -0.02936291957144894
1853 -0.02937386764235408
1854 -0.02936196436386638
1855 -0.02937390136516794
1856 -0.02936314454205715
1857 -0.0293738968560396
1858 -0.02936276105187713
1859 -0.02937350229863248
1860 -0.02936315690013765
1861 -0.02937382130229033
1862 -0.02936264977162055
1863 -0.02937384215516542
1864 -0.02936396138735428
1865 -0.02937497860279807
1866 -0.02936437061793218
1867 -0.02937643106599329
1868 -0.02936659875189475
1869 -0.02937837367678678
1870 -0.02936832079049811
1871 -0.02938044560480652
1872 -0.02937107645817787
1873 -0.02938298951866931
1874 -0.02937189249356815
1875 -0.02938436489962183
1876 -0.02937426569999899
1877 -0.02938578632317814
1878 -0.02937461276150658
1879 -0.02938702788429387
1880 -0.0293757956024855
1881 -0.02938743763371751
1882 -0.02937484641135087
1883 -0.02938625287388314
1884 -0.02937427980662398
1885 -0.0293844129797975
1886 -0.02937118916490496
1887 -0.02938037370116974
1888 -0.02936775354198558
1889 -0.02937670540861593
1890 -0.02936301235661071
1891 -0.02937201655337862
1892 -0.02935897761597504
1893 -0.02936764349701359
1894 -0.02935362925701899
1895 -0.02936365286483259
1896 -0.0293513544216458
1897 -0.02936063143943607
1898 -0.02934858881337977
1899 -0.02935911530437459
1900 -0.02934904225099703
1901 -0.02935982790668739
1902 -0.02934840437314645
1903 -0.02936035286859483
1904 -0.0293510554099837
1905 -0.02936328112294976
1906 -0.02935305709482723
1907 -0.0293661200175076
1908 -0.02935712882156374
1909 -0.02936977881831597
1910 -0.02936017946684356
1911 -0.02937375224203863
1912 -0.02936510848085045
1913 -0.02937888714325495
1914 -0.02936923971951024
1915 -0.02938274359356725
1916 -0.02937398085356925
1917 -0.02938662265546213
1918 -0.02937646812660484
1919 -0.0293886304360965
1920 -0.02937898809545247
1921 -0.0293902745162374
1922 -0.02937893492814114
1923 -0.02939059759389451
1924 -0.02937998993031939
1925 -0.02939028594933541
1926 -0.02937770396727634
1927 -0.02938829734775288
1928 -0.029377582876825
1929 -0.02938697779333372
1930 -0.02937404999050502
1931 -0.0293834126499644
1932 -0.02937177955099774
1933 -0.02938061318822212
1934 -0.02936709608015362
1935 -0.02937560294226926
1936 -0.02936289037915529
1937 -0.02937088541534064
1938 -0.02935774513127342
1939 -0.02936687243189191
1940 -0.02935562579895755
1941 -0.02936370800234424
1942 -0.02935149310570648
1943 -0.02936142902373106
1944 -0.02935138574986969
1945 -0.02936273357335024
1946 -0.02935045219286094
1947 -0.02936246072052504
1948 -0.02935187173547201
1949 -0.02936412599584531
1950 -0.02935260410093826
1951 -0.0293649621081567
1952 -0.02935425786999996
1953 -0.02936599305466648
1954 -0.02935480268175755
1955 -0.02936764059219879
1956 -0.02935779536907321
1957 -0.02936982375643084
1958 -0.02935901629493686
1959 -0.02937180275902016
1960 -0.02936276441334924
1961 -0.02937529774394675
1962 -0.02936644128968431
1963 -0.02937951260261062
1964 -0.02937089019176494
1965 -0.02938374848167386
1966 -0.02937453924933988
1967 -0.02938733806734834
1968 -0.02937850185039151
1969 -0.02939091566632889
1970 -0.02938061115908032
1971 -0.02939258955285988
1972 -0.02938238809473768
1973 -0.02939363056060333
1974 -0.02938141792837528
1975 -0.02939329284808838
1976 -0.02938141051220108
1977 -0.02939081532623153
1978 -0.02937700007921574
1979 -0.02938812674027183
1980 -0.02937447924711544
1981 -0.02938469184713603
1982 -0.02936894494799774
1983 -0.02937805699033594
1984 -0.02936358350594218
1985 -0.02937223768450792
1986 -0.02935731529980173
1987 -0.0293657744452124
1988 -0.02935219458535338
1989 -0.02936081151373884
1990 -0.02934770471685119
1991 -0.02935769926344595
1992 -0.02934676341537948
1993 -0.02935695324536059
1994 -0.02934616447888061
1995 -0.02935750629553835
1996 -0.02934929128510518
1997 -0.02936040214337698
1998 -0.02935164776331451
1999 -0.02936241676469764
2000 -0.02935515460624598
2001 -0.02936635993449612
2002 -0.02935821850839219
2003 -0.02936986002191708
2004 -0.02936352223654228
2005 -0.02937520221051789
2006 -0.02936680665227338
2007 -0.02937877723005029
2008 -0.02937148626282537
2009 -0.02938208404778372
2010 -0.02937317598275596
2011 -0.02938523246312568
2012 -0.0293753019698514
2013 -0.0293864912860932
2014 -0.0293757694594385
2015 -0.02938774720901526
2016 -0.02937671806102445
2017 -0.02938789538988
2018 -0.02937510694393418
2019 -0.02938525968632251
2020 -0.0293736633266309
2021 -0.02938416128994505
2022 -0.02937100300678671
2023 -0.02938159213970724
2024 -0.02937013183575484
2025 -0.02938057659165882
2026 -0.02936793465945511
2027 -0.02937910867681714
2028 -0.029367407023023
2029 -0.02937726442726026
2030 -0.02936473835428347
2031 -0.02937553960636893
2032 -0.02936423667015093
2033 -0.02937420770079216
2034 -0.02936173213531735
2035 -0.02937228612439114
2036 -0.02936137493866159
2037 -0.02937119087273583
2038 -0.02935902111867967
2039 -0.02936924973924456
2040 -0.02935822533601423
2041 -0.02936968235960649
2042 -0.02935706757968182
2043 -0.02936964979036579
2044 -0.02935873163556054
2045 -0.02936970228620763
2046 -0.02935762208408513
2047 -0.02937010136738995
2048 -0.02935815336106609
2049 -0.02937055290470646
2050 -0.02935782202243456
2051 -0.02937074936879911
2052 -0.02935859220892726
2053 -0.02937127766808953
2054 -0.02935878576467925
2055 -0.02937118604683727
2056 -0.02936052733743277
2057 -0.02937146149263547
2058 -0.02936106383678887
2059 -0.02937209640728677
2060 -0.0293622443995554
2061 -0.02937266934823738
2062 -0.02936240312521887
2063 -0.02937213557934728
2064 -0.02936338899645417
2065 -0.02937314353738386
2066 -0.0293642526672168
2067 -0.02937513152191993
2068 -0.02936709723370351
2069 -0.02937652621321938
2070 -0.02936775931618175
2071 -0.02937843021573396
2072 -0.02937057013126872
2073 -0.02938068578971683
2074 -0.02937048415899769
2075 -0.02938136959741628
2076 -0.02937265064601059
2077 -0.02938384058450523
2078 -0.02937330050507834
2079 -0.02938354420501975
2080 -0.02937315463049855
2081 -0.02938382634296527
2082 -0.02937184345467786
2083 -0.02938311696135179
2084 -0.02937163221517891
2085 -0.02938205586339532
2086 -0.02936953144065968
2087 -0.02938110301030547
2088 -0.02936874864715226
2089 -0.02938023599283842
2090 -0.02936603168841283
2091 -0.02937791633170661
2092 -0.02936535200900078
2093 -0.02937670159221214
2094 -0.0293625802283748
2095 -0.02937397634253385
2096 -0.02936233629605442
2097 -0.02937243037372734
2098 -0.02936005675060363
2099 -0.02937141127294384
2100 -0.02936064070637233
2101 -0.02937098653645373
2102 -0.02935894340985301
2103 -0.02936998299762996
2104 -0.02935859890853567
2105 -0.02937027857389511
2106 -0.02935768875315886
2107 -0.02936878252346897
2108 -0.02935730550172046
2109 -0.02936799790882541
2110 -0.02935607102488578
2111 -0.02936763622853878
2112 -0.02935673513158098
2113 -0.02936787552328638
2114 -0.02935659347132605
2115 -0.02936805394148348
2116 -0.02935836120241327
2117 -0.02937015886701529
2118 -0.02935972830795014
2119 -0.02937277117728521
2120 -0.02936361591506826
2121 -0.02937639325289719
2122 -0.02936565909017948
2123 -0.02938017339677466
2124 -0.02937074092569142
2125 -0.02938497233764393
2126 -0.02937337445878373
2127 -0.02938712734982406
2128 -0.02937702202339029
2129 -0.02939041772812956
2130 -0.02937875455456539
2131 -0.02939230391146486
2132 -0.02938086873251472
2133 -0.02939372856167591
2134 -0.02938133801589939
2135 -0.02939350108454857
2136 -0.0293819581627665
2137 -0.02939191644607923
2138 -0.02937797524731509
2139 -0.02938664857213977
2140 -0.02937402739553796
2141 -0.02938103081201562
2142 -0.0293668169464967
2143 -0.02937454907372682
2144 -0.02936097814304404
2145 -0.02936773133288147
2146 -0.02935403961663578
2147 -0.02936224109076909
2148 -0.02935072589205587
2149 -0.02935887927894175
2150 -0.02934648419242169
2151 -0.02935578043175829
2152 -0.02934491999559168
2153 -0.02935567171679618
2154 -0.02934493786812683
2155 -0.02935644238038549
2156 -0.02934668361244317
2157 -0.02935829987123647
2158 -0.02934843945836434
2159 -0.02936115935618705
2160 -0.02935303915573707
2161 -0.02936519989447357
2162 -0.02935625261832714
2163 -0.02936963739915954
2164 -0.0293621970525112
2165 -0.0293751763195106
2166 -0.02936668561977864
2167 -0.02938024768561347
2168 -0.02937305742253783
2169 -0.02938578241776153
2170 -0.0293767594270359
2171 -0.0293895816976974
2172 -0.02938080748926051
2173 -0.02939258219777922
2174 -0.029382366932906
2175 -0.0293939945827991
2176 -0.02938357071767258
2177 -0.02939406879963002
2178 -0.02938234409862609
2179 -0.02939251313809184
2180 -0.02938114556698001
2181 -0.02939102469780483
2182 -0.0293785252750788
2183 -0.02938858247267087
2184 -0.02937630997263204
2185 -0.02938587472404018
2186 -0.02937134749966394
2187 -0.02938127932705203
2188 -0.02936746576705865
2189 -0.02937692909590284
2190 -0.02936043150914763
2191 -0.02936974157577988
2192 -0.02935573898446284
2193 -0.02936519830607463
2194 -0.02935119821469346
2195 -0.02936121632497727
2196 -0.02934950560430728
2197 -0.02935840699574927
2198 -0.02934660643135044
2199 -0.02935739514984698
2200 -0.02934776848547118
2201 -0.02935768743529873
2202 -0.02934778498606077
2203 -0.02935814775129234
2204 -0.02935013295144163
2205 -0.02936074445561883
2206 -0.02935179472867309
2207 -0.02936294644299416
2208 -0.02935499934850569
2209 -0.02936570381870827
2210 -0.02935730068468553
2211 -0.02936900218557763
2212 -0.02936187014846435
2213 -0.0293731039618467
2214 -0.02936508815820633
2215 -0.02937744332300559
2216 -0.02937054580424013
2217 -0.0293826873915673
2218 -0.02937368643242783
2219 -0.02938733197412465
2220 -0.02937910884805257
2221 -0.02939197589219958
2222 -0.02938194775854524
2223 -0.02939471899143588
2224 -0.02938448818521714
2225 -0.02939727089211606
2226 -0.02938448958490734
2227 -0.02939611153657806
2228 -0.02938383379944335
2229 -0.02939497631867504
2230 -0.02938070467249217
2231 -0.02939105644817428
2232 -0.02937739050102188
2233 -0.02938562346607937
2234 -0.02937149320139787
2235 -0.02938033002038937
2236 -0.02936683949150345
2237 -0.02937452848462564
2238 -0.02935996618201647
2239 -0.02936853718492169
2240 -0.02935527143223994
2241 -0.02936372360441838
2242 -0.02934979058951307
2243 -0.02935945964752351
2244 -0.02934739757359647
2245 -0.02935853944800305
2246 -0.02934665383827551
2247 -0.02935858914057351
2248 -0.02934849954852446
2249 -0.02935992960211297
2250 -0.0293499303392147
2251 -0.02936352413252324
2252 -0.02935389966009146
2253 -0.02936688805172305
2254 -0.0293574038142133
2255 -0.02937050835549104
2256 -0.02936181297299264
2257 -0.02937538694430412
2258 -0.02936518079108233
2259 -0.0293796419588246
2260 -0.0293698462986991
2261 -0.02938347890942899
2262 -0.0293723029074711
2263 -0.02938577255726186
2264 -0.02937458169436611
2265 -0.02938656568587593
2266 -0.02937437023261519
2267 -0.02938537388812892
2268 -0.02937359056257723
2269 -0.02938484627088541
2270 -0.02937168326346381
2271 -0.02938227217064014
2272 -0.02936979627401739
2273 -0.02938005243981305
2274 -0.02936815554372799
2275 -0.02937787116388677
2276 -0.02936806562726285
2277 -0.02937655490880677
2278 -0.02936544521994685
2279 -0.02937439506760122
2280 -0.02936527131296134
2281 -0.02937496000061477
2282 -0.02936396862253908
2283 -0.02937421410491477
2284 -0.02936430351454219
2285 -0.02937333112762746
2286 -0.02936243278750357
2287 -0.02937341095209547
2288 -0.02936372447818585
2289 -0.02937418177206877
2290 -0.02936265606103841
2291 -0.02937378063412591
2292 -0.02936337742908107
2293 -0.02937434849100156
2294 -0.02936254020768442
2295 -0.02937425721462802
2296 -0.02936372521027751
2297 -0.02937433301667869
2298 -0.02936262656301348
2299 -0.02937381032936266
2300 -0.02936318239770027
2301 -0.02937428134526692
2302 -0.02936226508556149
2303 -0.02937370918336706
2304 -0.02936366080778184
2305 -0.02937522567529488
2306 -0.02936397870773919
2307 -0.02937608225423661
2308 -0.02936668017653439
2309 -0.0293771652112442
2310 -0.02936648472264149
2311 -0.0293780304621612
2312 -0.02936791654962282
2313 -0.02937829962111702
2314 -0.02936608016021472
2315 -0.02937657837459278
2316 -0.02936554312520346
2317 -0.02937571824403784
2318 -0.02936325382932673
2319 -0.02937379630015875
2320 -0.02936269895114097
2321 -0.02937294939866308
2322 -0.02936156076668778
2323 -0.02937292151731452
2324 -0.02936207057351482
2325 -0.02937378207637595
2326 -0.02936184855169779
2327 -0.02937457899682383
2328 -0.02936331889906886
2329 -0.02937624098427681
2330 -0.02936313765209209
2331 -0.02937604725141882
2332 -0.02936468991656548
2333 -0.02937697002572036
2334 -0.02936448153082495
2335 -0.02937762604140646
2336 -0.02936654738361644
2337 -0.02937898653782036
2338 -0.02936866539554666
2339 -0.02937990919776772
2340 -0.02937093139726856
2341 -0.02938194491112557
2342 -0.02937179151517633
2343 -0.02938243237643783
2344 -0.02937286952722279
2345 -0.02938239088384502
2346 -0.02937134188692248
2347 -0.02938143041862392
2348 -0.02937127086687162
2349 -0.0293807999637522
2350 -0.02936911860017767
2351 -0.02937884016373701
2352 -0.02936794335593515
2353 -0.02937832239475053
2354 -0.02936516987195619
2355 -0.02937593268995193
2356 -0.02936368890079218
2357 -0.02937299820119136
2358 -0.02935983941392596
2359 -0.02936949516423491
2360 -0.0293569038915483
2361 -0.02936602066061774
2362 -0.02935310257859828
2363 -0.02936266331369202
2364 -0.02935098921060909
2365 -0.02936051775781499
2366 -0.02934826887664784
2367 -0.02935888914105341
2368 -0.02934838573740936
2369 -0.02935955161397154
2370 -0.02934907919115762
2371 -0.02936128423040361
2372 -0.02935290908298977
2373 -0.02936493577395793
2374 -0.02935647705034248
2375 -0.02936885666687126
2376 -0.02936233831151686
2377 -0.02937528090556353
2378 -0.02936763222188409
2379 -0.02938057105477972
2380 -0.02937399928359016
2381 -0.02938614455483073
2382 -0.0293775244527851
2383 -0.0293908394238749
2384 -0.02938307215552871
2385 -0.02939518608319206
2386 -0.02938554875787183
2387 -0.02939771240828249
2388 -0.02938801726698746
2389 -0.02939988276876864
2390 -0.02938756802507824
2391 -0.02939737483425186
2392 -0.02938480399454783
2393 -0.02939307670818296
2394 -0.02937805500997922
2395 -0.02938757514149929
2396 -0.02937309162332376
2397 -0.02938153397913269
2398 -0.02936535429505431
2399 -0.02937448414681176
2400 -0.02935917725833501
2401 -0.02936901570038297
2402 -0.02935368219496581
2403 -0.02936283872162684
2404 -0.02934998290376225
2405 -0.02935885059809784
2406 -0.0293454626212268
2407 -0.02935615119822918
2408 -0.02934423788160365
2409 -0.02935506503886007
2410 -0.02934257426939816
2411 -0.02935495473836309
2412 -0.02934468850647368
2413 -0.02935758835336574
2414 -0.02934724223249094
2415 -0.02936002357094354
2416 -0.0293516214689688
2417 -0.02936376469743845
2418 -0.02935475683133058
2419 -0.02936858525286514
2420 -0.02936200782217493
2421 -0.02937415174479897
2422 -0.02936612524883562
2423 -0.02937890670752999
2424 -0.02937159214207211
2425 -0.02938448436458486
2426 -0.02937506156795797
2427 -0.02938795830834698
2428 -0.02937899694232991
2429 -0.0293918861267087
2430 -0.02938112796030012
2431 -0.02939495127716757
2432 -0.02938491716009831
2433 -0.02939677315526928
2434 -0.02938579294895564
2435 -0.02939704167490931
2436 -0.02938629034291484
2437 -0.02939720774430748
2438 -0.02938429738680451
2439 -0.02939367259662336
2440 -0.02938159572280392
2441 -0.0293905179688752
2442 -0.02937585467476485
2443 -0.02938551310029302
2444 -0.02937211828928761
2445 -0.02938021767946701
2446 -0.02936521047697492
2447 -0.0293739883140809
2448 -0.02935967288004713
2449 -0.02936790140011265
2450 -0.02935380928733304
2451 -0.02936310144616601
2452 -0.02934995374454853
2453 -0.02935980421859576
2454 -0.02934527592162504
2455 -0.02935581174955521
2456 -0.02934338733586773
2457 -0.02935423106049708
2458 -0.02934170027009126
2459 -0.02935304565665722
2460 -0.02934289524820627
2461 -0.02935566462085263
2462 -0.02934484224574611
2463 -0.02935880844810096
2464 -0.02934996778142345
2465 -0.02936400861447501
2466 -0.02935468936355701
2467 -0.02937044819535218
2468 -0.02936256671793773
2469 -0.0293763550979028
2470 -0.02936732108686217
2471 -0.02938172526113848
2472 -0.02937298358616649
2473 -0.02938732331159154
2474 -0.02937751319412644
2475 -0.02939068799177335
2476 -0.02938257759358485
2477 -0.02939444728212346
2478 -0.029384367924233
2479 -0.02939625951285027
2480 -0.02938762941841274
2481 -0.02939729044719439
2482 -0.02938680586036371
2483 -0.02939636118830694
2484 -0.02938501276243269
2485 -0.02939377048759348
2486 -0.0293804677385822
2487 -0.0293878717340205
2488 -0.02937478823134575
2489 -0.02938221694915704
2490 -0.0293676923892874
2491 -0.02937592226106004
2492 -0.02936231466012743
2493 -0.02937012908798678
2494 -0.02935576462792417
2495 -0.02936558327264319
2496 -0.02935261413207116
2497 -0.02936276697483413
2498 -0.02934813456145183
2499 -0.02935900185136972
2500 -0.0293472649987392
2501 -0.02935821229510929
2502 -0.02934601045782519
2503 -0.02935871834004615
2504 -0.02934804679308873
2505 -0.02935967557243006
2506 -0.0293494863780555
2507 -0.02936237475536408
2508 -0.02935402750155406
2509 -0.02936683993594632
2510 -0.02935744851783657
2511 -0.02937023413530454
2512 -0.02936269534759225
2513 -0.02937513457802924
2514 -0.02936620012169142
2515 -0.02937884615895414
2516 -0.02937064338021311
2517 -0.02938081515478215
2518 -0.02937223203543232
2519 -0.0293820763648851
2520 -0.0293729070692987
2521 -0.02938182042842286
2522 -0.02937193412049109
2523 -0.02938194910745822
2524 -0.02937247050425706
2525 -0.02938262980325099
2526 -0.02937178357506577
2527 -0.02938267578884312
2528 -0.02937230141011755
2529 -0.02938313749545163
2530 -0.02937155597945865
2531 -0.02938243099546223
2532 -0.02937095926873318
2533 -0.02938214149927184
2534 -0.029368951670394
2535 -0.02938124041158338
2536 -0.02936845617544339
2537 -0.02938058943563728
2538 -0.02936586581961727
2539 -0.02937866391119777
2540 -0.02936529656040082
2541 -0.02937765927092155
2542 -0.02936374441394718
2543 -0.02937635574349136
2544 -0.02936343707497911
2545 -0.02937525690158573
2546 -0.02936182897159163
2547 -0.02937306844409773
2548 -0.0293613162650928
2549 -0.02937211885199867
2550 -0.0293592466189307
2551 -0.02936991430926999
2552 -0.02935885764408067
2553 -0.02936942117498399
2554 -0.0293576804098768
2555 -0.02936892478428595
2556 -0.02935916205461117
2557 -0.02937058955097202
2558 -0.02936084065735194
2559 -0.02937229757373677
2560 -0.02936479045475395
2561 -0.02937464884137066
2562 -0.02936582991562053
2563 -0.02937627626232545
2564 -0.02936860194954654
2565 -0.02937745795635877
2566 -0.0293675936363149
2567 -0.02937778690511343
2568 -0.02936874680250788
2569 -0.02937863012019013
2570 -0.02936785065839751
2571 -0.02937727497972893
2572 -0.02936754612278963
2573 -0.02937700091047242
2574 -0.02936492372443724
2575 -0.02937521595147619
2576 -0.02936455757059448
2577 -0.02937458209182776
2578 -0.02936297486549399
2579 -0.02937395400122279
2580 -0.02936309898970263
2581 -0.02937336635187185
2582 -0.02936193417278478
2583 -0.02937298464167254
2584 -0.02936226857092578
2585 -0.0293733347997297
2586 -0.02936121969269142
2587 -0.02937319872273438
2588 -0.02936382273933451
2589 -0.02937533649318418
2590 -0.0293647043457004
2591 -0.02937767945889867
2592 -0.02936824804153952
2593 -0.02937991376933835
2594 -0.029369286187126
2595 -0.0293814058047895
2596 -0.02937148116780815
2597 -0.02938342359970122
2598 -0.02937161134404708
2599 -0.02938338070397594
2600 -0.02937202925327718
2601 -0.0293829749555098
2602 -0.02937068702295461
2603 -0.02938217871789449
2604 -0.02937070635543086
2605 -0.02938148113075099
2606 -0.02936927505362353
2607 -0.02938034706322258
2608 -0.02936842174688343
2609 -0.02937897054942058
2610 -0.0293650967640809
2611 -0.02937622821261853
2612 -0.02936287916053712
2613 -0.02937300375257234
2614 -0.0293581528749699
2615 -0.02936876320865923
2616 -0.02935551149377526
2617 -0.02936589193645745
2618 -0.0293536419529054
2619 -0.02936414911152475
2620 -0.02935309980257567
2621 -0.02936430251802493
2622 -0.02935244899115291
2623 -0.02936433485349541
2624 -0.02935475825257233
2625 -0.0293649973474765
2626 -0.02935527204160561
2627 -0.02936714117828479
2628 -0.02935822809976716
2629 -0.02937080041805572
2630 -0.02936062713493562
2631 -0.02937288970651281
2632 -0.02936395550755175
2633 -0.02937781701733189
2634 -0.02936814897634897
2635 -0.02938244326441359
2636 -0.0293735368517613
2637 -0.02938625661097826
2638 -0.02937577457936443
2639 -0.02938957545308352
2640 -0.02937940770026674
2641 -0.02939277339702628
2642 -0.02938086783533567
2643 -0.02939301407945408
2644 -0.02938157312987593
2645 -0.02939249153714393
2646 -0.02937949686404617
2647 -0.0293898133375386
2648 -0.02937738808373682
2649 -0.02938611840463027
2650 -0.02937261124507282
2651 -0.02938206999221173
2652 -0.02936935101071526
2653 -0.02937806624888464
2654 -0.02936422029058741
2655 -0.02937287642827029
2656 -0.02936039843080368
2657 -0.02936909229087939
2658 -0.02935602709326968
2659 -0.0293650599652902
2660 -0.02935388070561513
2661 -0.02936211365283583
2662 -0.02934988712476688
2663 -0.02936007635117199
2664 -0.02934987302164632
2665 -0.02936054052505257
2666 -0.02934964449319799
2667 -0.02936003057785774
2668 -0.02935129732783121
2669 -0.02936192470303417
2670 -0.02935212635013929
2671 -0.02936383832516848
2672 -0.02935504839459973
2673 -0.02936609698800054
2674 -0.02935644472134553
2675 -0.02936859982881017
2676 -0.02935964073085329
2677 -0.02937209513185942
2678 -0.02936102015257937
2679 -0.02937355961978508
2680 -0.02936500895737617
2681 -0.02937837177623269
2682 -0.02936837486195574
2683 -0.02938238747728443
2684 -0.0293728913887433
2685 -0.02938599926158793
2686 -0.0293761639271719
2687 -0.02939004150207797
2688 -0.02938006662541251
2689 -0.02939349035837473
2690 -0.02938110824506945
2691 -0.02939450360037295
2692 -0.02938236439637526
2693 -0.02939454614596254
2694 -0.02938078563830358
2695 -0.02939273458943673
2696 -0.02937995908815245
2697 -0.02939081517124927
2698 -0.02937596571657063
2699 -0.02938659900579073
2700 -0.02937314745245141
2701 -0.02938226589738628
2702 -0.02936741137072611
2703 -0.02937637927425967
2704 -0.0293625324978084
2705 -0.02937099838995674
2706 -0.02935713798646912
2707 -0.02936535155369342
2708 -0.0293526319174139
2709 -0.02936145751887399
2710 -0.0293482244162541
2711 -0.02935854204237938
2712 -0.02934663997375737
2713 -0.02935684536785866
2714 -0.02934546422336888
2715 -0.02935614284603323
2716 -0.0293468797946329
2717 -0.02935825945173533
2718 -0.02934801221595807
2719 -0.0293601256277152
2720 -0.02935191279797333
2721 -0.02936458379281058
2722 -0.02935562503283512
2723 -0.02936886037175946
2724 -0.02936133536216065
2725 -0.02937409625886104
2726 -0.02936542287769496
2727 -0.02937889976967152
2728 -0.02937150591708974
2729 -0.02938442347887425
2730 -0.02937519183372789
2731 -0.02938791025422778
2732 -0.02937971024753138
2733 -0.02939231874209616
2734 -0.02938198303188133
2735 -0.02939402282177247
2736 -0.02938378539456513
2737 -0.02939375301957194
2738 -0.02938120564662258
2739 -0.02939089361050981
2740 -0.0293796295025081
2741 -0.02938845923479078
2742 -0.0293750967861025
2743 -0.02938389662497237
2744 -0.0293723331773569
2745 -0.02938049836173007
2746 -0.02936784280566098
2747 -0.02937753868596474
2748 -0.02936579026498561
2749 -0.02937492577761209
2750 -0.02936235619764969
2751 -0.0293718986714735
2752 -0.02936054778717458
2753 -0.02937026908966996
2754 -0.0293575595350219
2755 -0.02936753211392154
2756 -0.02935679866537973
2757 -0.02936713130882882
2758 -0.02935557221337292
2759 -0.02936662613581803
2760 -0.02935637923319947
2761 -0.02936709008393161
2762 -0.02935617006509825
2763 -0.02936781987093481
2764 -0.02935760818921542
2765 -0.02936956507647722
2766 -0.02935799828657691
2767 -0.02937076272997801
2768 -0.02936011028103806
2769 -0.02937210897911318
2770 -0.02936045282835729
2771 -0.02937375830683515
2772 -0.02936244563840302
2773 -0.02937452975604217
2774 -0.02936267454008801
2775 -0.02937513246007485
2776 -0.02936479161499301
2777 -0.02937732473458968
2778 -0.02936526966203033
2779 -0.02937806713350133
2780 -0.02936733562502047
2781 -0.02937979166558412
2782 -0.02936794292593858
2783 -0.02938098875128707
2784 -0.02936982658322802
2785 -0.02938159790079919
2786 -0.02937070916954248
2787 -0.02938162556999311
2788 -0.02937195911684954
2789 -0.02938250992950975
2790 -0.02937165907996634
2791 -0.02938190860005508
2792 -0.02937209521869185
2793 -0.02938257607007671
2794 -0.0293710817753267
2795 -0.02938179872902589
2796 -0.02937163803869865
2797 -0.02938107952884798
2798 -0.02937000343969946
2799 -0.02937938959584657
2800 -0.02936827570147724
2801 -0.02937698428384559
2802 -0.0293643541997212
2803 -0.02937444884574095
2804 -0.0293626292685891
2805 -0.0293718411853208
2806 -0.02935927554846855
2807 -0.02936979238873507
2808 -0.02935766501511028
2809 -0.02936827898565445
2810 -0.02935618909951023
2811 -0.02936865100831918
2812 -0.02935714253464769
2813 -0.02937044863812676
2814 -0.02935800408903515
2815 -0.02937030107620241
2816 -0.02935905968090995
2817 -0.02937144544240713
2818 -0.02935962041221549
2819 -0.02937225129868043
2820 -0.02936122281050544
2821 -0.02937289180161807
2822 -0.0293605359078099
2823 -0.02937280262194049
2824 -0.02936247636759332
2825 -0.0293736820558944
2826 -0.02936184264145754
2827 -0.02937311733088767
2828 -0.02936307118063883
2829 -0.02937413162999995
2830 -0.02936241227477433
2831 -0.02937303779155708
2832 -0.02936331158959304
2833 -0.02937390737289211
2834 -0.02936257839587573
2835 -0.02937401835680918
2836 -0.02936349870572865
2837 -0.02937493480571835
2838 -0.0293639037708378
2839 -0.02937687795871398
2840 -0.02936690418922472
2841 -0.0293789206314135
2842 -0.02936803727161947
2843 -0.02938098662712511
2844 -0.0293724409657627
2845 -0.02938429739841996
2846 -0.02937407521568031
2847 -0.02938560614021132
2848 -0.02937663187304699
2849 -0.02938703102192352
2850 -0.02937650558209481
2851 -0.02938719376653282
2852 -0.02937665508129783
2853 -0.02938687305508526
2854 -0.02937453656064866
2855 -0.02938503264395304
2856 -0.02937266213648841
2857 -0.02938303607632909
2858 -0.02936920331438578
2859 -0.02937967109336259
2860 -0.02936676430365514
2861 -0.02937635881644279
2862 -0.02936195612809747
2863 -0.02937310160893184
2864 -0.02935969518677205
2865 -0.02936936807804956
2866 -0.02935487457341848
2867 -0.02936525550909677
2868 -0.02935263442667973
2869 -0.02936329517700894
2870 -0.02935051761927443
2871 -0.02936157435937172
2872 -0.02935069694868893
2873 -0.02936216352038287
2874 -0.02935091659404105
2875 -0.02936342004856621
2876 -0.02935343612187501
2877 -0.02936540888929654
2878 -0.02935527265190909
2879 -0.02936857399111726
2880 -0.02935949577702713
2881 -0.02937208773272717
2882 -0.02936231363236807
2883 -0.02937548346145332
2884 -0.02936642921516318
2885 -0.02937985837411555
2886 -0.029370077109363
2887 -0.0293827647048951
2888 -0.02937427649305833
2889 -0.02938773150080914
2890 -0.02937761220104503
2891 -0.02939071675101452
2892 -0.02938112769244554
2893 -0.02939337263326222
2894 -0.02938191554008207
2895 -0.02939376315278496
2896 -0.02938239385012078
2897 -0.02939260881399822
2898 -0.02937906954918196
2899 -0.02938955368598424
2900 -0.02937725553582455
2901 -0.02938661874330185
2902 -0.02937328928322836
2903 -0.02938386362932046
2904 -0.0293704288256848
2905 -0.0293801744378418
2906 -0.02936601354429486
2907 -0.02937442868075736
2908 -0.02936137656436365
2909 -0.02937033377636344
2910 -0.02935581977906873
2911 -0.02936593305951425
2912 -0.02935284620653692
2913 -0.02936276369590516
2914 -0.02934942243601476
2915 -0.02936048461521545
2916 -0.02934915763603326
2917 -0.02935972660730095
2918 -0.02934761430479202
2919 -0.02935982900939072
2920 -0.02934985086318596
2921 -0.02936175688644571
2922 -0.02935068921830587
2923 -0.02936374035326397
2924 -0.0293552676298535
2925 -0.02936645689193557
2926 -0.02935702786394457
2927 -0.02936828174440043
2928 -0.02936077701820873
2929 -0.02937234343386711
2930 -0.02936418420558249
2931 -0.02937518201425996
2932 -0.02936767147428575
2933 -0.02937888020009483
2934 -0.02937010803390357
2935 -0.02938221214403807
2936 -0.02937463998293617
2937 -0.02938587557396881
2938 -0.02937675216728514
2939 -0.02938805885679588
2940 -0.02938005596083833
2941 -0.02939098540699589
2942 -0.02938104753019894
2943 -0.0293916101318156
2944 -0.02938218168132225
2945 -0.02939110222074073
2946 -0.02937947015085498
2947 -0.02938951702537881
2948 -0.02937882294045559
2949 -0.02938733810572082
2950 -0.02937491735271919
2951 -0.02938400461199999
2952 -0.02937139991658487
2953 -0.02938102006601043
2954 -0.02936731609405377
2955 -0.02937650755848788
2956 -0.02936343621082069
2957 -0.02937311531298551
2958 -0.02935823972761903
2959 -0.02936775927716219
2960 -0.02935345362642855
2961 -0.02936282267627825
2962 -0.02934857391572275
2963 -0.02936002090711727
2964 -0.02934800929858541
2965 -0.02935884401578132
2966 -0.02934680515319814
2967 -0.02935857795610597
2968 -0.02934832018202387
2969 -0.02936075923488149
2970 -0.0293504310024486
2971 -0.02936412914472048
2972 -0.02935476615869789
2973 -0.02936746737451824
2974 -0.02935726622765883
2975 -0.02937138752732333
2976 -0.02936283585007541
2977 -0.0293765757647219
2978 -0.02936703180427629
2979 -0.02937961706898127
2980 -0.02937103643941977
2981 -0.02938408272346241
2982 -0.02937357692506842
2983 -0.02938726536062865
2984 -0.02937712338541226
2985 -0.02938891156228726
2986 -0.02937752237925452
2987 -0.02938894594268395
2988 -0.02937819420745601
2989 -0.02938784535120704
2990 -0.02937507043514382
2991 -0.02938510192495928
2992 -0.02937250272365819
2993 -0.0293823895226346
2994 -0.02936822062204527
2995 -0.02937885934783387
2996 -0.0293660456460758
2997 -0.02937676895896468
2998 -0.02936354206864653
2999 -0.02937442575447494
3000 -0.02936249569873717
3001 -0.02937337084834767
3002 -0.02936123441732941
3003 -0.02937234672553028
3004 -0.02936115689140604
3005 -0.0293723904456648
3006 -0.02936106177277257
3007 -0.02937148004271215
3008 -0.02936131983095191
3009 -0.02937190993990763
3010 -0.02936071490177295
3011 -0.02937240073718288
3012 -0.02936263882829893
3013 -0.02937304223870516
3014 -0.02936238984426721
3015 -0.02937355878296731
3016 -0.02936473577448282
3017 -0.0293757708876604
3018 -0.02936502942389064
3019 -0.02937634874621104
3020 -0.02936628791518092
3021 -0.02937691851983191
3022 -0.02936519922101405
3023 -0.02937638067609706
3024 -0.02936541550686169
3025 -0.0293765495515769
3026 -0.02936470129945208
3027 -0.02937525811763828
3028 -0.02936495639643623
3029 -0.0293756581826807
3030 -0.02936366800833353
3031 -0.0293754116794255
3032 -0.02936427098638528
3033 -0.02937561129819062
3034 -0.02936343074577547
3035 -0.02937455981108495
3036 -0.02936293912948885
3037 -0.0293744428306645
3038 -0.02936196415133042
3039 -0.02937360236290221
3040 -0.02936287013789518
3041 -0.02937430676352703
3042 -0.02936238269519692
3043 -0.02937526065278543
3044 -0.02936539536554577
3045 -0.02937685349529115
3046 -0.02936606368447359
3047 -0.02937801015526176
3048 -0.02936796047876053
3049 -0.0293795324222254
3050 -0.02936787445623969
3051 -0.02937965812850564
3052 -0.0293689361109192
3053 -0.02938101882498979
3054 -0.02936835359458329
3055 -0.02938030101458543
3056 -0.029368645120599
3057 -0.02938006045530305
3058 -0.02936786117876074
3059 -0.02938058528248135
3060 -0.02936861804862886
3061 -0.02937990124678781
3062 -0.02936765652338845
3063 -0.02937923494165993
3064 -0.02936835948942857
3065 -0.0293790073206948
3066 -0.02936778973880141
3067 -0.02937889736474201
3068 -0.0293685813224969
3069 -0.02937829499900137
3070 -0.0293673056875077
3071 -0.02937628626077034
3072 -0.02936652694244255
3073 -0.02937587986497958
3074 -0.02936541569879655
3075 -0.02937282735916376
3076 -0.02936332463346394
3077 -0.02937186422605731
3078 -0.02936084259913119
3079 -0.02937021533764493
3080 -0.02935969939276364
3081 -0.02936791683219199
3082 -0.02935604190472449
3083 -0.0293662156309891
3084 -0.02935488831147292
3085 -0.02936543385526839
3086 -0.02935337412287481
3087 -0.02936434255679608
3088 -0.02935372857891332
3089 -0.02936558702435837
3090 -0.02935422250766565
3091 -0.02936767184787288
3092 -0.02935832956816085
3093 -0.02937239419574596
3094 -0.02936197182705205
3095 -0.02937676620072597
3096 -0.0293670391940112
3097 -0.02938177500594757
3098 -0.02937117406233828
3099 -0.02938496759067505
3100 -0.02937558919460841
3101 -0.02938928340818218
3102 -0.02937783732360354
3103 -0.02939164770749763
3104 -0.0293817451703675
3105 -0.02939380556294858
3106 -0.02938189141243926
3107 -0.02939363301355476
3108 -0.02938292250970833
3109 -0.02939395054626554
3110 -0.02938147468512277
3111 -0.02939073934229859
3112 -0.02937811968079701
3113 -0.02938637913366391
3114 -0.02937179789593437
3115 -0.02938044541105943
3116 -0.02936648179522107
3117 -0.02937399051222168
3118 -0.02935871118809835
3119 -0.0293676733112703
3120 -0.02935387868140901
3121 -0.02936274928537874
3122 -0.02934890637675481
3123 -0.02935810293823171
3124 -0.0293464908843375
3125 -0.02935572355124189
3126 -0.02934413410267658
3127 -0.0293551154849183
3128 -0.02934521576085285
3129 -0.0293559283146488
3130 -0.0293457038177286
3131 -0.02935660558488406
3132 -0.02934780979350362
3133 -0.02935985472052444
3134 -0.0293505837232949
3135 -0.02936305744651308
3136 -0.02935520601938773
3137 -0.02936780852992937
3138 -0.02935865832540707
3139 -0.02937342508660657
3140 -0.02936580107429803
3141 -0.02937955805928923
3142 -0.02937065067831767
3143 -0.02938365207763146
3144 -0.02937607778830505
3145 -0.02938799106736126
3146 -0.02937868699691738
3147 -0.02939047114160976
3148 -0.02938134544199123
3149 -0.0293925210976584
3150 -0.02938225813409184
3151 -0.02939416262723093
3152 -0.02938374434841015
3153 -0.02939506718635089
3154 -0.02938395442897579
3155 -0.02939421086219968
3156 -0.02938336322371989
3157 -0.0293931568908174
3158 -0.02938008143683369
3159 -0.0293891802457086
3160 -0.02937666198734824
3161 -0.0293845409497145
3162 -0.02937015459142099
3163 -0.02937872770552145
3164 -0.02936485940630211
3165 -0.02937212412620422
3166 -0.02935712012852621
3167 -0.02936543833762203
3168 -0.0293525638012838
3169 -0.02936203045296568
3170 -0.02934880341468525
3171 -0.02935888001754405
3172 -0.02934753488199577
3173 -0.02935720880591064
3174 -0.02934562961750099
3175 -0.02935642416587842
3176 -0.0293461729153796
3177 -0.02935681291806863
3178 -0.02934617842825302
3179 -0.02935808684209454
3180 -0.02934852116325621
3181 -0.02936162751757884
3182 -0.02935166199847107
3183 -0.02936492595083052
3184 -0.02935655005753953
3185 -0.02936960507808551
3186 -0.02936088837314303
3187 -0.02937551547719751
3188 -0.02936812959484804
3189 -0.02938122464065025
3190 -0.02937256499608152
3191 -0.02938676854526723
3192 -0.02937831276887445
3193 -0.02939200503013907
3194 -0.02938124712907815
3195 -0.0293946749910919
3196 -0.02938464910081508
3197 -0.02939761153625158
3198 -0.02938569039340358
3199 -0.02939834347531768
3200 -0.02938649609064424
3201 -0.02939756171543117
3202 -0.02938450414662586
3203 -0.02939514710292551
3204 -0.02938277246700198
3205 -0.02939131979486419
3206 -0.02937730079471803
3207 -0.02938553394078145
3208 -0.02937282725997908
3209 -0.02938045708507436
3210 -0.02936533894901173
3211 -0.02937350521163177
3212 -0.02936025137256776
3213 -0.02936770286869197
3214 -0.02935354908219071
3215 -0.02936116034009114
3216 -0.02934937053463975
3217 -0.02935893373563844
3218 -0.02934631805646415
3219 -0.02935627038703355
3220 -0.02934625638647661
3221 -0.02935586921249092
3222 -0.02934544675163266
3223 -0.029357452476151
3224 -0.0293488600676856
3225 -0.02935997479491532
3226 -0.02935142131674726
3227 -0.02936309060439259
3228 -0.02935589612841038
3229 -0.02936867675903655
3230 -0.02936032599786929
3231 -0.02937360449106705
3232 -0.02936617217795393
3233 -0.02937921131854039
3234 -0.02937016975926078
3235 -0.0293841253216822
3236 -0.02937486571010467
3237 -0.02938735170729965
3238 -0.02937651874798104
3239 -0.02938895440735004
3240 -0.02937813351498984
3241 -0.02939038096880792
3242 -0.02937749370828005
3243 -0.02938909921308261
3244 -0.02937651852283983
3245 -0.0293868688292342
3246 -0.02937383365772423
3247 -0.02938505497112698
3248 -0.02937249661585477
3249 -0.0293829952027511
3250 -0.02936971804912433
3251 -0.02937978579138477
3252 -0.02936737134137501
3253 -0.0293780427331499
3254 -0.02936491425494751
3255 -0.02937408766468602
3256 -0.02936218581467449
3257 -0.02937244033058239
3258 -0.02935976128167884
3259 -0.02937126160507221
3260 -0.02936002621230463
3261 -0.02937021573923088
3262 -0.0293582851427919
3263 -0.02937024171537785
3264 -0.02935998079183533
3265 -0.02937087517766931
3266 -0.02935883870095118
3267 -0.02937013092233327
3268 -0.02935961881878262
3269 -0.02937116094841035
3270 -0.02935872180775986
3271 -0.02937106670886731
3272 -0.02936008051667142
3273 -0.02937129210388775
3274 -0.02935904687762654
3275 -0.02937166688385072
3276 -0.02935997375170896
3277 -0.02937248068022842
3278 -0.02936126515073139
3279 -0.02937312549141738
3280 -0.02936296748875113
3281 -0.02937540883074288
3282 -0.02936370755631552
3283 -0.02937661018249315
3284 -0.02936701402887599
3285 -0.0293770093595515
3286 -0.02936659130037163
3287 -0.02937719874141465
3288 -0.0293676643488905
3289 -0.02937709410166717
3290 -0.02936639665134121
3291 -0.02937614445983893
3292 -0.02936710991707491
3293 -0.02937695785090951
3294 -0.029366708177196
3295 -0.029377019999602
3296 -0.02936764135075702
3297 -0.02937737682440884
3298 -0.02936715547085919
3299 -0.02937723264223779
3300 -0.02936744077608668
3301 -0.02937689031338857
3302 -0.02936540245399159
3303 -0.02937555375168644
3304 -0.02936474559825059
3305 -0.02937521718713597
3306 -0.02936323519597073
3307 -0.02937464140992051
3308 -0.02936423986164005
3309 -0.02937580416403367
3310 -0.02936421838164776
3311 -0.02937607211499757
3312 -0.02936638457537984
3313 -0.0293785283468177
3314 -0.02936813000850622
3315 -0.02937997867537276
3316 -0.02937050129995181
3317 -0.02938101262377295
3318 -0.02936937412830268
3319 -0.02938134683504749
3320 -0.02937120260775565
3321 -0.02938155810985999
3322 -0.02937032145596352
3323 -0.02938158784900036
3324 -0.02937061343857481
3325 -0.02938171848588104
3326 -0.02936948863304266
3327 -0.02937965817400675
3328 -0.02936802279680366
3329 -0.02937853256795753
3330 -0.02936468041387944
3331 -0.02937531058807911
3332 -0.02936232550405929
3333 -0.02937232491811357
3334 -0.02935820392952721
3335 -0.02936863537953942
3336 -0.02935582057277667
3337 -0.0293656508818381
3338 -0.02935169831177834
3339 -0.02936338435293315
3340 -0.02935138742172089
3341 -0.02936294483479948
3342 -0.02935047515372195
3343 -0.02936369982364759
3344 -0.02935329688368699
3345 -0.02936598593516829
3346 -0.02935563660703286
3347 -0.02936823047334904
3348 -0.02936059787031589
3349 -0.02937282262189632
3350 -0.02936418199376078
3351 -0.02937632965176397
3352 -0.02936907877009482
3353 -0.02938094442129795
3354 -0.02937293732560717
3355 -0.02938585554028467
3356 -0.02937822364355776
3357 -0.02938909361576795
3358 -0.02938001175213267
3359 -0.02939171705349017
3360 -0.02938262267531028
3361 -0.02939362895414067
3362 -0.02938280086490992
3363 -0.02939388625142776
3364 -0.02938283744562353
3365 -0.02939251950744195
3366 -0.02937970119086262
3367 -0.02938820056314552
3368 -0.02937469013563228
3369 -0.02938244873660316
3370 -0.02936845993924221
3371 -0.02937672646718415
3372 -0.02936295994949665
3373 -0.02937162517632549
3374 -0.02935802115592901
3375 -0.02936725854058337
3376 -0.02935521562157658
3377 -0.02936424821717684
3378 -0.02935070408785751
3379 -0.02936070943662019
3380 -0.02934974242869783
3381 -0.02935946026637297
3382 -0.02934777825360937
3383 -0.02935864070182476
3384 -0.02934870847978314
3385 -0.02935953631285638
3386 -0.02934922829086559
3387 -0.02936092650913463
3388 -0.02935303656455435
3389 -0.02936426876236067
3390 -0.02935533332684584
3391 -0.02936681313984807
3392 -0.02935954970280387
3393 -0.02937101589838757
3394 -0.02936238474214111
3395 -0.02937455987613141
3396 -0.02936676194508608
3397 -0.02937907932046486
3398 -0.02936927069300667
3399 -0.02938168314899104
3400 -0.02937330193139965
3401 -0.02938609209803627
3402 -0.02937508864102224
3403 -0.02938847804013692
3404 -0.02937912944843331
3405 -0.02939134048026586
3406 -0.02938009715571339
3407 -0.02939330289583689
3408 -0.0293821174946219
3409 -0.02939433660282622
3410 -0.02938187424814806
3411 -0.02939441009549577
3412 -0.02938176711279937
3413 -0.029393178360578
3414 -0.02937759781437641
3415 -0.02938936186646778
3416 -0.02937488395696311
3417 -0.02938515053039944
3418 -0.02936945989013406
3419 -0.02937971844755809
3420 -0.0293639393625576
3421 -0.02937340579735078
3422 -0.02935823178835595
3423 -0.02936759388397108
3424 -0.02935402636680336
3425 -0.02936317737863358
3426 -0.0293490873416253
3427 -0.02935845157038148
3428 -0.0293468411448871
3429 -0.02935556423760276
3430 -0.02934412648167366
3431 -0.02935409555177567
3432 -0.02934411826929842
3433 -0.02935429822633344
3434 -0.0293443470539415
3435 -0.02935591522890888
3436 -0.02934826501878697
3437 -0.02936081431350795
3438 -0.02935192442150232
3439 -0.02936500536429054
3440 -0.02935776581080973
3441 -0.02937090406193558
3442 -0.02936217475877332
3443 -0.02937584715965316
3444 -0.02936781238997878
3445 -0.02938080960369608
3446 -0.02937229056751945
3447 -0.02938627963692872
3448 -0.02937819330442933
3449 -0.02939058229932871
3450 -0.02938083592137335
3451 -0.02939303090109494
3452 -0.0293841173582731
3453 -0.02939528386568297
3454 -0.02938422159173984
3455 -0.0293951929288328
3456 -0.02938458205725573
3457 -0.02939421452888679
3458 -0.0293819499734921
3459 -0.02939074653086661
3460 -0.02937860572953638
3461 -0.02938671414093137
3462 -0.02937302442891547
3463 -0.0293810530748092
3464 -0.02936886397165613
3465 -0.02937659172222668
3466 -0.02936308555183445
3467 -0.02937209499825909
3468 -0.02935945573882707
3469 -0.02936873794882041
3470 -0.02935503408912141
3471 -0.02936491917579751
3472 -0.02935268464527973
3473 -0.02936240208075967
3474 -0.02934935897809079
3475 -0.02936057827831679
3476 -0.02934953936843951
3477 -0.02936107875259853
3478 -0.02934882157542329
3479 -0.02936144487935378
3480 -0.02935148241389275
3481 -0.02936459293900088
3482 -0.02935423014069921
3483 -0.02936767769019718
3484 -0.02935882501065766
3485 -0.02937213384500338
3486 -0.02936189339174097
3487 -0.02937624654112069
3488 -0.02936750996072843
3489 -0.02938029371676659
3490 -0.02936987837267865
3491 -0.02938209644435826
3492 -0.02937288124661806
3493 -0.02938480822302876
3494 -0.02937413988257841
3495 -0.0293844032358605
3496 -0.0293744272933898
3497 -0.02938465732393521
3498 -0.02937373836969031
3499 -0.02938464674549806
3500 -0.0293747316945173
3501 -0.02938404737268649
3502 -0.02937303161337019
3503 -0.02938313464579245
3504 -0.02937330808301146
3505 -0.02938296573930449
3506 -0.02937107654165722
3507 -0.02938085607209668
3508 -0.02937064717903411
3509 -0.02938039805914407
3510 -0.02936831264519754
3511 -0.0293793781285407
3512 -0.02936805698941052
3513 -0.02937813364204762
3514 -0.02936573031679787
3515 -0.02937701107550465
3516 -0.02936541157448636
3517 -0.02937623271985877
3518 -0.02936346528849513
3519 -0.02937341611531224
3520 -0.02936190354087248
3521 -0.02937127764423395
3522 -0.02935913441699751
3523 -0.02936932198379331
3524 -0.02935792555274299
3525 -0.02936692609471148
3526 -0.0293557668704018
3527 -0.02936567114780333
3528 -0.02935666370509236
3529 -0.02936698911012371
3530 -0.02935685778705374
3531 -0.02936757462090824
3532 -0.02935917095699287
3533 -0.0293704332303235
3534 -0.02936135458651574
3535 -0.02937345961559929
3536 -0.02936460240735252
3537 -0.02937529139407428
3538 -0.0293659797821102
3539 -0.02937771130200174
3540 -0.02936870968409719
3541 -0.02938040650526867
3542 -0.02936880893701177
3543 -0.02937988188274085
3544 -0.02936903394634289
3545 -0.02938097746657697
3546 -0.02936820635669116
3547 -0.02938101316304078
3548 -0.0293687370605939
3549 -0.02937997761959797
3550 -0.02936700704803613
3551 -0.02937906213620749
3552 -0.02936641739716248
3553 -0.02937876297075434
3554 -0.029365243976338
3555 -0.02937651979039848
3556 -0.02936440663542613
3557 -0.02937548609831102
3558 -0.02936249004257117
3559 -0.02937445992175941
3560 -0.02936258966754462
3561 -0.02937357307645885
3562 -0.02936212515735153
3563 -0.02937445839634056
3564 -0.0293637970946842
3565 -0.02937604251872656
