"mz-rfile"
"Iteration" "mz"
("Iteration" "mz")
1 0.7199431540397966
2 0.735428789787524
3 0.7053867928648008
4 0.6375312322349859
5 0.541154616273034
6 0.4341664234526141
7 0.351304061909768
8 0.2762834691650357
9 0.1963771313531199
10 0.1186848676795379
11 0.04681519496405145
12 -0.008821587831950022
13 -0.04979784287775539
14 -0.07773082895385346
15 -0.09195961776759033
16 -0.09378411302090478
17 -0.08636842786148566
18 -0.07226453385692484
19 -0.05381367634004559
20 -0.03216659361959448
21 -0.01220275977724533
22 0.01129522947821408
23 0.03330212369261763
24 0.05580792003350436
25 0.07430471094577214
26 0.08897593884448647
27 0.1000671010122714
28 0.1082807795660162
29 0.1134004313211621
30 0.116108148597451
31 0.1170625022384754
32 0.1169679144179125
33 0.1159891536985825
34 0.1147063338829628
35 0.1129319512109789
36 0.1109425526510314
37 0.1087756640348259
38 0.1063222731880858
39 0.1040311930273583
40 0.1016953072685715
41 0.09960205582603954
42 0.09779556800004076
43 0.09618214294261737
44 0.09486899787201419
45 0.09386158954635208
46 0.09290738511662244
47 0.09216591204623781
48 0.09143107256245088
49 0.09080090378024482
50 0.09017980189949501
51 0.08956163928940514
52 0.08896216435175969
53 0.08838333297133653
54 0.08781901114957209
55 0.08728099447204918
56 0.08662235633913888
57 0.08604671768647588
58 0.08552693083692331
59 0.08500711294875371
60 0.08459891724361397
61 0.08406785989280097
62 0.08363332263856543
63 0.08314136238729812
64 0.08263037434067998
65 0.08219685245786175
66 0.08172356917330069
67 0.08119696546943678
68 0.0806463370945272
69 0.08006569690823721
70 0.07946130136235267
71 0.0790239049759371
72 0.07834307135329535
73 0.07765835893149017
74 0.07697887000608662
75 0.07630047741381812
76 0.07563221995814587
77 0.07496168482698029
78 0.07430230287050703
79 0.07364897985089164
80 0.07300654825951738
81 0.0723654009762589
82 0.07173472293039489
83 0.0710980113016258
84 0.07047635926015564
85 0.06984823117968381
86 0.06923024009151987
87 0.06880217373955172
88 0.06815321210921439
89 0.06771957981874634
90 0.06726460190219953
91 0.06678531380004475
92 0.06629873754699407
93 0.06578861702414783
94 0.06526589066464998
95 0.06472981724906836
96 0.06419254368974811
97 0.06364383029600285
98 0.06309632948424697
99 0.0625422607340793
100 0.06198894957258048
101 0.06143900592989142
102 0.06089235511259072
103 0.06035239105489067
104 0.05982644934045143
105 0.05930438854298855
106 0.05879136542856801
107 0.05828066763076693
108 0.05778418246257076
109 0.05729977231845251
110 0.05682215882441299
111 0.05635107451954375
112 0.05590184914281677
113 0.05545413032377197
114 0.05501885481884929
115 0.0545868368532892
116 0.05417329753366938
117 0.05376881698067461
118 0.05338361705589199
119 0.05299957143026551
120 0.05263915765937262
121 0.05227768092095504
122 0.05194205065722023
123 0.05161513525618773
124 0.05131303790672862
125 0.05101981681257603
126 0.05074863479346937
127 0.0504857317877607
128 0.05024990995961849
129 0.05002551673207238
130 0.04982825297787034
131 0.04963900743642006
132 0.04947392735548026
133 0.04932059955117231
134 0.04919261417174806
135 0.04907430535686405
136 0.04897601017863642
137 0.04889290092696998
138 0.04882764721564169
139 0.04877948967401964
140 0.04874944047694561
141 0.04873104147458551
142 0.04873123658810097
143 0.04873780421000665
144 0.04876591234419236
145 0.04879977283294074
146 0.04885297347311348
147 0.04891059467314333
148 0.04898538445230974
149 0.04906749213313439
150 0.04915972872714053
151 0.04925709138327656
152 0.04936516679969739
153 0.04947567160888074
154 0.04959702436091895
155 0.04971486621443145
156 0.04984711598456532
157 0.04998055098742788
158 0.05012509728508201
159 0.05026296927427912
160 0.05040974850505539
161 0.0506256454908664
162 0.05077143101942727
163 0.05091020938937624
164 0.05112274133656831
165 0.05125543610033762
166 0.05139033387856742
167 0.05157531722806022
168 0.05170029740091689
169 0.05186893360702795
170 0.05197957153799929
171 0.05212946539201064
172 0.05222695103269607
173 0.05235366337266994
174 0.05243846488382008
175 0.05254662185907959
176 0.05261931537699675
177 0.05271397569311066
178 0.05277803127407767
179 0.05285756840513536
180 0.05291273661433615
181 0.05297815056954796
182 0.05302395675244188
183 0.05305695990792208
184 0.05311141345815919
185 0.05313995528899632
186 0.05318510565591565
187 0.05320868323285267
188 0.05324597967639073
189 0.05326307925660923
190 0.05327800420476504
191 0.05329256483681359
192 0.0533022908863589
193 0.05330240888462386
194 0.05330176199399028
195 0.05329134363079094
196 0.05328138389497834
197 0.05326320077312556
198 0.05324487907312957
199 0.05321816074078872
200 0.05319127287217949
201 0.05315718095680457
202 0.05312403913733431
203 0.05308231046866164
204 0.0530421270989284
205 0.05299514287656811
206 0.0529474828425212
207 0.05289199932553129
208 0.05283538584252439
209 0.05277249277559458
210 0.05270787425999708
211 0.05263535567146327
212 0.05256352245228837
213 0.05248424408560864
214 0.05240503446764803
215 0.05231749469327417
216 0.05223254012387219
217 0.05213800068668233
218 0.0520450770515401
219 0.05194712248487139
220 0.0518506633423281
221 0.05174982220962594
222 0.05165299229284093
223 0.05155135922770642
224 0.05145478698290515
225 0.05135398482796826
226 0.05125870296114603
227 0.05116034726690052
228 0.05106820932345398
229 0.05097456422520071
230 0.05088793853797664
231 0.05080035956151938
232 0.05072046491826371
233 0.05064110901376481
234 0.05056976541913505
235 0.05049836781278488
236 0.05043637420467621
237 0.05037527966730271
238 0.05032373820321346
239 0.05027287399239734
240 0.0502312257926075
241 0.05019062858596082
242 0.05015941985152689
243 0.050130130010362
244 0.05010988081416816
245 0.05009106247103944
246 0.05008060514372926
247 0.05007288520433632
248 0.05007284040418641
249 0.05007493225813325
250 0.05008432837063596
251 0.05009485325925552
252 0.05011362930258555
253 0.05013343351906077
254 0.05016079291107259
255 0.05018851967781543
256 0.05022365864780409
257 0.05025852611955401
258 0.05030142601589033
259 0.05034308758301862
260 0.05039302671105843
261 0.05044132090161702
262 0.05049684747177671
263 0.05055022391858654
264 0.05061175003057482
265 0.05067077994977986
266 0.0507365340691735
267 0.05080001399130277
268 0.05086980658579369
269 0.05093716122576199
270 0.05101072500212642
271 0.05108088940796172
272 0.05115700291313622
273 0.05123026106173099
274 0.05130939072894895
275 0.05138522843537727
276 0.05146647772978481
277 0.05154410537272981
278 0.05162676533636816
279 0.05170612412340513
280 0.05178946803504452
281 0.0518697196872778
282 0.05195400689562537
283 0.05203486792235262
284 0.05211975152328846
285 0.05220067950324314
286 0.05228634084771446
287 0.05236793780379243
288 0.05245369441713865
289 0.0525356059044307
290 0.05262190896008374
291 0.05270399104157072
292 0.05278988991318733
293 0.05287206464392192
294 0.05295787004329944
295 0.0530402613248836
296 0.05312578247809301
297 0.05320809063148022
298 0.05329397611433803
299 0.05337697483075842
300 0.05346265379326581
301 0.05354574689494834
302 0.05363067607381984
303 0.05371316388014945
304 0.05379891277482152
305 0.05387975502880876
306 0.05396487662637595
307 0.05404550930716286
308 0.05412974481198962
309 0.05421024303773152
310 0.05429414665519749
311 0.05437394460576219
312 0.05445768741960531
313 0.05453716816810229
314 0.05462085880406179
315 0.05470030320471472
316 0.05478279327520865
317 0.054861242556386
318 0.05494432499966253
319 0.05502252847083857
320 0.05510442482813047
321 0.05518153234875926
322 0.0552633363069665
323 0.05533997509891609
324 0.05542019154723996
325 0.05549592055256714
326 0.0555762920633428
327 0.05565164699849173
328 0.05573086512286689
329 0.05580609627582495
330 0.05588503845313281
331 0.05595961275399875
332 0.05603703438448349
333 0.05611019395345526
334 0.0561867326389015
335 0.05626014780428967
336 0.05633641091921072
337 0.05640789613381529
338 0.05648324198753504
339 0.05655443844662132
340 0.05662831300388458
341 0.05669826868170964
342 0.05677045577375804
343 0.0568397423772148
344 0.05691078197038371
345 0.05697976855513107
346 0.05705151812690742
347 0.05711956813534844
348 0.05718927615466227
349 0.0572562560419583
350 0.05732693873529496
351 0.05739336403702856
352 0.05746295193826691
353 0.05752891662736164
354 0.05759808615643303
355 0.05766309148089367
356 0.05773102313225466
357 0.05779538008564906
358 0.05786243401999089
359 0.0579252179167936
360 0.05799181714501114
361 0.05805417221575621
362 0.05811992770854622
363 0.058181827241746
364 0.05824769163533738
365 0.05830908265596303
366 0.05837373840986672
367 0.0584336031988778
368 0.05849667904943789
369 0.0585554731805367
370 0.05861733727579992
371 0.0586755732053137
372 0.0587366387695867
373 0.05879456501934586
374 0.05885379211368696
375 0.05891042712997911
376 0.05896874109970144
377 0.05902471637508718
378 0.05908192521287867
379 0.05913757279298888
380 0.05919491355679402
381 0.05925055723139688
382 0.0593079344992235
383 0.05936225923703917
384 0.05941799730529682
385 0.05947206738059742
386 0.05952781668538274
387 0.05958041895595954
388 0.05963553199182912
389 0.05968735423650669
390 0.05974269979340485
391 0.05979407570423106
392 0.05984764155845104
393 0.05989775447022196
394 0.05995220346957323
395 0.06000142404119378
396 0.06005348384564214
397 0.06010214490227964
398 0.06015337425719085
399 0.06020131900217862
400 0.06025223445513164
401 0.06029968828649791
402 0.06034944587474175
403 0.06039683759427279
404 0.0604458221174977
405 0.06049185385223181
406 0.06054044621022348
407 0.06058591979570527
408 0.06063381271931707
409 0.06067861186293493
410 0.06072578257137434
411 0.06077027564168579
412 0.06081632556513095
413 0.06086007734846632
414 0.06090526011204728
415 0.06094822603862563
416 0.06099306572174557
417 0.06103492231216853
418 0.06107928262592942
419 0.06112109720762507
420 0.06116521933779453
421 0.06120618297791373
422 0.06124962916758472
423 0.06128960505955452
424 0.0613322191156177
425 0.06137209412579223
426 0.06141337393873614
427 0.0614527873814852
428 0.06149309942188239
429 0.06153179363702442
430 0.06157209073924567
431 0.06161028501297775
432 0.06164924707223152
433 0.06168661456821183
434 0.06172546904333908
435 0.06176225893829943
436 0.06180007214695982
437 0.06183625415577512
438 0.06187415350372296
439 0.06190951367956345
440 0.06194661971028642
441 0.06198112208821598
442 0.06201828775218235
443 0.06205230165406694
444 0.06208859713564369
445 0.06212199907340472
446 0.0621576411072506
447 0.0621902906188078
448 0.06222573025026445
449 0.06225768690483641
450 0.06229242452198661
451 0.06232419938870516
452 0.06235777705475914
453 0.06238806206695397
454 0.06242106514590597
455 0.06245145359023683
456 0.06248354126891884
457 0.06251286755827175
458 0.06254465329260257
459 0.06257351613101837
460 0.06260435009141364
461 0.06263264693172468
462 0.06266332260610999
463 0.06269125397101216
464 0.06271973600312512
465 0.06274719668854907
466 0.06277587937564499
467 0.06280284669928098
468 0.06283099555298302
469 0.06285696156354263
470 0.06288508113723987
471 0.0629106368739879
472 0.06293754212199754
473 0.06296314688337264
474 0.06299021608707976
475 0.06301480846652929
476 0.0630409515442292
477 0.06306521491458067
478 0.06309076640375823
479 0.0631151694946069
480 0.06314085961570678
481 0.06316395678027704
482 0.06318968223709739
483 0.06321281913331613
484 0.06323764053613849
485 0.06326044040905641
486 0.06328497890101091
487 0.0633078362003663
488 0.063332247248226
489 0.06335370377782097
490 0.06337727555551403
491 0.06339966801082005
492 0.06342265735712818
493 0.06344420942355052
494 0.06346659070122815
495 0.06348819769685657
496 0.06351058145280679
497 0.06353108352824388
498 0.06355281302363071
499 0.06357344306322354
500 0.06359470420605098
501 0.06361434946104871
502 0.0636353380251997
503 0.06365563373025927
504 0.06367601478302193
505 0.0636954218342132
506 0.06371580463853291
507 0.06373454799310906
508 0.06375424271346423
509 0.06377261735842819
510 0.06379221559230269
511 0.06381077018862416
512 0.06382996590580366
513 0.06384809263219168
514 0.06386787236392204
515 0.06388555461323511
516 0.06390404407177284
517 0.06392180167025675
518 0.06394028592470594
519 0.06395790781037296
520 0.06397596820321266
521 0.06399302617747653
522 0.06401096246002405
523 0.06402808437336839
524 0.06404571218186657
525 0.06406254709178054
526 0.06407999433281381
527 0.06409738718902837
528 0.06411441461596259
529 0.06413102887204905
530 0.0641479494762302
531 0.06416413766154366
532 0.06418107089381049
533 0.06419664599479187
534 0.06421333823685781
535 0.06422931711603107
536 0.06424564071222494
537 0.0642610522245378
538 0.06427765813613681
539 0.06429294195879515
540 0.06430885479229152
541 0.06432361306058375
542 0.06433939474127494
543 0.06435426049690948
544 0.06436943998217089
545 0.06438396471674254
546 0.06439883018615468
547 0.06441375457034498
548 0.06442807018680533
549 0.0644425686749954
550 0.06445707351244324
551 0.06447175479067378
552 0.0644856189780515
553 0.06449975449544043
554 0.06451362180605633
555 0.06452812947524147
556 0.06454143781255434
557 0.06455510292732519
558 0.06456876078783901
559 0.06458337832421099
560 0.06459637727866824
561 0.06461025413707293
562 0.06462371268568684
563 0.06463796367480616
564 0.06465075286794827
565 0.06466398278698379
566 0.06467706104546601
567 0.06469005510351729
568 0.06470317956652188
569 0.06471594183585215
570 0.06472895685195978
571 0.0647422058342338
572 0.06475433752963099
573 0.06476670304509484
574 0.06477891128885238
575 0.06479150712634615
576 0.06480315291476536
577 0.06481484634699512
578 0.06482622526132616
579 0.06483822808715384
580 0.06484979333246911
581 0.06486135378975699
582 0.0648729299144795
583 0.06488501465771215
584 0.06489629606574621
585 0.06490745657724747
586 0.06491889148239961
587 0.06493032770420608
588 0.0649415170043296
589 0.06495238758191096
590 0.06496390118453192
591 0.06497479073944933
592 0.06498613426557082
593 0.0649970222320881
594 0.06500836656827015
595 0.06501918735730705
596 0.06503027487223099
597 0.06504045904205402
598 0.06505201599526929
599 0.06506213052492599
600 0.06507336813297801
601 0.06508301358249496
602 0.06509427546091776
603 0.06510397862700808
604 0.06511459987308295
605 0.0651241120591034
606 0.0651347872228598
607 0.06514437369070281
608 0.06515467839012117
609 0.06516415885463528
610 0.06517422692902064
611 0.06518344038110346
612 0.06519325817265997
613 0.06520205801141336
614 0.06521194538797921
615 0.06522112822417463
616 0.06523067948780982
617 0.06524002308874417
618 0.06524909576276779
619 0.06525845490672587
620 0.06526731384321018
621 0.06527617555963904
622 0.06528557905310338
623 0.06529473754248558
624 0.06530360845005745
625 0.06531293401911162
626 0.06532202043143097
627 0.0653310846835239
628 0.06533954051582831
629 0.06534841838289689
630 0.06535718202770673
631 0.06536613583140317
632 0.06537403484627012
633 0.06538217045167295
634 0.06539024649174199
635 0.06539843454141818
636 0.06540616316173752
637 0.06541372847292999
638 0.06542206691595316
639 0.06542998276260435
640 0.06543767501637365
641 0.0654452328223907
642 0.06545341262688789
643 0.0654609715514121
644 0.06546821629043761
645 0.0654755388440523
646 0.06548334503671167
647 0.06549097305347024
648 0.06549833844090384
649 0.06550530902651536
650 0.06551326030636923
651 0.06552055263822631
652 0.0655276660063174
653 0.06553469056719986
654 0.06554257486575174
655 0.06554971416029523
656 0.06555699615390338
657 0.06556389574658514
658 0.06557187305394736
659 0.06557898009279531
660 0.06558607710949012
661 0.06559266755969914
662 0.06560032887819184
663 0.06560736725590892
664 0.06561443171036267
665 0.06562093161834545
666 0.06562861563913669
667 0.06563523586637834
668 0.06564197676647408
669 0.06564842000733584
670 0.06565596988387579
671 0.06566254627169568
672 0.06566934824428318
673 0.06567580638359036
674 0.0656832812506829
675 0.06568973905405892
676 0.06569617318181442
677 0.06570237786542764
678 0.06570956808073244
679 0.06571591900651877
680 0.06572210736166939
681 0.06572805839967109
682 0.06573514949389289
683 0.06574150148918823
684 0.06574791432773036
685 0.065753622033008
686 0.06576063846233539
687 0.06576668885060295
688 0.06577277382971349
689 0.06577867168135813
690 0.06578563977849772
691 0.06579204432029472
692 0.06579779203189398
693 0.06580391043584154
694 0.06581018497008562
695 0.06581649392028872
696 0.06582165972940632
697 0.06582699225089804
698 0.06583329612906672
699 0.06583923928700662
700 0.06584427671048335
701 0.06584936428744211
702 0.06585521620665824
703 0.06586052075770704
704 0.06586590741413917
705 0.06587051665489503
706 0.06587658928845978
707 0.06588189494781992
708 0.06588667744991351
709 0.06589197890605596
710 0.06589779853106961
711 0.06590340045953352
712 0.06590862251840508
713 0.06591381444415882
714 0.06591963888950061
715 0.06592487117500374
716 0.06593040060903409
717 0.06593490693691093
718 0.06594114385112768
719 0.06594596812489426
720 0.06595161678887287
721 0.06595598144421581
722 0.06596220152296242
723 0.06596678408358526
724 0.06597215550400279
725 0.06597598841826011
726 0.06598223653708112
727 0.06598631498705911
728 0.06599172165167974
729 0.06599580229667269
730 0.0660015905354749
731 0.066005823878166
732 0.06601085411155651
733 0.06601472145638665
734 0.06602019145236496
735 0.06602434477574623
736 0.06602879107877693
737 0.06603235151899643
738 0.06603728287699889
739 0.06604112817546375
740 0.06604494315662481
741 0.06604850877472916
742 0.06605262395882948
743 0.06605673060114406
744 0.06606018492287057
745 0.06606400171704307
746 0.0660683247064829
747 0.06607247665919998
748 0.06607546833308296
749 0.06607899146531344
750 0.06608328953824028
751 0.06608761967803668
752 0.06609111675920389
753 0.06609514900051421
754 0.06609943872041446
755 0.06610403914519668
756 0.06610776705746452
757 0.06611165796291267
758 0.06611580319757077
759 0.06612047925601981
760 0.06612406318248384
761 0.06612812963748699
762 0.06613211632183837
763 0.06613651286070173
764 0.0661399391380643
765 0.06614370638301546
766 0.0661481397861262
767 0.06615201279669418
768 0.06615553952211198
769 0.06615907730715262
770 0.06616331203800591
771 0.06616745337162976
772 0.06617100746655587
773 0.06617434306975351
774 0.06617890790750197
775 0.06618215810477347
776 0.06618589806657067
777 0.06618901511637058
778 0.06619314744694904
779 0.06619616755293468
780 0.06619962031935506
781 0.06620221379553795
782 0.06620638409789904
783 0.06620919348261704
784 0.06621259607720625
785 0.06621507802231677
786 0.06621874827077921
787 0.06622162117938522
788 0.06622464553382211
789 0.06622708008353742
790 0.06623044827832399
791 0.06623339013288387
792 0.0662361655497706
793 0.06623854534701765
794 0.06624190402149505
795 0.06624518171059363
796 0.06624779010924928
797 0.06625017435875578
798 0.06625367969860005
799 0.06625639816557319
800 0.06625934324499785
801 0.06626195163249282
802 0.06626554693226894
803 0.06626859822489416
804 0.06627179816791577
805 0.06627429239665357
806 0.0662780070156159
807 0.06628108373652039
808 0.0662842504583576
809 0.06628658090601837
810 0.0662900141127763
811 0.06629307035248704
812 0.06629594091549557
813 0.0662981395231509
814 0.06630190855530173
815 0.06630477586681902
816 0.0663075327555178
817 0.06630989179995941
818 0.06631364389137781
819 0.06631644629271752
820 0.06631908485991678
821 0.06632077689641494
822 0.06632416929468336
823 0.06632675041368079
824 0.06632930848423975
825 0.06633089397204171
826 0.06633396540362391
827 0.06633626722262428
828 0.0663380590957056
829 0.06633935157767325
830 0.06634208367898488
831 0.06634439032707912
832 0.06634631016291941
833 0.06634815009287781
834 0.06635064972852496
835 0.06635315990293916
836 0.06635490825945665
837 0.0663567791332243
838 0.06635940380155017
839 0.06636201131970289
840 0.06636408015918741
841 0.06636542931836557
842 0.06636797881864671
843 0.06637038825465318
844 0.06637244348789513
845 0.06637417468781627
846 0.06637730391847507
847 0.06637985409528142
848 0.06638242069085466
849 0.06638429562091139
850 0.06638768991554123
851 0.06639008796273947
852 0.06639235592192651
853 0.06639407939177681
854 0.06639725176699858
855 0.06639965097413111
856 0.06640198646277662
857 0.06640395094471861
858 0.06640628458075994
859 0.06640885574461601
860 0.06641088039055668
861 0.06641257099109418
862 0.06641471235573514
863 0.06641733357907424
864 0.06641862218428184
865 0.06642016109318608
866 0.06642224198069367
867 0.06642434191711936
868 0.06642582675797562
869 0.0664271503957188
870 0.06642947384324779
871 0.06643102689887145
872 0.0664325257848879
873 0.06643378006958572
874 0.06643582617010309
875 0.06643747918662656
876 0.0664388108339221
877 0.06643997974942827
878 0.06644198847004167
879 0.06644391360987208
880 0.06644539590589818
881 0.06644696622164417
882 0.06644860525648759
883 0.06645093322810419
884 0.06645205727072905
885 0.06645391349984257
886 0.06645553187124964
887 0.06645790374834851
888 0.06645897932224953
889 0.06646062158738707
890 0.06646246777961251
891 0.06646518954721964
892 0.06646613204359667
893 0.06646783691295526
894 0.06646972050047856
895 0.06647219173442384
896 0.06647355870463903
897 0.06647554412700256
898 0.06647721153219749
899 0.06647971833341185
900 0.06648071053329545
901 0.06648238137794968
902 0.06648400195754811
903 0.06648658955546342
904 0.0664875480614098
905 0.06648929353102094
906 0.06649081940256737
907 0.06649291812719858
908 0.06649396827578793
909 0.06649540057838886
910 0.0664971223293028
911 0.06649928986519847
912 0.06649998755745998
913 0.06650133087177243
914 0.06650275323344983
915 0.06650450937012031
916 0.06650522617855763
917 0.06650613556657581
918 0.06650769090640719
919 0.06650953212229603
920 0.06651036616661483
921 0.06651117904483599
922 0.0665124864867486
923 0.06651401209771747
924 0.06651458448469623
925 0.0665154051542424
926 0.06651710331095879
927 0.06651863441226231
928 0.06651965272565979
929 0.06652037407796123
930 0.06652231334700623
931 0.06652385120165892
932 0.0665249702017255
933 0.06652619505105348
934 0.06652801505040884
935 0.06652999372908062
936 0.06653092772922865
937 0.06653218192269211
938 0.06653419738770497
939 0.06653638139936838
940 0.06653770638612941
941 0.06653886095080715
942 0.06654054871445021
943 0.06654229882087864
944 0.06654351876648998
945 0.06654446943222862
946 0.06654649084024251
947 0.06654788013087151
948 0.06654880601344136
949 0.06654954049010151
950 0.06655152488259142
951 0.06655268944017836
952 0.06655384935005945
953 0.06655455443774046
954 0.06655593569779604
955 0.06655711080866746
956 0.06655771039484257
957 0.06655838929625016
958 0.0665597661078902
959 0.06656066536366048
960 0.06656108351580917
961 0.06656168350488301
962 0.06656273124422121
963 0.06656357476776784
964 0.06656391140959797
965 0.06656465323503567
966 0.06656536774794571
967 0.06656686723267217
968 0.06656690790762376
969 0.06656766338116671
970 0.06656871385432576
971 0.06657016734899381
972 0.06657027950834767
973 0.06657134741189949
974 0.06657271859814187
975 0.06657429849523831
976 0.06657514783976132
977 0.06657617719733931
978 0.06657730001869308
979 0.06657899283128746
980 0.0665798108487075
981 0.06658067111293436
982 0.0665821792995339
983 0.06658342710606999
984 0.06658389486027683
985 0.06658488232872374
986 0.06658614114311913
987 0.06658761139962602
988 0.06658808874021431
989 0.06658881437433195
990 0.06659011227508405
991 0.06659104307172758
992 0.06659158674949178
993 0.06659218220956385
994 0.06659327300969013
995 0.06659439312211055
996 0.06659469299798082
997 0.06659523284344304
998 0.06659634207301596
999 0.06659736400816008
1000 0.06659805171577694
1001 0.06659834792187301
1002 0.06659925448073499
1003 0.0666001591120295
1004 0.06660079459086499
1005 0.06660084296647195
1006 0.06660235840989452
1007 0.06660302109316989
1008 0.06660394596001436
1009 0.06660408705822286
1010 0.06660562806415139
1011 0.06660596327252899
1012 0.06660689120312453
1013 0.06660667871982609
1014 0.06660822966881975
1015 0.06660853615610635
1016 0.06660945403990627
1017 0.0666094505059224
1018 0.06661105866554071
1019 0.06661151860314041
1020 0.06661247735609489
1021 0.0666126362668175
1022 0.06661428928644676
1023 0.06661496734249561
1024 0.06661583950347602
1025 0.06661634725305315
1026 0.06661770481749762
1027 0.06661886408068685
1028 0.06661940749887113
1029 0.06662021680912074
1030 0.06662175397638996
1031 0.06662251429160473
1032 0.06662302800032185
1033 0.06662332395996808
1034 0.06662473282389901
1035 0.06662564636579051
1036 0.0666261149341793
1037 0.06662643534317467
1038 0.0666276965839436
1039 0.06662843318675445
1040 0.06662880719850754
1041 0.06662959648345891
1042 0.06663015379505018
1043 0.06663083835788701
1044 0.06663089333559626
1045 0.06663117472474127
1046 0.0666319521574751
1047 0.06663298349632159
1048 0.06663290276152317
1049 0.06663336492431754
1050 0.06663406068603141
1051 0.06663474437401143
1052 0.06663439101619434
1053 0.06663488668089095
1054 0.06663534604996359
1055 0.06663641461465425
1056 0.06663580145178385
1057 0.06663649628298803
1058 0.06663678607513696
1059 0.06663834704169942
1060 0.06663812503079494
1061 0.06663900672323465
1062 0.06663923940759361
1063 0.06664077033188422
1064 0.06664098782340162
1065 0.06664209571338317
1066 0.06664303148736275
1067 0.06664460891578394
1068 0.06664448171746459
1069 0.06664538417206924
1070 0.06664623408795436
1071 0.06664755056887356
1072 0.06664788606154382
1073 0.06664889150026707
1074 0.0666495045052275
1075 0.06665028375984192
1076 0.06665040250761167
1077 0.06665074518825807
1078 0.06665156642608586
1079 0.06665218375511615
1080 0.0666523058829581
1081 0.06665220369285246
1082 0.0666526978552778
1083 0.06665332846470177
1084 0.06665348126275217
1085 0.06665341813445848
1086 0.06665407928073099
1087 0.06665427035594383
1088 0.06665452493618833
1089 0.06665452161546916
1090 0.06665540655736166
1091 0.06665598699802577
1092 0.06665594826594894
1093 0.06665592219504421
1094 0.06665675019609675
1095 0.0666571470223489
1096 0.06665724408080644
1097 0.06665723281481538
1098 0.06665811892694878
1099 0.06665846131886818
1100 0.06665882089658774
1101 0.06665893174252639
1102 0.06665993439939565
1103 0.06666065451357768
1104 0.06666076464628592
1105 0.06666088136351295
1106 0.06666212630929881
1107 0.06666286891255065
1108 0.06666330269788442
1109 0.06666370139758308
1110 0.06666501988470863
1111 0.06666557653728988
1112 0.06666612518170335
1113 0.06666619372537939
1114 0.06666763530916331
1115 0.0666682809064615
1116 0.06666850488571791
1117 0.06666851119246021
1118 0.06666946590856725
1119 0.06666986707230135
1120 0.06667024123816559
1121 0.06667012405549219
1122 0.06667049579565913
1123 0.06667080553659077
1124 0.06667075897238078
1125 0.06667066901100338
1126 0.06667125196778129
1127 0.06667184551498764
1128 0.06667148353802273
1129 0.06667157151775847
1130 0.06667212683671683
1131 0.06667288723960722
1132 0.06667242334113513
1133 0.06667301721949852
1134 0.06667309534910025
1135 0.06667416125541202
1136 0.06667343066830872
1137 0.06667406435057004
1138 0.06667384526300457
1139 0.0666751130292917
1140 0.06667427738939015
1141 0.06667479295248924
1142 0.06667484768735574
1143 0.06667592739028232
1144 0.06667538463689182
1145 0.06667598582065536
1146 0.06667628132619204
1147 0.06667714535045617
1148 0.06667700758165805
1149 0.0666775438880565
1150 0.06667838692135022
1151 0.06667894172879749
1152 0.06667888703043193
1153 0.06667916946109537
1154 0.06667986732616046
1155 0.0666808577934106
1156 0.06668071650393309
1157 0.0666814813782155
1158 0.06668188765071639
1159 0.06668279640542037
1160 0.06668290176542825
1161 0.06668330586694327
1162 0.06668393677971278
1163 0.06668480953203473
1164 0.06668453527858315
1165 0.06668483523014916
1166 0.06668524016431103
1167 0.06668577990278297
1168 0.06668565349588745
1169 0.06668565939392419
1170 0.06668583244363727
1171 0.06668592599767459
1172 0.06668566830593549
1173 0.06668521785700711
1174 0.06668584442309099
1175 0.06668607996786759
1176 0.06668594577242283
1177 0.06668543595852473
1178 0.06668613502329176
1179 0.06668633986263274
1180 0.06668631032678123
1181 0.06668607963787436
1182 0.06668623118133692
1183 0.06668617000683046
1184 0.06668613570109209
1185 0.06668604219322295
1186 0.06668635048925048
1187 0.0666875270997143
1188 0.06668701861291243
1189 0.0666873697690651
1190 0.06668783115503892
1191 0.06668871657975342
1192 0.0666887164101039
1193 0.06668939838648737
1194 0.06668990930928116
1195 0.06669076221328053
1196 0.06669066189880936
1197 0.06669139656403404
1198 0.06669181528894401
1199 0.06669305053702414
1200 0.06669293170386262
1201 0.06669298545207095
1202 0.06669326729300001
1203 0.06669412926072379
1204 0.06669402845885229
1205 0.06669408013201553
1206 0.06669427250410287
1207 0.06669465469374097
1208 0.06669431551511441
1209 0.06669423083163346
1210 0.0666947283671412
1211 0.06669531201617601
1212 0.06669457018091479
1213 0.06669434898050731
1214 0.06669452335220516
1215 0.06669503355421226
1216 0.06669455964569734
1217 0.06669478967420188
1218 0.0666947035138538
1219 0.06669538110808633
1220 0.06669484247965299
1221 0.0666952266791655
1222 0.06669506706349454
1223 0.06669590206717216
1224 0.06669505724882047
1225 0.0666951664707256
1226 0.06669526416123754
1227 0.06669616929579859
1228 0.06669581637391402
1229 0.06669624284102289
1230 0.06669645991562108
1231 0.0666970478707517
1232 0.06669644330301135
1233 0.06669687791030211
1234 0.06669697898233884
1235 0.06669807812743113
1236 0.06669744949483324
1237 0.06669751541758584
1238 0.06669789801181482
1239 0.06669854198320052
1240 0.0666985903331193
1241 0.06669871298799547
1242 0.06669913363610618
1243 0.06669958854777369
1244 0.0666995918955096
1245 0.0666995887003272
1246 0.0667002504306119
1247 0.06670092883800446
1248 0.06670075927306496
1249 0.06670067676733714
1250 0.06670157614318939
1251 0.06670181382900332
1252 0.06670185828707025
1253 0.06670158161460679
1254 0.06670245959650942
1255 0.06670225730987654
1256 0.06670273974478226
1257 0.06670209886626093
1258 0.06670301938464983
1259 0.06670333620648321
1260 0.06670349857839625
1261 0.06670279355188213
1262 0.06670371737446897
1263 0.06670351264918935
1264 0.06670365665504739
1265 0.0667032721557988
1266 0.06670357594386066
1267 0.06670352708377633
1268 0.06670345395211674
1269 0.06670316661370106
1270 0.06670376263827603
1271 0.06670394333137378
1272 0.06670341350983175
1273 0.06670315112723309
1274 0.06670369614528573
1275 0.0667042614479713
1276 0.06670378749301523
1277 0.06670428956224964
1278 0.06670415071940453
1279 0.06670495246850301
1280 0.06670436856696721
1281 0.06670511865696879
1282 0.06670497257498612
1283 0.06670612518037967
1284 0.06670546088724683
1285 0.0667058086846522
1286 0.06670573899616632
1287 0.06670682123265173
1288 0.06670610583760329
1289 0.06670670868878793
1290 0.06670710048084806
1291 0.06670800095995599
1292 0.06670753188896122
1293 0.0667078176500361
1294 0.06670818094274089
1295 0.06670891820933346
1296 0.06670826391642398
1297 0.06670878847290558
1298 0.0667087903226366
1299 0.06670953854917697
1300 0.06670896696445164
1301 0.0667087781255248
1302 0.06670845025141674
1303 0.06670870598947788
1304 0.06670833679579098
1305 0.06670818617889393
1306 0.06670841517226941
1307 0.06670891049887036
1308 0.06670815875769266
1309 0.06670798579983615
1310 0.0667082190894777
1311 0.06670838129467588
1312 0.06670787055920969
1313 0.06670797185147342
1314 0.06670800119474535
1315 0.06670861739135785
1316 0.06670840767108321
1317 0.06670844639331927
1318 0.06670891961799366
1319 0.06670946212649614
1320 0.06670939310780474
1321 0.06670925560158848
1322 0.06671012104414084
1323 0.06671041580459523
1324 0.06671043316955418
1325 0.06671043867559617
1326 0.06671069581563925
1327 0.06671110986209104
1328 0.06671105820869219
1329 0.06671102659551784
1330 0.06671143116337154
1331 0.06671194436758472
1332 0.06671152525558728
1333 0.06671143542931851
1334 0.06671174937807244
1335 0.06671204649123418
1336 0.06671177075537819
1337 0.06671179639842205
1338 0.06671197937279962
1339 0.06671243823922793
1340 0.0667124161236666
1341 0.06671211038501898
1342 0.06671253683952702
1343 0.06671296432474706
1344 0.06671255149048344
1345 0.06671261217233722
1346 0.06671303180636362
1347 0.06671328295534069
1348 0.06671306185068789
1349 0.06671276867797173
1350 0.0667130560975298
1351 0.06671306046751289
1352 0.06671310924508164
1353 0.06671285163113906
1354 0.06671354885606193
1355 0.06671380435070233
1356 0.06671355370637742
1357 0.06671307492529993
1358 0.06671364823616431
1359 0.06671385870288631
1360 0.06671400379736293
1361 0.06671367514815497
1362 0.06671382521847323
1363 0.06671420855417341
1364 0.06671376314171085
1365 0.06671376868492558
1366 0.06671369059105133
1367 0.06671435039442976
1368 0.06671363594922672
1369 0.06671390678038853
1370 0.0667142277148636
1371 0.06671494963648378
1372 0.06671433398295619
1373 0.06671472475443255
1374 0.06671477047601009
1375 0.06671554028850442
1376 0.06671513141286739
1377 0.06671562910570836
1378 0.06671540434356718
1379 0.06671634184449043
1380 0.06671571371775287
1381 0.0667158800000157
1382 0.06671604871673013
1383 0.06671686066633772
1384 0.06671628948250127
1385 0.06671654781431396
1386 0.06671644986136914
1387 0.06671717866832658
1388 0.06671667255043087
1389 0.06671661938960247
1390 0.06671696584129715
1391 0.06671719648721465
1392 0.06671656429667684
1393 0.06671593824708683
1394 0.06671638837745479
1395 0.06671645226887575
1396 0.06671626470716578
1397 0.06671581596219017
1398 0.066716465836652
1399 0.06671617789043717
1400 0.06671619564291303
1401 0.06671560305183288
1402 0.06671654731341284
1403 0.06671614843005891
1404 0.06671619658027868
1405 0.06671548193453591
1406 0.0667162262690074
1407 0.06671619561744054
1408 0.06671635139498762
1409 0.06671628257217296
1410 0.06671672092355302
1411 0.06671663646881941
1412 0.06671663720663394
1413 0.0667165072287636
1414 0.06671681415224262
1415 0.06671756617442608
1416 0.06671703941803822
1417 0.06671729875321129
1418 0.06671766998981683
1419 0.06671834996199774
1420 0.06671793314133792
1421 0.06671796027443382
1422 0.06671783067732429
1423 0.06671844838200945
1424 0.06671780574910598
1425 0.0667181575641264
1426 0.06671792182258836
1427 0.06671879033275675
1428 0.06671771978897251
1429 0.06671776795169185
1430 0.06671783334906096
1431 0.06671839884796421
1432 0.0667177895691238
1433 0.06671779476990944
1434 0.06671782440967865
1435 0.06671799564000126
1436 0.06671778229365879
1437 0.06671764148691613
1438 0.06671807468776018
1439 0.06671841321237981
1440 0.0667183633751086
1441 0.06671803047232892
1442 0.06671869457915604
1443 0.06671886096073826
1444 0.06671924622932232
1445 0.06671925019691745
1446 0.06671985390614864
1447 0.06671983499481197
1448 0.06672007302384059
1449 0.0667198551911939
1450 0.06672067935024066
1451 0.06672074660371151
1452 0.06672053661873707
1453 0.06671971531529756
1454 0.06672020237252839
1455 0.06672011758016989
1456 0.06671982010907238
1457 0.06671966070155066
1458 0.06671963536743183
1459 0.06671973595625129
1460 0.0667195828175946
1461 0.06671923804066993
1462 0.06671939293965692
1463 0.06671987514565116
1464 0.06671909268933637
1465 0.06671910376140951
1466 0.06671915680948889
1467 0.06672008934888278
1468 0.06671939981882556
1469 0.06671990592059683
1470 0.06671979656114983
1471 0.06672055813862604
1472 0.06671992745425478
1473 0.0667204942383833
1474 0.06672060866689947
1475 0.06672154362197293
1476 0.06672074795106966
1477 0.06672097204818653
1478 0.06672109912191344
1479 0.06672184430270468
1480 0.06672162325398107
1481 0.06672178204577087
1482 0.06672197422008547
1483 0.06672233212228584
1484 0.06672201416877523
1485 0.06672212661416776
1486 0.06672249061677592
1487 0.06672285394999285
1488 0.06672236065721025
1489 0.0667221599124297
1490 0.06672266932915502
1491 0.06672262709182948
1492 0.0667225472414141
1493 0.06672207759869431
1494 0.06672224404808076
1495 0.06672181968095298
1496 0.06672164650983219
1497 0.06672097373983542
1498 0.06672165466681373
1499 0.06672177550802443
1500 0.06672140917062626
1501 0.06672050830837402
1502 0.06672095302686763
1503 0.06672092827733091
1504 0.06672050541558655
1505 0.06672055333365016
1506 0.0667205107400257
1507 0.06672086785803458
1508 0.06672068908931864
1509 0.06672056115708822
1510 0.06672111436885633
1511 0.06672169472315394
1512 0.06672134963254395
1513 0.06672119704198629
1514 0.06672187010804069
1515 0.0667223211477839
1516 0.06672197480699565
1517 0.06672201651498924
1518 0.06672209445785615
1519 0.06672244467779412
1520 0.06672250820191707
1521 0.06672232318588162
1522 0.06672256685616154
1523 0.06672311521521325
1524 0.06672257193736146
1525 0.06672246042841211
1526 0.06672265344166595
1527 0.06672300763839951
1528 0.06672292357494923
1529 0.06672276451540635
1530 0.06672316869113727
1531 0.0667231661313091
1532 0.06672306921781221
1533 0.06672263321912777
1534 0.0667228474665455
1535 0.06672320828727384
1536 0.0667228414465119
1537 0.06672233234292479
1538 0.06672310847619467
1539 0.06672289933276337
1540 0.06672303692828192
1541 0.06672224326573856
1542 0.06672275881370975
1543 0.06672239878747761
1544 0.06672216977667147
1545 0.06672168642137319
1546 0.06672194751587109
1547 0.06672228328123837
1548 0.06672142003160024
1549 0.06672091690086406
1550 0.06672125780829724
1551 0.06672151160961193
1552 0.06672095180568051
1553 0.06672107620294619
1554 0.06672091858788212
1555 0.06672145444721955
1556 0.06672085224371679
1557 0.06672117083938769
1558 0.06672121161526692
1559 0.06672219991493758
1560 0.06672149456567365
1561 0.06672159200977551
1562 0.06672188343239864
1563 0.06672267535265074
1564 0.06672218590965011
1565 0.06672267329917556
1566 0.06672302951304233
1567 0.06672359078982248
1568 0.06672351031250204
1569 0.06672367408234525
1570 0.06672464482454839
1571 0.06672513775700269
1572 0.06672517999199434
1573 0.06672494982962499
1574 0.06672599983210677
1575 0.06672630706882093
1576 0.06672661431597234
1577 0.06672639803643748
1578 0.06672707304919744
1579 0.0667271029111761
1580 0.06672719681352424
1581 0.06672655336271671
1582 0.06672683945717596
1583 0.06672663778020461
1584 0.0667261140875115
1585 0.06672570068499765
1586 0.06672569471155072
1587 0.06672569771039398
1588 0.06672498392997187
1589 0.06672433037083411
1590 0.06672433266781121
1591 0.06672403843553601
1592 0.06672355375047809
1593 0.06672298496802237
1594 0.0667230626246221
1595 0.06672305066615886
1596 0.0667224104115192
1597 0.06672206927557932
1598 0.06672265613985094
1599 0.06672276994278349
1600 0.06672289086714832
1601 0.0667224825229228
1602 0.06672292287336241
1603 0.06672322956929028
1604 0.06672301450211895
1605 0.0667231303153407
1606 0.06672342156737188
1607 0.06672403512122498
1608 0.06672359334526891
1609 0.06672386804461967
1610 0.06672397096352774
1611 0.06672478988031789
1612 0.06672424644786261
1613 0.06672450384603208
1614 0.06672446342959491
1615 0.06672537778886858
1616 0.06672481057369727
1617 0.06672521215653572
1618 0.06672516463992693
1619 0.06672612740097034
1620 0.06672575351267768
1621 0.06672568644252577
1622 0.06672607388282062
1623 0.06672623097818078
1624 0.0667259691889019
1625 0.06672583182224977
1626 0.06672599130505361
1627 0.06672641772925961
1628 0.06672574392722913
1629 0.06672534921203503
1630 0.06672552442522653
1631 0.06672559614694834
1632 0.06672481535691836
1633 0.06672474388342189
1634 0.06672466808654529
1635 0.06672477047717265
1636 0.06672393663473579
1637 0.06672375658769346
1638 0.06672358054374423
1639 0.06672412793815827
1640 0.06672373720900165
1641 0.06672334463256407
1642 0.0667235404412586
1643 0.06672388871581306
1644 0.06672283204454815
1645 0.0667227840334176
1646 0.06672290735938582
1647 0.06672335423806929
1648 0.06672285922564068
1649 0.06672298189734094
1650 0.06672322132881092
1651 0.06672385823148695
1652 0.06672365519847145
1653 0.06672372766523765
1654 0.06672420417802009
1655 0.06672469799107758
1656 0.06672438116130863
1657 0.06672447766726379
1658 0.06672494188031525
1659 0.06672550752854033
1660 0.06672527488186464
1661 0.06672529473726757
1662 0.06672560137543157
1663 0.06672614440197878
1664 0.06672607356273147
1665 0.0667262813715455
1666 0.06672661416070094
1667 0.06672688713061131
1668 0.06672684136557855
1669 0.06672644967055727
1670 0.06672716089928657
1671 0.06672706879621515
1672 0.06672705885065817
1673 0.06672632270294744
1674 0.06672661632217547
1675 0.06672656056286314
1676 0.06672625251702899
1677 0.0667255003142365
1678 0.0667256521369559
1679 0.06672554447130284
1680 0.06672492047774853
1681 0.06672437884993181
1682 0.0667247402412002
1683 0.06672471039534018
1684 0.06672428344043373
1685 0.06672365183578101
1686 0.06672393141726629
1687 0.06672390358065845
1688 0.06672367471154593
1689 0.06672351458004151
1690 0.06672399061446327
1691 0.06672419652979146
1692 0.06672363558560168
1693 0.06672375158063118
1694 0.06672387841388427
1695 0.06672496397748758
1696 0.06672453111485213
1697 0.06672505973461927
1698 0.06672528178805955
1699 0.06672650642312923
1700 0.06672605193349025
1701 0.06672655100844747
1702 0.06672627305590781
1703 0.06672730013827337
1704 0.06672654586710952
1705 0.06672723863897811
1706 0.06672703329068135
1707 0.06672807925610352
1708 0.06672708725043193
1709 0.06672728669046935
1710 0.06672718415838309
1711 0.06672766246600061
1712 0.06672667465030194
1713 0.06672669708523478
1714 0.06672634490514912
1715 0.06672688784950902
1716 0.06672579306279124
1717 0.06672587449160169
1718 0.06672572678751941
1719 0.06672583809815061
1720 0.06672535868675822
1721 0.06672520965939382
1722 0.06672519777575979
1723 0.06672549586710276
1724 0.06672485679020883
1725 0.06672478258295221
1726 0.06672477473047349
1727 0.06672500831620178
1728 0.06672463449073097
1729 0.06672447177459707
1730 0.06672500339266949
1731 0.06672523656467727
1732 0.06672487810033506
1733 0.06672429476352827
1734 0.06672465407617681
1735 0.06672469212202363
1736 0.06672475363782532
1737 0.06672442454649773
1738 0.06672524857680513
1739 0.06672508428677154
1740 0.06672544201901791
1741 0.06672474760358575
1742 0.06672573012073697
1743 0.06672537983649691
1744 0.06672585748222526
1745 0.06672538089919942
1746 0.06672595154616773
1747 0.06672603491683457
1748 0.06672601415008426
1749 0.06672572245796003
1750 0.06672616509556768
1751 0.0667263907056091
1752 0.06672606278334814
1753 0.06672604418620157
1754 0.06672620318185471
1755 0.06672690353963587
1756 0.06672611376616258
1757 0.06672632722978192
1758 0.06672612825010035
1759 0.06672672483350021
1760 0.06672622737846075
1761 0.06672636547177148
1762 0.06672610415002246
1763 0.06672650524711547
1764 0.06672536931461798
1765 0.06672549592299505
1766 0.06672535900646712
1767 0.06672575941973369
1768 0.06672492531564041
1769 0.06672466130827573
1770 0.06672474504462012
1771 0.06672481271083791
1772 0.06672416738925382
1773 0.06672368895850657
1774 0.06672389765570873
1775 0.06672404347362391
1776 0.0667236123430575
1777 0.06672367487131474
1778 0.06672389271023998
1779 0.06672438773918314
1780 0.06672424508442243
1781 0.06672437639406965
1782 0.06672448601500716
1783 0.06672525853770456
1784 0.06672492048790545
1785 0.06672541334621715
1786 0.06672551692225727
1787 0.06672642149694365
1788 0.06672579039239823
1789 0.06672613290224891
1790 0.06672669707129408
1791 0.06672752311437197
1792 0.06672712921672512
1793 0.06672732041874888
1794 0.0667275649793482
1795 0.06672816098826023
1796 0.06672790320852606
1797 0.06672792028881587
1798 0.06672810724187277
1799 0.06672836528512759
1800 0.06672808115996899
1801 0.066727917086137
1802 0.06672808414839559
1803 0.06672811214032427
1804 0.06672743510784473
1805 0.06672683286663066
1806 0.06672689212051364
1807 0.06672673614569048
1808 0.06672664430502417
1809 0.06672614307865378
1810 0.06672643173170364
1811 0.06672606376237587
1812 0.06672572115406419
1813 0.06672470271207595
1814 0.06672523284497896
1815 0.06672522489961755
1816 0.06672514512043752
1817 0.06672470607784321
1818 0.06672527858446796
1819 0.06672520997020741
1820 0.06672555572529511
1821 0.06672527917593948
1822 0.06672611532846105
1823 0.06672627946662481
1824 0.06672631576661572
1825 0.06672611325095712
1826 0.0667269472923258
1827 0.06672722150076754
1828 0.06672735095333997
1829 0.06672700017301528
1830 0.0667278076058755
1831 0.06672777541181356
1832 0.06672803169817672
1833 0.06672790530418629
1834 0.06672831486019214
1835 0.06672846318385467
1836 0.06672799586614021
1837 0.06672768531149269
1838 0.06672787683994635
1839 0.06672807371168195
1840 0.06672769658407617
1841 0.06672731224964815
1842 0.06672716727896917
1843 0.0667271641752407
1844 0.06672647646149078
1845 0.06672652213782973
1846 0.06672632740710467
1847 0.06672668979960403
1848 0.06672565774492176
1849 0.06672548060414001
1850 0.06672547000831403
1851 0.06672605452616177
1852 0.06672512136868154
1853 0.06672511244452645
1854 0.06672464832248089
1855 0.0667252630699415
1856 0.06672442855058044
1857 0.0667246727128455
1858 0.066724292171481
1859 0.06672468494979714
1860 0.06672400149438573
1861 0.06672392191137887
1862 0.06672375098859745
1863 0.06672432296087098
1864 0.06672389305987178
1865 0.06672397299845156
1866 0.06672417132947309
1867 0.06672462728059689
1868 0.06672435824841705
1869 0.06672449067231842
1870 0.06672504272622932
1871 0.06672550226559457
1872 0.0667253780032125
1873 0.06672518099142141
1874 0.0667258047690386
1875 0.06672643049382983
1876 0.06672628241185601
1877 0.06672634083965011
1878 0.06672660586711276
1879 0.06672683855282315
1880 0.06672698163254941
1881 0.06672664880906252
1882 0.06672702055556683
1883 0.06672717152249209
1884 0.0667266410672005
1885 0.06672647426094308
1886 0.0667267299021973
1887 0.06672735376439085
1888 0.06672685914427655
1889 0.066726876736266
1890 0.06672691878456972
1891 0.06672692768973268
1892 0.06672674204775363
1893 0.06672646733472212
1894 0.06672660270703379
1895 0.06672653594977085
1896 0.06672585940662927
1897 0.06672559110284196
1898 0.06672581185793554
1899 0.06672629449562918
1900 0.0667258031369258
1901 0.06672516129303704
1902 0.06672526838241026
1903 0.06672546675272034
1904 0.0667248927233792
1905 0.06672504383089063
1906 0.06672499230399341
1907 0.06672563361244246
1908 0.06672502647978601
1909 0.06672500133318933
1910 0.06672546559694209
1911 0.066725877996872
1912 0.06672583241979335
1913 0.06672599452766716
1914 0.06672626936754526
1915 0.06672698050310741
1916 0.06672657578456784
1917 0.06672718015061796
1918 0.0667273017465074
1919 0.06672827385183173
1920 0.06672798385613622
1921 0.06672829957760038
1922 0.06672847824852275
1923 0.06672899293071691
1924 0.06672827487448535
1925 0.06672827795387319
1926 0.06672812257856349
1927 0.06672853422060315
1928 0.06672799308439241
1929 0.06672802125515417
1930 0.06672824890212628
1931 0.06672848192599894
1932 0.06672734643248041
1933 0.06672719086111917
1934 0.06672708144205615
1935 0.0667276154527094
1936 0.06672684560973226
1937 0.06672725918949945
1938 0.06672680702538973
1939 0.06672736864786059
1940 0.06672660024052814
1941 0.06672671492296185
1942 0.06672636202401645
1943 0.06672703582256362
1944 0.06672591594820347
1945 0.06672578071977862
1946 0.06672586639648175
1947 0.06672651614531218
1948 0.06672580605998123
1949 0.06672599206659034
1950 0.06672595755142083
1951 0.06672634202796872
1952 0.06672601791159884
1953 0.06672630097078996
1954 0.06672628745039681
1955 0.06672716189519863
1956 0.06672641439453673
1957 0.06672655170188978
1958 0.06672677144835987
1959 0.06672739461857222
1960 0.06672719943947049
1961 0.06672745624847851
1962 0.06672759821545803
1963 0.06672797492871707
1964 0.06672778659790556
1965 0.06672750781894431
1966 0.06672763565560183
1967 0.06672774905097291
1968 0.06672723981896608
1969 0.06672673513291628
1970 0.06672712397566778
1971 0.06672714191415095
1972 0.06672691200425122
1973 0.06672661567394565
1974 0.06672678581624915
1975 0.06672680316185707
1976 0.06672663800316726
1977 0.06672652065955673
1978 0.06672713252058565
1979 0.0667272278247672
1980 0.0667270507879756
1981 0.06672618067333699
1982 0.06672709270945908
1983 0.06672682367560871
1984 0.06672680294178339
1985 0.06672631729830816
1986 0.06672660849734666
1987 0.06672643616867965
1988 0.06672629572370258
1989 0.06672575064627026
1990 0.06672641465409945
1991 0.06672666011463163
1992 0.06672638918811359
1993 0.06672600579626932
1994 0.06672637145168828
1995 0.06672678903389552
1996 0.06672645866955455
1997 0.06672662070455676
1998 0.06672693280124381
1999 0.06672754590025994
2000 0.06672731752360056
2001 0.0667274645202086
2002 0.06672758629121718
2003 0.0667285618199227
2004 0.06672754735204758
2005 0.06672812197397796
2006 0.06672801311908577
2007 0.06672915594449769
2008 0.06672842799622133
2009 0.06672943390565764
2010 0.06672916609974944
2011 0.06672994376950815
2012 0.06672918866484837
2013 0.06672958135040118
2014 0.06672905807492201
2015 0.06672978368841607
2016 0.06672863092751408
2017 0.06672862786033297
2018 0.06672839102611366
2019 0.06672879551163878
2020 0.06672820808426563
2021 0.06672781693834652
2022 0.06672772274678916
2023 0.06672767453814143
2024 0.06672719213934718
2025 0.06672678156006448
2026 0.06672699757619824
2027 0.06672709214159352
2028 0.06672660231682243
2029 0.06672621571980707
2030 0.06672679026589336
2031 0.06672685817325345
2032 0.0667266814870473
2033 0.06672639255190681
2034 0.06672685864275449
2035 0.06672707745441679
2036 0.06672697263853698
2037 0.06672693702015477
2038 0.06672735032845314
2039 0.06672783717566101
2040 0.06672798481674062
2041 0.06672758306561884
2042 0.06672853210326501
2043 0.0667291118581291
2044 0.06672910265655027
2045 0.06672920783651526
2046 0.06672955197700933
2047 0.06672997723229579
2048 0.06672993270274721
2049 0.06672992753117303
2050 0.06673035848475782
2051 0.06673047192604677
2052 0.06673021764207895
2053 0.06672958691011817
2054 0.06673008953011986
2055 0.06673023810652172
2056 0.06672979691802437
2057 0.06672945814386637
2058 0.06672922787872151
2059 0.06672935382336159
2060 0.06672897146314298
2061 0.06672854280251132
2062 0.06672840348564757
2063 0.06672862328848159
2064 0.06672768033488366
2065 0.06672733336928668
2066 0.06672714392236005
2067 0.06672764740703353
2068 0.06672709171831911
2069 0.06672665894789885
2070 0.06672673735458926
2071 0.06672670046332224
2072 0.06672636580529319
2073 0.06672637269029326
2074 0.06672683813943522
2075 0.06672715952373855
2076 0.06672654421891974
2077 0.06672641964363543
2078 0.06672692275159743
2079 0.06672738351362316
2080 0.06672741952592119
2081 0.06672726741648337
2082 0.06672779695706159
2083 0.06672794558846688
2084 0.06672804809927858
2085 0.06672801694386091
2086 0.06672845064060812
2087 0.06672883451371289
2088 0.06672887410228566
2089 0.06672826292417079
2090 0.06672936347844151
2091 0.06672939472030485
2092 0.0667294920272678
2093 0.06672889625765656
2094 0.06672937205227406
2095 0.06672929799012971
2096 0.06672910479384768
2097 0.06672911685428574
2098 0.06672940782861865
2099 0.06672960996001419
2100 0.06672916431835821
2101 0.06672864298971469
2102 0.06672893375969809
2103 0.0667292112621968
2104 0.06672868402592862
2105 0.06672841328312108
2106 0.06672845771866541
2107 0.06672870899468526
2108 0.06672825141914944
2109 0.06672825927689979
2110 0.06672824414170138
2111 0.0667284793308827
2112 0.06672782883382128
2113 0.06672765061174731
2114 0.06672758742558954
2115 0.0667282164236158
2116 0.06672758082339482
2117 0.06672744629639114
2118 0.06672743890474996
2119 0.0667274654268408
2120 0.06672752610808425
2121 0.06672706564739032
2122 0.06672765546275122
2123 0.06672746896429989
2124 0.06672736516968938
2125 0.06672657695819582
2126 0.06672753873605966
2127 0.06672773182282324
2128 0.06672796560328315
2129 0.06672766619997936
2130 0.06672873609103931
2131 0.06672878743859707
2132 0.06672915496204229
2133 0.06672862207356325
2134 0.06672922373281194
2135 0.06672951531429329
2136 0.06672944295277661
2137 0.06672931388205637
2138 0.06673006620801535
2139 0.06673038476603863
2140 0.06673028605441264
2141 0.06672993569530794
2142 0.06673016159356611
2143 0.0667303006730887
2144 0.06672997406023376
2145 0.06672976672170544
2146 0.06672958665766976
2147 0.06672995129392674
2148 0.06672876907941669
2149 0.06672836247850888
2150 0.06672853125140064
2151 0.06672852702552226
2152 0.06672811147221085
2153 0.06672776608958784
2154 0.06672777900249681
2155 0.06672778132512561
2156 0.06672734670775494
2157 0.06672693417090153
2158 0.0667271784626378
2159 0.06672744371077055
2160 0.0667270286226624
2161 0.0667265251218164
2162 0.06672687710992027
2163 0.066727139634671
2164 0.0667267529919854
2165 0.06672684464734074
2166 0.06672675607304039
2167 0.06672726820968874
2168 0.06672657675407784
2169 0.06672710492588835
2170 0.0667272664348539
2171 0.06672822360489504
2172 0.06672745642178728
2173 0.06672760109741391
2174 0.06672787761244389
2175 0.06672858637337037
2176 0.06672804607737166
2177 0.06672854521919264
2178 0.06672842380122962
2179 0.06672921718798688
2180 0.06672875745204167
2181 0.06672889020405529
2182 0.06672878196596538
2183 0.06672955744636305
2184 0.06672903164188816
2185 0.06672898440599022
2186 0.06672931665309322
2187 0.06672958583712782
2188 0.06672933564469484
2189 0.06672888408099822
2190 0.06672932786816295
2191 0.06672899893583509
2192 0.06672872711411115
2193 0.06672831620781706
2194 0.06672846388141435
2195 0.06672872535852603
2196 0.06672780649842047
2197 0.06672767179453876
2198 0.06672757636404092
2199 0.06672813044273444
2200 0.06672745865645519
2201 0.06672793352726841
2202 0.06672736502590187
2203 0.06672807728919682
2204 0.06672696618067776
2205 0.06672757590304558
2206 0.06672695162008919
2207 0.06672807779288635
2208 0.06672660061656827
2209 0.06672695709586132
2210 0.06672649127353295
2211 0.06672751658011919
2212 0.06672640704823936
2213 0.0667270335293095
2214 0.0667263191229349
2215 0.06672715189943856
2216 0.06672631799232104
2217 0.06672669077791786
2218 0.06672683583582041
2219 0.06672736496912583
2220 0.06672709877757985
2221 0.06672665742225682
2222 0.06672727852248157
2223 0.06672736543621989
2224 0.06672735622742734
2225 0.06672708328479397
2226 0.06672760625452547
2227 0.06672769582407852
2228 0.06672792172929189
2229 0.06672770572367209
2230 0.06672841107214388
2231 0.06672893715940495
2232 0.0667286394040181
2233 0.06672873815758916
2234 0.06672903286956001
2235 0.06672971520827628
2236 0.06672915251651541
2237 0.06672915727823511
2238 0.06672907179369529
2239 0.06672930535356458
2240 0.06672903674364226
2241 0.06672876598512674
2242 0.06672902328763239
2243 0.06672924791841779
2244 0.06672856596602038
2245 0.06672804852578554
2246 0.06672814898350546
2247 0.06672839962341147
2248 0.06672819701209289
2249 0.06672815268944544
2250 0.06672839153573835
2251 0.06672816122952048
2252 0.06672791548520761
2253 0.06672761834851407
2254 0.06672768559889901
2255 0.06672814118990238
2256 0.06672753027912352
2257 0.06672734446936103
2258 0.06672756767211896
2259 0.06672795470610213
2260 0.06672774153609939
2261 0.06672722763534394
2262 0.06672729627511631
2263 0.06672747841201732
2264 0.06672717911017989
2265 0.06672715670896283
2266 0.06672734316374389
2267 0.06672800055101305
2268 0.06672712815979004
2269 0.06672688448134244
2270 0.06672728182044189
2271 0.06672782462613892
2272 0.06672722348075542
2273 0.06672715460309787
2274 0.0667267965558835
2275 0.06672763003804248
2276 0.06672684058638706
2277 0.06672759669398244
2278 0.06672726919879109
2279 0.06672791274981811
2280 0.06672715942978485
2281 0.06672696076633264
2282 0.0667272717474285
2283 0.06672757212622923
2284 0.06672729730176134
2285 0.06672724787566785
2286 0.06672747622385117
2287 0.06672765565893019
2288 0.06672743563169621
2289 0.06672731194554253
2290 0.06672800952741205
2291 0.06672809293327753
2292 0.06672798458704103
2293 0.06672747552926969
2294 0.06672827716593066
2295 0.0667285096154344
2296 0.06672844331211765
2297 0.06672847483914822
2298 0.06672880170416737
2299 0.06672893332600964
2300 0.0667287858369976
2301 0.06672831931325338
2302 0.06672859484454015
2303 0.0667285805470608
2304 0.06672792513144535
2305 0.06672769982930288
2306 0.06672791288108812
2307 0.06672829086511478
2308 0.06672774407095754
2309 0.06672749769410187
2310 0.06672760989984516
2311 0.06672758436236574
2312 0.06672753158792231
2313 0.06672726614425419
2314 0.06672764746155395
2315 0.06672761762039507
2316 0.06672720543069113
2317 0.06672689183507721
2318 0.06672730354788892
2319 0.06672768653548881
2320 0.06672773318764653
2321 0.06672746111763146
2322 0.06672780700506875
2323 0.06672804607804166
2324 0.06672795182731635
2325 0.06672767258066475
2326 0.06672835453192019
2327 0.06672842170423153
2328 0.06672833778431114
2329 0.0667278848101549
2330 0.06672897286214387
2331 0.0667291069187471
2332 0.0667292813465639
2333 0.06672878549606796
2334 0.0667293960102357
2335 0.0667294417957227
2336 0.06672931299719639
2337 0.06672961682201164
2338 0.06672970836871396
2339 0.06673049086786198
2340 0.06672977022713716
2341 0.06672964206640015
2342 0.06672955779410386
2343 0.06673040150684842
2344 0.06672936911681483
2345 0.06672954263731294
2346 0.0667293050397512
2347 0.06672967916596867
2348 0.06672874435555369
2349 0.06672886098746367
2350 0.06672872989759399
2351 0.06672912349495241
2352 0.06672827384815003
2353 0.06672821322552674
2354 0.06672832794785702
2355 0.06672879500414788
2356 0.06672839518775656
2357 0.06672836424056945
2358 0.06672852816081735
2359 0.06672895857002289
2360 0.06672885316978404
2361 0.06672865565169409
2362 0.06672870723039329
2363 0.06672895324464552
2364 0.06672817049297403
2365 0.06672789355637514
2366 0.06672802297302655
2367 0.06672820552273825
2368 0.06672782449088036
2369 0.06672785693675892
2370 0.06672794386589392
2371 0.06672818656091541
2372 0.06672771023168068
2373 0.06672771082172761
2374 0.06672764027112292
2375 0.06672836556262959
2376 0.06672774429022289
2377 0.06672746952573745
2378 0.06672796244865872
2379 0.06672834920915911
2380 0.06672832101098473
2381 0.0667280235065292
2382 0.06672861373189548
2383 0.0667284874396029
2384 0.06672864989170779
2385 0.06672835466249334
2386 0.06672889057856456
2387 0.06672899526189056
2388 0.06672862663961789
2389 0.06672805083627185
2390 0.06672873558377133
2391 0.06672877789691202
2392 0.06672855008439058
2393 0.0667283616360974
2394 0.06672862193050819
2395 0.06672860614844307
2396 0.06672812288014227
2397 0.06672752633830902
2398 0.06672778856049262
2399 0.06672767975552243
2400 0.06672755108463578
2401 0.06672672561211
2402 0.06672728074834701
2403 0.06672767869874292
2404 0.06672736277094492
2405 0.06672766916485579
2406 0.06672752481495044
2407 0.06672798753137009
2408 0.06672757444696684
2409 0.06672755411872155
2410 0.06672807773375126
2411 0.06672825857180133
2412 0.06672779090671735
2413 0.06672732375774629
2414 0.06672763732611792
2415 0.06672805989324129
2416 0.06672774669319534
2417 0.06672777109312507
2418 0.06672813244922117
2419 0.06672846889876874
2420 0.06672825793072612
2421 0.06672824965003669
2422 0.06672839167002562
2423 0.0667292650047171
2424 0.06672849517156113
2425 0.06672869808871749
2426 0.06672857690503099
2427 0.06672930911115693
2428 0.06672841222863252
2429 0.06672836704284947
2430 0.06672816585296658
2431 0.06672846956773873
2432 0.0667277508432669
2433 0.06672784326354053
2434 0.06672739468562147
2435 0.06672841300559752
2436 0.06672704977397119
2437 0.06672719005477518
2438 0.06672682285291855
2439 0.06672753398847125
2440 0.06672669685060943
2441 0.06672689467931127
2442 0.06672675781896294
2443 0.06672718809383836
2444 0.06672670059245554
2445 0.06672678996069431
2446 0.06672697319240124
2447 0.06672752926017403
2448 0.06672714299860175
2449 0.06672709473147753
2450 0.06672773122675253
2451 0.06672808263863982
2452 0.06672813655922005
2453 0.06672786586938384
2454 0.06672872733211377
2455 0.06672883004254193
2456 0.06672895222862879
2457 0.06672860732632901
2458 0.06672926902541951
2459 0.06672962600617631
2460 0.06672962613871054
2461 0.06672889129404268
2462 0.06672981659347221
2463 0.0667296131470908
2464 0.06672950759614099
2465 0.06672908251882986
2466 0.06672962288808715
2467 0.06672935819993382
2468 0.06672936101920308
2469 0.06672884117132713
2470 0.06672934015272913
2471 0.06672929052739125
2472 0.066729233578652
2473 0.0667284363971884
2474 0.06672883992204792
2475 0.06672865856129992
2476 0.06672844035918027
2477 0.06672809033449531
2478 0.06672800848131176
2479 0.06672796723000289
2480 0.06672768143217819
2481 0.06672718538377188
2482 0.06672736500740171
2483 0.06672771779216308
2484 0.06672706408791768
2485 0.06672665059824831
2486 0.06672702167602618
2487 0.06672747712425403
2488 0.06672708647576604
2489 0.06672716164936601
2490 0.06672742678100149
2491 0.066727947872667
2492 0.06672733647476108
2493 0.06672763937736276
2494 0.06672752299754763
2495 0.06672839303887601
2496 0.06672768081323156
2497 0.06672783708412949
2498 0.06672789538165436
2499 0.06672878274128993
2500 0.06672813300505008
2501 0.06672853966963282
2502 0.06672819289835227
2503 0.06672879668767033
2504 0.06672807561024027
2505 0.06672873634807612
2506 0.06672861211812596
2507 0.06672973358716648
2508 0.0667287799563725
2509 0.06672893798033311
2510 0.06672922516936267
2511 0.06672996860417699
2512 0.06672958062512674
2513 0.06672983353603885
2514 0.06672966612771009
2515 0.06673006133013899
2516 0.06672946930939551
2517 0.06672956000501724
2518 0.06672908983042346
2519 0.06672990381728285
2520 0.06672884474943575
2521 0.06672881782365409
2522 0.0667284594081639
2523 0.06672892040157714
2524 0.06672766244157231
2525 0.0667277190407858
2526 0.0667269711774568
2527 0.06672740136472802
2528 0.06672623373425465
2529 0.06672638702232016
2530 0.06672626516837042
2531 0.06672677518998638
2532 0.06672600312628418
2533 0.06672579632844373
2534 0.06672599419944292
2535 0.0667263272472383
2536 0.0667262379521448
2537 0.06672595680611729
2538 0.06672677852189884
2539 0.06672664864944332
2540 0.06672736854216138
2541 0.0667267728905105
2542 0.06672817711896686
2543 0.0667283724601456
2544 0.06672901449331559
2545 0.06672861515850231
2546 0.06672991905446062
2547 0.0667300574917767
2548 0.06673043431599385
2549 0.06673003097287832
2550 0.06673091887172984
2551 0.06673073896698042
2552 0.06673102959658321
2553 0.06673061260164098
2554 0.06673120538635149
2555 0.06673147730060813
2556 0.06673114236130083
2557 0.0667308331706279
2558 0.06673099143864837
2559 0.06673121319478931
2560 0.06673075495083318
2561 0.0667308533186267
2562 0.06673042360738229
2563 0.06673086660197941
2564 0.06672971911509838
2565 0.06672996425708147
2566 0.06672919440359903
2567 0.06673006671844114
2568 0.0667284466427972
2569 0.06672822448248453
2570 0.06672806334339682
2571 0.06672842361064496
2572 0.06672752483357255
2573 0.06672752895457527
2574 0.06672748480475771
2575 0.06672784822007863
2576 0.06672735495428293
2577 0.06672747494773924
2578 0.06672745937954346
2579 0.06672788780165383
2580 0.06672748517030548
2581 0.06672712552147535
2582 0.06672752472783997
2583 0.0667277928940978
2584 0.06672760270174387
2585 0.06672764821495221
2586 0.06672812277659813
2587 0.06672863642552496
2588 0.06672832798927038
2589 0.06672827783835991
2590 0.06672884158445758
2591 0.06672887469544414
2592 0.06672863261776507
2593 0.06672854918868994
2594 0.0667289152515862
2595 0.06672940821437762
2596 0.0667291857243613
2597 0.06672902403063012
2598 0.06672934374520872
2599 0.06672947400013714
2600 0.06672960620529184
2601 0.06672924524097695
2602 0.06672968508094342
2603 0.06672969071934658
2604 0.06672917293845348
2605 0.06672872848312224
2606 0.06672894959853239
2607 0.06672905272714648
2608 0.06672858059594418
2609 0.06672798509391205
2610 0.06672834574112024
2611 0.06672792242994749
2612 0.06672765848051133
2613 0.06672720747578109
2614 0.06672742441992205
2615 0.0667271304300327
2616 0.06672664425047693
2617 0.06672622891964404
2618 0.06672624665375038
2619 0.06672672105513901
2620 0.06672628705899038
2621 0.06672584471015373
2622 0.06672601632152876
2623 0.06672608540133364
2624 0.06672559952029691
2625 0.06672592616704352
2626 0.06672600889683489
2627 0.06672644396827331
2628 0.06672588875009933
2629 0.06672575705015164
2630 0.06672645250985987
2631 0.06672707219734829
2632 0.06672699060828279
2633 0.06672692905248627
2634 0.06672756879422871
2635 0.06672801154285567
2636 0.06672800651143163
2637 0.0667280584054751
2638 0.0667286272049343
2639 0.06672891047401842
2640 0.066729192344317
2641 0.0667284388252245
2642 0.06672939432367493
2643 0.06672922022322715
2644 0.0667293965926857
2645 0.06672883161793587
2646 0.06672941008979658
2647 0.06672944162287558
2648 0.06672953776110521
2649 0.06672938962133849
2650 0.06672986389346976
2651 0.06672975468349071
2652 0.06672906187069648
2653 0.06672848639254238
2654 0.06672858780130547
2655 0.06672897117868686
2656 0.06672821781877833
2657 0.06672813434769505
2658 0.06672774078943525
2659 0.06672800300180812
2660 0.0667273224413639
2661 0.06672740939107365
2662 0.06672724361358684
2663 0.06672763880125471
2664 0.06672705853118614
2665 0.06672708216916411
2666 0.06672711584579882
2667 0.06672806007575138
2668 0.06672718876406245
2669 0.06672751621929712
2670 0.06672764279911796
2671 0.06672839162781283
2672 0.06672802579619336
2673 0.0667285703247391
2674 0.06672864775914589
2675 0.06672948817204076
2676 0.06672911566025792
2677 0.06672902991498873
2678 0.06672925421250792
2679 0.06672998942138673
2680 0.06672969262687752
2681 0.06672933460823503
2682 0.066729542869291
2683 0.06672979439659751
2684 0.06672928326986023
2685 0.06672904941304673
2686 0.06672904759776248
2687 0.06672955627206573
2688 0.0667289515447456
2689 0.0667284925800528
2690 0.06672898278903008
2691 0.06672888694764688
2692 0.0667287508367624
2693 0.06672797705203461
2694 0.06672832965598911
2695 0.06672815295490549
2696 0.06672820048448526
2697 0.0667275571611365
2698 0.06672830081997463
2699 0.06672827210906124
2700 0.06672814542160965
2701 0.06672775930978289
2702 0.06672830674184768
2703 0.06672838450280698
2704 0.06672840574496158
2705 0.06672811971631239
2706 0.06672840015869111
2707 0.06672868306817631
2708 0.06672836618099955
2709 0.06672786499443815
2710 0.06672847208997269
2711 0.06672860901761735
2712 0.06672846416603592
2713 0.06672829396408846
2714 0.06672855450733438
2715 0.0667292950917714
2716 0.06672868034796441
2717 0.06672889671721249
2718 0.06672891180526447
2719 0.06672972442666013
2720 0.06672930554948582
2721 0.06672945719994051
2722 0.06672942000560819
2723 0.06673001481819037
2724 0.0667290745890556
2725 0.06672929626057297
2726 0.06672911904254251
2727 0.06672988951673176
2728 0.06672893302204917
2729 0.0667289988289126
2730 0.06672878218550705
2731 0.06672954162180728
2732 0.06672866382461835
2733 0.06672875107879601
2734 0.06672841170364917
2735 0.06672906532020649
2736 0.06672813170328817
2737 0.06672818783370722
2738 0.06672813368255452
2739 0.06672851590307502
2740 0.06672807250146058
2741 0.06672761265592472
2742 0.06672767674012021
2743 0.06672764305407895
2744 0.06672713266848199
2745 0.06672682615357516
2746 0.06672726406357134
2747 0.06672714867709788
2748 0.06672679719029651
2749 0.0667261398031779
2750 0.06672682262198155
2751 0.06672676650265724
2752 0.06672669558708909
2753 0.06672627876253431
2754 0.06672666528860134
2755 0.06672710676410483
2756 0.06672687863039389
2757 0.06672712769348771
2758 0.06672718332199681
2759 0.06672782796076461
2760 0.0667278051439998
2761 0.0667279747689089
2762 0.06672859230648968
2763 0.06672915555447323
2764 0.06672905193176248
2765 0.06672917145075918
2766 0.06672970880120177
2767 0.06673032780919694
2768 0.06673031266891953
2769 0.06673007058490529
2770 0.06673065342400661
2771 0.06673051355191376
2772 0.06673021603585465
2773 0.06672963677180925
2774 0.06672986581605878
2775 0.06672984237055885
2776 0.06672923178274984
2777 0.06672873059582604
2778 0.06672884622836125
2779 0.06672883729607341
2780 0.06672855293646188
2781 0.06672786322015264
2782 0.06672784810479405
2783 0.06672771545322205
2784 0.06672698174622299
2785 0.06672700624240877
2786 0.06672674169797442
2787 0.06672731654221402
2788 0.06672646196962712
2789 0.06672632728866082
2790 0.06672630261747542
2791 0.06672663395920585
2792 0.06672616671826756
2793 0.06672596145397067
2794 0.06672621854045344
2795 0.06672705416329493
2796 0.06672646783262756
2797 0.06672683705453412
2798 0.06672713823233047
2799 0.06672806370096186
2800 0.0667281349311058
2801 0.06672827174358742
2802 0.06672914146485918
2803 0.06672961896899822
2804 0.06672960396577947
2805 0.06672948449128908
2806 0.06672998706206006
2807 0.06673035814346287
2808 0.06673032338092377
2809 0.06673023909306225
2810 0.06673103120282016
2811 0.06673078731865219
2812 0.06673097200212225
2813 0.06672997294439846
2814 0.06673048766799068
2815 0.06673019210326736
2816 0.06673014033277387
2817 0.06672936581484328
2818 0.06672954248794633
2819 0.06672921476484107
2820 0.06672897495049403
2821 0.06672813463798284
2822 0.06672830793434391
2823 0.06672812489840459
2824 0.06672740708976536
2825 0.06672701217444459
2826 0.06672699205848058
2827 0.0667275257043997
2828 0.06672646545749264
2829 0.06672641031260471
2830 0.06672646788014194
2831 0.06672686335248038
2832 0.06672597188983781
2833 0.06672585327524203
2834 0.06672592493397998
2835 0.06672635559486018
2836 0.06672583871089924
2837 0.06672575366548567
2838 0.06672574652356676
2839 0.06672631656976701
2840 0.06672613651736724
2841 0.06672625061981641
2842 0.06672668128502726
2843 0.06672720230670788
2844 0.06672690773539927
2845 0.06672734995496653
2846 0.06672764706338684
2847 0.06672835088146861
2848 0.06672802142913707
2849 0.06672839609887418
2850 0.06672866222669888
2851 0.06672940422620788
2852 0.06672919687572494
2853 0.06672916451014856
2854 0.06672963860799985
2855 0.06673023212701426
2856 0.06673015945074157
2857 0.06673004712081361
2858 0.06673090524744674
2859 0.06673106645122864
2860 0.06673118626539591
2861 0.06673045823499119
2862 0.06673094672257539
2863 0.06673048582073805
2864 0.06673052835290755
2865 0.06672984547186485
2866 0.06673035206152549
2867 0.06672973700373154
2868 0.06672943788677807
2869 0.06672862925118744
2870 0.06672886390920714
2871 0.06672854073020183
2872 0.06672803445263691
2873 0.06672736021584787
2874 0.06672733145709393
2875 0.06672720683695134
2876 0.06672668402985142
2877 0.06672606877310695
2878 0.06672615555188562
2879 0.06672629055221606
2880 0.0667258731374014
2881 0.0667257176019683
2882 0.06672599932327529
2883 0.06672641859781023
2884 0.06672613083871122
2885 0.06672616153177127
2886 0.06672654608293903
2887 0.0667273049453859
2888 0.06672709282527689
2889 0.06672726638749948
2890 0.0667278681030738
2891 0.06672867552950759
2892 0.06672831397858586
2893 0.06672854155617589
2894 0.06672895045476082
2895 0.06672960061095662
2896 0.06672944176994226
2897 0.06672959262196336
2898 0.06672971869527015
2899 0.06673022986728036
2900 0.06673035399239109
2901 0.06672992008718862
2902 0.0667300970799492
2903 0.06673002375015859
2904 0.06672975733544267
2905 0.06672945611566371
2906 0.06672983549980871
2907 0.0667302367983163
2908 0.0667298089159073
2909 0.06672926933791086
2910 0.06672967165921299
2911 0.06672960914532525
2912 0.06672913879204648
2913 0.06672882140592973
2914 0.0667288438870377
2915 0.0667290190506549
2916 0.0667281047814853
2917 0.06672793573073628
2918 0.06672769815315084
2919 0.06672772092923093
2920 0.06672744056479239
2921 0.06672703533932552
2922 0.0667271074753485
2923 0.06672747043841719
2924 0.06672677090232029
2925 0.0667271119602636
2926 0.06672667523156633
2927 0.0667277613314672
2928 0.06672667890433205
2929 0.06672734376146983
2930 0.06672721896696394
2931 0.06672798852594578
2932 0.06672735523778074
2933 0.06672747199009041
2934 0.06672744803972817
2935 0.06672821210135418
2936 0.06672770806596552
2937 0.06672795115752372
2938 0.06672808450012814
2939 0.06672868201166517
2940 0.06672825733103203
2941 0.0667280335515518
2942 0.06672826991299004
2943 0.06672863724562746
2944 0.06672820432862932
2945 0.06672829656256947
2946 0.06672842682057077
2947 0.06672880347956281
2948 0.06672828010168687
2949 0.0667281169504179
2950 0.06672844925311092
2951 0.06672852338867774
2952 0.06672840029817846
2953 0.06672809178861079
2954 0.06672871741024224
2955 0.06672913063032528
2956 0.06672893471467689
2957 0.06672852887439888
2958 0.06672876618198847
2959 0.06672893877385158
2960 0.06672889612188135
2961 0.06672822913675515
2962 0.06672855938861891
2963 0.0667285065730502
2964 0.06672798969894499
2965 0.06672777279382763
2966 0.06672770612826132
2967 0.06672813526953641
2968 0.06672732139930113
2969 0.06672732476334872
2970 0.06672730531946013
2971 0.0667278135345135
2972 0.06672708391697695
2973 0.06672726057212343
2974 0.06672723150292222
2975 0.06672807540457316
2976 0.06672720575507757
2977 0.06672770108653893
2978 0.06672760381280628
2979 0.06672866202041235
2980 0.06672805041210562
2981 0.06672824153844602
2982 0.06672836118949885
2983 0.06672894889572327
2984 0.06672882177756334
2985 0.06672917949660116
2986 0.06672940519470805
2987 0.06673031692224371
2988 0.06672963195124537
2989 0.06672991496397231
2990 0.06673005421139019
2991 0.0667303679700063
2992 0.06672986455759626
2993 0.06672948227849365
2994 0.06672940635505605
2995 0.06672953167306235
2996 0.06672888142376784
2997 0.06672842376761322
2998 0.06672857890042048
2999 0.06672877690615778
3000 0.06672844981767774
3001 0.06672819677731137
3002 0.06672858859288967
3003 0.0667286007243392
3004 0.06672838035356835
3005 0.06672778900316871
3006 0.06672796026477033
3007 0.06672841798093543
3008 0.06672801115174086
3009 0.06672833279544411
3010 0.06672859612069236
3011 0.06672895418159261
3012 0.06672843195087855
3013 0.06672838921383892
3014 0.06672855586030771
3015 0.06672935462433875
3016 0.06672892254271205
3017 0.06672902930869809
3018 0.06672917927243067
3019 0.06672981073203089
3020 0.06672951984028407
3021 0.06672944920270338
3022 0.06672979220341475
3023 0.0667300229349622
3024 0.06672952651169843
3025 0.06672937006728488
3026 0.06672976914553688
3027 0.06673033442478368
3028 0.06672981302206929
3029 0.06672945629866017
3030 0.06672968343135809
3031 0.06672960169508008
3032 0.06672940423174571
3033 0.06672932090468596
3034 0.06672942300611399
3035 0.06672964763399096
3036 0.06672897663852016
3037 0.06672841699784891
3038 0.06672849730361699
3039 0.06672877709559578
3040 0.06672839759610519
3041 0.06672785674219418
3042 0.06672808020349244
3043 0.0667277596945372
3044 0.06672746094579492
3045 0.0667272200106256
3046 0.0667273748367091
3047 0.0667276726415227
3048 0.06672742230930248
3049 0.06672719143034858
3050 0.06672794661011995
3051 0.06672821392115372
3052 0.06672797773062944
3053 0.06672756951956407
3054 0.06672811863659421
3055 0.06672811963062655
3056 0.06672794790427306
3057 0.06672776874883639
3058 0.06672820803213463
3059 0.06672827125902778
3060 0.06672818094551601
3061 0.066727552513315
3062 0.0667280544140272
3063 0.06672845401759153
3064 0.06672825026925124
3065 0.06672814360678654
3066 0.06672807401045658
3067 0.06672860466293661
3068 0.06672796656041866
3069 0.06672831896751573
3070 0.06672817543927692
3071 0.06672883852637013
3072 0.06672781240835327
3073 0.066728080885766
3074 0.06672794223457673
3075 0.06672918251777073
3076 0.06672830453436354
3077 0.06672847691612932
3078 0.06672828157976526
3079 0.06672896090490331
3080 0.06672874400283765
3081 0.06672879192275474
3082 0.06672929589536616
3083 0.06672929440667796
3084 0.0667291464635862
3085 0.06672829717689389
3086 0.06672893253339064
3087 0.06672882347344873
3088 0.06672901699756008
3089 0.06672812365663872
3090 0.06672900500250235
3091 0.06672827981512273
3092 0.06672840654782232
3093 0.06672742284706389
3094 0.06672829745177911
3095 0.06672787042315936
3096 0.06672795317847194
3097 0.06672707679562769
3098 0.06672780203892648
3099 0.06672775004953886
3100 0.0667278902247451
3101 0.06672684512347007
3102 0.06672747899143151
3103 0.06672723881150515
3104 0.06672730372867311
3105 0.06672717872257659
3106 0.06672772956254881
3107 0.06672786545771921
3108 0.06672762487521704
3109 0.06672719227961821
3110 0.06672800399387427
3111 0.06672847920292711
3112 0.06672864566378395
3113 0.06672840901265394
3114 0.06672888442506121
3115 0.06672916121083013
3116 0.06672916221508
3117 0.06672910603893648
3118 0.06672931093036776
3119 0.0667292252648501
3120 0.06672918467316914
3121 0.06672878540319285
3122 0.06672911675939606
3123 0.06672954836874259
3124 0.06672898036741851
3125 0.06672890896469054
3126 0.06672877856740159
3127 0.06672920725528891
3128 0.06672847641507411
3129 0.06672854488944223
3130 0.06672838298705458
3131 0.06672886147804515
3132 0.06672793261416123
3133 0.0667276837121594
3134 0.066727656055853
3135 0.06672851087050949
3136 0.06672790546335979
3137 0.06672794389639265
3138 0.06672809791328291
3139 0.06672824523414646
3140 0.06672801871731733
3141 0.06672790403999326
3142 0.06672802846799487
3143 0.0667281552390797
3144 0.06672751882150285
3145 0.06672749281889484
3146 0.06672780202634647
3147 0.06672835757980758
3148 0.06672743405088395
3149 0.066727290644694
3150 0.0667272453070938
3151 0.0667273777494478
3152 0.06672691771598868
3153 0.06672677065359493
3154 0.06672670297593836
3155 0.06672707509951735
3156 0.06672655897561218
3157 0.06672636405328057
3158 0.06672660672580438
3159 0.06672746101637805
3160 0.06672711147492051
3161 0.0667270288529291
3162 0.06672714594485465
3163 0.06672761757831042
3164 0.0667270821961642
3165 0.06672774697862924
3166 0.06672775433032135
3167 0.06672873492925338
3168 0.06672774712533563
3169 0.06672819063415678
3170 0.06672832066001384
3171 0.06672901226231263
3172 0.06672836185744416
3173 0.06672826610663651
3174 0.06672824810285852
3175 0.06672873560888815
3176 0.06672848998847454
3177 0.06672875423964258
3178 0.06672897857071955
3179 0.06672931304962311
3180 0.06672923987671853
3181 0.06672877836563391
3182 0.06672921851369185
3183 0.06672935331011859
3184 0.06672902641968441
3185 0.06672872658005698
3186 0.06672906594040656
3187 0.06672896667310943
3188 0.06672879010537638
3189 0.06672831365434453
3190 0.0667286438143303
3191 0.06672854079205652
3192 0.06672816466103539
3193 0.06672754379327797
3194 0.06672805063177871
3195 0.06672792638843388
3196 0.06672743277925565
3197 0.06672693476719356
3198 0.06672701353610985
3199 0.06672682444580932
3200 0.06672674429479306
3201 0.06672671973362196
3202 0.06672685490189008
3203 0.06672724540941902
3204 0.06672659702622528
3205 0.06672699836847594
3206 0.06672689113946421
3207 0.06672807643425195
3208 0.06672721603728367
3209 0.06672768672811
3210 0.06672764852963817
3211 0.06672841316000476
3212 0.06672756134945655
3213 0.06672816220589212
3214 0.06672789805137987
3215 0.06672875505896263
3216 0.06672810394881068
3217 0.06672861319328234
3218 0.06672866189456229
3219 0.06672959012238781
3220 0.06672890010595661
3221 0.06672893843496677
3222 0.06672883980637435
3223 0.06672948505365071
3224 0.06672880999064273
3225 0.0667295235973082
3226 0.06672928097067531
3227 0.06673040769252217
3228 0.06672924330984321
3229 0.06672957240882005
3230 0.06672959528487434
3231 0.0667304345992687
3232 0.0667295513084598
3233 0.06672978270247391
3234 0.06672932710586252
3235 0.0667298919266662
3236 0.06672914726318779
3237 0.06672941012870238
3238 0.06672908072175836
3239 0.06672941473463359
3240 0.06672874526894383
3241 0.0667282288502144
3242 0.06672839646875521
3243 0.06672841912921608
3244 0.06672796059000576
3245 0.06672734184445588
3246 0.0667273686414383
3247 0.06672728648112197
3248 0.06672692036046818
3249 0.06672653250814045
3250 0.06672699504150716
3251 0.06672694594274406
3252 0.06672664274625806
3253 0.06672620231250703
3254 0.06672650422383258
3255 0.06672722471098601
3256 0.06672708059234379
3257 0.06672701894488386
3258 0.06672737047560343
3259 0.06672766041501291
3260 0.06672780495649117
3261 0.06672776425826683
3262 0.06672849293843715
3263 0.06672884257147176
3264 0.06672868095622789
3265 0.06672876755350622
3266 0.066729387957039
3267 0.06673011783500496
3268 0.06673005791704446
3269 0.0667298012926935
3270 0.06673051678928278
3271 0.06673045430630938
3272 0.06673074105330218
3273 0.06673027823166004
3274 0.06673078358376555
3275 0.06673070150626147
3276 0.06673022809096371
3277 0.06672960809984262
3278 0.0667295004576795
3279 0.0667297390453308
3280 0.0667291689810746
3281 0.06672836664101175
3282 0.06672822727865982
3283 0.06672796368945454
3284 0.06672728414382438
3285 0.06672727323794189
3286 0.0667268257693607
3287 0.06672714390976756
3288 0.06672634547034399
3289 0.06672645067604412
3290 0.06672636648272021
3291 0.06672713225818251
3292 0.06672623561125801
3293 0.066726373370947
3294 0.06672598199186974
3295 0.06672676335412554
3296 0.06672606733253833
3297 0.06672653596114311
3298 0.06672626305359218
3299 0.06672714643600909
3300 0.06672662254206344
3301 0.06672685412886768
3302 0.06672730603150268
3303 0.06672800632655529
3304 0.06672780657917415
3305 0.06672795120125996
3306 0.06672837712361909
3307 0.06672878016311395
3308 0.06672854822044766
3309 0.06672852046224528
3310 0.06672932442744337
3311 0.0667294400504321
3312 0.0667293022618658
3313 0.06672909213399544
3314 0.06672952021982649
3315 0.06672988706767348
3316 0.06672969409955512
3317 0.06672937620206242
3318 0.06672968226656187
3319 0.06672982771770256
3320 0.06672971849594421
3321 0.06672960231183638
3322 0.06672958518849499
3323 0.06672977132997945
3324 0.06672902809053996
3325 0.06672863092359124
3326 0.06672880866598804
3327 0.06672918040732184
3328 0.06672845071418158
3329 0.06672817711123719
3330 0.06672845916822734
3331 0.06672844431627446
3332 0.06672810946062213
3333 0.06672793087143732
3334 0.06672815178609653
3335 0.06672815397817186
3336 0.06672783058922889
3337 0.06672734311270886
3338 0.06672802353430071
3339 0.06672800215641865
3340 0.06672817591612221
3341 0.06672725691971583
3342 0.06672797027976077
3343 0.06672756243377044
3344 0.06672768961884476
3345 0.0667274343806851
3346 0.06672792369161445
3347 0.06672797846950486
3348 0.06672744231301787
3349 0.06672707332709903
3350 0.06672751458602699
3351 0.0667279261523412
3352 0.0667276393314625
3353 0.06672757916804403
3354 0.06672797137741274
3355 0.06672847689028326
3356 0.06672831318830945
3357 0.06672876241499241
3358 0.06672901840379711
3359 0.06672979760406292
3360 0.06672944132409564
3361 0.06672945215510957
3362 0.06673005692587841
3363 0.06673053173103417
3364 0.06673016392803217
3365 0.0667298229142137
3366 0.06672994180589346
3367 0.06673023000357411
3368 0.06672983986550543
3369 0.06672972582916308
3370 0.06672992015556854
3371 0.06673017159364072
3372 0.06672933061514033
3373 0.06672896484023626
3374 0.0667286425644688
3375 0.06672900899769524
3376 0.06672827899276219
3377 0.0667284530713098
3378 0.0667282445818493
3379 0.06672867490442143
3380 0.06672805512649216
3381 0.0667279144503788
3382 0.06672779844283207
3383 0.06672789187750686
3384 0.06672736642417613
3385 0.06672726035548858
3386 0.06672773629718023
3387 0.06672835280838518
3388 0.06672795425981647
3389 0.06672789678961571
3390 0.06672839988754209
3391 0.06672895681983679
3392 0.06672863261111037
3393 0.0667289406736616
3394 0.06672904521061414
3395 0.06672960540480879
3396 0.06672902295753604
3397 0.06672879746920578
3398 0.06672920230449121
3399 0.06672966563377475
3400 0.06672950698640083
3401 0.06672902773869482
3402 0.06672944790426372
3403 0.06672964163400034
3404 0.06672934693809079
3405 0.0667294057007146
3406 0.06672943467654993
3407 0.066729669516398
3408 0.06672912367599422
3409 0.06672889384257005
3410 0.06672911408446418
3411 0.06672936018749911
3412 0.0667291803106906
3413 0.06672844321159173
3414 0.0667290047488427
3415 0.06672876416811711
3416 0.06672869812193814
3417 0.06672829185812071
3418 0.06672867969499079
3419 0.06672848706685949
3420 0.06672863100423645
3421 0.06672787366981082
3422 0.06672874273389594
3423 0.06672886659565019
3424 0.06672860793221731
3425 0.06672844150261423
3426 0.06672887088011439
3427 0.06672893421118858
3428 0.06672878111158877
3429 0.06672874383163252
3430 0.06672896666928664
3431 0.06672931935980157
3432 0.06672902329434344
3433 0.06672903015783899
3434 0.06672919777019838
3435 0.06672989949067487
3436 0.0667293878021377
3437 0.06672929833398071
3438 0.06672945719560348
3439 0.06672972726209471
3440 0.06672955746384743
3441 0.06672950922253615
3442 0.06672977845795167
3443 0.06673023005376873
3444 0.06672941132604636
3445 0.06672951557097255
3446 0.06672956015995393
3447 0.06673028557062131
3448 0.06672944239533832
3449 0.06672948309790845
3450 0.06672944596107923
3451 0.06672972339041121
3452 0.06672896329459301
3453 0.06672892645091896
3454 0.06672858763693561
3455 0.0667288367314742
3456 0.0667281251655085
3457 0.06672797796118572
3458 0.06672786824571512
3459 0.06672845304331414
3460 0.06672787025113332
3461 0.06672757013997536
3462 0.06672745663417053
3463 0.06672770740322143
3464 0.06672694867291204
3465 0.06672733989607441
3466 0.06672731417895841
3467 0.06672777813896945
3468 0.0667269543042153
3469 0.06672668471711649
3470 0.06672719356529787
3471 0.0667273260092497
3472 0.06672695090031974
3473 0.06672682206094237
3474 0.06672706240445017
3475 0.06672735708278014
3476 0.06672729361871819
3477 0.06672755776629605
3478 0.06672781876784865
3479 0.06672845748282694
3480 0.0667285246798503
3481 0.06672813395260631
3482 0.06672886524725614
3483 0.06672927275657488
3484 0.06672925424339954
3485 0.06672894386523651
3486 0.0667294340221956
3487 0.06672959406573252
3488 0.06672924188849953
3489 0.0667293503014318
3490 0.0667296121173528
3491 0.0667298604605417
3492 0.06672935219857153
3493 0.06672889873014759
3494 0.06672894594823105
3495 0.06672959696713261
3496 0.06672878393302567
3497 0.06672868150105644
3498 0.06672813082691108
3499 0.06672856252065827
3500 0.06672766053957176
3501 0.06672757890709295
3502 0.06672715600014632
3503 0.06672748017710199
3504 0.06672624667877333
3505 0.06672635253596608
3506 0.06672588225509472
3507 0.06672664736074344
3508 0.06672563290165358
3509 0.06672586795866935
3510 0.06672579859400789
3511 0.06672625274270122
3512 0.06672572263422308
3513 0.06672637937183974
3514 0.06672635920879345
3515 0.0667273344757013
3516 0.06672682680328534
3517 0.06672743469647613
3518 0.06672780739548599
3519 0.06672913570659268
3520 0.06672882816861785
3521 0.06672919639469391
3522 0.06672951026678592
3523 0.06673017269630398
3524 0.06672976647415825
3525 0.06673036717195818
3526 0.06673033781305437
3527 0.06673099668113569
3528 0.06673027208836248
3529 0.06673046989313812
3530 0.0667307654226091
3531 0.06673141581968564
3532 0.06673069244487516
3533 0.06673067209017715
3534 0.0667304165299045
3535 0.06673064828188303
3536 0.06673014907008516
3537 0.06673026007981046
3538 0.06672997125729324
3539 0.06673020384861408
3540 0.06672950728876752
3541 0.06672888329620034
3542 0.06672906259428885
3543 0.06672924750212535
3544 0.06672887222534137
3545 0.06672824817505126
3546 0.06672856755259683
3547 0.06672835651715066
3548 0.06672834507662828
3549 0.06672798335429141
3550 0.06672852512664119
3551 0.06672820823562507
3552 0.06672805943946303
3553 0.06672731894077162
3554 0.06672785290277851
3555 0.06672798775946534
3556 0.06672783935440384
3557 0.06672769512246952
3558 0.06672806807313954
3559 0.0667282271640952
3560 0.0667283139166874
3561 0.06672811145768613
3562 0.06672849708543917
3563 0.06672897257594607
3564 0.06672857025969298
3565 0.06672874316016218
