"cy-rfile"
"Iteration" "cy"
("Iteration" "cy")
1 11.38147950380281
2 11.16001824057989
3 10.31249828795237
4 9.34543833101
5 8.138958212473684
6 6.924916948990514
7 5.765409984900137
8 4.932348662583617
9 4.131545176078012
10 3.459693872402948
11 2.83236122973155
12 2.293377285958169
13 1.900695747721619
14 1.639593689974752
15 1.489932721243649
16 1.443516373146017
17 1.47444139013039
18 1.56616972657825
19 1.681824101677401
20 1.853676333045966
21 2.021464674591169
22 2.201497198630493
23 2.409244714810018
24 2.602152523021019
25 2.79663752534805
26 2.954451237902787
27 3.087102913362845
28 3.187426983561003
29 3.268082558884682
30 3.322095976619183
31 3.364069119960095
32 3.391068070160398
33 3.412994787468686
34 3.428942162733335
35 3.441906090131941
36 3.451205809863411
37 3.461582706295068
38 3.471083835231584
39 3.479872505603253
40 3.489474653061738
41 3.498801285076152
42 3.507654548123437
43 3.514442450031952
44 3.520307249247436
45 3.526024733432254
46 3.530952396513269
47 3.536688978555107
48 3.542565403514399
49 3.548005234832092
50 3.554422166637408
51 3.561325574160493
52 3.567335792630775
53 3.576296729281657
54 3.583221107543908
55 3.592931249446617
56 3.602151231534278
57 3.611184455033275
58 3.619450650573854
59 3.628463319775938
60 3.634558794586105
61 3.640236306585134
62 3.645106149406339
63 3.649233078144808
64 3.652745458013135
65 3.655015820793027
66 3.657749423840921
67 3.659477554782164
68 3.661140119931807
69 3.662538115543176
70 3.663576690312636
71 3.66452822359535
72 3.665207243774142
73 3.665647471435505
74 3.665739591362685
75 3.665637724251966
76 3.665050767433797
77 3.664239555621728
78 3.662993247159874
79 3.661596463942528
80 3.659751110105109
81 3.65776377175859
82 3.655416423965077
83 3.653000522867789
84 3.650276109479997
85 3.647429433490181
86 3.644329797869174
87 3.641114497495924
88 3.637539079743076
89 3.633893987734199
90 3.629978148164589
91 3.626058421319522
92 3.623203942493327
93 3.618831353967123
94 3.614247637284134
95 3.60954365914717
96 3.604477487992779
97 3.599535033460622
98 3.594222470263054
99 3.589070543809257
100 3.583807446020028
101 3.578686462395342
102 3.573434396987782
103 3.568247167446145
104 3.563011717938918
105 3.558068721203938
106 3.553032840496269
107 3.548320636976781
108 3.543614803489844
109 3.539285990128163
110 3.535039861726929
111 3.531161486546176
112 3.527429959291556
113 3.5240924425433
114 3.52099747021094
115 3.518296962104327
116 3.515744818948846
117 3.513690724941341
118 3.511846784291375
119 3.510395390253403
120 3.509135693539915
121 3.50841008690238
122 3.507761128260714
123 3.507800034715822
124 3.507935958719987
125 3.508231917663511
126 3.508825716478111
127 3.509819518753161
128 3.510930374397513
129 3.512458368530022
130 3.514045211842872
131 3.515941315317002
132 3.517868676969929
133 3.520162454644252
134 3.522631619112509
135 3.525413672185898
136 3.528126912152942
137 3.531017719342876
138 3.533997614893533
139 3.537601993433537
140 3.540942183839139
141 3.544820800358556
142 3.548680097302119
143 3.552789627201475
144 3.556861617132288
145 3.561258842300103
146 3.565609910324082
147 3.570234050021446
148 3.576317450935818
149 3.581040645156699
150 3.585792531146865
151 3.592217756883672
152 3.597074060363847
153 3.603579801862187
154 3.608399587467554
155 3.615182988931415
156 3.621603518274755
157 3.627996352355954
158 3.634286192998936
159 3.640706577172805
160 3.646839799781231
161 3.653039977870864
162 3.659298556804489
163 3.665770379664917
164 3.671651840478317
165 3.677822797736392
166 3.684130245731153
167 3.690661369014403
168 3.697445705164498
169 3.704270539075234
170 3.711255025754211
171 3.717913245140985
172 3.724827496986408
173 3.7316468962574
174 3.740387559324451
175 3.747573602096709
176 3.754927633889477
177 3.764328947927778
178 3.771690192421572
179 3.779364226235489
180 3.788772624323871
181 3.796368347657895
182 3.805957136218802
183 3.814118567188237
184 3.823581674728656
185 3.831787988360251
186 3.84170138089811
187 3.849792354024423
188 3.85970217365762
189 3.867963129565887
190 3.878118054159509
191 3.886500541776211
192 3.897053519565916
193 3.905224574332201
194 3.915206247270632
195 3.92316935137105
196 3.93289427189095
197 3.940735075384806
198 3.949977534292454
199 3.957882244665735
200 3.966686601440457
201 3.97368428419947
202 3.981805628686248
203 3.988303804114622
204 3.995509105344298
205 4.001025816206719
206 4.007356618150544
207 4.012203829899625
208 4.018046669955916
209 4.022229532603022
210 4.025520551177333
211 4.028688556808444
212 4.030903150544474
213 4.032642004408725
214 4.033845377494042
215 4.034134195969878
216 4.033693064853741
217 4.032529565771617
218 4.030267578159171
219 4.027323822805535
220 4.023526231820589
221 4.01867814742618
222 4.013085867943055
223 4.008211727136825
224 4.00042669099888
225 3.991671975410256
226 3.984368146863958
227 3.973122347796231
228 3.961047274208454
229 3.948167426846206
230 3.934338898269297
231 3.919857337452823
232 3.904552146429465
233 3.888440299734863
234 3.871608868137464
235 3.85394180472062
236 3.835692990123509
237 3.816328337596522
238 3.791906935634801
239 3.772112914877573
240 3.74746514933449
241 3.727624833137822
242 3.702632225798305
243 3.682792676722081
244 3.657539172069707
245 3.633256190283742
246 3.613660213117521
247 3.588633820246343
248 3.564555088451967
249 3.54502101544551
250 3.520793650182137
251 3.497293608282501
252 3.4740055250418
253 3.455750612697686
254 3.433074685407874
255 3.411000584848509
256 3.393556314736885
257 3.372276696740736
258 3.355411759521645
259 3.33490687707787
260 3.318826476320408
261 3.299780038276744
262 3.284937712061283
263 3.267201586378143
264 3.253691188307549
265 3.240627907256041
266 3.22821681727781
267 3.216188060878366
268 3.204656395994847
269 3.193969500394678
270 3.183794224709128
271 3.17478151044357
272 3.168582975894131
273 3.160788132437713
274 3.155543128000101
275 3.149606916834796
276 3.145649429239658
277 3.141978010563704
278 3.1388811202375
279 3.136213429541621
280 3.13420286109864
281 3.132770707107593
282 3.132012169767252
283 3.131854120578725
284 3.132070588786132
285 3.132921103692354
286 3.133997926217902
287 3.135826201519498
288 3.138181673476784
289 3.140699657197767
290 3.143460073704127
291 3.146519094884629
292 3.149722028648654
293 3.152946825617136
294 3.155999939654896
295 3.159221046263454
296 3.162086257205985
297 3.16452064798816
298 3.166447871615649
299 3.167821046201758
300 3.168644304585051
301 3.168791871984392
302 3.168088668150981
303 3.166602195350648
304 3.16409144153383
305 3.160894802481948
306 3.156410202230771
307 3.1513361847331
308 3.144735838033916
309 3.137674600835451
310 3.129416218304661
311 3.120079325232862
312 3.109738687461383
313 3.098302881853674
314 3.085744653714212
315 3.072536290021721
316 3.05848794097907
317 3.04391499105579
318 3.028351449667124
319 3.01238789957368
320 2.995892555224345
321 2.97883057944406
322 2.961775856216297
323 2.939173895522007
324 2.922794849407134
325 2.900821367682675
326 2.884911631161264
327 2.864897016403078
328 2.85005429751565
329 2.831529073186243
330 2.814282864768882
331 2.802026894199334
332 2.786316208808775
333 2.775397980120552
334 2.761774126871285
335 2.752535785590804
336 2.741004249655099
337 2.730750635179323
338 2.723871873791552
339 2.715731638003925
340 2.710530833098163
341 2.70465990513056
342 2.701189333656751
343 2.697635752355962
344 2.695676565364087
345 2.694481408610922
346 2.693860542205134
347 2.694387845198471
348 2.69555822588567
349 2.697642070090963
350 2.700349367680538
351 2.703978523190151
352 2.708292134310823
353 2.713293468262056
354 2.718852877071849
355 2.725200183004476
356 2.7321967469503
357 2.739666230763965
358 2.747782858225186
359 2.75655475164908
360 2.765604455994937
361 2.774950396304605
362 2.784736801687892
363 2.794708457499853
364 2.804674367978577
365 2.814899851995548
366 2.825049440635236
367 2.838299664693849
368 2.84778006707581
369 2.859840383128982
370 2.868052713153344
371 2.878178002584959
372 2.88510176164103
373 2.893142817135989
374 2.89838268098358
375 2.904400382240342
376 2.907747790513421
377 2.911008872701579
378 2.912546720698985
379 2.913420764940884
380 2.912923307044948
381 2.911603164799951
382 2.908626113490572
383 2.905680333078984
384 2.901858115391439
385 2.897512707969303
386 2.892228917180907
387 2.886373372314501
388 2.879931582913871
389 2.873173949731203
390 2.866080091980448
391 2.858570543619555
392 2.850769571121654
393 2.843008379539973
394 2.834831889634416
395 2.826791595449337
396 2.818933636060868
397 2.811270331172539
398 2.803838648597406
399 2.796628217674408
400 2.789865589639219
401 2.783496583942083
402 2.777676231370488
403 2.772299599720552
404 2.767560336250539
405 2.763488284958728
406 2.759958196659338
407 2.757104465198448
408 2.754872733499754
409 2.753451182634996
410 2.752633984374018
411 2.752487259704145
412 2.752977060653891
413 2.754136673645603
414 2.755881743175099
415 2.758372808916095
416 2.761460860471274
417 2.765155073512167
418 2.767943317711431
419 2.772795906882813
420 2.776301844778648
421 2.782199789395968
422 2.786297329528217
423 2.792986210427769
424 2.797642350122823
425 2.805147473697781
426 2.810297305141925
427 2.818437208722144
428 2.826478589380992
429 2.834739696331499
430 2.842861800910654
431 2.850939808116149
432 2.858901406564211
433 2.866627039478582
434 2.874159063275428
435 2.881461978510365
436 2.888516029648785
437 2.89519339081954
438 2.901478767023774
439 2.907415815131485
440 2.912898766544915
441 2.918076445080036
442 2.922820456772086
443 2.927036820252057
444 2.930743189227189
445 2.934013337926563
446 2.936709539076626
447 2.938996548194909
448 2.940865751426121
449 2.942305854807871
450 2.943162583179789
451 2.943786468696117
452 2.943971304282072
453 2.943778175032618
454 2.943329126358469
455 2.942612425997074
456 2.941616704974686
457 2.940833932328515
458 2.939542278487412
459 2.938564084723283
460 2.936927617690338
461 2.935973945847542
462 2.934378225388236
463 2.933415346885465
464 2.931961168812051
465 2.930961303929421
466 2.929986289587373
467 2.9288743764434
468 2.928092919331743
469 2.927157241442423
470 2.926718082799188
471 2.926363887479816
472 2.926232589332239
473 2.926362148111548
474 2.926496573024779
475 2.927169059941898
476 2.92771762137062
477 2.928933664155569
478 2.929933389760838
479 2.931675478237402
480 2.932980705506637
481 2.935271379174463
482 2.936930711575088
483 2.939647383424541
484 2.941560985724994
485 2.944701075900915
486 2.946857768760201
487 2.950180934733227
488 2.952452908657243
489 2.955935732852702
490 2.958285693014803
491 2.961828293558368
492 2.964015832990755
493 2.967514181120062
494 2.969708328632978
495 2.972903057413816
496 2.974939402953635
497 2.977953292571653
498 2.980667868626068
499 2.98240633935197
500 2.984751456905539
501 2.986292668483705
502 2.988409257871365
503 2.990351267637946
504 2.991541008307788
505 2.993260917641851
506 2.994284494949839
507 2.995743442536798
508 2.99656265471748
509 2.997803631363641
510 2.998571282486155
511 2.999660873771644
512 3.000339187004663
513 3.001351698821733
514 3.00195379152686
515 3.002633199088893
516 3.003535345491176
517 3.004209514069097
518 3.004944255746895
519 3.005703414214463
520 3.006469856130936
521 3.007296391745344
522 3.008153863761869
523 3.00923319952941
524 3.010248840505835
525 3.011397767936309
526 3.012558768483511
527 3.013898596302308
528 3.015158305303289
529 3.016549353521151
530 3.018528557532576
531 3.019891990944615
532 3.021224065437848
533 3.022661252652029
534 3.024000035085442
535 3.026073982480384
536 3.027394980148318
537 3.028737972608639
538 3.030629947367384
539 3.031915791534144
540 3.033720769560105
541 3.034790187566982
542 3.036234268167621
543 3.03716245232965
544 3.038396703334363
545 3.039137310835232
546 3.040159963075278
547 3.04075959715398
548 3.041425680102191
549 3.041802593686044
550 3.04215589339293
551 3.042369167040162
552 3.04243425098284
553 3.042451303687749
554 3.042343747734948
555 3.04230594418482
556 3.042079558002099
557 3.041928149762523
558 3.041730785840187
559 3.041604439173998
560 3.041404451429004
561 3.041138617534335
562 3.04094923985153
563 3.04087494879624
564 3.040802407418794
565 3.04085287723362
566 3.040892064445571
567 3.041037898383192
568 3.0412520171465
569 3.041540245477001
570 3.042026328452585
571 3.04244193406988
572 3.043147355840369
573 3.043712622889934
574 3.04472494189393
575 3.045507329164172
576 3.046758141891943
577 3.047790942657059
578 3.049403539158558
579 3.050559008704079
580 3.052291128470542
581 3.053535962331026
582 3.055437285757709
583 3.056784268740439
584 3.05879698580041
585 3.060139729840808
586 3.062189622019923
587 3.063547791464209
588 3.065501682441492
589 3.066782245220337
590 3.068619654801028
591 3.069777838193157
592 3.071392378472916
593 3.072790422448003
594 3.073622317811886
595 3.074712775110974
596 3.075600069790588
597 3.076086723397306
598 3.07663074761561
599 3.076953934154784
600 3.077007147687432
601 3.076886044495568
602 3.076542307505456
603 3.076184287854304
604 3.075436770895537
605 3.074814859660461
606 3.073689824248007
607 3.072849603474778
608 3.071377855285527
609 3.070312561597836
610 3.069155346894694
611 3.067340941329764
612 3.066084292773562
613 3.064751865499577
614 3.063348681091312
615 3.061256785738622
616 3.059833171660374
617 3.058407650146106
618 3.056946038702863
619 3.054836686035555
620 3.053452773242043
621 3.052142644479857
622 3.050221330896648
623 3.049072476467664
624 3.047401915026
625 3.046413946127054
626 3.045018114203592
627 3.044229469501379
628 3.043153336240819
629 3.042611882075107
630 3.041926445476933
631 3.041623691885921
632 3.041284740037228
633 3.041256016172531
634 3.041283213972074
635 3.041500829544785
636 3.041747948491024
637 3.042386585938877
638 3.042850877205774
639 3.043502043234032
640 3.044193345860645
641 3.045060858263787
642 3.045880980663701
643 3.046871526534833
644 3.047868041758449
645 3.0490013064945
646 3.050126245653481
647 3.051347354798462
648 3.05254605622518
649 3.053831828967005
650 3.055078099880063
651 3.056394705067554
652 3.057656110979833
653 3.058936766364271
654 3.060193083301663
655 3.062019174804586
656 3.063139965929508
657 3.064240437132662
658 3.065737765742655
659 3.066684733448606
660 3.067879882482544
661 3.068609564988137
662 3.069481596083685
663 3.069965033948906
664 3.070462928063348
665 3.070699546443909
666 3.070804761818474
667 3.07080670851183
668 3.070560372329611
669 3.070317814684918
670 3.069918003156769
671 3.069173521581297
672 3.068541260366521
673 3.067848191853772
674 3.067038728604027
675 3.066187011030341
676 3.065236829982825
677 3.06427059663339
678 3.063183380704831
679 3.06211611269094
680 3.060969738382359
681 3.059863260449075
682 3.058734440995324
683 3.057615679899479
684 3.056463359050911
685 3.055374668027504
686 3.054288172546272
687 3.053285694373852
688 3.051812660847848
689 3.050937776929463
690 3.050088563884351
691 3.048968872379072
692 3.048280033755022
693 3.047436183115153
694 3.046920898366401
695 3.046528384926909
696 3.045998234604063
697 3.045778146848186
698 3.045560497138758
699 3.045419475462197
700 3.045348463529821
701 3.045397402224466
702 3.045439253985883
703 3.045591296751734
704 3.045730643245054
705 3.045941299220948
706 3.046132027882822
707 3.046354549310116
708 3.046530307071782
709 3.046746291328832
710 3.046906312774227
711 3.047108987338639
712 3.047234296101502
713 3.047404808434548
714 3.04747559294009
715 3.047566226721713
716 3.04758039248542
717 3.047587087393304
718 3.04749177314793
719 3.047391414384936
720 3.047189107094367
721 3.046954537041298
722 3.046648652370002
723 3.046320161128655
724 3.045889303163321
725 3.045458806301098
726 3.044932278940847
727 3.044405240507486
728 3.043790361968921
729 3.043176633680737
730 3.042484324828611
731 3.04182867523667
732 3.041079111133828
733 3.040352512481566
734 3.039586884025421
735 3.038853574614275
736 3.038089251948572
737 3.037368486597417
738 3.03661272542132
739 3.035948350924115
740 3.035250642172408
741 3.034634451644884
742 3.03401684687127
743 3.033523347149943
744 3.033027760575879
745 3.032632133585721
746 3.032253284243064
747 3.031998960593501
748 3.031733210611895
749 3.031605557135498
750 3.031467037744218
751 3.031469171587435
752 3.031499636402344
753 3.03163774233228
754 3.031764066925534
755 3.032043821426503
756 3.032325032968158
757 3.032691382523578
758 3.033054314397022
759 3.033501057062117
760 3.033961773771929
761 3.034499125367105
762 3.035024698770027
763 3.035606428095997
764 3.036169704396839
765 3.036762321946019
766 3.03734143264246
767 3.037942568535489
768 3.038466175196144
769 3.039019461425778
770 3.039504442459051
771 3.03999692376423
772 3.040395691017562
773 3.040785355442395
774 3.041258576579406
775 3.041572430513162
776 3.041751706782248
777 3.041948741519162
778 3.042046706870729
779 3.042103154475282
780 3.042074668314242
781 3.042006519402959
782 3.041848398987821
783 3.041663719147354
784 3.041394948116677
785 3.041143485313452
786 3.040785222873161
787 3.040439275569176
788 3.04002280441443
789 3.039593977100826
790 3.039119642408225
791 3.038681104417026
792 3.038182724830808
793 3.037710556329338
794 3.037214859857261
795 3.036783061368678
796 3.036307410849395
797 3.035919283049362
798 3.035500911814783
799 3.035200436516943
800 3.034840076159976
801 3.034631338173705
802 3.034407621439381
803 3.03428108268577
804 3.03417624630247
805 3.034167601285177
806 3.03415129140942
807 3.034261726818702
808 3.034397474101981
809 3.034653011582231
810 3.034917777493976
811 3.035287775446591
812 3.035702741790002
813 3.036197589715155
814 3.036699945426416
815 3.037298672573979
816 3.037909753368738
817 3.038613974051609
818 3.039283189349355
819 3.040025190934152
820 3.040745237336356
821 3.041513409474975
822 3.042251938195235
823 3.043029462825178
824 3.043776436682409
825 3.044518780032687
826 3.045207268027133
827 3.045912260726714
828 3.046545989295669
829 3.047472671881592
830 3.047989970903684
831 3.048481228587692
832 3.0490712035489
833 3.049439016172893
834 3.049688591379901
835 3.049984020699857
836 3.050056157618486
837 3.050094219866699
838 3.049985152882302
839 3.049841295526365
840 3.049569595496183
841 3.049249395149577
842 3.048797319634882
843 3.048333519752743
844 3.047743068165549
845 3.047123653859649
846 3.046422106066409
847 3.045714779279506
848 3.044935852895925
849 3.04418459977927
850 3.043360665872749
851 3.042565676511114
852 3.041729010487201
853 3.040957024190648
854 3.040138529983235
855 3.039395498702787
856 3.038616381148271
857 3.037954365551411
858 3.037303189772555
859 3.036490495098785
860 3.035987497981197
861 3.035588000995912
862 3.035064144252235
863 3.034842090483724
864 3.034655229621014
865 3.034593688986813
866 3.034576395597319
867 3.034685938753887
868 3.034841123075736
869 3.035136746334749
870 3.035479156832703
871 3.035938064418044
872 3.036409372845144
873 3.037004240312664
874 3.037631585417433
875 3.038344736536956
876 3.039079978615503
877 3.039905253184092
878 3.04071915604581
879 3.04159092424019
880 3.042445802237686
881 3.043367190219123
882 3.04424625525332
883 3.045181846646126
884 3.046056623351715
885 3.046966428170828
886 3.04780125139449
887 3.048648844580452
888 3.049422946478292
889 3.050180620741378
890 3.050854941570237
891 3.05184761717474
892 3.05240953526062
893 3.05295015668239
894 3.053393843083928
895 3.053812210979525
896 3.054117471303325
897 3.054403699040136
898 3.05458461262473
899 3.054751329152913
900 3.054794343539859
901 3.054841704776766
902 3.054784840778956
903 3.054734517348563
904 3.054574910472385
905 3.05443825479914
906 3.054211262206455
907 3.054002213342609
908 3.053703279546273
909 3.053452823248733
910 3.053131325684506
911 3.052848731059794
912 3.052512366824025
913 3.052225345634139
914 3.051905880153395
915 3.051636080392087
916 3.051356469977073
917 3.051127167272133
918 3.05089815216836
919 3.050739951066552
920 3.05059838892169
921 3.050512538865216
922 3.050441951280406
923 3.050446594048517
924 3.050461418998767
925 3.050559459127316
926 3.050687053257128
927 3.050905918987893
928 3.051125630522761
929 3.051438280963851
930 3.051750716737344
931 3.052147328561212
932 3.052518594762958
933 3.052982882977639
934 3.053438587464333
935 3.053965111087925
936 3.054453698934107
937 3.05503393591362
938 3.055610231952375
939 3.056230353029039
940 3.056816229406107
941 3.057426628651454
942 3.058000631445658
943 3.058604485736239
944 3.059125673784634
945 3.059680463378733
946 3.060166007826876
947 3.060684641399857
948 3.061114251988408
949 3.061764033376659
950 3.062117874860484
951 3.062461889645939
952 3.062707461574961
953 3.063045123004709
954 3.06320060391022
955 3.06333939669114
956 3.063391140534254
957 3.063410581580736
958 3.063363954841194
959 3.063293168727223
960 3.063151889118548
961 3.062975497670485
962 3.062746667274941
963 3.062509380640281
964 3.06221576218892
965 3.061897673850124
966 3.06151670909471
967 3.061145880857809
968 3.060721536538767
969 3.060292226270139
970 3.059818009265315
971 3.059353778024424
972 3.058857985429352
973 3.058394862020446
974 3.057876771932928
975 3.057415674338418
976 3.056901449542909
977 3.056440481868872
978 3.055931665393708
979 3.055457638650195
980 3.054962470087696
981 3.054517521238294
982 3.054059633285734
983 3.053653873514188
984 3.053210810271798
985 3.052830721883744
986 3.052415843725583
987 3.05209594370403
988 3.05174184975478
989 3.051443901290433
990 3.051127530737719
991 3.050855524801146
992 3.050563937380296
993 3.050339998895697
994 3.050103993009989
995 3.049936863379187
996 3.049720707704779
997 3.049545602475674
998 3.049345352697574
999 3.049216230640794
1000 3.049021605658934
1001 3.048869027457566
1002 3.048687774864863
1003 3.048578982560634
1004 3.048430715362346
1005 3.048318380433581
1006 3.048162276476583
1007 3.048045734627117
1008 3.047890675060359
1009 3.04779362202085
1010 3.047642503957852
1011 3.047540315549006
1012 3.047426815407766
1013 3.047347870397084
1014 3.047261501457753
1015 3.047222807984208
1016 3.047156376373994
1017 3.047140076844424
1018 3.047117144169871
1019 3.047142030690427
1020 3.047153264000103
1021 3.047255983269926
1022 3.047335757726146
1023 3.047499023316933
1024 3.047627682464266
1025 3.047827634319579
1026 3.048047868686169
1027 3.048354962454277
1028 3.048642925395586
1029 3.049043259697541
1030 3.049449052797331
1031 3.049962475138875
1032 3.050431828162659
1033 3.051054450398256
1034 3.05164031480096
1035 3.052358821795689
1036 3.053067922308273
1037 3.053878960797313
1038 3.054689215770883
1039 3.055625630062497
1040 3.056980045689357
1041 3.057956758692245
1042 3.058914053760449
1043 3.060461972923568
1044 3.061463027259893
1045 3.062548308670176
1046 3.064152884744458
1047 3.065246056359675
1048 3.066821781521864
1049 3.067894602384528
1050 3.069431526095339
1051 3.070499833120427
1052 3.071978215556118
1053 3.072967431589737
1054 3.0743150067338
1055 3.07523605100416
1056 3.076460228365424
1057 3.077291615353994
1058 3.078384080952492
1059 3.079084185496583
1060 3.080009842577611
1061 3.080602562011029
1062 3.081328773953446
1063 3.081810332499241
1064 3.082130631487145
1065 3.082598914617544
1066 3.082791632866501
1067 3.082948622028423
1068 3.082986625884157
1069 3.083025238363584
1070 3.082918877613372
1071 3.082811714944204
1072 3.082572856945045
1073 3.082340810798079
1074 3.081998215931909
1075 3.081628629703289
1076 3.081125529656696
1077 3.080615565929684
1078 3.079987689409417
1079 3.079390743079923
1080 3.078679116219473
1081 3.077953053306488
1082 3.077152494115507
1083 3.076348973169071
1084 3.075474213618819
1085 3.074643767331589
1086 3.073728040630382
1087 3.07285518235848
1088 3.071911062386935
1089 3.070577757555173
1090 3.069645972127724
1091 3.068798439908089
1092 3.067493495083342
1093 3.066738194594272
1094 3.065948779550935
1095 3.064891224549033
1096 3.064202918088574
1097 3.063625011959068
1098 3.062747723243795
1099 3.062316430158646
1100 3.0618504459234
1101 3.061517261959451
1102 3.061173297808561
1103 3.060962739070703
1104 3.060717225970522
1105 3.060607128799999
1106 3.060495762076175
1107 3.060509680562142
1108 3.060501270663222
1109 3.060616955669174
1110 3.060706344023944
1111 3.060899169418932
1112 3.061068279886599
1113 3.061327926781273
1114 3.061570622864138
1115 3.061890392069575
1116 3.062187101666172
1117 3.062548124492173
1118 3.062852626687155
1119 3.063267456671082
1120 3.063606851021732
1121 3.0640235441365
1122 3.064365080568803
1123 3.064786276236245
1124 3.065141383664811
1125 3.065519350952512
1126 3.065845714299502
1127 3.066198784151996
1128 3.066472379139018
1129 3.066781884615545
1130 3.06701328980686
1131 3.067269539523178
1132 3.067445312396856
1133 3.067653295152174
1134 3.067764362794198
1135 3.067894889013226
1136 3.067932361331214
1137 3.067985666528662
1138 3.067976923904569
1139 3.067994758910457
1140 3.067920300822933
1141 3.067871051773575
1142 3.06773199201069
1143 3.067617275719138
1144 3.067436782591578
1145 3.067276223479078
1146 3.067055550314133
1147 3.066866309818354
1148 3.066615265661859
1149 3.066415599410002
1150 3.066158429871122
1151 3.065953604538322
1152 3.065684903219739
1153 3.065474896799409
1154 3.065213791335197
1155 3.065012805292535
1156 3.06475736809271
1157 3.064571753792367
1158 3.06432850860648
1159 3.064162169480259
1160 3.063949995325637
1161 3.063811644631095
1162 3.063633507369598
1163 3.063531741880752
1164 3.06339368498557
1165 3.063317047922213
1166 3.06318898055648
1167 3.063141638584958
1168 3.063033065373415
1169 3.063011673065754
1170 3.062938875970538
1171 3.062945405835658
1172 3.062879507249376
1173 3.062884495336103
1174 3.062838373827157
1175 3.062857561012955
1176 3.062822984475308
1177 3.062836182697977
1178 3.062798365789993
1179 3.062814456715901
1180 3.062766378082334
1181 3.062752639195333
1182 3.062684550317332
1183 3.062653036978367
1184 3.062567018265418
1185 3.062506117059947
1186 3.062394386707205
1187 3.062306787781553
1188 3.062172384172836
1189 3.062066847884556
1190 3.061909830464967
1191 3.061790265509814
1192 3.061590333059803
1193 3.061427530305266
1194 3.061195205477556
1195 3.061006631548992
1196 3.060737555017834
1197 3.060524233628417
1198 3.060237391225702
1199 3.06000723684881
1200 3.059691657154261
1201 3.059440016447581
1202 3.059124036186782
1203 3.058866196325983
1204 3.058539881466989
1205 3.058277711629464
1206 3.057959304436328
1207 3.057722070875896
1208 3.057428867424834
1209 3.057202074899904
1210 3.056913149634632
1211 3.056691377375311
1212 3.056426440254552
1213 3.05624706889518
1214 3.056003817964621
1215 3.055855657821501
1216 3.055638159516814
1217 3.055487861345149
1218 3.055283878526583
1219 3.055169401408175
1220 3.054978935458346
1221 3.054880121132197
1222 3.054699370470142
1223 3.054599370571094
1224 3.054414489605489
1225 3.054304266058493
1226 3.054118577205749
1227 3.054012836810115
1228 3.053830098235752
1229 3.053700318373439
1230 3.053507851393751
1231 3.053378379548422
1232 3.053175751573024
1233 3.053012661924281
1234 3.052762498317172
1235 3.052571330742975
1236 3.052313099097093
1237 3.052100281417711
1238 3.051802437006371
1239 3.051548803059642
1240 3.051207715970051
1241 3.05093927112269
1242 3.050558238715761
1243 3.050252845639032
1244 3.049844696215601
1245 3.049481722803217
1246 3.049055286991503
1247 3.048656342011457
1248 3.048192929752674
1249 3.047789947354405
1250 3.047319236181791
1251 3.046914254485606
1252 3.046443348885559
1253 3.046025141670277
1254 3.045560753620707
1255 3.045150235239772
1256 3.04467493139612
1257 3.044270855710651
1258 3.043820265066099
1259 3.043441438018601
1260 3.043028287976656
1261 3.04270291954418
1262 3.042324488710984
1263 3.042065766326553
1264 3.04176439190712
1265 3.041532276454296
1266 3.041277779334774
1267 3.041106514354985
1268 3.04094210170223
1269 3.040857701427815
1270 3.040754017193546
1271 3.040747084344066
1272 3.040729408620117
1273 3.040806419371532
1274 3.040845756964274
1275 3.041010521388182
1276 3.041108010570753
1277 3.041307700421046
1278 3.041469835105347
1279 3.041715230432105
1280 3.041929666868766
1281 3.042219668961665
1282 3.042478821076031
1283 3.042803472385172
1284 3.043079274120107
1285 3.043403921173596
1286 3.043697562555962
1287 3.044024967953396
1288 3.044297269063189
1289 3.044613457831674
1290 3.044877825849804
1291 3.045171819395193
1292 3.045402473647478
1293 3.04566890766759
1294 3.045857041069372
1295 3.046094182758775
1296 3.046221948414241
1297 3.046397335285251
1298 3.046477785891903
1299 3.046584704258318
1300 3.046574443440731
1301 3.04661860836062
1302 3.046551853526807
1303 3.046531700591329
1304 3.046390602864098
1305 3.046280690702489
1306 3.046073782583834
1307 3.045884581837844
1308 3.045592833374638
1309 3.04535020139855
1310 3.045006735134616
1311 3.044693362407219
1312 3.044269616043812
1313 3.04388586685681
1314 3.043429753677089
1315 3.04301664497943
1316 3.042480827023923
1317 3.042011993692774
1318 3.041459888093421
1319 3.040964567892421
1320 3.040379026703126
1321 3.039847046988721
1322 3.039240051596292
1323 3.038684613673098
1324 3.038063441558073
1325 3.037488650445268
1326 3.036839040376226
1327 3.036260089527927
1328 3.035612733810197
1329 3.035051007855621
1330 3.034410402956319
1331 3.033852267828983
1332 3.033209213422714
1333 3.032660183333435
1334 3.032037242919302
1335 3.031512176736031
1336 3.03091901446663
1337 3.03042126137569
1338 3.02985017276061
1339 3.029369733412311
1340 3.028839678314917
1341 3.028386238255681
1342 3.027894423922481
1343 3.027468463188606
1344 3.027001082942884
1345 3.026598690503806
1346 3.02616343468463
1347 3.025809788102856
1348 3.025420630441107
1349 3.025096692533261
1350 3.024725030584613
1351 3.024412154681466
1352 3.024098816082205
1353 3.023812361945039
1354 3.023513539950225
1355 3.023279493451456
1356 3.023023206226251
1357 3.022822518841363
1358 3.022598251973018
1359 3.02243847866248
1360 3.022271420056516
1361 3.022127780740788
1362 3.021969655972624
1363 3.021864113323551
1364 3.021746778088807
1365 3.021672857832874
1366 3.02156286542048
1367 3.021530765702499
1368 3.021458389861798
1369 3.021444674770731
1370 3.021405459425289
1371 3.021416624058349
1372 3.021378580802429
1373 3.02141224795597
1374 3.021403580981707
1375 3.021450370548115
1376 3.021458447580466
1377 3.021524432245543
1378 3.021552231079724
1379 3.021623551601673
1380 3.021663898372553
1381 3.021748431662993
1382 3.021803548430983
1383 3.021910572277845
1384 3.021949557536147
1385 3.022063511690216
1386 3.022143332137493
1387 3.022264117503331
1388 3.022351230952489
1389 3.02249370678097
1390 3.022602409793913
1391 3.022763233027303
1392 3.022893795495257
1393 3.02306436338641
1394 3.023214934381906
1395 3.023395472366682
1396 3.023543897339624
1397 3.023744902146056
1398 3.023932678542945
1399 3.024134137207799
1400 3.024341765620624
1401 3.024586926265368
1402 3.024804178507607
1403 3.02504028926216
1404 3.025246591278407
1405 3.025513132278637
1406 3.025754708314582
1407 3.026028146271953
1408 3.026283751170634
1409 3.026557198202859
1410 3.026869057691075
1411 3.027220406221131
1412 3.027527587804521
1413 3.027886114263086
1414 3.028204805481557
1415 3.028565284512111
1416 3.028917705252544
1417 3.029335830605404
1418 3.029694421795553
1419 3.030123168934948
1420 3.030481917171458
1421 3.0309264245138
1422 3.031313468820171
1423 3.031764365533222
1424 3.032139809015638
1425 3.032560436602338
1426 3.032955887014282
1427 3.033449263076766
1428 3.033838547476996
1429 3.034292195200515
1430 3.034642495716084
1431 3.035046937182844
1432 3.035416166766904
1433 3.035822548614731
1434 3.036136281414755
1435 3.036509241185327
1436 3.036813442629711
1437 3.037162985397101
1438 3.037464972750365
1439 3.03775014116416
1440 3.037990459627856
1441 3.038213921312614
1442 3.038388225706858
1443 3.038556754200241
1444 3.038688406236726
1445 3.038827791594685
1446 3.038911688285056
1447 3.038966258804878
1448 3.038919429249528
1449 3.038879477881627
1450 3.038778029677411
1451 3.038692110574687
1452 3.038540629305179
1453 3.038338715395147
1454 3.038084211835304
1455 3.037803386121536
1456 3.037442266816148
1457 3.037064915001817
1458 3.036645971804436
1459 3.036205333946167
1460 3.035742568804107
1461 3.035229682518889
1462 3.034655564044301
1463 3.034046368093156
1464 3.033374356528763
1465 3.032717708418524
1466 3.031987870026979
1467 3.031219856945959
1468 3.030406811125571
1469 3.029591563835002
1470 3.028705359645373
1471 3.027865069865674
1472 3.026995807344319
1473 3.026129096184783
1474 3.025196806596386
1475 3.024309358270003
1476 3.023364949077333
1477 3.022437813673276
1478 3.021502551070814
1479 3.020588601792811
1480 3.019635205488053
1481 3.018737305369015
1482 3.017827428698279
1483 3.016962645340269
1484 3.016063237451027
1485 3.015232680219
1486 3.014389181770738
1487 3.013631909957208
1488 3.01288301984078
1489 3.0121834555369
1490 3.011511982019775
1491 3.010882573164337
1492 3.010269351820722
1493 3.009723064115502
1494 3.009180232321582
1495 3.008726439996905
1496 3.008255473063367
1497 3.007904361270575
1498 3.007513203291576
1499 3.007223437687635
1500 3.006947968512356
1501 3.00675912188645
1502 3.006546929363923
1503 3.006442663998579
1504 3.006317723778861
1505 3.006281143659999
1506 3.006238413447663
1507 3.006243574729706
1508 3.006245197923326
1509 3.006333465104928
1510 3.006397916827766
1511 3.006557817835469
1512 3.00668366987308
1513 3.006890046954203
1514 3.007057089967672
1515 3.007286139867084
1516 3.007501404231666
1517 3.007782813650515
1518 3.008018290848967
1519 3.0083114771665
1520 3.008581649444053
1521 3.008894053775623
1522 3.009177755991339
1523 3.009500830000684
1524 3.009794971612339
1525 3.010089890010174
1526 3.010362140623415
1527 3.010678578621743
1528 3.01097575653244
1529 3.01126822875346
1530 3.011523810286513
1531 3.01182065989444
1532 3.012106795481462
1533 3.012401902503577
1534 3.012659331492178
1535 3.012951872793344
1536 3.013207864863756
1537 3.013491336914401
1538 3.013742876391048
1539 3.014029297026941
1540 3.014242032067771
1541 3.014513988696769
1542 3.014728721647318
1543 3.014966819280551
1544 3.015163342517596
1545 3.015402002173633
1546 3.015585056973051
1547 3.015815642462444
1548 3.015979578427789
1549 3.016196389878911
1550 3.016319965135423
1551 3.016503339573511
1552 3.016589461228518
1553 3.01674058069932
1554 3.016810410536295
1555 3.016910563143523
1556 3.016941385003657
1557 3.016983492670915
1558 3.01697612787393
1559 3.016985838005975
1560 3.016934942249848
1561 3.016884092500149
1562 3.016793068891953
1563 3.016699659623279
1564 3.01657210456261
1565 3.016448343378749
1566 3.016260164410772
1567 3.016074837791573
1568 3.015826157687025
1569 3.015598640096307
1570 3.015300083996509
1571 3.015018598868359
1572 3.014669058790873
1573 3.014328522567662
1574 3.013925711995261
1575 3.013528456986044
1576 3.013076119997281
1577 3.012647642988449
1578 3.012147954034204
1579 3.01168548207715
1580 3.011163013224287
1581 3.010653763081416
1582 3.010072917388354
1583 3.009551808553795
1584 3.008993009677655
1585 3.008452358830823
1586 3.007866801012127
1587 3.00734786792823
1588 3.006755801186045
1589 3.006213023727581
1590 3.005650629451201
1591 3.005118894624514
1592 3.004557089612511
1593 3.004075267202548
1594 3.00356214821275
1595 3.003145496403451
1596 3.002675873510011
1597 3.002295915971894
1598 3.00187726676466
1599 3.00153451276132
1600 3.001159069347056
1601 3.000882176348818
1602 3.000580613951549
1603 3.000371420507055
1604 3.000139794444289
1605 2.999994606210408
1606 2.999831348400543
1607 2.99973681952109
1608 2.999635561831612
1609 2.999626973537448
1610 2.999588709492411
1611 2.999655109390332
1612 2.999701683204351
1613 2.999816233116887
1614 2.999924734324626
1615 3.000081346477234
1616 3.00023371561781
1617 3.000473626130175
1618 3.000695675826281
1619 3.000990187828756
1620 3.001230359029156
1621 3.001566741659411
1622 3.001850894889118
1623 3.00221335480295
1624 3.002508086962137
1625 3.002892124681759
1626 3.003213079162505
1627 3.003624476217268
1628 3.00394760835756
1629 3.00437265899888
1630 3.004732526162065
1631 3.005174491050875
1632 3.00551543592246
1633 3.00595728894028
1634 3.006289217214822
1635 3.006707781872668
1636 3.007029706276998
1637 3.0074142765449
1638 3.007698287743187
1639 3.008053812238172
1640 3.008307331881033
1641 3.008619469276561
1642 3.008843525445284
1643 3.009114460415461
1644 3.009299007172884
1645 3.009518863030241
1646 3.009628426122462
1647 3.009788923846677
1648 3.009872997412269
1649 3.009975125574343
1650 3.009986564070111
1651 3.010034425318294
1652 3.009989159750516
1653 3.009993237502644
1654 3.00988364934269
1655 3.009810452758473
1656 3.009661566749301
1657 3.00954447388671
1658 3.0093432872084
1659 3.009156873847342
1660 3.008878023716084
1661 3.008625408240963
1662 3.008317786977933
1663 3.008019784859047
1664 3.007638634144563
1665 3.007317095584495
1666 3.006933361911139
1667 3.006582284149751
1668 3.006175486700818
1669 3.005782050906909
1670 3.00532713982376
1671 3.004934230752537
1672 3.004457554793218
1673 3.004013661199301
1674 3.00353421019676
1675 3.003100086243328
1676 3.002608215907027
1677 3.002206445717312
1678 3.001731240590889
1679 3.001321246060049
1680 3.000874578959099
1681 3.000499770687507
1682 3.00006656764077
1683 2.999737804389389
1684 2.999356420372925
1685 2.999061937590453
1686 2.998741777816265
1687 2.998500008798254
1688 2.998241998256975
1689 2.998063552684607
1690 2.997897259657785
1691 2.99779412132753
1692 2.997689876426106
1693 2.997677729105183
1694 2.997657860816177
1695 2.997717550308355
1696 2.997782733931118
1697 2.997945167618049
1698 2.998090722263855
1699 2.998351375306918
1700 2.998595215577213
1701 2.998964702489482
1702 2.999305621245547
1703 2.999742207142538
1704 3.000189365374031
1705 3.000741094507116
1706 3.001294945833366
1707 3.001932339547002
1708 3.002546656291612
1709 3.003296952621628
1710 3.004019378468653
1711 3.004868564446844
1712 3.005681847631834
1713 3.006621260039642
1714 3.007504001470214
1715 3.008480224172563
1716 3.009442665969275
1717 3.010511825822068
1718 3.011548830874935
1719 3.012672356005612
1720 3.013724543836901
1721 3.014848596863134
1722 3.016465625985102
1723 3.017594094145434
1724 3.018665806510667
1725 3.020313658816193
1726 3.02133976249329
1727 3.022393123445996
1728 3.023891561408774
1729 3.024914906745575
1730 3.025847688805976
1731 3.027221083702542
1732 3.028066778512428
1733 3.02895166944582
1734 3.030154804587873
1735 3.030950503220396
1736 3.03167525804485
1737 3.03243316327463
1738 3.033114849891333
1739 3.034097138911412
1740 3.034690257699681
1741 3.035293042757039
1742 3.035816966779799
1743 3.036370170362016
1744 3.036827460296189
1745 3.037294968444789
1746 3.037690421834288
1747 3.038082201246536
1748 3.038397847865374
1749 3.038733598663526
1750 3.038991127855594
1751 3.039274612218682
1752 3.03946111130848
1753 3.039664267567803
1754 3.039749997567345
1755 3.039894127441311
1756 3.039921709118017
1757 3.039993294241324
1758 3.039959050449263
1759 3.039967565572089
1760 3.039885520796904
1761 3.039835581884105
1762 3.03971501513543
1763 3.039624869911306
1764 3.03945161091286
1765 3.039332143428655
1766 3.039105827781105
1767 3.038946752699147
1768 3.038700457359586
1769 3.038506663933
1770 3.038256394124595
1771 3.038076828387795
1772 3.037796606936173
1773 3.037591797979421
1774 3.037346743684126
1775 3.037155836925728
1776 3.036933475378369
1777 3.036749035011051
1778 3.036546791527328
1779 3.036412832056853
1780 3.036253057775457
1781 3.036136327169232
1782 3.036009482850426
1783 3.035931240063111
1784 3.03583358441418
1785 3.035792771477948
1786 3.035721271995094
1787 3.035715399475147
1788 3.035675706880866
1789 3.035685738487056
1790 3.035658106036732
1791 3.035691311661049
1792 3.035655514784517
1793 3.035703453608324
1794 3.035700085471815
1795 3.035740922891355
1796 3.035715541745873
1797 3.035722077887949
1798 3.035673450437519
1799 3.035709327593793
1800 3.035628635664462
1801 3.035617529296944
1802 3.035497928413125
1803 3.03544609126201
1804 3.03534090668346
1805 3.035272100911527
1806 3.035118118991464
1807 3.035006725315126
1808 3.034793944869797
1809 3.034644921485528
1810 3.034428976174596
1811 3.034219078274384
1812 3.033961810566741
1813 3.03372461217675
1814 3.03339081396793
1815 3.033117527622803
1816 3.03279012851295
1817 3.032483036023563
1818 3.03209273390512
1819 3.031764248236659
1820 3.031401315548028
1821 3.031090790868749
1822 3.030741476256617
1823 3.030399863673606
1824 3.030087740130446
1825 3.029807765899308
1826 3.029506941598517
1827 3.029256696459051
1828 3.028997424605207
1829 3.028858860877645
1830 3.028667479246611
1831 3.028595090312677
1832 3.028489954600913
1833 3.028455567562375
1834 3.028427090396134
1835 3.028467045374928
1836 3.028499621947055
1837 3.028593370530191
1838 3.028731082488795
1839 3.028969005421636
1840 3.029176784530596
1841 3.029434342240389
1842 3.029719699695039
1843 3.030053148149006
1844 3.030399524845364
1845 3.030786909367358
1846 3.031166125327688
1847 3.031663783934333
1848 3.032088742143878
1849 3.032600816564099
1850 3.033091770869293
1851 3.033625940199237
1852 3.034131459293847
1853 3.034671371953895
1854 3.03516079030231
1855 3.035736104199762
1856 3.036247968531948
1857 3.03680943682623
1858 3.037304299627261
1859 3.03786389807174
1860 3.03834531993741
1861 3.038863309700794
1862 3.039368770529878
1863 3.039853644662224
1864 3.040298560333165
1865 3.040793321398445
1866 3.041238641102758
1867 3.041726279313282
1868 3.042119901931054
1869 3.042603715390931
1870 3.043025821982997
1871 3.043490999413736
1872 3.043867578423378
1873 3.044289286617344
1874 3.044660692520424
1875 3.045081057378225
1876 3.04540473204694
1877 3.045806447369318
1878 3.046142201040991
1879 3.046532491487049
1880 3.046872117438939
1881 3.047267528666837
1882 3.047582107605423
1883 3.047945044069305
1884 3.048294710677593
1885 3.048669524778392
1886 3.049020603690053
1887 3.049403997460782
1888 3.049716787399965
1889 3.050105404429227
1890 3.050420905187781
1891 3.050795054209855
1892 3.051099108209899
1893 3.051463773528257
1894 3.051777968134368
1895 3.052097280813096
1896 3.052336325413057
1897 3.052619774934314
1898 3.052840602917697
1899 3.053096097847847
1900 3.053265666567673
1901 3.053476937416664
1902 3.053604256035228
1903 3.053718503196795
1904 3.053756515516498
1905 3.053805955430994
1906 3.053764376935951
1907 3.053725243595846
1908 3.053595474076674
1909 3.053448710498837
1910 3.053215244031317
1911 3.052981899148726
1912 3.052669869145356
1913 3.052304036535382
1914 3.051869022248765
1915 3.051376290724467
1916 3.050845843953268
1917 3.050284536801881
1918 3.049655616097902
1919 3.048985250418746
1920 3.048239694780563
1921 3.047472694615133
1922 3.046632420764981
1923 3.045780037476973
1924 3.044858678237932
1925 3.043955324137754
1926 3.042993015728233
1927 3.042031571014186
1928 3.041018490732197
1929 3.040004390728717
1930 3.038953894446954
1931 3.037948399404255
1932 3.036878511631302
1933 3.035874064305775
1934 3.034794309080274
1935 3.03379800511488
1936 3.032760514677192
1937 3.031790362005673
1938 3.030786871545093
1939 3.02985751344316
1940 3.028907189205841
1941 3.02805543149266
1942 3.0271899870633
1943 3.026416015678941
1944 3.025631160480968
1945 3.024952471892829
1946 3.024270545072414
1947 3.023671684316368
1948 3.023106898370941
1949 3.02263629632236
1950 3.022192470400708
1951 3.021844759315502
1952 3.021507957775133
1953 3.021253974662919
1954 3.021033766748074
1955 3.020903792750328
1956 3.020802544736793
1957 3.02081199356685
1958 3.020824712600902
1959 3.020926537636577
1960 3.021012865964883
1961 3.021218868568076
1962 3.021403861561795
1963 3.021696033603501
1964 3.021958054659831
1965 3.02229747938132
1966 3.022624279484451
1967 3.023020599629669
1968 3.023373005145716
1969 3.023807103746748
1970 3.024216691808911
1971 3.024690604526691
1972 3.025069986956346
1973 3.025536902381543
1974 3.025943895943373
1975 3.026395967614521
1976 3.026792192969153
1977 3.027243912567855
1978 3.027639943347935
1979 3.028074065335117
1980 3.028432311205196
1981 3.028827077077939
1982 3.029147603587332
1983 3.029490762359637
1984 3.029743118735994
1985 3.030037421494993
1986 3.030254079835697
1987 3.030497390094965
1988 3.030659889061798
1989 3.030854715804408
1990 3.030978670351029
1991 3.03112134652978
1992 3.031166878238193
1993 3.031248698589438
1994 3.031254714992448
1995 3.031287227753505
1996 3.03123402451806
1997 3.031225537451876
1998 3.031129588263133
1999 3.031084099414047
2000 3.030956376869267
2001 3.030865741762064
2002 3.03070937508413
2003 3.030588332120818
2004 3.030407123301946
2005 3.030255256433993
2006 3.030018160205156
2007 3.029840754981039
2008 3.029577819546083
2009 3.029394243459537
2010 3.029134837615928
2011 3.028954770104705
2012 3.02869929354584
2013 3.028510646374201
2014 3.028259314459759
2015 3.028092435549139
2016 3.027859258404397
2017 3.027701736267433
2018 3.027475068686264
2019 3.027302716469754
2020 3.027074348604514
2021 3.026922885978471
2022 3.026711001098961
2023 3.02656892586311
2024 3.026361783501862
2025 3.026231355684229
2026 3.026047224282761
2027 3.025941176064593
2028 3.025760313086655
2029 3.025659805378192
2030 3.025501436191242
2031 3.025436079085867
2032 3.025298913361824
2033 3.025202676412318
2034 3.025049963209729
2035 3.024948842989993
2036 3.024786420027174
2037 3.024683278917287
2038 3.024517351336059
2039 3.024415794619461
2040 3.02424190850376
2041 3.024109450753082
2042 3.023914228707413
2043 3.023754284176295
2044 3.023545919629453
2045 3.023356252921871
2046 3.023121723454205
2047 3.022929663843311
2048 3.022649602604128
2049 3.02242321052739
2050 3.022106670961912
2051 3.021853329574835
2052 3.021493389500708
2053 3.021208987831005
2054 3.020826515599454
2055 3.020487719080504
2056 3.020056065142176
2057 3.019678023437377
2058 3.019219957916148
2059 3.018814023176438
2060 3.018333599306378
2061 3.017911664922758
2062 3.017404836509443
2063 3.016968463272634
2064 3.01645201879965
2065 3.015986371379494
2066 3.015461550565878
2067 3.014990889699392
2068 3.014474331025948
2069 3.013999456014527
2070 3.013486612682574
2071 3.013039041196662
2072 3.012536653047888
2073 3.012074604040812
2074 3.011571605562563
2075 3.011124436772126
2076 3.010629759054816
2077 3.01019011864542
2078 3.009707306330638
2079 3.009289937365134
2080 3.008814520147176
2081 3.008406709345674
2082 3.007940276339648
2083 3.007529396952033
2084 3.007072337048939
2085 3.006659892006909
2086 3.006206278430164
2087 3.005806363656672
2088 3.005353774166603
2089 3.004952079512843
2090 3.004498010227873
2091 3.004085477915952
2092 3.003624418300079
2093 3.003211032352858
2094 3.002731782110046
2095 3.002304185507038
2096 3.00182215506733
2097 3.001392393736308
2098 3.000912696731681
2099 3.000483647537104
2100 2.999992032056258
2101 2.999540488345123
2102 2.999042634528367
2103 2.998591475815128
2104 2.998083363031241
2105 2.997617463164725
2106 2.997098685686189
2107 2.996619927414326
2108 2.996089733895181
2109 2.995610683649244
2110 2.995084780553471
2111 2.994625250149994
2112 2.994100654818999
2113 2.993635379137263
2114 2.993120913202417
2115 2.992644064502506
2116 2.992140763942668
2117 2.991697366992181
2118 2.991211626328166
2119 2.990790023755277
2120 2.990346919301271
2121 2.989952125834562
2122 2.989546456166025
2123 2.989198041266674
2124 2.988821621824183
2125 2.988513717553343
2126 2.988181671862113
2127 2.987927438073841
2128 2.987640972043737
2129 2.987417879389479
2130 2.987179137832624
2131 2.987028341050864
2132 2.98683259495801
2133 2.98672643950509
2134 2.986591023359683
2135 2.986531726266698
2136 2.986422160040577
2137 2.986394654612415
2138 2.986339396043522
2139 2.986378602486274
2140 2.986373200150876
2141 2.986437169756519
2142 2.986458233673233
2143 2.98655163604868
2144 2.986587993022821
2145 2.986690117808835
2146 2.986746760165435
2147 2.986872361897815
2148 2.98696202732187
2149 2.987114840052754
2150 2.987209593367202
2151 2.987363564686451
2152 2.987465711955603
2153 2.987618000330593
2154 2.987729779224364
2155 2.987892598285341
2156 2.987993196749701
2157 2.988152346262238
2158 2.988259057776283
2159 2.988422547824576
2160 2.988520185579356
2161 2.988683684545293
2162 2.988790664520963
2163 2.988946056833132
2164 2.98903700624172
2165 2.989179200637424
2166 2.989257872024802
2167 2.989398235540845
2168 2.989467254504964
2169 2.989600047802775
2170 2.989673381783455
2171 2.989806982885083
2172 2.98987083644416
2173 2.990008970690262
2174 2.990082487288006
2175 2.990223936403362
2176 2.990293841209552
2177 2.990427823944777
2178 2.99049980630413
2179 2.990656124797873
2180 2.99073113316513
2181 2.990887368601861
2182 2.99096315083359
2183 2.991122535557976
2184 2.991210097109822
2185 2.991384862306491
2186 2.991488983332267
2187 2.991673757837255
2188 2.991785407842195
2189 2.991971517309414
2190 2.992085790091043
2191 2.992276568124005
2192 2.992394094844184
2193 2.99259687949251
2194 2.992735383334287
2195 2.992939763587308
2196 2.99307703860059
2197 2.993280776216223
2198 2.993423637894064
2199 2.993624162606332
2200 2.99376101234476
2201 2.993964808374023
2202 2.99410377926912
2203 2.994303940033778
2204 2.994438255012381
2205 2.994633049792824
2206 2.994764995955511
2207 2.994942808468028
2208 2.995066756101225
2209 2.995239920548721
2210 2.995358479933343
2211 2.995525140275448
2212 2.99562931837303
2213 2.995784452981278
2214 2.995872513641029
2215 2.996003840850313
2216 2.996074409260895
2217 2.996187206409272
2218 2.99623981119197
2219 2.996332004301685
2220 2.99636279021552
2221 2.996420863546851
2222 2.996434495250961
2223 2.996480248088825
2224 2.996461387028154
2225 2.996492038014631
2226 2.996446314897295
2227 2.996446234643049
2228 2.996380342066429
2229 2.996362052698373
2230 2.996283501759928
2231 2.99625811352433
2232 2.996148062141148
2233 2.99608963745089
2234 2.99595750236575
2235 2.995877817741465
2236 2.995728587374979
2237 2.995631063339982
2238 2.995474092327524
2239 2.99536458587129
2240 2.995197489442101
2241 2.995070535330681
2242 2.994885699596663
2243 2.994752036787228
2244 2.994558505990074
2245 2.994398764938732
2246 2.994197233133895
2247 2.994043002901948
2248 2.993839710712652
2249 2.99368060580811
2250 2.993481891258049
2251 2.993321530710558
2252 2.993131525689312
2253 2.992979216683298
2254 2.992778223279242
2255 2.992623964307224
2256 2.992440502142125
2257 2.992298098703474
2258 2.992115757619481
2259 2.991988777707826
2260 2.991822791654385
2261 2.991711575862563
2262 2.991567294752395
2263 2.991471540061599
2264 2.991333420539434
2265 2.991266317498123
2266 2.991157777279013
2267 2.991111176480722
2268 2.991021825654474
2269 2.991010794239893
2270 2.990928179194132
2271 2.990936362642368
2272 2.990891920776859
2273 2.990937181638365
2274 2.990924295367548
2275 2.990977941899429
2276 2.990984295238996
2277 2.991064357404284
2278 2.991087475073055
2279 2.991196555548364
2280 2.991246958870504
2281 2.991374699950403
2282 2.99144995362067
2283 2.991596619988881
2284 2.991692803723429
2285 2.991858594174579
2286 2.991982975493544
2287 2.992171913955861
2288 2.992316008588961
2289 2.992518289014986
2290 2.992690119225208
2291 2.992916911301739
2292 2.993115850258017
2293 2.993367080816408
2294 2.993593060805746
2295 2.9938837352068
2296 2.994118033460035
2297 2.994430241245966
2298 2.99469282161387
2299 2.99502485704047
2300 2.995311219234123
2301 2.995670097197012
2302 2.995972456845108
2303 2.996351599662242
2304 2.996684532398997
2305 2.997091652980547
2306 2.997447442949335
2307 2.997872154949989
2308 2.998239930887839
2309 2.998679897233704
2310 2.999074146924434
2311 2.999526099157326
2312 2.999940771743137
2313 3.000409896876536
2314 3.000851682616713
2315 3.00133780361253
2316 3.001781051623497
2317 3.002282019534252
2318 3.002743582986749
2319 3.003266672148631
2320 3.003733958993758
2321 3.004254930511164
2322 3.004710084525061
2323 3.005230952292135
2324 3.005693814700123
2325 3.006207923031616
2326 3.006650572966665
2327 3.007150699657824
2328 3.007605733288403
2329 3.008106310160543
2330 3.008550976971017
2331 3.009035794102544
2332 3.009449304501923
2333 3.009926254795498
2334 3.010326074433137
2335 3.010775212604436
2336 3.011164149728103
2337 3.011607960373711
2338 3.011975776997997
2339 3.01238540188446
2340 3.012715100122331
2341 3.013090387488864
2342 3.013407261447057
2343 3.013768827516936
2344 3.014070187889571
2345 3.014406926944683
2346 3.014678215673317
2347 3.015014047812999
2348 3.01527094881844
2349 3.015585609770778
2350 3.015834942519605
2351 3.016140499481837
2352 3.016368520633729
2353 3.01666185923042
2354 3.016884813374257
2355 3.017170249601027
2356 3.017381245711662
2357 3.017657444360336
2358 3.017869708781728
2359 3.0181300158486
2360 3.018331677104745
2361 3.018571289974133
2362 3.018767583108481
2363 3.019011482160462
2364 3.019220392341019
2365 3.019462751881383
2366 3.019667613695361
2367 3.019918170644665
2368 3.020116186624624
2369 3.020345862735214
2370 3.020533817241509
2371 3.020770474838466
2372 3.020957302761098
2373 3.02116525115022
2374 3.021323658243693
2375 3.021522610595969
2376 3.021653394221998
2377 3.021832328191473
2378 3.021945041019237
2379 3.022107132728577
2380 3.022187883461442
2381 3.022319674222135
2382 3.02237579059129
2383 3.022484770442106
2384 3.022519095348943
2385 3.022604423343744
2386 3.022613613003714
2387 3.02266501701224
2388 3.022636382607062
2389 3.022662776340619
2390 3.022598643116771
2391 3.022579902828188
2392 3.022494731533973
2393 3.022436902304144
2394 3.022316759718409
2395 3.022241694827453
2396 3.022098948619745
2397 3.022006309914024
2398 3.021846927577193
2399 3.021730109346813
2400 3.021557181927398
2401 3.021430744249469
2402 3.021249417309635
2403 3.021099675879718
2404 3.020892440950865
2405 3.020742464192616
2406 3.020528233309829
2407 3.020377032665358
2408 3.020149212223163
2409 3.019969248269083
2410 3.019758769263299
2411 3.019584838934108
2412 3.019358430084985
2413 3.019169889361635
2414 3.018946776620274
2415 3.018785499281984
2416 3.01858417953637
2417 3.018423246483541
2418 3.018203607118635
2419 3.018033444795265
2420 3.017813051437992
2421 3.017646684502502
2422 3.017432186515627
2423 3.017262641944644
2424 3.017061673870046
2425 3.016903393315806
2426 3.016697143080103
2427 3.016545428626173
2428 3.016330938268073
2429 3.016174598903943
2430 3.015973468666737
2431 3.01581331965834
2432 3.015594271749379
2433 3.015434435568046
2434 3.015202894567988
2435 3.015040995700114
2436 3.014816655322558
2437 3.014647951455097
2438 3.014397339419996
2439 3.014187010157191
2440 3.013924540292237
2441 3.013705588445007
2442 3.013423711623283
2443 3.013182598118948
2444 3.012883082535323
2445 3.012638250929972
2446 3.01231244758666
2447 3.012031480385568
2448 3.011683010782843
2449 3.011389664792988
2450 3.011035845232664
2451 3.010726458914977
2452 3.010350566233333
2453 3.010024339845801
2454 3.009628067555772
2455 3.009289405981516
2456 3.00888378564622
2457 3.008538955337646
2458 3.008105209708287
2459 3.007729426683967
2460 3.00729088284963
2461 3.006905346606331
2462 3.00645908603425
2463 3.00607749150856
2464 3.00564198914571
2465 3.005255828650768
2466 3.004819468304579
2467 3.004436280233995
2468 3.004002055561909
2469 3.003610785275139
2470 3.003182278184269
2471 3.002804436755873
2472 3.00239914174013
2473 3.002047031743484
2474 3.001646848975869
2475 3.001305210217863
2476 3.000922144422324
2477 3.000588583222392
2478 3.00023253698835
2479 2.99993550244315
2480 2.999585286425962
2481 2.999306733033714
2482 2.998983095388232
2483 2.998728676023357
2484 2.998430149748098
2485 2.998230001415529
2486 2.997964990374883
2487 2.997787336477828
2488 2.997534708392612
2489 2.997384234726648
2490 2.997163753383125
2491 2.997035710926184
2492 2.996852334901948
2493 2.996752578975084
2494 2.996610211088826
2495 2.996526814773741
2496 2.996404491451327
2497 2.996365057419843
2498 2.99628801251426
2499 2.996271574822643
2500 2.996229572855457
2501 2.996252451314763
2502 2.996239531539177
2503 2.996292771578354
2504 2.996311698180247
2505 2.996394562841673
2506 2.996448320333824
2507 2.996569573127617
2508 2.996645042657816
2509 2.996801831101327
2510 2.996921883432599
2511 2.997112406728756
2512 2.997263892128686
2513 2.997491441646381
2514 2.997674035444052
2515 2.997931296814538
2516 2.99815256570212
2517 2.998440972917515
2518 2.998680333489362
2519 2.998991457885473
2520 2.999252045592837
2521 2.999575926391716
2522 2.999854824751778
2523 3.000201527384479
2524 3.000491479679462
2525 3.000852847509228
2526 3.001163771166438
2527 3.001543365411453
2528 3.001851211809307
2529 3.002225313324488
2530 3.002546976443813
2531 3.002919715079554
2532 3.003237090963406
2533 3.003604976606975
2534 3.003923364547896
2535 3.004296887853614
2536 3.004608845097561
2537 3.004960968260836
2538 3.005258208663506
2539 3.005590530140011
2540 3.005870300603865
2541 3.006175825437919
2542 3.006430749136101
2543 3.006703485820331
2544 3.00692585729873
2545 3.007175600817483
2546 3.007371412899525
2547 3.007590190854936
2548 3.007748755980937
2549 3.007936073658781
2550 3.008064305087677
2551 3.008231277770757
2552 3.008326303087122
2553 3.008447624116593
2554 3.008505059546156
2555 3.008605330460426
2556 3.00862966927388
2557 3.008700410324323
2558 3.008704327981346
2559 3.008747445221016
2560 3.008746271814798
2561 3.008782431965443
2562 3.008757676572832
2563 3.008777416430811
2564 3.008722505495649
2565 3.008720772303393
2566 3.008658559623236
2567 3.008637461061886
2568 3.008561852410405
2569 3.008513329772617
2570 3.008439001420582
2571 3.008396325004106
2572 3.00831021954133
2573 3.008256428461785
2574 3.008170226814767
2575 3.00811868260413
2576 3.008023571979862
2577 3.007970151986818
2578 3.007884323277761
2579 3.007839282010979
2580 3.007759692870733
2581 3.007713654020808
2582 3.007636740384443
2583 3.007599108958495
2584 3.007524235120139
2585 3.007487022973525
2586 3.007420045317062
2587 3.007399890244067
2588 3.007338508774139
2589 3.007332891983692
2590 3.007274206063413
2591 3.007277725173192
2592 3.007231496725652
2593 3.007244181100652
2594 3.007209092869359
2595 3.007223480034324
2596 3.00719683109153
2597 3.007230040491865
2598 3.007210736572899
2599 3.007246819515641
2600 3.007228743358245
2601 3.007271285611526
2602 3.007270178774339
2603 3.007317506643885
2604 3.007320227156502
2605 3.00736615803073
2606 3.007386698077958
2607 3.007440738795793
2608 3.007455157508939
2609 3.007513027270663
2610 3.007534558219788
2611 3.007608494945037
2612 3.007632971731936
2613 3.007707054660721
2614 3.007742734791401
2615 3.007821503736216
2616 3.007856581780961
2617 3.007947531727167
2618 3.007999063865878
2619 3.008090920208937
2620 3.008141300956262
2621 3.008229133753118
2622 3.008301163690646
2623 3.008406741333343
2624 3.008477766726098
2625 3.008587767405621
2626 3.008669020300491
2627 3.008778016131187
2628 3.008865595959575
2629 3.008973624023717
2630 3.009065984946616
2631 3.00917645727001
2632 3.009260239597829
2633 3.00937126565092
2634 3.009453329876592
2635 3.009566952293894
2636 3.009644097046164
2637 3.009763389645111
2638 3.009830816536392
2639 3.009949830722066
2640 3.010008868100778
2641 3.010125496451613
2642 3.0101786682295
2643 3.010277622622299
2644 3.010313232152626
2645 3.010401240545756
2646 3.010423722799195
2647 3.010512132761007
2648 3.010516210223982
2649 3.010586978992956
2650 3.01058947501349
2651 3.010650874867493
2652 3.010624299016949
2653 3.010667868068983
2654 3.010629037716322
2655 3.010651422779504
2656 3.010596456699096
2657 3.010599154218225
2658 3.010520195984586
2659 3.010506034822504
2660 3.010415462492733
2661 3.01037488587154
2662 3.010279829815623
2663 3.010230005529194
2664 3.010115664259386
2665 3.010050827809772
2666 3.009933003294882
2667 3.009852377548868
2668 3.009727997850422
2669 3.009644009743353
2670 3.009517974729741
2671 3.009434133599476
2672 3.009303104326419
2673 3.00923060356879
2674 3.009116369228163
2675 3.00904813005699
2676 3.008937305452287
2677 3.008887929829444
2678 3.008790749726418
2679 3.008763994695555
2680 3.008691786613266
2681 3.008678620711427
2682 3.008634722747698
2683 3.00864942138727
2684 3.00862742546785
2685 3.008673010383025
2686 3.008688179855845
2687 3.008769107254516
2688 3.00881635231275
2689 3.008915418012706
2690 3.008991452322082
2691 3.009126979950465
2692 3.009230853339557
2693 3.009393408957196
2694 3.009525200771578
2695 3.00972325680254
2696 3.009871866363265
2697 3.010090567515276
2698 3.010261785303701
2699 3.010484020065697
2700 3.010659747637007
2701 3.010909640658613
2702 3.011094364929496
2703 3.011348263693834
2704 3.0115376841339
2705 3.01178713532109
2706 3.011982941220595
2707 3.012230193492029
2708 3.01241789173074
2709 3.012662392130669
2710 3.012852555574345
2711 3.013088011444489
2712 3.013259970165459
2713 3.013489039222935
2714 3.013650217018309
2715 3.013868415180235
2716 3.014013795901424
2717 3.014210960243934
2718 3.014337213870531
2719 3.01452263423796
2720 3.014629556652182
2721 3.014801310082658
2722 3.014901342597149
2723 3.015044633746435
2724 3.015122589892555
2725 3.015258364887309
2726 3.015327724292484
2727 3.015446706218805
2728 3.015505882293329
2729 3.015613887938406
2730 3.015675510273367
2731 3.015773513039554
2732 3.015807360204055
2733 3.015899689218987
2734 3.015942260065023
2735 3.016020296929222
2736 3.016055676636709
2737 3.016128253593683
2738 3.016162441446525
2739 3.016239483340651
2740 3.016270245627032
2741 3.016341742294425
2742 3.016376032261514
2743 3.016455423236677
2744 3.016484083351281
2745 3.016562861777313
2746 3.016594952168761
2747 3.016665640968584
2748 3.016690758567194
2749 3.016765147975574
2750 3.016788427589273
2751 3.016850978176211
2752 3.01685962906294
2753 3.0169149017903
2754 3.016922042675513
2755 3.016971433073725
2756 3.016965622432195
2757 3.017002733972364
2758 3.01698731253023
2759 3.017009768685166
2760 3.016980822928986
2761 3.016987562974888
2762 3.01694008356457
2763 3.016943937238268
2764 3.016863121088913
2765 3.01684139012919
2766 3.016749677403041
2767 3.016719348254163
2768 3.016612070003794
2769 3.016553151791961
2770 3.016428243323866
2771 3.016352543796658
2772 3.016215180375587
2773 3.016133386533848
2774 3.015973015609508
2775 3.015876424662205
2776 3.015708419776217
2777 3.015596202982811
2778 3.015426960576922
2779 3.015315900152296
2780 3.01514230466305
2781 3.015043113184871
2782 3.014877146210186
2783 3.014784161408409
2784 3.014634416293026
2785 3.014548270781801
2786 3.014410328386507
2787 3.014334871536074
2788 3.01421452959504
2789 3.01414999257994
2790 3.014054715965234
2791 3.014002782494833
2792 3.013934274293302
2793 3.01391101031497
2794 3.013876140392334
2795 3.013890239166117
2796 3.013884720279807
2797 3.013925494186789
2798 3.013954627362496
2799 3.014024260707531
2800 3.014077213075318
2801 3.014170947855623
2802 3.014245734890767
2803 3.014374833640793
2804 3.014469970384632
2805 3.014625424196533
2806 3.014744710058786
2807 3.014916842740227
2808 3.015052367973269
2809 3.015258007396599
2810 3.015411749794088
2811 3.015627580977374
2812 3.015788423206492
2813 3.016009484448013
2814 3.016171708166082
2815 3.016393919128684
2816 3.016545952191136
2817 3.016766894189045
2818 3.016930715079514
2819 3.0171315353378
2820 3.017277729219176
2821 3.017484675844502
2822 3.01762748734601
2823 3.017819388622485
2824 3.017926615913617
2825 3.018092200909793
2826 3.01818205172989
2827 3.018342416675025
2828 3.018410654497961
2829 3.018538726722491
2830 3.018588921210437
2831 3.018695452173477
2832 3.018710272112946
2833 3.018795896050012
2834 3.018811604597447
2835 3.018878878546365
2836 3.018867391691988
2837 3.018916511792456
2838 3.018902298585262
2839 3.018936872621132
2840 3.018910198731233
2841 3.018954233470507
2842 3.018938618604773
2843 3.018977550085104
2844 3.018963420400581
2845 3.019006403520226
2846 3.018988886999797
2847 3.019045751844999
2848 3.019054803976799
2849 3.019122837869815
2850 3.019148609033404
2851 3.019243997680236
2852 3.019284316513056
2853 3.019392177977901
2854 3.019458981757098
2855 3.019593141733398
2856 3.019680568744778
2857 3.019846335571081
2858 3.01995140335953
2859 3.020133553374991
2860 3.020261293403558
2861 3.020448074680572
2862 3.020579433234358
2863 3.020792807967243
2864 3.020942449003257
2865 3.021163870430715
2866 3.021334403163577
2867 3.021555739441984
2868 3.021717554890406
2869 3.021928438022285
2870 3.022081472666553
2871 3.022283903720592
2872 3.022442517061148
2873 3.022637260061368
2874 3.022782680782385
2875 3.022968200406432
2876 3.023088935281217
2877 3.023249903612539
2878 3.023347415114216
2879 3.023472268029785
2880 3.023539104303274
2881 3.023655049505978
2882 3.023694419490797
2883 3.023783321238811
2884 3.023796369295623
2885 3.023840288791673
2886 3.023824983885211
2887 3.023839283580976
2888 3.023786513991572
2889 3.023768509545213
2890 3.023694713403434
2891 3.023629155263933
2892 3.023499816791204
2893 3.023405521167804
2894 3.023247862830931
2895 3.023117753466942
2896 3.022949784198213
2897 3.022805262942832
2898 3.022620387211496
2899 3.022458163210426
2900 3.022252426680433
2901 3.022054336848332
2902 3.021839292366082
2903 3.021653689333286
2904 3.02143367434999
2905 3.02123706960404
2906 3.021023535406238
2907 3.020831169612509
2908 3.02061844572743
2909 3.020435690421787
2910 3.020244516276579
2911 3.020080938831108
2912 3.019893365754774
2913 3.019739351631593
2914 3.019564637211864
2915 3.019431380702049
2916 3.019279706291503
2917 3.019170767042436
2918 3.019040879710337
2919 3.018944958481923
2920 3.018827453917572
2921 3.01875278585781
2922 3.018672867768714
2923 3.018621339605799
2924 3.01856427994406
2925 3.018537860032849
2926 3.018490703841246
2927 3.018481146589069
2928 3.018446471871011
2929 3.01845279373871
2930 3.018420629871328
2931 3.018450948447857
2932 3.018444738800369
2933 3.018492290142625
2934 3.018491170244885
2935 3.018547951630019
2936 3.018557390144802
2937 3.018631774503318
2938 3.018663810967639
2939 3.018753891938409
2940 3.01880189066507
2941 3.018914475384229
2942 3.01896539775981
2943 3.01908749567193
2944 3.019154421980088
2945 3.019285701962049
2946 3.01936635651027
2947 3.019521853150402
2948 3.01963301392226
2949 3.019797365033834
2950 3.019912667001106
2951 3.02008441921123
2952 3.02021988603724
2953 3.020396328009388
2954 3.0205395896432
2955 3.020732357413518
2956 3.020899849680144
2957 3.021105847265361
2958 3.021272220812342
2959 3.02148922035081
2960 3.021674962228024
2961 3.021898113933615
2962 3.022082439064239
2963 3.022321759729632
2964 3.022536608478644
2965 3.022773845273754
2966 3.022984078617565
2967 3.023246838284364
2968 3.023482430772108
2969 3.023755045580331
2970 3.0239841467251
2971 3.024276102193996
2972 3.024508250515172
2973 3.024786965062018
2974 3.025014425287023
2975 3.025312040127854
2976 3.025535101753496
2977 3.025821873135969
2978 3.02603932292702
2979 3.026317086319109
2980 3.026521060493206
2981 3.026786436163943
2982 3.026976887494576
2983 3.027238376140255
2984 3.027395953265759
2985 3.027627233050599
2986 3.027770130183443
2987 3.027967369336513
2988 3.028092230265977
2989 3.0282636465896
2990 3.02837188743314
2991 3.028511415270064
2992 3.028571752812703
2993 3.028657293084504
2994 3.028671270182807
2995 3.028718434744178
2996 3.028693060938803
2997 3.028680546154091
2998 3.028603140769108
2999 3.028553573610496
3000 3.028432158713044
3001 3.028331763722196
3002 3.028176459915404
3003 3.028027141081202
3004 3.027818903244205
3005 3.027604718673631
3006 3.027353855116006
3007 3.027107060405194
3008 3.026801174875583
3009 3.026518212520151
3010 3.026173279739514
3011 3.025854540719182
3012 3.025469479308156
3013 3.025118451547691
3014 3.024703845131591
3015 3.024318431901365
3016 3.023865408658346
3017 3.023447836179824
3018 3.022955661629354
3019 3.022533236944405
3020 3.022042752667023
3021 3.021597294724815
3022 3.021101665877968
3023 3.0206712726726
3024 3.020164940214293
3025 3.019718901438035
3026 3.019221783208661
3027 3.018794729924022
3028 3.018319377249395
3029 3.017894364988386
3030 3.017433008367313
3031 3.017040217544288
3032 3.016608402680196
3033 3.016233574753669
3034 3.015839486198955
3035 3.015514852568231
3036 3.015146059445917
3037 3.014861198593281
3038 3.014545625924079
3039 3.014298304302223
3040 3.014029337628727
3041 3.013823854303314
3042 3.013600313530758
3043 3.013455831180226
3044 3.013271892566749
3045 3.01316742585127
3046 3.013039104020454
3047 3.012989700316155
3048 3.012908140550968
3049 3.012889468659345
3050 3.012831597712772
3051 3.012860299751289
3052 3.012846110984579
3053 3.012898683570119
3054 3.012917161615096
3055 3.013008652471192
3056 3.013049207270302
3057 3.0131490230497
3058 3.013217482208369
3059 3.01333882798726
3060 3.013415409304106
3061 3.013569702712541
3062 3.01367104904844
3063 3.013827312185983
3064 3.013929930795072
3065 3.014087872393624
3066 3.014191198319599
3067 3.014352401359619
3068 3.014457989079601
3069 3.01461254532206
3070 3.014716994776436
3071 3.014858878554332
3072 3.014944814579211
3073 3.015073440807029
3074 3.015152488357463
3075 3.015276235696874
3076 3.015343728399809
3077 3.015457379919257
3078 3.015509271040087
3079 3.01560728179273
3080 3.015645981111648
3081 3.015733533975795
3082 3.015766061096313
3083 3.015827539513464
3084 3.015843288177197
3085 3.015897183330747
3086 3.015894741808782
3087 3.015936992036322
3088 3.015921650046711
3089 3.015947320677502
3090 3.015911439684907
3091 3.015930782124826
3092 3.015882062593463
3093 3.015879088264215
3094 3.015813159814067
3095 3.01580482394174
3096 3.015729328825247
3097 3.015703505399241
3098 3.015620102021532
3099 3.015589659664648
3100 3.01548944264891
3101 3.015448104037783
3102 3.01533663750328
3103 3.015281925071766
3104 3.01516966960326
3105 3.015109606088932
3106 3.014997827628522
3107 3.014932244920494
3108 3.014812990712429
3109 3.014731748330203
3110 3.014611991899395
3111 3.014546738030597
3112 3.014432486986582
3113 3.014366507151752
3114 3.014261766282903
3115 3.01420451850289
3116 3.014109611433812
3117 3.014064223667296
3118 3.013987885854168
3119 3.013958022499097
3120 3.013888150261358
3121 3.013861122653017
3122 3.013800803204953
3123 3.013787108869759
3124 3.013734528473568
3125 3.013744351701328
3126 3.01370957534777
3127 3.013733731918545
3128 3.013712955319704
3129 3.01375438038118
3130 3.013758439581099
3131 3.013821204791952
3132 3.013840163487198
3133 3.013925110959175
3134 3.013968438040595
3135 3.014067529686741
3136 3.014130908769879
3137 3.014257686361957
3138 3.014348305028915
3139 3.014482268322145
3140 3.014597961848639
3141 3.014767800741132
3142 3.01489564177517
3143 3.015077512011574
3144 3.015227871435594
3145 3.015438586183318
3146 3.015609749201589
3147 3.01582882339368
3148 3.01602376940863
3149 3.016272930708051
3150 3.016489874660466
3151 3.016758642580672
3152 3.016980220531956
3153 3.01725733643496
3154 3.017500054999728
3155 3.017797444798879
3156 3.018038305956928
3157 3.018333959764407
3158 3.018585769721928
3159 3.018890892670223
3160 3.019149218726942
3161 3.019450617353507
3162 3.019707063682923
3163 3.020007303741774
3164 3.020270981695704
3165 3.020564965768092
3166 3.020819801537784
3167 3.021118184660978
3168 3.021355058176399
3169 3.021641201725191
3170 3.021871542615408
3171 3.022149918933232
3172 3.022375335968461
3173 3.02262883995365
3174 3.022827274346132
3175 3.023066621205513
3176 3.023234432450953
3177 3.023453993092208
3178 3.023607370855507
3179 3.023811106463029
3180 3.023945781751789
3181 3.024114933741036
3182 3.024220841312883
3183 3.024366968590881
3184 3.024442215325898
3185 3.024564806828864
3186 3.02462224514752
3187 3.024720902487847
3188 3.024759780369684
3189 3.024844559932232
3190 3.024872417237503
3191 3.024938815927652
3192 3.024942767591933
3193 3.024990877626061
3194 3.024977759118492
3195 3.025018126923241
3196 3.024993971203839
3197 3.025022778794987
3198 3.024995194020276
3199 3.025012734530317
3200 3.024986790693595
3201 3.025009117184887
3202 3.02497631816318
3203 3.024998357107012
3204 3.024985257709821
3205 3.025019077455306
3206 3.024991800629075
3207 3.025033898088116
3208 3.02502671612368
3209 3.025082722981262
3210 3.025105312292125
3211 3.025187666503658
3212 3.025233198973287
3213 3.02532361064046
3214 3.02538528392421
3215 3.025514106230032
3216 3.025588540561797
3217 3.025747583192612
3218 3.025841520457043
3219 3.025993731500933
3220 3.026094010980676
3221 3.026269137694403
3222 3.026388753018345
3223 3.026567106034343
3224 3.026699768633397
3225 3.026901098541888
3226 3.02703893828114
3227 3.027239999618115
3228 3.02736236263573
3229 3.027570363773914
3230 3.0276908812195
3231 3.027876843957151
3232 3.027973980406993
3233 3.028133407018567
3234 3.028201697298433
3235 3.028320796811489
3236 3.028377060267498
3237 3.028470475086411
3238 3.028491883047337
3239 3.028557818131111
3240 3.028547440693301
3241 3.028575216602152
3242 3.028523804092922
3243 3.028501823846289
3244 3.028402579051618
3245 3.028329231746474
3246 3.02819069347385
3247 3.028065975240032
3248 3.027870203947723
3249 3.027704918690425
3250 3.027466177977557
3251 3.027276383826775
3252 3.026976597556887
3253 3.026700720436977
3254 3.026348089831245
3255 3.02603974710745
3256 3.025623725502127
3257 3.025259592755342
3258 3.024822947059816
3259 3.024429433918916
3260 3.023959646999852
3261 3.023532304915423
3262 3.023052299355008
3263 3.022609804753968
3264 3.022126866196934
3265 3.021678492317048
3266 3.02117362645748
3267 3.020712614833846
3268 3.020209086344585
3269 3.019742537184015
3270 3.019244937655301
3271 3.018792226922196
3272 3.018307428807422
3273 3.017871336219731
3274 3.017404089344507
3275 3.017005749224717
3276 3.016550190479117
3277 3.016160430834055
3278 3.015730261166376
3279 3.01536815136823
3280 3.014966397823793
3281 3.014642076681437
3282 3.014276234659536
3283 3.013979334774304
3284 3.013630064249555
3285 3.013356424747733
3286 3.013043917063803
3287 3.012811296471257
3288 3.012514784310917
3289 3.012301097647442
3290 3.012038203029301
3291 3.011865899383611
3292 3.011634197461418
3293 3.011465312113955
3294 3.011262976834246
3295 3.01114333349936
3296 3.010966872549962
3297 3.010857420849278
3298 3.010719179048278
3299 3.010652045990477
3300 3.010549910519255
3301 3.010516609973896
3302 3.010430350147803
3303 3.010424757180109
3304 3.010385098129882
3305 3.010422442755222
3306 3.010414061270124
3307 3.010480047169783
3308 3.01049513884457
3309 3.010607179794889
3310 3.010681211265966
3311 3.01082587429731
3312 3.010933358262979
3313 3.011107084902518
3314 3.011255365108471
3315 3.011489095492422
3316 3.011677078385215
3317 3.011968180363851
3318 3.012238777399204
3319 3.012590102803792
3320 3.01289162599123
3321 3.013292576740891
3322 3.013653723926522
3323 3.014103379239851
3324 3.014509105160578
3325 3.015006317510853
3326 3.015453985322812
3327 3.015969003021576
3328 3.016463785929012
3329 3.017019298267138
3330 3.017544001085203
3331 3.018133859457439
3332 3.018684689997176
3333 3.019311061254774
3334 3.019875460626308
3335 3.020476354964051
3336 3.021040741573434
3337 3.021644865144337
3338 3.022216820469219
3339 3.022832270950085
3340 3.023384990054994
3341 3.023970427322883
3342 3.024519802511662
3343 3.025095054478792
3344 3.025591230883363
3345 3.026127117273259
3346 3.026598260295815
3347 3.027109832083882
3348 3.027522822459774
3349 3.027972387893846
3350 3.028342981894184
3351 3.028760298139223
3352 3.029082987270447
3353 3.029443187858459
3354 3.029725599785625
3355 3.030021457432392
3356 3.030242187149756
3357 3.030499657813059
3358 3.030670322496008
3359 3.030880657424813
3360 3.031015204754909
3361 3.031180389162266
3362 3.031275089825656
3363 3.031398661113335
3364 3.031447352898677
3365 3.031523119386906
3366 3.031543262957854
3367 3.031593457205974
3368 3.031574086215781
3369 3.031595324181462
3370 3.031553657792318
3371 3.031551240513763
3372 3.031486564420829
3373 3.031455983813443
3374 3.03136850936549
3375 3.031316300615835
3376 3.031204470410349
3377 3.031133360012348
3378 3.031008738303622
3379 3.030925984343417
3380 3.030789952325346
3381 3.030698365002696
3382 3.030546469715298
3383 3.030448666962252
3384 3.03028320030876
3385 3.030168145339361
3386 3.029999244970745
3387 3.029853989295694
3388 3.029662960949557
3389 3.029523331774235
3390 3.029325376865733
3391 3.029180072031147
3392 3.028974107703147
3393 3.028814087766178
3394 3.028589224372974
3395 3.028416077581303
3396 3.028179607975112
3397 3.028004036243269
3398 3.027760173217377
3399 3.027561914680197
3400 3.02728765798156
3401 3.027075702340659
3402 3.026793681984723
3403 3.026567665697185
3404 3.026286700695445
3405 3.026040224090996
3406 3.02575804630059
3407 3.025515078292873
3408 3.025231216002707
3409 3.02497821812918
3410 3.024686875014359
3411 3.024444033134081
3412 3.024137302043156
3413 3.023885824748476
3414 3.02359090781074
3415 3.023334234231238
3416 3.023044001952448
3417 3.022782237288038
3418 3.022483771381162
3419 3.022221081864129
3420 3.021904821797295
3421 3.021658976751723
3422 3.021355559148424
3423 3.021108577132444
3424 3.020816707946998
3425 3.020576212132303
3426 3.020293398453934
3427 3.020065753865024
3428 3.01979521827006
3429 3.019585339775647
3430 3.019335386973875
3431 3.019144851516883
3432 3.018909708632464
3433 3.018741688343464
3434 3.018519479199261
3435 3.018370209571981
3436 3.018163610152394
3437 3.018040487115059
3438 3.017858061660274
3439 3.017776042691384
3440 3.01763625199907
3441 3.017565460022042
3442 3.017437126414248
3443 3.017390597922045
3444 3.017294630027065
3445 3.017266642165369
3446 3.017183858342463
3447 3.017187891916882
3448 3.017117428492508
3449 3.017116661885983
3450 3.017070547664413
3451 3.017119410354551
3452 3.017104160292016
3453 3.017164338455542
3454 3.017165811550548
3455 3.017258260493157
3456 3.017278510597688
3457 3.017382764111562
3458 3.017420578687415
3459 3.017543268161817
3460 3.017613825262494
3461 3.017762012907345
3462 3.017859886848682
3463 3.018017002009804
3464 3.018130483828226
3465 3.018308266246402
3466 3.018439415295305
3467 3.018635917333676
3468 3.01880063983059
3469 3.019024299319095
3470 3.019168132911989
3471 3.019427607845892
3472 3.019605839324653
3473 3.01985419939767
3474 3.020055635755494
3475 3.020324378747336
3476 3.020532982896298
3477 3.020815240985936
3478 3.021057751806826
3479 3.021348243972332
3480 3.021584559619042
3481 3.021896347541369
3482 3.02216089988662
3483 3.022479583706193
3484 3.022753288875819
3485 3.023083503831129
3486 3.023363971857107
3487 3.023735164534052
3488 3.024024439519124
3489 3.024394332701426
3490 3.024689305120793
3491 3.025052849299063
3492 3.025344086819485
3493 3.025707319804516
3494 3.025999033194603
3495 3.026368376097152
3496 3.026637207028397
3497 3.026978175638613
3498 3.027247989397534
3499 3.027586345581491
3500 3.027854428214786
3501 3.028180658466765
3502 3.02842226184021
3503 3.028732595511889
3504 3.028964047276444
3505 3.029233470952932
3506 3.029434620094165
3507 3.029662781538086
3508 3.029827691323278
3509 3.030031956637
3510 3.030140755756735
3511 3.030263355048643
3512 3.030329254985545
3513 3.030432425862402
3514 3.03045549408858
3515 3.030514397408949
3516 3.030492127144874
3517 3.030504267287513
3518 3.030412732882292
3519 3.030361964764366
3520 3.030206962742912
3521 3.030071009716251
3522 3.02986685519981
3523 3.029686667387321
3524 3.029427942635715
3525 3.029207972490599
3526 3.028889290249554
3527 3.028633859391155
3528 3.028279335151422
3529 3.027981311302439
3530 3.027576526288348
3531 3.027215604203362
3532 3.026780177288595
3533 3.026388239369489
3534 3.025903742687769
3535 3.025469182633187
3536 3.024938517892978
3537 3.024476456678231
3538 3.023922627855898
3539 3.023442924832616
3540 3.022868473498844
3541 3.022356897051872
3542 3.021759019849328
3543 3.02123115152911
3544 3.020630536736878
3545 3.02009612436816
3546 3.019516087733116
3547 3.018997316944267
3548 3.018435691365618
3549 3.017936959220477
3550 3.017362935955062
3551 3.016882782032285
3552 3.0163258876637
3553 3.015844952850415
3554 3.015323238396969
3555 3.014868832859157
3556 3.014360923188772
3557 3.013935286649382
3558 3.013459902319135
3559 3.013053259451437
3560 3.012587894668374
3561 3.012208419131841
3562 3.011775270506176
3563 3.011419447800704
3564 3.011007758018098
3565 3.010676426163266
3566 3.010287674902634
3567 3.009984319277256
3568 3.00962143190971
3569 3.009339086858229
3570 3.009009591728674
3571 3.008740351019511
3572 3.008415095844039
3573 3.008139086170022
3574 3.00782973075749
3575 3.007575904879888
3576 3.00726538928051
3577 3.007008795281673
3578 3.006721053422607
3579 3.006476063610275
3580 3.006184589770514
3581 3.005931433541082
3582 3.005643712201063
3583 3.005407987457004
3584 3.005128457530113
3585 3.004905942622328
3586 3.004642253409007
3587 3.004423975534209
3588 3.00418701040779
3589 3.003996791245442
3590 3.003761543585845
3591 3.003598585704744
3592 3.003381342131509
3593 3.003219056488492
3594 3.003029126670605
3595 3.002903112186925
3596 3.002734005720478
3597 3.002633171370908
3598 3.002496817380997
3599 3.002439731258744
3600 3.00233352829194
3601 3.00232072362356
3602 3.002250358545647
3603 3.002262564838721
3604 3.002224776467348
3605 3.002270883386571
3606 3.00227910003281
3607 3.00236296176993
3608 3.002386166243519
3609 3.002509719335122
3610 3.002590599138027
3611 3.002748698648364
3612 3.002842046134884
3613 3.003020816294971
3614 3.003135939197922
3615 3.003341314981512
3616 3.003493736891351
3617 3.003706993296135
3618 3.003852634407248
3619 3.004075504287464
3620 3.004235963752774
3621 3.004452357064345
3622 3.004603712532719
3623 3.004815439409477
3624 3.004955449025768
3625 3.005154512656253
3626 3.005281317701448
3627 3.005467741779371
3628 3.00555836063951
3629 3.005713051995812
3630 3.005782344784655
3631 3.005897560696768
3632 3.005923196339046
3633 3.006000246934668
3634 3.006005991570404
3635 3.006045155443041
3636 3.006012848493418
3637 3.006017172737617
3638 3.005947479627916
3639 3.005910259888024
3640 3.005810117795844
3641 3.005753258942151
3642 3.005624642176255
3643 3.00553079821745
3644 3.005370918982334
3645 3.005251061053477
3646 3.005073797617614
3647 3.00493023966288
3648 3.004729281682833
3649 3.004582948787287
3650 3.004377870041719
3651 3.004217974804031
3652 3.004008347683676
3653 3.003850187547382
3654 3.003650316938557
3655 3.003503104365106
3656 3.003308339272157
3657 3.003175366851652
3658 3.002989030773845
3659 3.002864461805421
3660 3.002707637477451
3661 3.002611482751199
3662 3.002481597121349
3663 3.002405640439574
3664 3.002296264182705
3665 3.002252758450693
3666 3.002159685814148
3667 3.002152709685599
3668 3.002085492974294
3669 3.002105405469237
3670 3.002075824047641
3671 3.002109190115333
3672 3.002096528142809
3673 3.002136938943705
3674 3.002136555300329
3675 3.002197689213161
3676 3.002218161774893
3677 3.002287450359597
3678 3.002313082990823
3679 3.002385918249706
3680 3.002402690069985
3681 3.002481734185301
3682 3.00250778370657
3683 3.002585265168592
3684 3.002596466249817
3685 3.002654669785413
3686 3.002658119025654
3687 3.002719038004785
3688 3.002707872759873
3689 3.002733639664672
3690 3.002694797166386
3691 3.00269147967922
3692 3.002616345862951
3693 3.002603573166126
3694 3.002521653728619
3695 3.002495434467091
3696 3.002386648399364
3697 3.002333268416157
3698 3.002207534314668
3699 3.002125983520121
3700 3.002010456091501
3701 3.00192812560199
3702 3.001802629484982
3703 3.001705408918647
3704 3.001575792658385
3705 3.001487932789941
3706 3.001356744929432
3707 3.001262434893234
3708 3.001148258232359
3709 3.001091346972641
3710 3.001005009972251
3711 3.000967946554556
3712 3.000912302104095
3713 3.000903978708314
3714 3.000881594599158
3715 3.000925592964444
3716 3.000934261260753
3717 3.000996997106446
3718 3.001053090144989
3719 3.001140954010963
3720 3.001206653682439
3721 3.001351735410717
3722 3.001461236269739
3723 3.001645460965954
3724 3.001795260438065
3725 3.002007034135952
3726 3.002188619775975
3727 3.002420745707222
3728 3.002624321520945
3729 3.002863779346816
3730 3.003090173057121
3731 3.003371018453716
3732 3.003579445636095
3733 3.003873752798475
3734 3.004096011969799
3735 3.00438188354725
3736 3.004616180598965
3737 3.004903321918051
3738 3.005102476963722
3739 3.005342843770536
3740 3.005513717444454
3741 3.005696788134335
3742 3.0058259714221
3743 3.005991559882005
3744 3.006106759912162
3745 3.006205169950421
3746 3.006248525175617
3747 3.006281553181197
3748 3.006217454316749
3749 3.006193215059405
3750 3.006072460452911
3751 3.005996066160415
3752 3.005856145741229
3753 3.005720249634642
3754 3.005493443930836
3755 3.005277903618607
3756 3.004994005444269
3757 3.004696879151528
3758 3.004361332542496
3759 3.004065631831927
3760 3.00369958191358
3761 3.003392784139507
3762 3.002942490685926
3763 3.002609531650383
3764 3.002179503170576
3765 3.001768149921865
3766 3.001309750078264
3767 3.00091819831317
3768 3.000453703900101
3769 3.000087721614312
3770 2.999673190504528
3771 2.999299204214046
3772 2.998855669705875
3773 2.998512690165321
3774 2.998157947775959
3775 2.99770843378609
3776 2.997372986383627
3777 2.997116955638311
3778 2.996704745051972
3779 2.996492550413477
3780 2.996283162068898
3781 2.996051970215874
3782 2.995910476907312
3783 2.995810515547903
3784 2.995596827273934
3785 2.995564264366511
3786 2.995465354222903
3787 2.995363457998308
3788 2.995348754319083
3789 2.995305482647667
3790 2.995212020832505
3791 2.995168456507564
3792 2.995033591429005
3793 2.994964143606296
3794 2.994689172598396
3795 2.994536483249642
3796 2.994333746149882
3797 2.994159277784384
3798 2.993884045055258
3799 2.993511399283907
3800 2.993152388709857
3801 2.992792731394203
3802 2.992390874054977
3803 2.991735852514863
3804 2.991238100694544
3805 2.990747867274107
3806 2.98988311496854
3807 2.989355720094327
3808 2.988386869917778
3809 2.987783259135638
3810 2.98678235301972
3811 2.986100494676711
3812 2.984951372659912
3813 2.984252281947279
3814 2.98309247285315
3815 2.98238757369008
3816 2.981282950346234
3817 2.980591782868648
3818 2.979491887424922
3819 2.978851340195317
3820 2.977849860682368
3821 2.977234004471348
3822 2.976340563692494
3823 2.975799761689041
3824 2.975056163807998
3825 2.974672035599568
3826 2.974225563957649
3827 2.973711954260149
3828 2.973416805693806
3829 2.973262714375471
3830 2.973092849464461
3831 2.973087125279763
3832 2.973120697796033
3833 2.973268154221724
3834 2.973445604966058
3835 2.97375902034366
3836 2.974144432694693
3837 2.974686662709796
3838 2.975228894196338
3839 2.975915550762237
3840 2.976650893445077
3841 2.97749443539236
3842 2.97836173070971
3843 2.979328582137037
3844 2.980251882719084
3845 2.981343985726594
3846 2.98239910687799
3847 2.983555068140646
3848 2.984700295993949
3849 2.985923181973813
3850 2.987628410002957
3851 2.988812433905397
3852 2.989918759779099
3853 2.991630009695359
3854 2.992677282115134
3855 2.99422893750733
3856 2.995143608270385
3857 2.996509049175978
3858 2.997267943915761
3859 2.998340061090763
3860 2.998938875201267
3861 2.999708176708598
3862 3.000086990290482
3863 3.000431223735538
3864 3.000774483293418
3865 3.000938153921477
3866 3.000994572883991
3867 3.001006555243336
3868 3.000894032693594
3869 3.00076286993296
3870 3.000505668073489
3871 3.000292587708088
3872 3.000015304795835
3873 2.999700357916439
3874 2.999322194331632
3875 2.998957147677766
3876 2.998479165065418
3877 2.998048391607068
3878 2.997547693740166
3879 2.997060487319924
3880 2.996572278828783
3881 2.996133390443546
3882 2.995655744878195
3883 2.995230584137632
3884 2.994843029075322
3885 2.994539079622083
3886 2.994215351421356
3887 2.993804405471981
3888 2.993571263740618
3889 2.993316395470966
3890 2.993177549358798
3891 2.993148982994565
3892 2.993115154700776
3893 2.993231274768002
3894 2.993458105082734
3895 2.993711187736275
3896 2.993966662605968
3897 2.994341556756392
3898 2.994740799187197
3899 2.995210642001984
3900 2.995659945966077
3901 2.996223534588572
3902 2.996751887484876
3903 2.997378173599899
3904 2.997951312990817
3905 2.998627004809532
3906 2.999213074156066
3907 2.999810055672112
3908 3.000359836443483
3909 3.000951992418972
3910 3.001461953508161
3911 3.002013007783269
3912 3.002459800242015
3913 3.002908753494948
3914 3.00324394288065
3915 3.003563758554007
3916 3.003916610167291
3917 3.004134254986427
3918 3.004220651180261
3919 3.004283797366163
3920 3.004218374767204
3921 3.00415740571047
3922 3.003969254893715
3923 3.003761550824929
3924 3.003424695109584
3925 3.003062068482894
3926 3.002620718721732
3927 3.002149259738744
3928 3.001564582937971
3929 3.001014919872218
3930 3.000359411808827
3931 2.999687309985754
3932 2.998969390845045
3933 2.99827315634204
3934 2.997520947267878
3935 2.996811888258787
3936 2.996085918981276
3937 2.995411600021251
3938 2.994700262105575
3939 2.99407074373256
3940 2.99342335312324
3941 2.992862826880204
3942 2.992301414776517
3943 2.991607192324365
3944 2.991167065258923
3945 2.990850466436999
3946 2.99053516579652
3947 2.990362060081334
3948 2.990194229907635
3949 2.990160185613258
3950 2.990136634654266
3951 2.990254355364171
3952 2.990363570924184
3953 2.990631998877236
3954 2.99088469625833
3955 2.991299614679534
3956 2.991689435755745
3957 2.992187536365495
3958 2.992684534302013
3959 2.993302878280711
3960 2.993930526065885
3961 2.99463758890466
3962 2.995357703867398
3963 2.99612705451253
3964 2.996858714738633
3965 2.997648540556954
3966 2.998392072154269
3967 2.999203193154527
3968 2.99996837585338
3969 3.000794342078689
3970 3.001551055672008
3971 3.00232457970667
3972 3.003020267423582
3973 3.003713819713903
3974 3.004347117480707
3975 3.00496313242215
3976 3.005738203641735
3977 3.006240992186014
3978 3.006634755086511
3979 3.007167746083339
3980 3.007380836487329
3981 3.00760995089929
3982 3.007699789079871
3983 3.007805463733382
3984 3.007757643026177
3985 3.007706507006298
3986 3.007526574412502
3987 3.007342433281091
3988 3.007040324439313
3989 3.006780390194892
3990 3.006398392761271
3991 3.00606452474188
3992 3.005629554034422
3993 3.005230655638951
3994 3.004735530848297
3995 3.004296229728244
3996 3.003794391530248
3997 3.003379946620384
3998 3.002945640777501
3999 3.002551644727812
4000 3.002142814374675
4001 3.001804767760356
4002 3.001459844317623
4003 3.001216454691995
4004 3.000959224289267
4005 3.000810627042751
4006 3.000682572398352
4007 3.000650373340393
4008 3.000660057200863
4009 3.000767263271265
4010 3.000887333821915
4011 3.001159473599804
4012 3.00142979576579
4013 3.001840540924638
4014 3.00233066494533
4015 3.002882123293047
4016 3.003486159441795
4017 3.004191338750681
4018 3.004946652780952
4019 3.005781209299276
4020 3.006603544898926
4021 3.007538458182304
4022 3.008501884056262
4023 3.009532108330001
4024 3.010560423414033
4025 3.011750277249749
4026 3.012871152069609
4027 3.014041967625455
4028 3.015153563622865
4029 3.016365734329161
4030 3.018047620604785
4031 3.019209128050744
4032 3.020289256744374
4033 3.021876236141931
4034 3.022850693235144
4035 3.023865713524378
4036 3.025227455037125
4037 3.026089122239087
4038 3.027207351403943
4039 3.02791986518138
4040 3.028532055744263
4041 3.029420798537056
4042 3.029897223567097
4043 3.030357920837927
4044 3.030711575420316
4045 3.031043104398156
4046 3.031276636996636
4047 3.031521768513432
4048 3.031669563688645
4049 3.031799929458436
4050 3.031840254528909
4051 3.031870621437207
4052 3.031836450417687
4053 3.031803673108065
4054 3.03168567214929
4055 3.031565036602825
4056 3.031415977431761
4057 3.031234773428247
4058 3.031051867781987
4059 3.030835273243836
4060 3.030585933968931
4061 3.030334649389405
4062 3.030060408312651
4063 3.029813909367528
4064 3.029490381312948
4065 3.029217249640678
4066 3.028877080998456
4067 3.028606214639523
4068 3.028281215222961
4069 3.028014933781355
4070 3.027718770424403
4071 3.027479495714497
4072 3.027180420398569
4073 3.026967379304833
4074 3.026652884817262
4075 3.026393121430364
4076 3.02608550247351
4077 3.025806542081845
4078 3.025490608654978
4079 3.025201047778041
4080 3.024835951097711
4081 3.024556291917735
4082 3.024177534237066
4083 3.02388513901818
4084 3.023490186196352
4085 3.023120542263232
4086 3.022698146667858
4087 3.02226808002271
4088 3.021773070104964
4089 3.021319373730123
4090 3.020795830406201
4091 3.020261378170214
4092 3.019608028925827
4093 3.018971216207145
4094 3.018233290318521
4095 3.017519853452701
4096 3.016718506271702
4097 3.015911573592355
4098 3.014998294619664
4099 3.014113566307411
4100 3.013102659547266
4101 3.012145849119338
4102 3.011099601984295
4103 3.010098347004505
4104 3.008971379814069
4105 3.007913379036683
4106 3.00677137523555
4107 3.005666528451381
4108 3.004501200284261
4109 3.003374553879163
4110 3.00217610380813
4111 3.00105819722433
4112 2.999852540502097
4113 2.998753451031654
4114 2.997605773017596
4115 2.996519118073869
4116 2.995397078099646
4117 2.994334035063857
4118 2.993276940983807
4119 2.992274067952682
4120 2.991289641503757
4121 2.990406896269494
4122 2.989499701074895
4123 2.988704675673411
4124 2.987886639973393
4125 2.98719172195987
4126 2.986498342658324
4127 2.985914566989234
4128 2.985320184469328
4129 2.984841128497865
4130 2.984366190198957
4131 2.983977576525077
4132 2.983599037292977
4133 2.983345204323691
4134 2.983097308909596
4135 2.982947143025306
4136 2.982793862397402
4137 2.982742495048635
4138 2.982677402501644
4139 2.982719356641825
4140 2.982712033288508
4141 2.98281201752329
4142 2.982893169253849
4143 2.983042088230623
4144 2.98313520483805
4145 2.983314060439461
4146 2.983433965771129
4147 2.98362958513095
4148 2.983750952654978
4149 2.983959777128346
4150 2.984064618248081
4151 2.984255450648331
4152 2.984328050979992
4153 2.984485842265323
4154 2.98455185331985
4155 2.984642295313783
4156 2.984636279878385
4157 2.984670076739746
4158 2.984635515208211
4159 2.984568367688786
4160 2.984442803950744
4161 2.98432227749283
4162 2.98404735978458
4163 2.983809883719613
4164 2.983464592970711
4165 2.983154473359227
4166 2.982732701910026
4167 2.982343246017152
4168 2.981833335761801
4169 2.981313094016063
4170 2.980686988058982
4171 2.980093480845845
4172 2.979393161595673
4173 2.97872475375652
4174 2.977997747842257
4175 2.977327410033104
4176 2.976548650740958
4177 2.975799384821419
4178 2.975039650334153
4179 2.974338045705597
4180 2.973606253640716
4181 2.972932100166163
4182 2.972224923871179
4183 2.971584791609046
4184 2.970939189817015
4185 2.970217586785032
4186 2.969732959809725
4187 2.969322664242295
4188 2.968915402456432
4189 2.968645774715779
4190 2.968366958738572
4191 2.96821655256824
4192 2.968073205746759
4193 2.968075999908365
4194 2.968057048300075
4195 2.968171112855666
4196 2.968362195337209
4197 2.968659261105192
4198 2.968947947718031
4199 2.969385503074226
4200 2.969832816062986
4201 2.970444084015188
4202 2.971021246764447
4203 2.971745706503904
4204 2.972439656228149
4205 2.97327585385798
4206 2.974081006126093
4207 2.974981626416759
4208 2.975862001006947
4209 2.976798640157495
4210 2.977721922393532
4211 2.978681872678175
4212 2.979601882034237
4213 2.980550288237374
4214 2.981918246714158
4215 2.982843287994225
4216 2.983658756771038
4217 2.984937219099983
4218 2.985689910186573
4219 2.986421389948978
4220 2.987363240077999
4221 2.987954683517744
4222 2.988643004706784
4223 2.98905910022392
4224 2.989348867715113
4225 2.989737343433552
4226 2.989863730139989
4227 2.989952609776636
4228 2.989928169429078
4229 2.989905269760682
4230 2.989765476223788
4231 2.989597129113757
4232 2.98933633681602
4233 2.989106695381071
4234 2.988754345350527
4235 2.988439516803847
4236 2.988033899311037
4237 2.987650261005695
4238 2.987216753672121
4239 2.986813652518102
4240 2.986339577467275
4241 2.985948061577488
4242 2.985519015195015
4243 2.985158875661647
4244 2.984756930933681
4245 2.984436636547551
4246 2.984097896518299
4247 2.983856245276834
4248 2.983610939535548
4249 2.983499675033473
4250 2.983279371668422
4251 2.983256303427867
4252 2.983225537667979
4253 2.983321114280293
4254 2.983498897508774
4255 2.983748766753376
4256 2.983998651932301
4257 2.984399253411726
4258 2.984778839260293
4259 2.985283137545621
4260 2.985804438692476
4261 2.986448230559582
4262 2.987092710302615
4263 2.987841032087179
4264 2.98857366870122
4265 2.989388906941636
4266 2.990168595108273
4267 2.991034499729604
4268 2.991845008949816
4269 2.992724958855203
4270 2.993503101783241
4271 2.994377244093612
4272 2.995142593045103
4273 2.995947229666951
4274 2.996630618225433
4275 2.997325102282966
4276 2.997898609167051
4277 2.998504397617653
4278 2.999165941344505
4279 2.999617829222972
4280 2.99989088945147
4281 3.000159783760899
4282 3.000297856917839
4283 3.000422826845321
4284 3.00040399060684
4285 3.000402517722729
4286 3.000264576625709
4287 3.000132218900503
4288 2.99986571798039
4289 2.999624702790058
4290 2.99925559009739
4291 2.998933290031625
4292 2.998486260162622
4293 2.99808268681492
4294 2.9975772603412
4295 2.997127896619086
4296 2.996592596777372
4297 2.996113780167591
4298 2.995586466490821
4299 2.995134830059201
4300 2.994642103553044
4301 2.994224222177073
4302 2.993810745922464
4303 2.993475675193617
4304 2.993139657084031
4305 2.992894566256098
4306 2.99265877128754
4307 2.992519553508
4308 2.992393190438702
4309 2.992372750951444
4310 2.992395978741292
4311 2.992524640899451
4312 2.992655490993196
4313 2.992929482058088
4314 2.993211953491878
4315 2.993623681380034
4316 2.994034631714477
4317 2.994574393227818
4318 2.995115298322697
4319 2.99576984873078
4320 2.996416368264537
4321 2.99717753079756
4322 2.997888332913943
4323 2.998695962362833
4324 2.999451192771777
4325 3.000307660122157
4326 3.001098191136208
4327 3.001965375680692
4328 3.002743153053375
4329 3.003600325702988
4330 3.004362728440177
4331 3.0051486425144
4332 3.00584213584386
4333 3.006570497126195
4334 3.007210289484875
4335 3.007836035237545
4336 3.008346066858239
4337 3.008873357495425
4338 3.009279852599742
4339 3.009683518114277
4340 3.009952808267927
4341 3.010211050854188
4342 3.01036403900158
4343 3.010478394812657
4344 3.01048257065829
4345 3.010477542481826
4346 3.010339595413912
4347 3.010202823683532
4348 3.009928455338527
4349 3.009689808899794
4350 3.009353607998859
4351 3.009034974336059
4352 3.008591117407329
4353 3.008214862602761
4354 3.007721428885373
4355 3.007277855816239
4356 3.006766222149339
4357 3.006311270148458
4358 3.005799201474974
4359 3.005358676669899
4360 3.004871218947142
4361 3.004477441454455
4362 3.004024621184443
4363 3.003679160458407
4364 3.003294993170633
4365 3.003020432184489
4366 3.002743506615405
4367 3.002592200002309
4368 3.002421054655887
4369 3.002369300715066
4370 3.002320693012501
4371 3.002371695309252
4372 3.002408931294392
4373 3.002557945569879
4374 3.002709764925286
4375 3.002958420036014
4376 3.003200970214523
4377 3.003555999229715
4378 3.003915826356272
4379 3.004350621311453
4380 3.004802936839571
4381 3.005294313376071
4382 3.005792578811089
4383 3.006351117962368
4384 3.006887136831851
4385 3.007473867864943
4386 3.008005094794925
4387 3.008575837435318
4388 3.009130179709281
4389 3.009677603113483
4390 3.010213600910477
4391 3.010774769949994
4392 3.01130932411293
4393 3.011834038904439
4394 3.01225425085217
4395 3.012757480907007
4396 3.013149371469621
4397 3.013563639870411
4398 3.013912617602788
4399 3.014263040026557
4400 3.014501598967527
4401 3.014739292961483
4402 3.014905137669066
4403 3.015076099141159
4404 3.015148690207802
4405 3.015241108176753
4406 3.015247170200023
4407 3.015298715463426
4408 3.015247409751593
4409 3.015192941886352
4410 3.015026136128558
4411 3.01492174932474
4412 3.014701738475943
4413 3.014528865565382
4414 3.014271812009995
4415 3.014057722099691
4416 3.013724756384227
4417 3.013483929116523
4418 3.013133995943039
4419 3.012824740607066
4420 3.012456343948584
4421 3.012133595193873
4422 3.011725596864276
4423 3.011329757695063
4424 3.010857566236422
4425 3.010438962047814
4426 3.009985812993708
4427 3.009543310131096
4428 3.009038044416999
4429 3.008626614854567
4430 3.008136248033863
4431 3.007710028186418
4432 3.007265920745362
4433 3.006837459169466
4434 3.006357926656535
4435 3.005917805602222
4436 3.005439507134289
4437 3.004993201471112
4438 3.004507090056387
4439 3.004059010490478
4440 3.00355521029945
4441 3.003098981950272
4442 3.002590008911125
4443 3.002117198656427
4444 3.001578198709856
4445 3.001103258641643
4446 3.000560743254278
4447 3.000065968534109
4448 2.999495289182615
4449 2.998985392149331
4450 2.998429948362117
4451 2.997922920039682
4452 2.997362498191426
4453 2.996843555772682
4454 2.996272960793746
4455 2.995789211229024
4456 2.995203454975964
4457 2.994712779055025
4458 2.994147419389037
4459 2.993670772937944
4460 2.993149747110802
4461 2.992731775749543
4462 2.992274592861395
4463 2.991903100849346
4464 2.991470129924563
4465 2.991131593582103
4466 2.990751622878254
4467 2.990453172756927
4468 2.990125006678847
4469 2.989896124692958
4470 2.989633581618919
4471 2.98945940755539
4472 2.989245448466518
4473 2.989120268935916
4474 2.988984476888924
4475 2.988920490284165
4476 2.988818703420208
4477 2.988798951899715
4478 2.988743017060353
4479 2.988757354166081
4480 2.988742969002341
4481 2.988812125436066
4482 2.988847248186888
4483 2.988944929335821
4484 2.989004883982454
4485 2.989132214936585
4486 2.989198715282687
4487 2.989345378519736
4488 2.989419170088502
4489 2.98955152732827
4490 2.989609837990087
4491 2.98972875510638
4492 2.989762977877663
4493 2.989852419711368
4494 2.989877312811971
4495 2.989934145353791
4496 2.989916843231202
4497 2.989927179667208
4498 2.989867978476546
4499 2.989817712403489
4500 2.989713699277626
4501 2.989614693301964
4502 2.989452218477149
4503 2.989322594944079
4504 2.98908851148823
4505 2.988880656037862
4506 2.988616146694469
4507 2.98834950744926
4508 2.988012090008711
4509 2.987702076029069
4510 2.98732523282566
4511 2.986996520790676
4512 2.98659764181045
4513 2.986242141569911
4514 2.98581412393452
4515 2.985438922723552
4516 2.985017969198054
4517 2.984641931728491
4518 2.984211275371433
4519 2.983862862248422
4520 2.983432675650052
4521 2.983109407637952
4522 2.982715693918442
4523 2.982437549626244
4524 2.982084036396822
4525 2.981823772651888
4526 2.981519591554699
4527 2.981328926613769
4528 2.981096362507509
4529 2.980954073138374
4530 2.980772786492225
4531 2.980689206307524
4532 2.980578777707213
4533 2.980550378041908
4534 2.980497765370096
4535 2.980552246768956
4536 2.980564431134396
4537 2.980688452842597
4538 2.980759270348161
4539 2.980941603842962
4540 2.981075858200981
4541 2.981300722649356
4542 2.981481649349905
4543 2.981757729700732
4544 2.981983919103237
4545 2.982301400544599
4546 2.98256603860212
4547 2.98291515524004
4548 2.983208798814237
4549 2.983571729440767
4550 2.983865231446529
4551 2.984244475171973
4552 2.984555413921788
4553 2.984915981500505
4554 2.985220540589828
4555 2.985570286004341
4556 2.985858597116598
4557 2.986183249952008
4558 2.986449115096771
4559 2.986754225281961
4560 2.986997080610873
4561 2.987255986918058
4562 2.987469570756697
4563 2.987722855516173
4564 2.987905451110155
4565 2.988118312698357
4566 2.988278231085397
4567 2.988454303401737
4568 2.988579597287797
4569 2.988733336645269
4570 2.988821609186993
4571 2.98894319628474
4572 2.98899857932106
4573 2.989105875704446
4574 2.989156692111782
4575 2.98923110451851
4576 2.989258307147042
4577 2.989328294565655
4578 2.989375754203761
4579 2.989450553702012
4580 2.989459803580287
4581 2.989550202630587
4582 2.989566146443075
4583 2.989657302139056
4584 2.989704112425618
4585 2.989816674215078
4586 2.989877155613494
4587 2.990017206000683
4588 2.990108660248337
4589 2.990258002624929
4590 2.990381769489137
4591 2.990587948913936
4592 2.990745792314505
4593 2.990982855784028
4594 2.991202212616868
4595 2.99149130679559
4596 2.991748637065287
4597 2.992058612098288
4598 2.992361067120719
4599 2.992740574190297
4600 2.993092631227134
4601 2.993516699418043
4602 2.993906681110806
4603 2.994353989348925
4604 2.994778669727205
4605 2.995283914907638
4606 2.995743920667883
4607 2.996300930980293
4608 2.996813825589942
4609 2.997363254445419
4610 2.99789285703964
4611 2.998487370316504
4612 2.99901952216485
4613 2.999623354841523
4614 3.000177337292776
4615 3.000788760490599
4616 3.001348995437803
4617 3.001941484162361
4618 3.002473616343908
4619 3.003070815243835
4620 3.003593780760522
4621 3.004146376653044
4622 3.00462646219777
4623 3.005140069868743
4624 3.005573176720941
4625 3.006058487892038
4626 3.006476244560838
4627 3.006916415689367
4628 3.00727376874935
4629 3.00766488141411
4630 3.0079710040801
4631 3.008293601258489
4632 3.008536114526305
4633 3.008794165757366
4634 3.008978284459203
4635 3.009172972686966
4636 3.009287001938613
4637 3.009449513195178
4638 3.009523731942397
4639 3.009620639188643
4640 3.009621470023084
4641 3.009638663749172
4642 3.009578682867906
4643 3.009547171434588
4644 3.009442560628598
4645 3.009375168882104
4646 3.009213881212061
4647 3.009104032479408
4648 3.008908210711295
4649 3.008785188115748
4650 3.00855925574315
4651 3.008416926059372
4652 3.008183010338347
4653 3.008033249449898
4654 3.007800960636255
4655 3.007644787391656
4656 3.007407607277301
4657 3.007259052492231
4658 3.007043469617181
4659 3.006891573991871
4660 3.006687454586279
4661 3.006577206826819
4662 3.006422978288329
4663 3.006362692512457
4664 3.006235895571104
4665 3.006211122553342
4666 3.006143827116972
4667 3.006166976587054
4668 3.00613871539655
4669 3.006217368034205
4670 3.006252506075251
4671 3.006387970689836
4672 3.006496243565058
4673 3.006697309927786
4674 3.0068512839299
4675 3.007105578782616
4676 3.007310893762364
