"mx-rfile"
"Iteration" "mx"
("Iteration" "mx")
1 21920.52155387843
2 21721.94244448624
3 19830.4052923522
4 18023.25860162342
5 15709.17046966885
6 13233.16174283511
7 11195.7661713217
8 9350.935022823693
9 7802.607799807209
10 6351.936084904519
11 5210.585899244261
12 4227.68486962854
13 3514.144310958903
14 3023.842127751831
15 2825.964621869244
16 2831.566711760464
17 3003.128800985604
18 3259.834926527306
19 3593.47860831357
20 3967.216820180797
21 4357.93802719187
22 4702.408083250025
23 5076.537743490994
24 5375.740721835818
25 5679.061280708976
26 5938.305584453934
27 6170.641511779356
28 6351.130084013923
29 6485.626956287191
30 6589.039312901994
31 6665.782124624039
32 6717.255898824428
33 6760.294885117452
34 6788.646834822955
35 6814.333076633739
36 6839.168083191769
37 6858.57794609433
38 6883.517676324718
39 6906.212852281805
40 6931.651011367662
41 6958.701994261481
42 6991.896759660514
43 7029.904530588017
44 7064.454880260507
45 7098.735840328663
46 7126.213782007641
47 7154.957424037343
48 7177.719658885405
49 7201.095604128464
50 7220.19751625865
51 7239.322519518719
52 7255.854610083775
53 7273.194971258419
54 7288.744426849678
55 7305.358508113656
56 7320.046357547541
57 7335.91979643477
58 7349.248204349336
59 7368.394619381695
60 7387.657382202334
61 7406.418967517403
62 7428.397173939379
63 7443.961514244143
64 7462.07758184134
65 7477.412740687416
66 7490.958278958342
67 7502.169456557478
68 7512.136727478248
69 7520.392268745385
70 7528.081468801626
71 7533.656375442501
72 7539.455033702283
73 7544.890761094426
74 7550.510007782579
75 7554.830609077112
76 7559.807854046326
77 7564.977850741588
78 7570.622259811768
79 7576.187221952961
80 7582.213930824881
81 7587.875377007557
82 7593.776783787364
83 7599.208530155924
84 7604.519650116208
85 7609.137551090197
86 7613.770778398146
87 7617.899068988726
88 7621.8559925674
89 7625.058891414932
90 7628.197726053338
91 7630.755709539823
92 7633.117700489667
93 7634.849223675909
94 7636.538896255047
95 7637.710590615788
96 7638.794933510584
97 7639.486967999675
98 7640.288389420253
99 7640.546120650211
100 7641.010745734105
101 7641.384204610591
102 7641.851878684942
103 7642.218679136404
104 7642.936242897632
105 7643.515581322414
106 7644.430699346723
107 7645.204452242663
108 7646.257468971616
109 7647.141729819568
110 7648.301351461364
111 7649.216022740489
112 7650.302907781152
113 7651.039026770343
114 7652.033321232241
115 7652.631558629614
116 7653.399427609775
117 7653.838392649114
118 7654.380054154934
119 7654.610554669694
120 7655.188755834243
121 7655.412647665768
122 7655.884569232711
123 7656.048517698553
124 7656.556110920273
125 7656.848822483674
126 7657.309052844356
127 7657.618217684452
128 7658.304834173032
129 7658.825380826214
130 7659.617229269104
131 7660.31682275513
132 7661.413785396401
133 7662.434409839594
134 7663.787657192875
135 7665.071964226486
136 7666.79904569521
137 7668.433020220647
138 7670.471082894174
139 7672.448223409615
140 7674.850783841315
141 7677.200559907732
142 7679.929265469441
143 7682.571183896986
144 7685.593070906063
145 7688.550289378393
146 7691.907267917575
147 7695.120830942801
148 7698.730538527803
149 7702.246452004842
150 7706.133678061995
151 7709.880456461879
152 7713.95236802415
153 7717.88908900546
154 7722.201720612215
155 7726.351656193759
156 7730.83362539755
157 7735.191779658327
158 7739.831641697345
159 7744.280806288671
160 7749.033944290847
161 7753.611360506308
162 7758.469170035271
163 7763.097906846167
164 7767.960654748609
165 7772.593459252773
166 7777.512706451507
167 7784.455476999717
168 7789.153136908828
169 7793.53970902588
170 7798.202672748159
171 7804.677843232663
172 7809.055784476701
173 7813.163742573985
174 7819.494759243827
175 7823.309038889849
176 7829.188270785551
177 7832.681845247902
178 7836.408691897195
179 7841.551667099392
180 7845.04211063792
181 7849.802390529999
182 7853.106974893141
183 7857.555266583624
184 7860.653362605109
185 7864.871701378671
186 7867.787167417586
187 7871.691682468433
188 7874.470629170618
189 7878.101698685699
190 7880.712182847799
191 7884.105083158158
192 7886.535406349563
193 7888.648095247513
194 7892.160257403351
195 7894.081747998734
196 7896.308726731093
197 7899.138242516055
198 7901.185171938293
199 7902.901884271472
200 7905.757065269067
201 7907.246793898375
202 7908.989240672062
203 7910.406446825048
204 7912.048348968703
205 7913.312985020308
206 7914.809591288134
207 7915.969776091079
208 7917.32514215741
209 7918.29257589796
210 7919.486645823747
211 7920.287276950659
212 7921.281810952872
213 7921.916856278393
214 7922.72365476
215 7923.106602718854
216 7923.70449856035
217 7923.900965807506
218 7924.298872647576
219 7924.242989405473
220 7924.429864896491
221 7924.211178864301
222 7924.210131571055
223 7923.825837394783
224 7923.638406514525
225 7923.040972487377
226 7922.699787914615
227 7921.978293628531
228 7921.527233288147
229 7920.683507170517
230 7920.145778683554
231 7919.217164527474
232 7918.577299788016
233 7917.610156195086
234 7916.946300543317
235 7915.980939225169
236 7915.343092033779
237 7914.389992259092
238 7913.791077189115
239 7912.872773283211
240 7912.325111456346
241 7911.435449040749
242 7910.940713918652
243 7910.13311820662
244 7909.704621035529
245 7908.991036462623
246 7908.677338990229
247 7908.071488616741
248 7907.836217706745
249 7907.336910708652
250 7907.251688078316
251 7906.864282707355
252 7906.863837779502
253 7906.621468925681
254 7906.766901577403
255 7906.659545784414
256 7906.936096272901
257 7906.946340872571
258 7907.373290370543
259 7907.532461569674
260 7908.072608464243
261 7908.355070752705
262 7909.038832477872
263 7909.456044100132
264 7910.286106481558
265 7910.848265141808
266 7911.801409472784
267 7912.483421051572
268 7913.580863485588
269 7914.378795899004
270 7915.595166654911
271 7916.515309734996
272 7917.855549728587
273 7918.890335261699
274 7920.33499405458
275 7921.484910732926
276 7923.049618013657
277 7924.299351826521
278 7925.97232784405
279 7927.332541052769
280 7929.105271653312
281 7930.565129604025
282 7932.411777166433
283 7933.94926340285
284 7935.886994696332
285 7937.524162579309
286 7939.554005861055
287 7941.270982675337
288 7943.364608226819
289 7945.135653999529
290 7947.310092077467
291 7949.165687070315
292 7951.400941688978
293 7953.317016572814
294 7955.61999651489
295 7957.585740061136
296 7959.927474628228
297 7961.936868406626
298 7964.343780349682
299 7966.41367008541
300 7968.844156762947
301 7970.951133260742
302 7973.444722122541
303 7975.600240717581
304 7978.12991598416
305 7980.324816176601
306 7982.886484475117
307 7985.094691836341
308 7987.691063781739
309 7989.94413179889
310 7992.585275542482
311 7994.866655688512
312 7997.544420528908
313 7999.846119799247
314 8002.53893242441
315 8004.858977108518
316 8007.562554253763
317 8009.885189968462
318 8012.596077283704
319 8014.957660352863
320 8017.670580972098
321 8020.032251637203
322 8022.740598285377
323 8025.110806413329
324 8027.838334404252
325 8030.214421164569
326 8032.934439104943
327 8035.292138271779
328 8038.011767317756
329 8040.385912261536
330 8043.090237443319
331 8045.458413343787
332 8048.191544909349
333 8050.558082205364
334 8053.284323560591
335 8055.662644656716
336 8058.376723393328
337 8060.757786707251
338 8063.471045547989
339 8065.840963924506
340 8068.539827802767
341 8070.883001387585
342 8073.564975316956
343 8075.908410788019
344 8078.573327061595
345 8080.89311416115
346 8083.57251839759
347 8085.891044990884
348 8088.545072257195
349 8090.840596178902
350 8093.491341014392
351 8095.75278953307
352 8098.369192128075
353 8100.64288224223
354 8103.262803358461
355 8105.526442624866
356 8108.119534664057
357 8110.368806941205
358 8112.940261716688
359 8115.175219719866
360 8117.726356875899
361 8119.938806109317
362 8122.467248877438
363 8124.670376834362
364 8127.18450620928
365 8129.368586232185
366 8131.878499967121
367 8134.050091090237
368 8136.533386556958
369 8138.686418066972
370 8141.145293096823
371 8143.274856180952
372 8145.72681110213
373 8147.830388555933
374 8150.248413441208
375 8152.333312909985
376 8154.73784669855
377 8156.807912771636
378 8159.201429192151
379 8161.255956795964
380 8163.611790231418
381 8165.659951908139
382 8168.005247831635
383 8170.015768632123
384 8172.323880564803
385 8174.338854368728
386 8176.652957681548
387 8178.632871896059
388 8180.937321213014
389 8182.892132032807
390 8185.172696513931
391 8187.123988820616
392 8189.385322781846
393 8191.305100218599
394 8193.55808635225
395 8195.476266485006
396 8197.700491916014
397 8199.586422967037
398 8201.800334034071
399 8203.67906671508
400 8205.861106683831
401 8207.707089990578
402 8209.867150479198
403 8211.704962198006
404 8213.839168264805
405 8215.633898797998
406 8217.755356259329
407 8219.528940740536
408 8221.632497387973
409 8223.401765108394
410 8225.487544406109
411 8227.244887195786
412 8229.317187809058
413 8231.055242152044
414 8233.123019368844
415 8234.851111801676
416 8236.895300215343
417 8238.589992308895
418 8240.624304822551
419 8242.307773492264
420 8244.318760212716
421 8245.993300145074
422 8247.985700815467
423 8249.637486533775
424 8251.601366726934
425 8253.218860679908
426 8255.164786803029
427 8256.756166826361
428 8258.683104989168
429 8260.257285663098
430 8262.163976114425
431 8263.725609558303
432 8265.604456560544
433 8267.144951936945
434 8269.028261371344
435 8270.555557269441
436 8272.417725692549
437 8273.925189356891
438 8275.775136822385
439 8277.250850803361
440 8279.086605843779
441 8280.543565917858
442 8282.374467904021
443 8283.835472534651
444 8285.637535107402
445 8287.072207152969
446 8288.866841645879
447 8290.295654736979
448 8292.07044285216
449 8293.476024613869
450 8295.242545020363
451 8296.630068277151
452 8298.363649004088
453 8299.736629446941
454 8301.459631661779
455 8302.814641666939
456 8304.514904875499
457 8305.843992083159
458 8307.529286242656
459 8308.837590310048
460 8310.499244867024
461 8311.792747841266
462 8313.445496976621
463 8314.718227603116
464 8316.331976624242
465 8317.587946032307
466 8319.185920051685
467 8320.427723830395
468 8322.001491331457
469 8323.204544578155
470 8324.763481997101
471 8325.973313329858
472 8327.499901827779
473 8328.687721424751
474 8330.213533160639
475 8331.389926011605
476 8332.904891808861
477 8334.05626600203
478 8335.556421897025
479 8336.68196316035
480 8338.164388247575
481 8339.276338038384
482 8340.7417526349
483 8341.828045940383
484 8343.265016903832
485 8344.344340800484
486 8345.770560568712
487 8346.82541538292
488 8348.240548806469
489 8349.272491750484
490 8350.679092305216
491 8351.699273482658
492 8353.078532670253
493 8354.067902045994
494 8355.436513577788
495 8356.409901939031
496 8357.7628477903
497 8358.720622640078
498 8360.062504229685
499 8361.016256217963
500 8362.325791230862
501 8363.261380346416
502 8364.563873158586
503 8365.485067896772
504 8366.751345745151
505 8367.664126624957
506 8368.925633897525
507 8369.825564726141
508 8371.066340326946
509 8371.944354507994
510 8373.176946963873
511 8374.041906730135
512 8375.247448984761
513 8376.094595787185
514 8377.29944801147
515 8378.133296222159
516 8379.320761135405
517 8380.123985882203
518 8381.308563163069
519 8382.115389901261
520 8383.2839492521
521 8384.0707713432
522 8385.228528214089
523 8386.013780127068
524 8387.142549977933
525 8387.904432268304
526 8389.024188830006
527 8389.7767230349
528 8390.890919500865
529 8391.626284067601
530 8392.726227914762
531 8393.448147712998
532 8394.540274450803
533 8395.252598114585
534 8396.337487547868
535 8397.039801082014
536 8398.102513423031
537 8398.784706660728
538 8399.845749522603
539 8400.517533246355
540 8401.56231634247
541 8402.230618014884
542 8403.258119965158
543 8403.916275117674
544 8404.933720652962
545 8405.578444052884
546 8406.58449079763
547 8407.224151369091
548 8408.214690774234
549 8408.841390008214
550 8409.822297269406
551 8410.440435220629
552 8411.409092063283
553 8412.01022688896
554 8412.971590020852
555 8413.570287413777
556 8414.527092564429
557 8415.090798697984
558 8416.036240647805
559 8416.600453819881
560 8417.54701859994
561 8418.091433823887
562 8419.023868769556
563 8419.557121551281
564 8420.491149931406
565 8421.013213487724
566 8421.936561283919
567 8422.441866069219
568 8423.353198179067
569 8423.854838959656
570 8424.751132550189
571 8425.239271607294
572 8426.127628160762
573 8426.609765488789
574 8427.485856061829
575 8427.967189342717
576 8428.829146117181
577 8429.307672153778
578 8430.157337328077
579 8430.617078056503
580 8431.464588932788
581 8431.927781194883
582 8432.7748412414
583 8433.220291981717
584 8434.04393923162
585 8434.497576074842
586 8435.303918967325
587 8435.749795798762
588 8436.548236419303
589 8436.995467219245
590 8437.795424408587
591 8438.221777751243
592 8439.009196367293
593 8439.44470637863
594 8440.221503305227
595 8440.645074515498
596 8441.411734307429
597 8441.82488830838
598 8442.592607935567
599 8442.999143026689
600 8443.74342230713
601 8444.131699066253
602 8444.88805494683
603 8445.26450616679
604 8446.001657344537
605 8446.380807369847
606 8447.122616440138
607 8447.496875857692
608 8448.221689227074
609 8448.59323818586
610 8449.321997474666
611 8449.686458968104
612 8450.404641333711
613 8450.754593692955
614 8451.470068924309
615 8451.81200618671
616 8452.51651242373
617 8452.853686535025
618 8453.568633254759
619 8453.89655822766
620 8454.596442402837
621 8454.914775728746
622 8455.615589527733
623 8455.929730719372
624 8456.621298158003
625 8456.918409425305
626 8457.61691786263
627 8457.908784092077
628 8458.608918788561
629 8458.894315723341
630 8459.578625612323
631 8459.85228677112
632 8460.52439338807
633 8460.800924373183
634 8461.482124630656
635 8461.745104779215
636 8462.391069992345
637 8462.666007838241
638 8463.319496331276
639 8463.578542546764
640 8464.210481915386
641 8464.463998132935
642 8465.108329284591
643 8465.359885608998
644 8465.985838298577
645 8466.242495980665
646 8466.866891552463
647 8467.106703937972
648 8467.725048083279
649 8467.971681352168
650 8468.581385120715
651 8468.816466638364
652 8469.428477367363
653 8469.654286152901
654 8470.268736983042
655 8470.488914789226
656 8471.088986960713
657 8471.310000584583
658 8471.910382148759
659 8472.127504937922
660 8472.724129432334
661 8472.933049677376
662 8473.522887549099
663 8473.731406776487
664 8474.313377742999
665 8474.52577104085
666 8475.102446611523
667 8475.310925132662
668 8475.866996506058
669 8476.081126073788
670 8476.65322003761
671 8476.860323343582
672 8477.412054869033
673 8477.611766743918
674 8478.159681357398
675 8478.352469378613
676 8478.885515695887
677 8479.075185803713
678 8479.613762977759
679 8479.794361073304
680 8480.313459120202
681 8480.499377411321
682 8481.03103769076
683 8481.202202460245
684 8481.726016521796
685 8481.893352507752
686 8482.419793091522
687 8482.573554315313
688 8483.092470224576
689 8483.246086147623
690 8483.777183495471
691 8483.92864540218
692 8484.443891360637
693 8484.596654604389
694 8485.125822094027
695 8485.269523549679
696 8485.780986790016
697 8485.923150757913
698 8486.434477150406
699 8486.570118109043
700 8487.076464759461
701 8487.21984948168
702 8487.718021857117
703 8487.84916715456
704 8488.335089884898
705 8488.470258536381
706 8488.959608148311
707 8489.083737858075
708 8489.570610949135
709 8489.696577014776
710 8490.185621082095
711 8490.30430441641
712 8490.793206547462
713 8490.908774416172
714 8491.390341753789
715 8491.496736750802
716 8491.971578892508
717 8492.074037629151
718 8492.557710657522
719 8492.658578566397
720 8493.130744727143
721 8493.231774324342
722 8493.698149327945
723 8493.795502436029
724 8494.259115321825
725 8494.350710071367
726 8494.810529538225
727 8494.905790021829
728 8495.350854624969
729 8495.446449972789
730 8495.911503405592
731 8495.991833057951
732 8496.445055223039
733 8496.529457553512
734 8496.987621308173
735 8497.065131350373
736 8497.515319264967
737 8497.596141820128
738 8498.05542662225
739 8498.127069833959
740 8498.563787820167
741 8498.627722907066
742 8499.079467925545
743 8499.140810313855
744 8499.565671863831
745 8499.636428347649
746 8500.07485563606
747 8500.132361634693
748 8500.554925666469
749 8500.61347710599
750 8501.041496399994
751 8501.099918867238
752 8501.523275869256
753 8501.581572911309
754 8502.013795378478
755 8502.065680075957
756 8502.47982267284
757 8502.536407401985
758 8502.960543801897
759 8503.01301799837
760 8503.430273895488
761 8503.479836671739
762 8503.892962008171
763 8503.949929185161
764 8504.361462888484
765 8504.409264427462
766 8504.824368881922
767 8504.878979264273
768 8505.275584240817
769 8505.324773412871
770 8505.726209209364
771 8505.774105653529
772 8506.174249023143
773 8506.223111765816
774 8506.622363074277
775 8506.671243205357
776 8507.056320988677
777 8507.107031440335
778 8507.49258721656
779 8507.538008994212
780 8507.902618167296
781 8507.949847515289
782 8508.318804422839
783 8508.360003799007
784 8508.724323552135
785 8508.762815731739
786 8509.127258446186
787 8509.1729318134
788 8509.528411716876
789 8509.560693776099
790 8509.924324085981
791 8509.958031876622
792 8510.317361478837
793 8510.34820931847
794 8510.713776743924
795 8510.731622427204
796 8511.091893716894
797 8511.106253081003
798 8511.485744399943
799 8511.499767506442
800 8511.8766592386
801 8511.868421534737
802 8512.25320676965
803 8512.250227417211
804 8512.631659811203
805 8512.620661674733
806 8512.992981075535
807 8512.991816409613
808 8513.362837620505
809 8513.359203483058
810 8513.728958378913
811 8513.712930666941
812 8514.084375883422
813 8514.067036924844
814 8514.435201779232
815 8514.411637263163
816 8514.76007014987
817 8514.756665390694
818 8515.110530834638
819 8515.096314783292
820 8515.44236824867
821 8515.435068876555
822 8515.776476276809
823 8515.768407652311
824 8516.102714793849
825 8516.096668220211
826 8516.433221496018
827 8516.424584416487
828 8516.748623330241
829 8516.739214909332
830 8517.070170960189
831 8517.057348498622
832 8517.37912081857
833 8517.368913411347
834 8517.693389607086
835 8517.6795076465
836 8517.991823448856
837 8517.980963067545
838 8518.301540821974
839 8518.293458199461
840 8518.611425978426
841 8518.593841854337
842 8518.916512666186
843 8518.896233507903
844 8519.209790141213
845 8519.182735298138
846 8519.497001156658
847 8519.476713871396
848 8519.782446986417
849 8519.765829623657
850 8520.080195773984
851 8520.05367064229
852 8520.352692495002
853 8520.323807848679
854 8520.629059132252
855 8520.603574288558
856 8520.89847856642
857 8520.872540512004
858 8521.172296278424
859 8521.147937071153
860 8521.437903753309
861 8521.402556931364
862 8521.70234455705
863 8521.672278650372
864 8521.956113034699
865 8521.919193671767
866 8522.21091677352
867 8522.173817735073
868 8522.459631641992
869 8522.425791424033
870 8522.719770391957
871 8522.675338762827
872 8522.975304891252
873 8522.926049405998
874 8523.228708570306
875 8523.178019526973
876 8523.477361566218
877 8523.419336402705
878 8523.727748290103
879 8523.664258800285
880 8523.96746005465
881 8523.902505403777
882 8524.215456972399
883 8524.146066069376
884 8524.451598193438
885 8524.382761239673
886 8524.690570818018
887 8524.618290765156
888 8524.910670440271
889 8524.843007549163
890 8525.136446799545
891 8525.063003366911
892 8525.345757722089
893 8525.288091485261
894 8525.568215671736
895 8525.504644916331
896 8525.766920272577
897 8525.717431212406
898 8525.987905167878
899 8525.937152185641
900 8526.200869806224
901 8526.143413267682
902 8526.42125296616
903 8526.358985032317
904 8526.632335490774
905 8526.574641014826
906 8526.850354940943
907 8526.782828131736
908 8527.052577866441
909 8526.98159870173
910 8527.268905144805
911 8527.188344429693
912 8527.463624128321
913 8527.383500890779
914 8527.673615861346
915 8527.580359209926
916 8527.85317430712
917 8527.774009121082
918 8528.055102221917
919 8527.968385974686
920 8528.229731741945
921 8528.14980743559
922 8528.432630574302
923 8528.340398543194
924 8528.60049479064
925 8528.52083645938
926 8528.781845465393
927 8528.699657674348
928 8528.953805013953
929 8528.874268183643
930 8529.134593892049
931 8529.050479282036
932 8529.304814007974
933 8529.226866124252
934 8529.484759471645
935 8529.410318548327
936 8529.643513156478
937 8529.574990801795
938 8529.823138311762
939 8529.7468908755
940 8529.995703360626
941 8529.915355121555
942 8530.175498785897
943 8530.080479930459
944 8530.336308398588
945 8530.248790312156
946 8530.509680339288
947 8530.407661839754
948 8530.668446333471
949 8530.567625873917
950 8530.841877747402
951 8530.731591534057
952 8530.995182235349
953 8530.885624294197
954 8531.173606985913
955 8531.054167219618
956 8531.310654964338
957 8531.204158607286
958 8531.464860630105
959 8531.353236634388
960 8531.60400566166
961 8531.496585979394
962 8531.754721618387
963 8531.643044175526
964 8531.886062942925
965 8531.783067960663
966 8532.033640493606
967 8531.92630073192
968 8532.172757220527
969 8532.062537137692
970 8532.314250480313
971 8532.201475471466
972 8532.442186448121
973 8532.336875322977
974 8532.587164895402
975 8532.481308498373
976 8532.715752590009
977 8532.623123597474
978 8532.863791411437
979 8532.77031849267
980 8532.990167870375
981 8532.897308659736
982 8533.130148967439
983 8533.032689458154
984 8533.253491773097
985 8533.151342463392
986 8533.38265131514
987 8533.288144767572
988 8533.501242243594
989 8533.40479434129
990 8533.628546534512
991 8533.52077811896
992 8533.741126405081
993 8533.629706858595
994 8533.862423789453
995 8533.745554727629
996 8533.971743646271
997 8533.853744032089
998 8534.087118804011
999 8533.973249477169
1000 8534.192619988828
1001 8534.077112599643
1002 8534.318304317096
1003 8534.203431171411
1004 8534.425089127357
1005 8534.311762012725
1006 8534.54380363151
1007 8534.432492871338
1008 8534.651374525922
1009 8534.539382141911
1010 8534.776900587884
1011 8534.659462561267
1012 8534.884204906019
1013 8534.76830153919
1014 8535.005581148624
1015 8534.889969119724
1016 8535.111837009325
1017 8534.996902926621
1018 8535.23189741796
1019 8535.117094282343
1020 8535.337432373588
1021 8535.211344545511
1022 8535.458381223836
1023 8535.326386789295
1024 8535.554746119815
1025 8535.422828268463
1026 8535.667802997212
1027 8535.535225282758
1028 8535.761315029546
1029 8535.618092886338
1030 8535.864854036288
1031 8535.736195597679
1032 8535.965445098564
1033 8535.831599714678
1034 8536.076969146661
1035 8535.948244014548
1036 8536.16436887648
1037 8536.036194509563
1038 8536.261590852459
1039 8536.150193051632
1040 8536.358415298468
1041 8536.238055608203
1042 8536.465970256122
1043 8536.358384775198
1044 8536.562835091807
1045 8536.45638989792
1046 8536.663969811603
1047 8536.559875718774
1048 8536.760488293048
1049 8536.65303969645
1050 8536.870011550291
1051 8536.760333001172
1052 8536.953632397417
1053 8536.853069688204
1054 8537.070973998296
1055 8536.959289561384
1056 8537.147545768039
1057 8537.039617140463
1058 8537.248542565487
1059 8537.127208553075
1060 8537.328666713525
1061 8537.19952022178
1062 8537.428295022226
1063 8537.282200355203
1064 8537.492094536703
1065 8537.348614854634
1066 8537.579610869896
1067 8537.429039428425
1068 8537.650480235654
1069 8537.500259527731
1070 8537.732028231398
1071 8537.58178459036
1072 8537.798539854806
1073 8537.663237699464
1074 8537.88868966384
1075 8537.743692185064
1076 8537.951587359144
1077 8537.81544631406
1078 8538.026356308037
1079 8537.894064792081
1080 8538.094047780136
1081 8537.969641492196
1082 8538.183963295647
1083 8538.051703925001
1084 8538.24714161548
1085 8538.120151002597
1086 8538.332727335875
1087 8538.201456471676
1088 8538.396649607719
1089 8538.272244535739
1090 8538.475563942608
1091 8538.347225749707
1092 8538.538180053187
1093 8538.409408235164
1094 8538.612485921431
1095 8538.489531811201
1096 8538.665617168772
1097 8538.550303087644
1098 8538.746008380007
1099 8538.61868514317
1100 8538.801070065776
1101 8538.671135372691
1102 8538.875564240079
1103 8538.737598832475
1104 8538.923448018277
1105 8538.791439170298
1106 8538.990931915183
1107 8538.855307491496
1108 8539.056098931196
1109 8538.924549821715
1110 8539.131530640745
1111 8538.988198867073
1112 8539.178649982165
1113 8539.036002171744
1114 8539.244850376979
1115 8539.101481982225
1116 8539.294765695302
1117 8539.151540099712
1118 8539.356840093487
1119 8539.217800446884
1120 8539.405071935986
1121 8539.26557029077
1122 8539.471104541146
1123 8539.328742908468
1124 8539.510301902259
1125 8539.377171795817
1126 8539.561164410798
1127 8539.424911930844
1128 8539.613388344545
1129 8539.487713879347
1130 8539.66733412101
1131 8539.53519232787
1132 8539.714482302245
1133 8539.577741731355
1134 8539.773786889747
1135 8539.64346470527
1136 8539.820866575968
1137 8539.688335018804
1138 8539.876803455214
1139 8539.741023716157
1140 8539.924140603531
1141 8539.782150296127
1142 8539.977225830022
1143 8539.840543298615
1144 8540.029980492815
1145 8539.889482493407
1146 8540.092479662635
1147 8539.946773811
1148 8540.133707933273
1149 8539.989858799961
1150 8540.185327661833
1151 8540.03455222527
1152 8540.227276347332
1153 8540.086270982334
1154 8540.28655840076
1155 8540.142437877994
1156 8540.327729889377
1157 8540.188206813496
1158 8540.376550716966
1159 8540.233036133326
1160 8540.407961858577
1161 8540.264108375113
1162 8540.464305432599
1163 8540.323517008017
1164 8540.496999661744
1165 8540.356406770852
1166 8540.546086761286
1167 8540.402763268534
1168 8540.584904696725
1169 8540.441955713726
1170 8540.628173087192
1171 8540.493902009637
1172 8540.675487386026
1173 8540.531399047019
1174 8540.72478037098
1175 8540.585954440106
1176 8540.767245125395
1177 8540.629129873825
1178 8540.807345348041
1179 8540.681876470839
1180 8540.851061371477
1181 8540.713566796741
1182 8540.902019647989
1183 8540.770187053164
1184 8540.941057158079
1185 8540.811918361131
1186 8540.986594154097
1187 8540.856168566059
1188 8541.026306109843
1189 8540.898187677196
1190 8541.076250145683
1191 8540.938139434591
1192 8541.111931330273
1193 8540.978748242682
1194 8541.170652540501
1195 8541.023104944557
1196 8541.19059348175
1197 8541.044772670684
1198 8541.225666122124
1199 8541.082378934962
1200 8541.260232978744
1201 8541.112866449139
1202 8541.300466334727
1203 8541.144988410731
1204 8541.331688218897
1205 8541.186705460766
1206 8541.370580423953
1207 8541.220382557491
1208 8541.404511288114
1209 8541.258690487555
1210 8541.446340230452
1211 8541.296042738995
1212 8541.479999742161
1213 8541.33316420154
1214 8541.515673263551
1215 8541.370176798782
1216 8541.542179230657
1217 8541.402716045948
1218 8541.58183784289
1219 8541.44004218374
1220 8541.614901210949
1221 8541.479917846385
1222 8541.657101269668
1223 8541.514272375704
1224 8541.674995818399
1225 8541.543676603276
1226 8541.713478652422
1227 8541.573855421822
1228 8541.735816479099
1229 8541.600338627723
1230 8541.769047454032
1231 8541.624901604053
1232 8541.792536395435
1233 8541.641220346346
1234 8541.823147547706
1235 8541.666836992075
1236 8541.829825167775
1237 8541.679299381327
1238 8541.855767439849
1239 8541.701758061417
1240 8541.877696945403
1241 8541.724172477654
1242 8541.905013822015
1243 8541.743109513704
1244 8541.920574337268
1245 8541.757384403034
1246 8541.94653031083
1247 8541.794234864479
1248 8541.983539016945
1249 8541.829274457932
1250 8542.012258402008
1251 8541.853845690141
1252 8542.036374062507
1253 8541.879943102284
1254 8542.068463990205
1255 8541.906456945335
1256 8542.090548996435
1257 8541.937213736906
1258 8542.124216021517
1259 8541.970204673866
1260 8542.143788153717
1261 8541.981144754391
1262 8542.165312855193
1263 8542.010735592581
1264 8542.177565742397
1265 8542.023515153605
1266 8542.198934830243
1267 8542.042895874167
1268 8542.213488609776
1269 8542.051314490935
1270 8542.225760084473
1271 8542.064945301961
1272 8542.23801195854
1273 8542.070932125282
1274 8542.263074633873
1275 8542.092461329063
1276 8542.271777580332
1277 8542.102796978637
1278 8542.294218772284
1279 8542.121955536899
1280 8542.305317426644
1281 8542.130124768033
1282 8542.329805096153
1283 8542.168831440387
1284 8542.352079078923
1285 8542.188390260038
1286 8542.379155070061
1287 8542.221836676958
1288 8542.401242813352
1289 8542.245506604333
1290 8542.427286037735
1291 8542.275351568116
1292 8542.449962885716
1293 8542.299023974956
1294 8542.489764032105
1295 8542.34015169522
1296 8542.508931680653
1297 8542.362812033742
1298 8542.539495005656
1299 8542.396258833594
1300 8542.559623451683
1301 8542.404472233349
1302 8542.587322639274
1303 8542.442109726113
1304 8542.608492867137
1305 8542.461151318441
1306 8542.645817593904
1307 8542.495692333659
1308 8542.660057291936
1309 8542.507884642013
1310 8542.692603020212
1311 8542.542810281535
1312 8542.729945386396
1313 8542.561093584132
1314 8542.76247837451
1315 8542.596723546028
1316 8542.77896016442
1317 8542.608715564784
1318 8542.798279110766
1319 8542.641347102865
1320 8542.818486229602
1321 8542.65711682365
1322 8542.847818988874
1323 8542.684655958459
1324 8542.868953040281
1325 8542.70676059783
1326 8542.894798725196
1327 8542.735531673028
1328 8542.917789024203
1329 8542.755516935165
1330 8542.953097760028
1331 8542.792871208012
1332 8542.971113294456
1333 8542.809970507198
1334 8542.998034981722
1335 8542.833627419188
1336 8543.00866243975
1337 8542.847951017955
1338 8543.025587882337
1339 8542.869011838729
1340 8543.040067685006
1341 8542.876995359535
1342 8543.053003896299
1343 8542.897226803583
1344 8543.059808466549
1345 8542.90275646283
1346 8543.067482991579
1347 8542.921858020094
1348 8543.091346453921
1349 8542.938062936126
1350 8543.112575065574
1351 8542.959162279041
1352 8543.133346054075
1353 8542.971139458994
1354 8543.160810390216
1355 8543.004896532651
1356 8543.17770071421
1357 8543.011018780744
1358 8543.195327080697
1359 8543.036542125205
1360 8543.215036312797
1361 8543.042947833741
1362 8543.227632301485
1363 8543.065638002799
1364 8543.236525684557
1365 8543.069358778153
1366 8543.252900445133
1367 8543.091823554449
1368 8543.260945535891
1369 8543.093375448672
1370 8543.273281884634
1371 8543.108684447983
1372 8543.276055203416
1373 8543.111425879219
1374 8543.285228893996
1375 8543.127702626361
1376 8543.298068683971
1377 8543.133574409252
1378 8543.315519354594
1379 8543.156336689672
1380 8543.320211846118
1381 8543.155935905141
1382 8543.332180644447
1383 8543.167597038524
1384 8543.338312237922
1385 8543.169803868594
1386 8543.355785737282
1387 8543.193616683984
1388 8543.378531764873
1389 8543.209278398726
1390 8543.39654885603
1391 8543.227385545184
1392 8543.403180304937
1393 8543.235382596786
1394 8543.423644118016
1395 8543.250633245723
1396 8543.424680756552
1397 8543.262863188991
1398 8543.440854350225
1399 8543.281500835001
1400 8543.449466845292
1401 8543.281611493732
1402 8543.4634436052
1403 8543.291947078218
1404 8543.458748472283
1405 8543.295519441184
1406 8543.464878991856
1407 8543.301029365046
1408 8543.462449649505
1409 8543.304315301288
1410 8543.470819535638
1411 8543.306073804912
1412 8543.468149777724
1413 8543.305534312036
1414 8543.489651264626
1415 8543.326227143854
1416 8543.497877323523
1417 8543.33557329504
1418 8543.512065879364
1419 8543.347757357449
1420 8543.519375650892
1421 8543.353541994718
1422 8543.539500442561
1423 8543.3690322156
1424 8543.54227152694
1425 8543.380417932205
1426 8543.565583641306
1427 8543.397201291704
1428 8543.568401250559
1429 8543.402001290835
1430 8543.58187814419
1431 8543.414570058034
1432 8543.583970145328
1433 8543.430123892327
1434 8543.611858937555
1435 8543.44934096462
1436 8543.61056965731
1437 8543.447441488202
1438 8543.612787023534
1439 8543.458604154132
1440 8543.609832684302
1441 8543.443803089513
1442 8543.621325343134
1443 8543.45397887368
1444 8543.62127510244
1445 8543.461252180072
1446 8543.631835150787
1447 8543.465279978462
1448 8543.637512008347
1449 8543.473524252393
1450 8543.658555167594
1451 8543.494529010894
1452 8543.672922258722
1453 8543.507989908761
1454 8543.69177495158
1455 8543.52648558412
1456 8543.703299859753
1457 8543.537048674783
1458 8543.717926647394
1459 8543.55791411417
1460 8543.732937254274
1461 8543.557060077223
1462 8543.742771966394
1463 8543.575184478728
1464 8543.751764796747
1465 8543.578894217846
1466 8543.765115024471
1467 8543.592576628667
1468 8543.769969615374
1469 8543.601828987792
1470 8543.792037817477
1471 8543.61130366366
1472 8543.790720374594
1473 8543.613813704753
1474 8543.804776837806
1475 8543.619799855978
1476 8543.794237226208
1477 8543.616776830901
1478 8543.79797330667
1479 8543.620421079213
1480 8543.797608973979
1481 8543.625878715424
1482 8543.805102781349
1483 8543.633820576964
1484 8543.800099133565
1485 8543.634553789761
1486 8543.810564133255
1487 8543.646052789993
1488 8543.810361459264
1489 8543.650919620513
1490 8543.82298934975
1491 8543.67030609999
1492 8543.836755375096
1493 8543.6821642412
1494 8543.853886911733
1495 8543.699246618895
1496 8543.862809846438
1497 8543.707619795885
1498 8543.885938724125
1499 8543.727506728768
1500 8543.891914803804
1501 8543.726475118432
1502 8543.902165618234
1503 8543.743425369561
1504 8543.906887332529
1505 8543.750788258441
1506 8543.925804088283
1507 8543.759891358919
1508 8543.929593295199
1509 8543.763556938249
1510 8543.940212201793
1511 8543.77174861063
1512 8543.938149314547
1513 8543.768840899282
1514 8543.941540676182
1515 8543.773457697314
1516 8543.939013105215
1517 8543.773605211751
1518 8543.942082134356
1519 8543.786231361912
1520 8543.945390618906
1521 8543.773019941835
1522 8543.949677065011
1523 8543.778021916043
1524 8543.941702247894
1525 8543.767093989856
1526 8543.93991377873
1527 8543.769788942738
1528 8543.943002452439
1529 8543.779823269902
1530 8543.961043535739
1531 8543.786291450924
1532 8543.951008912942
1533 8543.777861905977
1534 8543.961864160627
1535 8543.783128706396
1536 8543.952700484877
1537 8543.78256063267
1538 8543.960329206426
1539 8543.791747466801
1540 8543.951032695717
1541 8543.784242666803
1542 8543.953930457281
1543 8543.789722347397
1544 8543.946150511141
1545 8543.782539394128
1546 8543.953217247508
1547 8543.79508506208
1548 8543.957007429142
1549 8543.791827611671
1550 8543.95275127383
1551 8543.792114306971
1552 8543.952673768728
1553 8543.783795421719
1554 8543.963823662301
1555 8543.796147568584
1556 8543.963616439671
1557 8543.789397641445
1558 8543.967527452052
1559 8543.793707910458
1560 8543.963057278541
1561 8543.786536083913
1562 8543.973099881603
1563 8543.795916443065
1564 8543.973044608736
1565 8543.796743296518
1566 8543.989618027901
1567 8543.811733739545
1568 8543.984543483068
1569 8543.807792745476
1570 8543.997879434404
1571 8543.813291941888
1572 8543.983673689168
1573 8543.806070442884
1574 8543.993107892658
1575 8543.817569507211
1576 8543.981828413707
1577 8543.811087826603
1578 8543.98034300789
1579 8543.809788539869
1580 8543.966419389188
1581 8543.793411840083
1582 8543.967657290908
1583 8543.807004760196
1584 8543.964573059211
1585 8543.80604357939
1586 8543.965158101557
1587 8543.813510656375
1588 8543.967501426363
1589 8543.827223686663
1590 8543.98448625866
1591 8543.836068289949
1592 8543.989687632937
1593 8543.836281953967
1594 8544.004666745721
1595 8543.846186809369
1596 8544.006208681481
1597 8543.85706789196
1598 8544.023826069382
1599 8543.87013207961
1600 8544.034773721309
1601 8543.868504166925
1602 8544.05041934361
1603 8543.878083527969
1604 8544.04561261655
1605 8543.880309377106
1606 8544.061377290165
1607 8543.891561455894
1608 8544.071603643995
1609 8543.904004063957
1610 8544.09847128908
1611 8543.920780336835
1612 8544.099576734852
1613 8543.930093138175
1614 8544.118804401156
1615 8543.937814579489
1616 8544.116611082263
1617 8543.941545064983
1618 8544.128297441413
1619 8543.956883760293
1620 8544.126176793685
1621 8543.953911400004
1622 8544.138837847522
1623 8543.96658099263
1624 8544.146119230139
1625 8543.98574780223
1626 8544.162483964501
1627 8543.993489416745
1628 8544.16201381292
1629 8544.001277615554
1630 8544.174017651196
1631 8544.021490698133
1632 8544.180190514209
1633 8544.031322092262
1634 8544.204047663117
1635 8544.046439787
1636 8544.203519001794
1637 8544.048668279776
1638 8544.217744930589
1639 8544.05934446667
1640 8544.222030789195
1641 8544.052077911869
1642 8544.226683561714
1643 8544.052531507416
1644 8544.217901249267
1645 8544.042853042725
1646 8544.210833534617
1647 8544.044946548038
1648 8544.210923592043
1649 8544.039934969458
1650 8544.21368875491
1651 8544.04350325767
1652 8544.219619695374
1653 8544.035664217108
1654 8544.222787065642
1655 8544.044937147435
1656 8544.217495294561
1657 8544.041747414072
1658 8544.217879321654
1659 8544.042347462826
1660 8544.220932326336
1661 8544.052884562609
1662 8544.231497996869
1663 8544.057182524957
1664 8544.228957979401
1665 8544.060275905444
1666 8544.235923555125
1667 8544.077750190148
1668 8544.241565663249
1669 8544.079087002572
1670 8544.249655731761
1671 8544.080330734354
1672 8544.236362130634
1673 8544.072632415937
1674 8544.252592530866
1675 8544.075317373916
1676 8544.235638016238
1677 8544.066297946298
1678 8544.23871362347
1679 8544.067247388359
1680 8544.240289597077
1681 8544.068855285406
1682 8544.244360356995
1683 8544.065852059372
1684 8544.23464912929
1685 8544.057705123263
1686 8544.239686336687
1687 8544.054350656519
1688 8544.230227033675
1689 8544.059058536666
1690 8544.232711094013
1691 8544.065871103472
1692 8544.228981614808
1693 8544.060727136359
1694 8544.229991716067
1695 8544.064898445802
1696 8544.220661835232
1697 8544.065206200905
1698 8544.218219652386
1699 8544.060308134452
1700 8544.209765862701
1701 8544.062506583081
1702 8544.215250797248
1703 8544.068879627182
1704 8544.222542501449
1705 8544.069655882178
1706 8544.229699165066
1707 8544.080874416355
1708 8544.227847540904
1709 8544.072240567873
1710 8544.239414536323
1711 8544.084613028548
1712 8544.239794797611
1713 8544.075683667354
1714 8544.260035894406
1715 8544.082437053634
1716 8544.249342087456
1717 8544.076649718361
1718 8544.247114919688
1719 8544.072577480265
1720 8544.244171142416
1721 8544.058845272097
1722 8544.243873339683
1723 8544.059576917141
1724 8544.242059531642
1725 8544.049636243439
1726 8544.239927911924
1727 8544.057069375049
1728 8544.242894131663
1729 8544.056785353681
1730 8544.24635575952
1731 8544.060745037026
1732 8544.24592184331
1733 8544.056149764339
1734 8544.255794493019
1735 8544.070757454623
1736 8544.246829683738
1737 8544.069007101501
1738 8544.254042047914
1739 8544.086225898502
1740 8544.254383727084
1741 8544.081439971613
1742 8544.254416082416
1743 8544.095815995945
1744 8544.251686362913
1745 8544.092267003211
1746 8544.26506054845
1747 8544.106912446279
1748 8544.262858332771
1749 8544.095444482055
1750 8544.266324479999
1751 8544.101891227025
1752 8544.264590128241
1753 8544.095839953246
1754 8544.267076159307
1755 8544.101029916013
1756 8544.25776159751
1757 8544.0916457115
1758 8544.255240789693
1759 8544.095329049665
1760 8544.254408207275
1761 8544.088274447691
1762 8544.260125910147
1763 8544.095507144228
1764 8544.266348624513
1765 8544.097170164665
1766 8544.274198702749
1767 8544.106986471785
1768 8544.278763400103
1769 8544.109433800029
1770 8544.287895959593
1771 8544.127551632952
1772 8544.296186065831
1773 8544.129593418842
1774 8544.308466937549
1775 8544.138506822124
1776 8544.302494396576
1777 8544.137168415913
1778 8544.314969639516
1779 8544.146012945133
1780 8544.305968002145
1781 8544.14426403467
1782 8544.310718681438
1783 8544.143771668489
1784 8544.296642358533
1785 8544.135803587278
1786 8544.305248827493
1787 8544.144346568828
1788 8544.302483222482
1789 8544.139388894904
1790 8544.308751348821
1791 8544.138840267011
1792 8544.298203313874
1793 8544.12958790127
1794 8544.298846310028
1795 8544.137734166707
1796 8544.30216035065
1797 8544.142825055857
1798 8544.315214894908
1799 8544.153199543642
1800 8544.324649431615
1801 8544.159662768825
1802 8544.331661039401
1803 8544.157985102376
1804 8544.323076233337
1805 8544.154542381189
1806 8544.329525427102
1807 8544.159093400565
1808 8544.334389667507
1809 8544.16391730824
1810 8544.34682516158
1811 8544.170909591436
1812 8544.332913303308
1813 8544.162160434484
1814 8544.337028443335
1815 8544.160596417125
1816 8544.321994654447
1817 8544.153526817487
1818 8544.325924772149
1819 8544.15036734666
1820 8544.312056662216
1821 8544.140435039646
1822 8544.308594733584
1823 8544.139770646521
1824 8544.298583250451
1825 8544.131019806813
1826 8544.300550167778
1827 8544.128408766866
1828 8544.292434682824
1829 8544.124530660085
1830 8544.293097448424
1831 8544.121762161671
1832 8544.287127844966
1833 8544.118633051292
1834 8544.297991576419
1835 8544.127268824806
1836 8544.294068496092
1837 8544.126254028421
1838 8544.298711235168
1839 8544.13300374824
1840 8544.295360337444
1841 8544.129876964174
1842 8544.310904152371
1843 8544.144854958788
1844 8544.302269697084
1845 8544.129194701234
1846 8544.306001937115
1847 8544.133378695802
1848 8544.297685836107
1849 8544.123437658387
1850 8544.298830096712
1851 8544.125785145849
1852 8544.282342722578
1853 8544.104053996074
1854 8544.282077998869
1855 8544.111910733212
1856 8544.27638635248
1857 8544.100560799847
1858 8544.273180122296
1859 8544.108131283609
1860 8544.270341149691
1861 8544.084024244059
1862 8544.258349878426
1863 8544.086025523467
1864 8544.258213221248
1865 8544.075244173238
1866 8544.2554136734
1867 8544.087493439221
1868 8544.251473832866
1869 8544.078043991585
1870 8544.257249923621
1871 8544.081658948042
1872 8544.253036888815
1873 8544.082759133928
1874 8544.264803686598
1875 8544.096977126834
1876 8544.259405614421
1877 8544.086344570607
1878 8544.256642314729
1879 8544.091522151772
1880 8544.252058680582
1881 8544.081461879128
1882 8544.259714541584
1883 8544.083962169818
1884 8544.249992700259
1885 8544.083871981968
1886 8544.251635260953
1887 8544.082480823921
1888 8544.233401618334
1889 8544.072914521952
1890 8544.243167374754
1891 8544.088940473008
1892 8544.239689380192
1893 8544.077174261656
1894 8544.244087117384
1895 8544.087284491558
1896 8544.240836548252
1897 8544.078912108844
1898 8544.23386975313
1899 8544.083124219129
1900 8544.248255143209
1901 8544.085733569162
1902 8544.263601231733
1903 8544.103591073314
1904 8544.279269892695
1905 8544.114045783705
1906 8544.298225243827
1907 8544.133430566328
1908 8544.314381670221
1909 8544.136430317318
1910 8544.323419141228
1911 8544.154607064725
1912 8544.332818052235
1913 8544.161190142584
1914 8544.351674658395
1915 8544.176607506506
1916 8544.344469384467
1917 8544.173536236951
1918 8544.349565050208
1919 8544.175224021463
1920 8544.354266265251
1921 8544.184599020769
1922 8544.362067380845
1923 8544.177805240399
1924 8544.35433827361
1925 8544.17649467207
1926 8544.36038423327
1927 8544.190269740231
1928 8544.363570297699
1929 8544.189692570111
1930 8544.37771079993
1931 8544.203573385561
1932 8544.373375227691
1933 8544.200384643864
1934 8544.369367223586
1935 8544.206967723052
1936 8544.36668846891
1937 8544.211829574788
1938 8544.372848124485
1939 8544.222185460767
1940 8544.373173468884
1941 8544.220555697071
1942 8544.378982080661
1943 8544.223463915298
1944 8544.375147464407
1945 8544.221511911153
1946 8544.387511674091
1947 8544.226925874957
1948 8544.385351817458
1949 8544.218894298941
1950 8544.3878709443
1951 8544.216908007154
1952 8544.377092595636
1953 8544.200805509643
1954 8544.383746904094
1955 8544.208677775759
1956 8544.381768282732
1957 8544.202450955179
1958 8544.383871091177
1959 8544.209398502682
1960 8544.378792819878
1961 8544.198885065143
1962 8544.372151684154
1963 8544.201534949831
1964 8544.365141256814
1965 8544.199280045445
1966 8544.37160477524
1967 8544.204525701656
1968 8544.370550023174
1969 8544.212751321025
1970 8544.372095494462
1971 8544.218324826257
1972 8544.364218981931
1973 8544.218934664979
1974 8544.372248758173
1975 8544.229365985733
1976 8544.372377063935
1977 8544.228194661948
1978 8544.38179318553
1979 8544.228429157376
1980 8544.367846695763
1981 8544.213512470133
1982 8544.377938060283
1983 8544.210329095047
1984 8544.369307088893
1985 8544.201391109873
1986 8544.383044210717
1987 8544.201317140802
1988 8544.377855463681
1989 8544.200315026466
1990 8544.383353084862
1991 8544.1981943642
1992 8544.369698702692
1993 8544.194641953323
1994 8544.37914465551
1995 8544.19488228405
1996 8544.366816770022
1997 8544.19262140323
1998 8544.370657990483
1999 8544.198014404636
2000 8544.367592836377
2001 8544.190733229665
2002 8544.364122916133
2003 8544.188929710695
2004 8544.356939903435
2005 8544.186405702945
2006 8544.35886688125
2007 8544.190720371989
2008 8544.364519177427
2009 8544.201075159041
2010 8544.37615878348
2011 8544.205411040055
2012 8544.375707181685
2013 8544.205622930293
2014 8544.382293057928
2015 8544.209977845767
2016 8544.379665353585
2017 8544.208126810805
2018 8544.377299814556
2019 8544.194211066439
2020 8544.364664115545
2021 8544.183346470751
2022 8544.372472550567
2023 8544.187701816409
2024 8544.358868169567
2025 8544.178610032212
2026 8544.358819477588
2027 8544.171451981736
2028 8544.348589614561
2029 8544.165294187978
2030 8544.348434251837
2031 8544.167237620324
2032 8544.344287591095
2033 8544.17144294426
2034 8544.359682113842
2035 8544.184142332393
2036 8544.353177998795
2037 8544.177137340082
2038 8544.353454768163
2039 8544.18418143937
2040 8544.351189945426
2041 8544.190812450279
2042 8544.365815471429
2043 8544.204923416692
2044 8544.361326039374
2045 8544.207907537577
2046 8544.365548018575
2047 8544.218633030499
2048 8544.36719409109
2049 8544.219709799392
2050 8544.378049990893
2051 8544.231635286516
2052 8544.376114622461
2053 8544.231854432181
2054 8544.385326044769
2055 8544.231375991183
2056 8544.3694828433
2057 8544.222353289686
2058 8544.380738325663
2059 8544.22251386367
2060 8544.375472610405
2061 8544.209427419317
2062 8544.377957396377
2063 8544.205488280142
2064 8544.369440558219
2065 8544.1935147923
2066 8544.362300234512
2067 8544.192145034396
2068 8544.364086495094
2069 8544.190959232592
2070 8544.377570427185
2071 8544.203315026827
2072 8544.377773530076
2073 8544.204310665231
2074 8544.390907224133
2075 8544.216312709008
2076 8544.386936519437
2077 8544.218429502993
2078 8544.389391475857
2079 8544.219288535927
2080 8544.385039709989
2081 8544.218863308455
2082 8544.395007134333
2083 8544.222159069212
2084 8544.383227309769
2085 8544.216479635592
2086 8544.398842896717
2087 8544.228052368209
2088 8544.397528462392
2089 8544.229720888423
2090 8544.402166506359
2091 8544.226513609599
2092 8544.384545331181
2093 8544.216794564561
2094 8544.392692491865
2095 8544.216436713945
2096 8544.378041959733
2097 8544.205939216601
2098 8544.38541217091
2099 8544.208282311503
2100 8544.375755745525
2101 8544.198426062421
2102 8544.379162203937
2103 8544.198256306188
2104 8544.362281977037
2105 8544.189625903344
2106 8544.373350407532
2107 8544.200847621838
2108 8544.374381642863
2109 8544.206346179033
2110 8544.381261637582
2111 8544.21615819185
2112 8544.379351544405
2113 8544.204386411344
2114 8544.393961463496
2115 8544.220516814234
2116 8544.390649729439
2117 8544.212166372303
2118 8544.39307000708
2119 8544.221409900741
2120 8544.379767292583
2121 8544.206244240941
2122 8544.389050363347
2123 8544.213457126809
2124 8544.375602967726
2125 8544.205500059144
2126 8544.388490444289
2127 8544.212636462291
2128 8544.378664991022
2129 8544.204643867926
2130 8544.376017359577
2131 8544.201183579167
2132 8544.352794876741
2133 8544.175137160184
2134 8544.344423830717
2135 8544.180149659594
2136 8544.341957361476
2137 8544.176544376171
2138 8544.333713886608
2139 8544.167920001431
2140 8544.329936899938
2141 8544.158495784599
2142 8544.328475085609
2143 8544.161845738963
2144 8544.322570952667
2145 8544.155139791448
2146 8544.337533306554
2147 8544.165061948639
2148 8544.324654673213
2149 8544.158399131074
2150 8544.329623999804
2151 8544.15785936893
2152 8544.324927443235
2153 8544.154894266454
2154 8544.333213605109
2155 8544.159468663585
2156 8544.313137284875
2157 8544.147470370362
2158 8544.304966710824
2159 8544.142703604892
2160 8544.291244473894
2161 8544.130299520244
2162 8544.287614835566
2163 8544.128205949666
2164 8544.287280336925
2165 8544.125552703152
2166 8544.281385994391
2167 8544.123719556776
2168 8544.272467773999
2169 8544.11221747321
2170 8544.276859067295
2171 8544.115196352017
2172 8544.274753995507
2173 8544.111099657781
2174 8544.278861467183
2175 8544.114436661868
2176 8544.279511118679
2177 8544.117135751896
2178 8544.285889050403
2179 8544.118048679578
2180 8544.285031184589
2181 8544.115488672633
2182 8544.288197932621
2183 8544.11735261618
2184 8544.282456861636
2185 8544.115475995035
2186 8544.296707670161
2187 8544.124174527431
2188 8544.29278561014
2189 8544.124292772656
2190 8544.303286317352
2191 8544.13088898987
2192 8544.291649508619
2193 8544.122815023875
2194 8544.302740382058
2195 8544.133402401683
2196 8544.295578176305
2197 8544.132235311907
2198 8544.303405313405
2199 8544.138471053322
2200 8544.306770907247
2201 8544.138587136198
2202 8544.318531515055
2203 8544.156275904828
2204 8544.31570884477
2205 8544.149477715371
2206 8544.326753769448
2207 8544.167854019279
2208 8544.334958593125
2209 8544.170002951081
2210 8544.356137834913
2211 8544.186281717652
2212 8544.354783896733
2213 8544.184728935537
2214 8544.372088051763
2215 8544.208377180083
2216 8544.377949187778
2217 8544.210694915466
2218 8544.394881470633
2219 8544.232183465439
2220 8544.390793374316
2221 8544.221403869611
2222 8544.401383666822
2223 8544.236734348222
2224 8544.394841432313
2225 8544.23644386575
2226 8544.407229901961
2227 8544.238097906104
2228 8544.405405398853
2229 8544.232942311281
2230 8544.400666264426
2231 8544.227192653396
2232 8544.390244434904
2233 8544.214873389003
2234 8544.3955798267
2235 8544.219108176254
2236 8544.380451990884
2237 8544.203825039045
2238 8544.378557610311
2239 8544.214908743905
2240 8544.387483152072
2241 8544.218687061459
2242 8544.38737801979
2243 8544.223443118415
2244 8544.397776189948
2245 8544.237265866259
2246 8544.406553691688
2247 8544.250354596044
2248 8544.405674950298
2249 8544.256186905488
2250 8544.419440265747
2251 8544.26352425038
2252 8544.40945407465
2253 8544.250164526851
2254 8544.422526219876
2255 8544.262263775181
2256 8544.42146251241
2257 8544.259179764076
2258 8544.425950645595
2259 8544.263178896597
2260 8544.41468820362
2261 8544.25021038846
2262 8544.417459304887
2263 8544.242816819362
2264 8544.405230854318
2265 8544.23230821693
2266 8544.406479281539
2267 8544.226766881109
2268 8544.394170936417
2269 8544.210561883303
2270 8544.386153834395
2271 8544.205790141732
2272 8544.375585932763
2273 8544.202884705062
2274 8544.386641115201
2275 8544.214308751532
2276 8544.383651768876
2277 8544.209180448701
2278 8544.380828155601
2279 8544.214183050695
2280 8544.383933239689
2281 8544.213579556579
2282 8544.389512676136
2283 8544.229275187028
2284 8544.39713478356
2285 8544.237306411034
2286 8544.405374352658
2287 8544.239186268038
2288 8544.395661917621
2289 8544.236971771181
2290 8544.407947660175
2291 8544.23268648369
2292 8544.39390358852
2293 8544.222322817173
2294 8544.407242908346
2295 8544.227070086259
2296 8544.39769177135
2297 8544.227301276525
2298 8544.402221714245
2299 8544.227702247239
2300 8544.389569765934
2301 8544.209200868445
2302 8544.380643345399
2303 8544.204121751452
2304 8544.371106029896
2305 8544.200550141015
2306 8544.366939569103
2307 8544.195433124067
2308 8544.357623647935
2309 8544.187984631166
2310 8544.366183913306
2311 8544.188908178319
2312 8544.358572901991
2313 8544.182607271898
2314 8544.372421292546
2315 8544.191060279298
2316 8544.363300327477
2317 8544.19156923729
2318 8544.37405763786
2319 8544.200381641707
2320 8544.37725696405
2321 8544.206455798505
2322 8544.394639145657
2323 8544.214968507411
2324 8544.388822392188
2325 8544.210822778063
2326 8544.389390920183
2327 8544.217948419197
2328 8544.382261245662
2329 8544.215022385839
2330 8544.391245472018
2331 8544.218641765547
2332 8544.378342107939
2333 8544.214355065293
2334 8544.383213150497
2335 8544.217286607331
2336 8544.371975543316
2337 8544.207488091892
2338 8544.372963992009
2339 8544.207320632646
2340 8544.365774234033
2341 8544.20117841984
2342 8544.369926709807
2343 8544.197125927738
2344 8544.356416886018
2345 8544.200330244417
2346 8544.373065797678
2347 8544.2037143299
2348 8544.373044636621
2349 8544.203158405075
2350 8544.38473424155
2351 8544.207898654258
2352 8544.371772587223
2353 8544.205832212376
2354 8544.385887083739
2355 8544.217192171554
2356 8544.381484015834
2357 8544.215366015284
2358 8544.387315285223
2359 8544.225063108508
2360 8544.377648823325
2361 8544.214931793929
2362 8544.387029335305
2363 8544.226807977568
2364 8544.37536754583
2365 8544.216403956545
2366 8544.379365239105
2367 8544.224320760619
2368 8544.376937371551
2369 8544.216850479414
2370 8544.383432535386
2371 8544.220954459232
2372 8544.376756131807
2373 8544.2047900462
2374 8544.374608027338
2375 8544.206080679038
2376 8544.376943516316
2377 8544.207701997799
2378 8544.380593435015
2379 8544.211906758921
2380 8544.377851524352
2381 8544.201545529519
2382 8544.380411262124
2383 8544.209954993104
2384 8544.379311482193
2385 8544.210543474874
2386 8544.390229071214
2387 8544.227192511104
2388 8544.399495906966
2389 8544.23060744085
2390 8544.408841997742
2391 8544.241535083725
2392 8544.401882232425
2393 8544.234596884893
2394 8544.411297333196
2395 8544.244686035594
2396 8544.400121301967
2397 8544.238778585681
2398 8544.396750560818
2399 8544.233504821952
2400 8544.385713435064
2401 8544.220900121418
2402 8544.394917979487
2403 8544.222364958494
2404 8544.38233497683
2405 8544.209130454628
2406 8544.388141374937
2407 8544.211877964253
2408 8544.38898178948
2409 8544.208938837151
2410 8544.389312992138
2411 8544.214225191196
2412 8544.388401445027
2413 8544.212153059907
2414 8544.391853398834
2415 8544.21513587705
2416 8544.383685173185
2417 8544.227753535892
2418 8544.389303584992
2419 8544.228126841159
2420 8544.386466903086
2421 8544.220344893774
2422 8544.383347565692
2423 8544.218463135945
2424 8544.381994233217
2425 8544.217576594932
2426 8544.379492239632
2427 8544.21397955153
2428 8544.370694361884
2429 8544.202876845246
2430 8544.378079696691
2431 8544.203176345498
2432 8544.369804060178
2433 8544.18956133913
2434 8544.379508159274
2435 8544.187101412925
2436 8544.358990785118
2437 8544.175959242033
2438 8544.354119330525
2439 8544.169378981263
2440 8544.337121930894
2441 8544.154220499375
2442 8544.335318196196
2443 8544.151294594598
2444 8544.323165980688
2445 8544.146815099091
2446 8544.323554120609
2447 8544.151731211108
2448 8544.319188210789
2449 8544.158127737477
2450 8544.329288266175
2451 8544.166531483923
2452 8544.323481998841
2453 8544.165998388155
2454 8544.329065762102
2455 8544.166172003312
2456 8544.314134854598
2457 8544.165714077839
2458 8544.323722948397
2459 8544.173012171472
2460 8544.317390241329
2461 8544.16576433913
2462 8544.325293847127
2463 8544.164222632064
2464 8544.310596191426
2465 8544.15798868616
2466 8544.313602156832
2467 8544.14663069376
2468 8544.297313921388
2469 8544.131879315037
2470 8544.297816942679
2471 8544.126160521404
2472 8544.284674569144
2473 8544.115671952144
2474 8544.292758592757
2475 8544.115527023432
2476 8544.286322114438
2477 8544.108362941821
2478 8544.289480176341
2479 8544.110668859827
2480 8544.287779285449
2481 8544.113789170402
2482 8544.298704852759
2483 8544.125776980582
2484 8544.294464148594
2485 8544.122377025795
2486 8544.308946547939
2487 8544.129127877417
2488 8544.3172627607
2489 8544.140760482769
2490 8544.329702338957
2491 8544.150455583747
2492 8544.32502171174
2493 8544.142233143246
2494 8544.336940161698
2495 8544.160473483564
2496 8544.333931471894
2497 8544.152998959673
2498 8544.339235343492
2499 8544.167311566898
2500 8544.333936083114
2501 8544.165729005228
2502 8544.338390528765
2503 8544.171427805997
2504 8544.331648442498
2505 8544.175795199164
2506 8544.343578393065
2507 8544.185747817937
2508 8544.343246691604
2509 8544.188282571813
2510 8544.34769746257
2511 8544.195898392105
2512 8544.349683333634
2513 8544.188142420944
2514 8544.356000994385
2515 8544.204229209998
2516 8544.36113884921
2517 8544.203147025817
2518 8544.368954212827
2519 8544.217407324842
2520 8544.3887148924
2521 8544.222004612615
2522 8544.401690522036
2523 8544.232206584824
2524 8544.403248550263
2525 8544.23626198497
2526 8544.418278211966
2527 8544.248912773697
2528 8544.420067974836
2529 8544.25752943756
2530 8544.435323412854
2531 8544.264330683605
2532 8544.422627106816
2533 8544.253564169363
2534 8544.432710313362
2535 8544.266040267787
2536 8544.421493634885
2537 8544.25735255932
2538 8544.419341258557
2539 8544.260361448798
2540 8544.403025123716
2541 8544.241795026126
2542 8544.405301177627
2543 8544.244253091183
2544 8544.395229828411
2545 8544.237388785688
2546 8544.401470769992
2547 8544.237124115962
2548 8544.397101950277
2549 8544.234357212596
2550 8544.399844923877
2551 8544.234326023739
2552 8544.400429279322
2553 8544.22857858172
2554 8544.407472440702
2555 8544.228630754209
2556 8544.399776646453
2557 8544.228993959545
2558 8544.403595563721
2559 8544.228001323125
2560 8544.396370945824
2561 8544.223485316612
2562 8544.399172852691
2563 8544.231726100124
2564 8544.396181235963
2565 8544.235078107067
2566 8544.407706165181
2567 8544.24099144558
2568 8544.400451560634
2569 8544.241928659207
2570 8544.407902270143
2571 8544.243472488395
2572 8544.398938035862
2573 8544.232198188516
2574 8544.408191058155
2575 8544.236643984381
2576 8544.393340264423
2577 8544.225767364675
2578 8544.39673642615
2579 8544.227932853863
2580 8544.390425888556
2581 8544.206551860259
2582 8544.384365450745
2583 8544.202619230115
2584 8544.370933707702
2585 8544.200873921538
2586 8544.373672186472
2587 8544.200083097769
2588 8544.371776245296
2589 8544.202382193494
2590 8544.382646887903
2591 8544.209148162039
2592 8544.377765142506
2593 8544.213181280846
2594 8544.389925954094
2595 8544.213095394774
2596 8544.375348442882
2597 8544.218366481869
2598 8544.383626965362
2599 8544.220071851663
2600 8544.37860929487
2601 8544.221242271851
2602 8544.391369769872
2603 8544.22471553273
2604 8544.382897045691
2605 8544.221640781299
2606 8544.384849156068
2607 8544.217394893902
2608 8544.37384514011
2609 8544.216719081811
2610 8544.386332806218
2611 8544.214276423474
2612 8544.379681512119
2613 8544.202460906952
2614 8544.386258538309
2615 8544.199294518941
2616 8544.376040037771
2617 8544.193452712218
2618 8544.375604225705
2619 8544.197435834672
2620 8544.372429493616
2621 8544.196162453078
2622 8544.378758317336
2623 8544.199670629636
2624 8544.371229118024
2625 8544.196378557217
2626 8544.381445010213
2627 8544.211906084587
2628 8544.385190953493
2629 8544.207996201942
2630 8544.391309085218
2631 8544.221863487463
2632 8544.383509473735
2633 8544.220845435364
2634 8544.397368904596
2635 8544.221095434077
2636 8544.380450299504
2637 8544.21267182896
2638 8544.373747886042
2639 8544.204075292155
2640 8544.367678316663
2641 8544.198996354489
2642 8544.375572183122
2643 8544.208276110114
2644 8544.36897174031
2645 8544.205938030462
2646 8544.384631263352
2647 8544.213595813286
2648 8544.380834242427
2649 8544.218061674561
2650 8544.39227583301
2651 8544.224313895631
2652 8544.38701156879
2653 8544.216556144602
2654 8544.394316894795
2655 8544.229549419675
2656 8544.390717424305
2657 8544.227977914281
2658 8544.399066883161
2659 8544.242993717691
2660 8544.40405226272
2661 8544.237532548834
2662 8544.408762402043
2663 8544.24675049305
2664 8544.401490995389
2665 8544.242523277659
2666 8544.41153008728
2667 8544.25448965244
2668 8544.408788035806
2669 8544.25393762167
2670 8544.414951378503
2671 8544.250714863783
2672 8544.398546040331
2673 8544.232682788304
2674 8544.398928774532
2675 8544.237635366331
2676 8544.392949091014
2677 8544.221754309177
2678 8544.398352575316
2679 8544.234958788205
2680 8544.396721433386
2681 8544.217061948326
2682 8544.398100811191
2683 8544.228018385982
2684 8544.399232113677
2685 8544.220739998733
2686 8544.407548996096
2687 8544.23690163687
2688 8544.411721529321
2689 8544.238961881361
2690 8544.419534996156
2691 8544.252375196773
2692 8544.42160212962
2693 8544.254249845859
2694 8544.432329764295
2695 8544.263149103999
2696 8544.427148805109
2697 8544.262720627201
2698 8544.428314796391
2699 8544.252765788013
2700 8544.415262321585
2701 8544.24313748251
2702 8544.416507148055
2703 8544.24043267961
2704 8544.401662103564
2705 8544.236074678241
2706 8544.409565075382
2707 8544.235584456013
2708 8544.394458090617
2709 8544.226925359784
2710 8544.391416474269
2711 8544.217053695893
2712 8544.376508573096
2713 8544.214350047416
2714 8544.384669999648
2715 8544.212874870314
2716 8544.370934580606
2717 8544.212547091258
2718 8544.371833524878
2719 8544.204889392413
2720 8544.365163432081
2721 8544.199441814993
2722 8544.369591353436
2723 8544.203463877611
2724 8544.362847250988
2725 8544.205185937226
2726 8544.369935454395
2727 8544.210163055797
2728 8544.372715973121
2729 8544.211455151057
2730 8544.381635334694
2731 8544.219371680765
2732 8544.379183405079
2733 8544.209481596348
2734 8544.389677410474
2735 8544.219387505515
2736 8544.379325163949
2737 8544.20312920073
2738 8544.384785860164
2739 8544.216563872586
2740 8544.377089554986
2741 8544.20017505832
2742 8544.375009220907
2743 8544.200483024759
2744 8544.359581051753
2745 8544.185635711774
2746 8544.364410841605
2747 8544.189899661424
2748 8544.35177999756
2749 8544.170560496661
2750 8544.347072864997
2751 8544.170302874856
2752 8544.334093108791
2753 8544.153324074854
2754 8544.333981859305
2755 8544.152431306931
2756 8544.317007286523
2757 8544.136684188108
2758 8544.312972310716
2759 8544.140098311464
2760 8544.305243453335
2761 8544.135108005134
2762 8544.311435523719
2763 8544.139087525396
2764 8544.300199198971
2765 8544.134993554593
2766 8544.30458796797
2767 8544.138739344779
2768 8544.300936524018
2769 8544.139762670087
2770 8544.316619854962
2771 8544.145107959233
2772 8544.301961196823
2773 8544.131610936745
2774 8544.305058241218
2775 8544.14092543092
2776 8544.295544964551
2777 8544.130824746224
2778 8544.300895095917
2779 8544.137693243703
2780 8544.29788292692
2781 8544.130342392644
2782 8544.296837113929
2783 8544.131680112494
2784 8544.283976934666
2785 8544.127961881157
2786 8544.295034680785
2787 8544.134428640073
2788 8544.294611530164
2789 8544.141874716512
2790 8544.311366240436
2791 8544.15068489541
2792 8544.31319317413
2793 8544.146972588729
2794 8544.32687221436
2795 8544.160200664757
2796 8544.333119738209
2797 8544.167824747832
2798 8544.354722068991
2799 8544.188436559454
2800 8544.357617672449
2801 8544.193587653197
2802 8544.37650322266
2803 8544.203606709221
2804 8544.368672946644
2805 8544.203782824332
2806 8544.377608196075
2807 8544.216013741281
2808 8544.380313071175
2809 8544.222021770924
2810 8544.396665358454
2811 8544.240797232989
2812 8544.388599235657
2813 8544.228412954189
2814 8544.395982597307
2815 8544.238697110748
2816 8544.39202506258
2817 8544.231795816051
2818 8544.39388281786
2819 8544.241003490089
2820 8544.390542378153
2821 8544.224470692525
2822 8544.397649381417
2823 8544.231589090197
2824 8544.404243455283
2825 8544.230509982477
2826 8544.413628455757
2827 8544.23865583702
2828 8544.421419491173
2829 8544.232823579909
2830 8544.422862093616
2831 8544.244507650508
2832 8544.42630205589
2833 8544.245993488963
2834 8544.441804812135
2835 8544.254493935952
2836 8544.43820328378
2837 8544.260141852836
2838 8544.437506773265
2839 8544.257232637179
2840 8544.429095970589
2841 8544.255053623894
2842 8544.432647590042
2843 8544.257452282493
2844 8544.420034610579
2845 8544.248488948173
2846 8544.4180015116
2847 8544.254750761733
2848 8544.405374724898
2849 8544.245972156188
2850 8544.412247541315
2851 8544.24825873487
2852 8544.409150193838
2853 8544.247542061519
2854 8544.414448974621
2855 8544.250321866937
2856 8544.409654798956
2857 8544.25681323907
2858 8544.409119008968
2859 8544.251934173943
2860 8544.403122641097
2861 8544.247096131667
2862 8544.409797576594
2863 8544.248037959775
2864 8544.408789321989
2865 8544.261866399556
2866 8544.426266033262
2867 8544.2652787815
2868 8544.419376750706
2869 8544.257861802334
2870 8544.426015996261
2871 8544.259780444912
2872 8544.414272692435
2873 8544.253684914813
2874 8544.431820629792
2875 8544.25735625438
2876 8544.413482188311
2877 8544.248447824513
2878 8544.419546214644
2879 8544.239275146794
2880 8544.408711589804
2881 8544.228565707817
2882 8544.408056513064
2883 8544.225774060382
2884 8544.394476607189
2885 8544.216085925351
2886 8544.395417089685
2887 8544.221114019143
2888 8544.390652105882
2889 8544.227741484907
2890 8544.403899326615
2891 8544.239971981766
2892 8544.40100913797
2893 8544.237080331603
2894 8544.403414490071
2895 8544.242631019291
2896 8544.395438067504
2897 8544.237849044914
2898 8544.397495024048
2899 8544.242510957334
2900 8544.404885442722
2901 8544.242880426609
2902 8544.421819337102
2903 8544.251632853004
2904 8544.414770117161
2905 8544.237880788687
2906 8544.412309446232
2907 8544.229594752031
2908 8544.397259103647
2909 8544.218351276269
2910 8544.398654932811
2911 8544.216285646593
2912 8544.38331750711
2913 8544.208224105076
2914 8544.387160704408
2915 8544.213793983681
2916 8544.377312657167
2917 8544.200759921103
2918 8544.364941612446
2919 8544.196785418277
2920 8544.363182684534
2921 8544.184085172736
2922 8544.357625244151
2923 8544.187979176248
2924 8544.34462758591
2925 8544.176028389697
2926 8544.356401271229
2927 8544.197393207873
2928 8544.365861211372
2929 8544.200684770714
2930 8544.378282468055
2931 8544.215095091275
2932 8544.382733394676
2933 8544.211019478773
2934 8544.395705142679
2935 8544.223116791001
2936 8544.394799038961
2937 8544.224886090502
2938 8544.406476267355
2939 8544.229806694322
2940 8544.40741823686
2941 8544.235157429648
2942 8544.416590188068
2943 8544.236844281537
2944 8544.412453592769
2945 8544.23177685134
2946 8544.407162695981
2947 8544.240094861851
2948 8544.40955287267
2949 8544.236304049755
2950 8544.413002818093
2951 8544.246533808482
2952 8544.412493032469
2953 8544.241726461318
2954 8544.414429541843
2955 8544.239641381726
2956 8544.409501072458
2957 8544.241224704449
2958 8544.406395122558
2959 8544.234125111745
2960 8544.396462405752
2961 8544.220447061316
2962 8544.40169112804
2963 8544.22916054431
2964 8544.399091078361
2965 8544.223972514765
2966 8544.400708601808
2967 8544.225785238246
2968 8544.393026273623
2969 8544.232941280399
2970 8544.401888312055
2971 8544.237352185493
2972 8544.398180728074
2973 8544.239015957064
2974 8544.410606729029
2975 8544.251814661322
2976 8544.401323154199
2977 8544.247400097889
2978 8544.413527475632
2979 8544.252272083811
2980 8544.400523391476
2981 8544.234995360221
2982 8544.406015670245
2983 8544.24247812543
2984 8544.404891278844
2985 8544.240496669618
2986 8544.407727766018
2987 8544.24467276784
2988 8544.401526606747
2989 8544.232623039241
2990 8544.395812894356
2991 8544.230344879212
2992 8544.394765102052
2993 8544.223564765807
2994 8544.406283459522
2995 8544.241910846178
2996 8544.399081494761
2997 8544.233337584748
2998 8544.400062734898
2999 8544.236877647822
3000 8544.400720909072
3001 8544.229907094264
3002 8544.402584362391
3003 8544.241315746451
3004 8544.400656059765
3005 8544.241004859119
3006 8544.407669793394
3007 8544.248272602403
3008 8544.402720722463
3009 8544.242969899316
3010 8544.412515297352
3011 8544.245850352325
3012 8544.395843521355
3013 8544.237834294012
3014 8544.401436521965
3015 8544.234395190235
3016 8544.377929543642
3017 8544.224994944991
3018 8544.38539134647
3019 8544.220226484274
3020 8544.383004917754
3021 8544.216048707134
3022 8544.388133693181
3023 8544.205099393841
3024 8544.374954122683
3025 8544.195479113921
3026 8544.375684480945
3027 8544.192643972667
3028 8544.369212391261
3029 8544.184206606329
3030 8544.376670293996
3031 8544.193254248481
3032 8544.372345873708
3033 8544.184736445997
3034 8544.383765513332
3035 8544.19527575242
3036 8544.373680923023
3037 8544.180840542929
3038 8544.366501257606
3039 8544.190845668922
3040 8544.360173120163
3041 8544.184101523082
3042 8544.369633211556
3043 8544.200206736608
3044 8544.35528286899
3045 8544.193246010029
3046 8544.353561869619
3047 8544.185163399303
3048 8544.336926710872
3049 8544.180111382162
3050 8544.334557597742
3051 8544.168814673936
3052 8544.316457230889
3053 8544.155006763565
3054 8544.31513578892
3055 8544.158241402127
3056 8544.303033896709
3057 8544.147062348424
3058 8544.30721349021
3059 8544.148688333111
3060 8544.298523731875
3061 8544.126652690902
3062 8544.282993159104
3063 8544.116616077354
3064 8544.275659516872
3065 8544.116668537603
3066 8544.295557377682
3067 8544.130859777229
3068 8544.29884605179
3069 8544.125436688644
3070 8544.304095094487
3071 8544.134579215899
3072 8544.300408327617
3073 8544.127853155349
3074 8544.311072864537
3075 8544.145340377801
3076 8544.313474852039
3077 8544.150615966164
3078 8544.326814974016
3079 8544.162385836011
3080 8544.323200976005
3081 8544.15235050013
3082 8544.325392489596
3083 8544.156852809811
3084 8544.316323663903
3085 8544.146560475885
3086 8544.320693426132
3087 8544.153334669259
3088 8544.313228631609
3089 8544.156395207503
3090 8544.325917921949
3091 8544.166852427163
3092 8544.3255150684
3093 8544.158351440145
3094 8544.331415224065
3095 8544.17112636702
3096 8544.338914045209
3097 8544.173933257875
3098 8544.345513477894
3099 8544.183483434372
3100 8544.348202259753
3101 8544.174213133401
3102 8544.352304248914
3103 8544.191089054511
3104 8544.36282466241
3105 8544.195656804226
3106 8544.384254531227
3107 8544.215682032565
3108 8544.384563760164
3109 8544.2179401707
3110 8544.401236393373
3111 8544.227622562837
3112 8544.398776965201
3113 8544.230249558041
3114 8544.415930962818
3115 8544.242237675346
3116 8544.409322212119
3117 8544.243536957654
3118 8544.410575281119
3119 8544.237961008763
3120 8544.397675616432
3121 8544.232926865301
3122 8544.396393338171
3123 8544.230891844372
3124 8544.388169368976
3125 8544.234789603035
3126 8544.398247820494
3127 8544.233998016934
3128 8544.389392755005
3129 8544.23576738201
3130 8544.399250673541
3131 8544.235113370116
3132 8544.392223218529
3133 8544.232725473517
3134 8544.408428309311
3135 8544.242460068719
3136 8544.407951692698
3137 8544.245487256982
3138 8544.419599184048
3139 8544.250508645255
3140 8544.422503441889
3141 8544.244611356435
3142 8544.434386835126
3143 8544.253150385153
3144 8544.427912622339
3145 8544.258232360788
3146 8544.437456665781
3147 8544.266788592689
3148 8544.429157156996
3149 8544.264809351977
3150 8544.442949482192
3151 8544.266952854363
3152 8544.430798658706
3153 8544.260343943732
3154 8544.428136250261
3155 8544.258935764521
3156 8544.407861341861
3157 8544.240677758347
3158 8544.408570930245
3159 8544.251801880286
3160 8544.405192373588
3161 8544.238269697707
3162 8544.398667947122
3163 8544.238612592473
3164 8544.392058308544
3165 8544.226092780165
3166 8544.390570644135
3167 8544.231332420903
3168 8544.388024667463
3169 8544.233531916083
3170 8544.397652444643
3171 8544.240267716243
3172 8544.399132033357
3173 8544.23802991527
3174 8544.40385562035
3175 8544.247260274618
3176 8544.397073092705
3177 8544.241249727436
3178 8544.402601022852
3179 8544.248850500413
3180 8544.395254556175
3181 8544.234943929967
3182 8544.394883898209
3183 8544.234709142709
3184 8544.381367850312
3185 8544.22505526543
3186 8544.393255121449
3187 8544.229575373116
3188 8544.386409104933
3189 8544.22422340471
3190 8544.393268304615
3191 8544.22846930191
3192 8544.38891084671
3193 8544.220310751325
3194 8544.388351890329
3195 8544.226578275579
3196 8544.386750968471
3197 8544.217722207424
3198 8544.386874290203
3199 8544.221843077888
3200 8544.386786020506
3201 8544.211227798758
3202 8544.385687411235
3203 8544.218414071067
3204 8544.378605070518
3205 8544.213168266579
3206 8544.389483553727
3207 8544.22011240234
3208 8544.384989541684
3209 8544.226914868848
3210 8544.399972044395
3211 8544.2334402334
3212 8544.389540462218
3213 8544.224683232438
3214 8544.393194143659
3215 8544.227249007447
3216 8544.38444732851
3217 8544.223629165022
3218 8544.401438982373
3219 8544.22831520273
3220 8544.38971543409
3221 8544.21282054111
3222 8544.390971210163
3223 8544.210392704381
3224 8544.377229549937
3225 8544.199776146314
3226 8544.376367944875
3227 8544.195983992298
3228 8544.374673054468
3229 8544.197891449805
3230 8544.383170914582
3231 8544.198677534616
3232 8544.369163818572
3233 8544.188150645577
3234 8544.374737170503
3235 8544.199799242659
3236 8544.372565316042
3237 8544.206651151006
3238 8544.38239456715
3239 8544.213148424153
3240 8544.375718150399
3241 8544.209895583599
3242 8544.384244548482
3243 8544.226189275871
3244 8544.390360730284
3245 8544.227612362178
3246 8544.402149449927
3247 8544.240037242002
3248 8544.398283584063
3249 8544.237968480855
3250 8544.405294432208
3251 8544.251602458997
3252 8544.401249785658
3253 8544.239827992767
3254 8544.402204104563
3255 8544.24654270377
3256 8544.394291802733
3257 8544.245867226233
3258 8544.406675616216
3259 8544.247759123928
3260 8544.393787891137
3261 8544.237813553984
3262 8544.392579338357
3263 8544.23654137327
3264 8544.395321440958
3265 8544.235381348188
3266 8544.389239469236
3267 8544.236154189901
3268 8544.387962192757
3269 8544.2386959097
3270 8544.40326863341
3271 8544.239505033054
3272 8544.394913788321
3273 8544.240141954217
3274 8544.413348791622
3275 8544.24727576294
3276 8544.410463710883
3277 8544.254596986992
3278 8544.419446788559
3279 8544.254164284423
3280 8544.409832053894
3281 8544.256361151025
3282 8544.424555416746
3283 8544.257820768207
3284 8544.413771710593
3285 8544.254660379347
3286 8544.415466732869
3287 8544.248457066276
3288 8544.399808882587
3289 8544.24435788092
3290 8544.413064052986
3291 8544.23621660455
3292 8544.392597204625
3293 8544.228614744799
3294 8544.404826362455
3295 8544.230095298832
3296 8544.389264849407
3297 8544.228371888055
3298 8544.398348694182
3299 8544.229406588147
3300 8544.39541327378
3301 8544.223183185703
3302 8544.403109332357
3303 8544.226270730669
3304 8544.396929665092
3305 8544.227552410708
3306 8544.404499693632
3307 8544.229976460383
3308 8544.402565397095
3309 8544.238088376245
3310 8544.416286444028
3311 8544.23830203772
3312 8544.413135570801
3313 8544.243975350108
3314 8544.426514603849
3315 8544.24931771869
3316 8544.416099609503
3317 8544.235596582836
3318 8544.410153360101
3319 8544.236324434201
3320 8544.397521451761
3321 8544.22523337311
3322 8544.396734239583
3323 8544.224022879336
3324 8544.37566946838
3325 8544.209231984309
3326 8544.369319692647
3327 8544.200750428465
3328 8544.359104377221
3329 8544.191058962766
3330 8544.365879619683
3331 8544.194608562077
3332 8544.350629127466
3333 8544.171833350776
3334 8544.34666055084
3335 8544.172267401553
3336 8544.342090736083
3337 8544.164664550883
3338 8544.345015685263
3339 8544.172809395439
3340 8544.349113421327
3341 8544.171851250576
3342 8544.348155497131
3343 8544.176222419655
3344 8544.340393912718
3345 8544.175672638899
3346 8544.352549543419
3347 8544.184562969936
3348 8544.348545300991
3349 8544.186890871981
3350 8544.3583018875
3351 8544.195390805011
3352 8544.347308635306
3353 8544.189616850721
3354 8544.354321023495
3355 8544.195111943522
3356 8544.333615379281
3357 8544.177871771142
3358 8544.332795521639
3359 8544.177364852125
3360 8544.315120907535
3361 8544.160668819797
3362 8544.313558735121
3363 8544.151688856924
3364 8544.295126609952
3365 8544.14137181882
3366 8544.298195874764
3367 8544.134498796117
3368 8544.284979392838
3369 8544.136221871091
3370 8544.295726698625
3371 8544.133033977969
3372 8544.292768354151
3373 8544.124918848127
3374 8544.293178260235
3375 8544.128614931391
3376 8544.293900736475
3377 8544.13810062855
3378 8544.30780649949
3379 8544.142382850041
3380 8544.302656255553
3381 8544.137064379727
3382 8544.31069310923
3383 8544.141702191924
3384 8544.307779533758
3385 8544.152380836227
3386 8544.328125097043
3387 8544.158591818037
3388 8544.32094717745
3389 8544.164747890356
3390 8544.337753391215
3391 8544.173505333334
3392 8544.329427835102
3393 8544.171168958976
3394 8544.345031477327
3395 8544.181450462298
3396 8544.339753864371
3397 8544.185440876903
3398 8544.349659604064
3399 8544.190580191058
3400 8544.347169995068
3401 8544.193144283796
3402 8544.365269655777
3403 8544.204571227367
3404 8544.366741827935
3405 8544.204132800551
3406 8544.374882103853
3407 8544.203046575538
3408 8544.373167483865
3409 8544.213367451792
3410 8544.390836302369
3411 8544.22118246189
3412 8544.388264277875
3413 8544.229349854517
3414 8544.409844686159
3415 8544.236233287456
3416 8544.409568737334
3417 8544.247231529109
3418 8544.42531163238
3419 8544.25352603654
3420 8544.421880656484
3421 8544.243401138958
3422 8544.425478141658
3423 8544.244832575869
3424 8544.420319529372
3425 8544.247263218063
3426 8544.433456266215
3427 8544.250720430999
3428 8544.424998771314
3429 8544.250487121466
3430 8544.434634341365
3431 8544.255910864671
3432 8544.424747395855
3433 8544.25012983725
3434 8544.430127167205
3435 8544.250569538095
3436 8544.412079133006
3437 8544.251912273496
3438 8544.413509941623
3439 8544.258426145072
3440 8544.405903353196
3441 8544.247636878763
3442 8544.41051960414
3443 8544.256975251204
3444 8544.405616012275
3445 8544.250853947055
3446 8544.405452660145
3447 8544.260245147269
3448 8544.399623658825
3449 8544.248709297532
3450 8544.404372996509
3451 8544.252094095766
3452 8544.407084556342
3453 8544.246433315364
3454 8544.419934034486
3455 8544.256233987599
3456 8544.417149932624
3457 8544.254387220806
3458 8544.421436211749
3459 8544.25588977151
3460 8544.406100274535
3461 8544.239328518242
3462 8544.40888489813
3463 8544.244274463059
3464 8544.39311531927
3465 8544.235336181091
3466 8544.403055363851
3467 8544.241833940046
3468 8544.404654017919
3469 8544.24124673905
3470 8544.405732926587
3471 8544.244804660691
3472 8544.396735428416
3473 8544.230368191627
3474 8544.396827231865
3475 8544.237845076486
3476 8544.392958667499
3477 8544.235250970591
3478 8544.402745326555
3479 8544.24305777906
3480 8544.405627349535
3481 8544.239120319931
3482 8544.41477301801
3483 8544.250748578872
3484 8544.411049920818
3485 8544.244556383914
3486 8544.418955352397
3487 8544.250607065915
3488 8544.410976138797
3489 8544.244934739363
3490 8544.419965301184
3491 8544.250791239188
3492 8544.408343678264
3493 8544.233111463454
3494 8544.41091370998
3495 8544.243000466337
3496 8544.397442222929
3497 8544.234078083038
3498 8544.403055100758
3499 8544.239009784418
3500 8544.394761189884
3501 8544.221268886284
3502 8544.396045312405
3503 8544.226707450865
3504 8544.383046214511
3505 8544.215578367946
3506 8544.381964503522
3507 8544.215046521584
3508 8544.383221714952
3509 8544.222913062122
3510 8544.395234080033
3511 8544.227213701737
3512 8544.389824606591
3513 8544.22166766444
3514 8544.400032663245
3515 8544.233260124125
3516 8544.393268192749
3517 8544.238122637213
3518 8544.410049868262
3519 8544.245732518682
3520 8544.406925167155
3521 8544.24436695459
3522 8544.411717146248
3523 8544.239875227328
3524 8544.401727527833
3525 8544.233688910728
3526 8544.417613081159
3527 8544.23590795408
3528 8544.406991916823
3529 8544.236597026558
3530 8544.412299112113
3531 8544.22613350824
3532 8544.391123153984
3533 8544.222526324975
3534 8544.399459020204
3535 8544.223029347988
3536 8544.388260951298
3537 8544.217958299607
3538 8544.391365277001
3539 8544.212474760527
3540 8544.376992388716
3541 8544.202827261477
3542 8544.376940706061
3543 8544.205863285635
3544 8544.370671561168
3545 8544.212524955417
3546 8544.392965794683
3547 8544.226845901487
3548 8544.395779983653
3549 8544.242516027236
3550 8544.415187003529
3551 8544.256108024168
3552 8544.417605434923
3553 8544.264667700632
3554 8544.435092460915
3555 8544.272705266749
3556 8544.423730423139
3557 8544.282460647921
3558 8544.43874100122
3559 8544.282663077529
3560 8544.430760760446
3561 8544.287908281924
3562 8544.439116354537
3563 8544.282875735253
3564 8544.418600687059
3565 8544.27178292236
3566 8544.416803408136
3567 8544.264729144852
3568 8544.40098382565
3569 8544.26315375921
3570 8544.410543027929
3571 8544.259465432624
3572 8544.404484319664
3573 8544.248462948644
3574 8544.405383111209
3575 8544.236255729938
3576 8544.390968480075
3577 8544.23609146799
3578 8544.404200512345
3579 8544.233752308342
3580 8544.402850494576
3581 8544.233171572329
3582 8544.411196967732
3583 8544.22900682991
3584 8544.404993582719
3585 8544.233821040298
3586 8544.420841474403
3587 8544.240891692001
3588 8544.41310710387
3589 8544.237573130442
3590 8544.415319615566
3591 8544.241170343708
3592 8544.405763785559
3593 8544.236361246127
3594 8544.41479353357
3595 8544.239900338627
3596 8544.402207721543
3597 8544.23814983478
3598 8544.405310473889
3599 8544.241289862326
3600 8544.401073178355
3601 8544.240997577403
3602 8544.406718113638
3603 8544.240814551646
3604 8544.394666416805
3605 8544.233831506059
3606 8544.399768764111
3607 8544.233673567096
3608 8544.393262281945
3609 8544.23325322199
3610 8544.405094490838
3611 8544.236087842406
3612 8544.401199896913
3613 8544.23294112059
3614 8544.402078828591
3615 8544.230422396156
3616 8544.389678484322
3617 8544.220339136196
3618 8544.391726554273
3619 8544.219620255119
3620 8544.383630901626
3621 8544.210857228198
3622 8544.391484814309
3623 8544.21493400028
3624 8544.380485065602
3625 8544.21137297022
3626 8544.390132111639
3627 8544.21761384771
3628 8544.384824749566
3629 8544.219219906759
3630 8544.392281672115
3631 8544.214779857633
3632 8544.370713504377
3633 8544.203075431213
3634 8544.372464818012
3635 8544.201186783686
3636 8544.36145252313
3637 8544.194951690539
3638 8544.363530124072
3639 8544.190539941603
3640 8544.349402994141
3641 8544.178772306295
3642 8544.34301903101
3643 8544.174089787344
3644 8544.331603420498
3645 8544.156602791636
3646 8544.327572022852
3647 8544.160402000964
3648 8544.324980262363
3649 8544.162659214997
3650 8544.32887889322
3651 8544.164930902134
3652 8544.327554567473
3653 8544.160086984404
3654 8544.335235096238
3655 8544.170162155966
3656 8544.328745118011
3657 8544.165188457353
3658 8544.335480541784
3659 8544.170104715671
3660 8544.32399585114
3661 8544.153157465717
3662 8544.322649680633
3663 8544.157093876282
3664 8544.310708254967
3665 8544.146196309086
3666 8544.323541995092
3667 8544.154850679657
3668 8544.309171188283
3669 8544.144044222028
3670 8544.314382051685
3671 8544.148837660972
3672 8544.30816432933
3673 8544.139984477155
3674 8544.311440065116
3675 8544.144814206345
3676 8544.307007490746
3677 8544.146093485737
3678 8544.314767036349
3679 8544.155245488902
3680 8544.308817046453
3681 8544.15264676392
3682 8544.321466522644
3683 8544.166975555267
3684 8544.319893307236
3685 8544.171584562544
3686 8544.333375484273
3687 8544.175688335195
3688 8544.333830571804
3689 8544.191248562773
3690 8544.359691963735
3691 8544.203485247172
3692 8544.355277376835
3693 8544.20315835942
3694 8544.373492720668
3695 8544.216269508524
3696 8544.366694960157
3697 8544.213442342381
3698 8544.379617484296
3699 8544.222406869618
3700 8544.378589434533
3701 8544.204974414364
3702 8544.384816241749
3703 8544.217872276475
3704 8544.383517096678
3705 8544.219085078657
3706 8544.397316528846
3707 8544.221174080008
3708 8544.391090139923
3709 8544.222614775408
3710 8544.403850490662
3711 8544.235307267869
3712 8544.406222751084
3713 8544.235378112182
3714 8544.418618396905
3715 8544.249748358927
3716 8544.417966334482
3717 8544.251698779934
3718 8544.429477796455
3719 8544.260153624278
3720 8544.432677968434
3721 8544.265536924231
3722 8544.440543566419
3723 8544.266132157512
3724 8544.442631245071
3725 8544.271609463964
3726 8544.442431108862
3727 8544.271017360457
3728 8544.436100138679
3729 8544.271504545724
3730 8544.444710278029
3731 8544.273816959898
3732 8544.44092537597
3733 8544.274339887159
3734 8544.446096654237
3735 8544.271551219208
3736 8544.437346300661
3737 8544.267249550296
3738 8544.431012428269
3739 8544.258661295333
3740 8544.418959053877
3741 8544.252243879884
3742 8544.413023982501
3743 8544.252421785661
3744 8544.402182394975
3745 8544.248222382712
3746 8544.392514018245
3747 8544.23867698126
3748 8544.388791302932
3749 8544.244335213934
3750 8544.398893076956
3751 8544.245538097266
3752 8544.403429922953
3753 8544.253650963336
3754 8544.424966744595
3755 8544.263214644647
3756 8544.425443470276
3757 8544.2686789132
3758 8544.435087047217
3759 8544.269330599265
3760 8544.438381785063
3761 8544.275638175985
3762 8544.449303216206
3763 8544.271420645582
3764 8544.437308519311
3765 8544.266483340469
3766 8544.440331363385
3767 8544.267409866774
3768 8544.429319067003
3769 8544.269038167133
3770 8544.44438014664
3771 8544.269484967144
3772 8544.423380145125
3773 8544.261674506452
3774 8544.427178656235
3775 8544.255143177636
3776 8544.4116342582
3777 8544.254081357962
3778 8544.415957823227
3779 8544.25205877286
3780 8544.410326605064
3781 8544.249354880814
3782 8544.412391946871
3783 8544.239825255643
3784 8544.410085931879
3785 8544.247853835515
3786 8544.418036362971
3787 8544.245995875573
3788 8544.420126498013
3789 8544.252737476407
3790 8544.427651174243
3791 8544.252107644561
3792 8544.418273175585
3793 8544.246006229292
3794 8544.42867507823
3795 8544.252731919185
3796 8544.417020931669
3797 8544.247485959282
3798 8544.414482807882
3799 8544.247370637921
3800 8544.402562442448
3801 8544.23699638178
3802 8544.403915848217
3803 8544.236444749116
3804 8544.396242733232
3805 8544.228170595594
3806 8544.399135516285
3807 8544.231809797318
3808 8544.38519489284
3809 8544.225407008313
3810 8544.398547822337
3811 8544.232341682988
3812 8544.388249324522
3813 8544.218637795198
3814 8544.389185203539
3815 8544.229703008607
3816 8544.388867251942
3817 8544.234616543374
3818 8544.399001459864
3819 8544.239750917457
3820 8544.398264176498
3821 8544.242027806893
3822 8544.412294507059
3823 8544.252918853957
3824 8544.410606587186
3825 8544.256798218772
3826 8544.422456750573
3827 8544.259882124888
3828 8544.418581097803
3829 8544.256133615394
3830 8544.42880063005
3831 8544.257580688907
3832 8544.416198837445
3833 8544.245931218346
3834 8544.422003373335
3835 8544.250332694233
3836 8544.412771173753
3837 8544.242935034445
3838 8544.410132296083
3839 8544.237698647434
3840 8544.401095195715
3841 8544.23226163961
3842 8544.40499862505
3843 8544.231587812003
3844 8544.398699789341
3845 8544.239198983361
3846 8544.410597854896
3847 8544.239553908939
3848 8544.403626677446
3849 8544.239878620663
3850 8544.410480378345
3851 8544.246200353569
3852 8544.414436916646
3853 8544.251493848464
3854 8544.419941383072
3855 8544.257092374102
3856 8544.421595741785
3857 8544.26981615745
3858 8544.430098861823
3859 8544.269271618463
3860 8544.424273414721
3861 8544.273291960531
3862 8544.441264868041
3863 8544.281214400609
3864 8544.434417174474
3865 8544.281349627874
3866 8544.445106825995
3867 8544.279465626898
3868 8544.439914622249
3869 8544.274557072904
3870 8544.448886577282
3871 8544.273711837055
3872 8544.434030727634
3873 8544.258397652637
3874 8544.439787042946
3875 8544.260306786706
3876 8544.425767833342
3877 8544.245923565424
3878 8544.425203855577
3879 8544.250920544446
3880 8544.419267167064
3881 8544.247458412614
3882 8544.421073196298
3883 8544.25300055868
3884 8544.412781509214
3885 8544.238371986923
3886 8544.406326748211
3887 8544.247787955381
3888 8544.409405647113
3889 8544.253303579333
3890 8544.417939153789
3891 8544.264235327792
3892 8544.417496376249
3893 8544.25841059811
3894 8544.424000221345
3895 8544.269347885182
3896 8544.412793469653
3897 8544.257275124317
3898 8544.418164596937
3899 8544.267838548418
3900 8544.413765760346
3901 8544.255734758555
3902 8544.422037977709
3903 8544.263623345556
3904 8544.407303102264
3905 8544.245947243038
3906 8544.416939685643
3907 8544.253381666942
3908 8544.408719324334
3909 8544.241533699842
3910 8544.411984102811
3911 8544.241453485391
3912 8544.397117979468
3913 8544.229711404443
3914 8544.409817934798
3915 8544.234508207635
3916 8544.40444198176
3917 8544.229495828722
3918 8544.397011106023
3919 8544.226712094736
3920 8544.389281650452
3921 8544.217276518071
3922 8544.392713990104
3923 8544.226406958225
3924 8544.391391417355
3925 8544.226851732648
3926 8544.398520410403
3927 8544.222684226441
3928 8544.389975628688
3929 8544.224389556251
3930 8544.402609518998
3931 8544.221260155784
3932 8544.383742064341
3933 8544.213541482493
3934 8544.398388109879
3935 8544.213233249744
3936 8544.384533316863
3937 8544.208346711408
3938 8544.386010058126
3939 8544.193504931187
3940 8544.355647959972
3941 8544.177167436128
3942 8544.348841606099
3943 8544.172864538938
3944 8544.33207223074
3945 8544.164205021641
3946 8544.336781817696
3947 8544.164646756743
3948 8544.322590641241
3949 8544.153481562216
3950 8544.316588281594
3951 8544.155547190816
3952 8544.307583122683
3953 8544.14652784773
3954 8544.308653462573
3955 8544.156110365324
3956 8544.308157541749
3957 8544.163556142059
3958 8544.321200581291
3959 8544.174115834947
3960 8544.32079032501
3961 8544.166351341742
3962 8544.327474719566
3963 8544.174119540849
3964 8544.328132625194
3965 8544.173157989648
3966 8544.33242938924
3967 8544.180987449457
3968 8544.332958858176
3969 8544.185763682897
3970 8544.351362637517
3971 8544.190707674374
3972 8544.342529079369
3973 8544.179273163234
3974 8544.351257751699
3975 8544.18489968882
3976 8544.343625938627
3977 8544.189530809668
3978 8544.351829697398
3979 8544.186525661698
3980 8544.347967296319
3981 8544.168683411601
3982 8544.343535332309
3983 8544.17521232844
3984 8544.343773373323
3985 8544.17126483329
3986 8544.355032423731
3987 8544.175282052451
3988 8544.350865769999
3989 8544.166815187436
3990 8544.356686931867
3991 8544.179608731105
3992 8544.364719546082
3993 8544.1831337248
3994 8544.37548854044
3995 8544.20858446067
3996 8544.384342212792
3997 8544.217909622868
3998 8544.397789307774
3999 8544.2265559102
4000 8544.395134250331
4001 8544.236301035975
4002 8544.408136073194
4003 8544.245593081345
4004 8544.402567937865
4005 8544.249395836232
4006 8544.415950426439
4007 8544.258854830017
4008 8544.404337278131
4009 8544.267041858997
4010 8544.424509972288
4011 8544.279690682106
4012 8544.41998798209
4013 8544.267587081051
4014 8544.422860681994
4015 8544.274007456652
4016 8544.410966870581
4017 8544.266603507542
4018 8544.424318522893
4019 8544.269421844669
4020 8544.426300631831
4021 8544.269604419083
4022 8544.424747926607
4023 8544.260098097508
4024 8544.414641213274
4025 8544.259963688824
4026 8544.426672036634
4027 8544.261833400004
4028 8544.424869719183
4029 8544.269593585133
4030 8544.44376861761
4031 8544.270677456305
4032 8544.436599404055
4033 8544.268938026462
4034 8544.450975605188
4035 8544.268908852273
4036 8544.443127712188
4037 8544.269787367401
4038 8544.447334404427
4039 8544.260966470363
4040 8544.434690067395
4041 8544.258050994184
4042 8544.443344717969
4043 8544.254415018189
4044 8544.423508715887
4045 8544.249079742638
4046 8544.425816743949
4047 8544.244694041896
4048 8544.410105520883
4049 8544.247188709849
4050 8544.423595318282
4051 8544.245471256681
4052 8544.403913828379
4053 8544.235164724669
4054 8544.406032938352
4055 8544.234327747317
4056 8544.399826850391
4057 8544.235979468129
4058 8544.403743234776
4059 8544.238826520705
4060 8544.400583312339
4061 8544.243264272423
4062 8544.408556376626
4063 8544.245230309632
4064 8544.393164324145
4065 8544.248775802414
4066 8544.409520366224
4067 8544.254085542701
4068 8544.406340299694
4069 8544.253056456093
4070 8544.414012878251
4071 8544.254223722965
4072 8544.409399578059
4073 8544.248101491619
4074 8544.425640660005
4075 8544.257754901702
4076 8544.41301610369
4077 8544.248829047578
4078 8544.419652596942
4079 8544.254042875822
4080 8544.408755961205
4081 8544.242588262969
4082 8544.413045639489
4083 8544.24666478045
4084 8544.40543965807
4085 8544.235461532191
4086 8544.409877869752
4087 8544.248431697273
4088 8544.402585112746
4089 8544.2463986393
4090 8544.40627451886
4091 8544.247805124613
4092 8544.402466336838
4093 8544.242549522562
4094 8544.407485956817
4095 8544.24204705016
4096 8544.397438440319
4097 8544.243626133748
4098 8544.407964036158
4099 8544.248266448805
4100 8544.402904485503
4101 8544.248971901685
4102 8544.412592972301
4103 8544.25403731595
4104 8544.405642053802
4105 8544.250009365687
4106 8544.415147897776
4107 8544.250052295571
4108 8544.402126472207
4109 8544.23539822738
4110 8544.397387166549
4111 8544.234576335688
4112 8544.391645800335
4113 8544.226727883308
4114 8544.405788863038
4115 8544.234134540546
4116 8544.399212050441
4117 8544.231538164398
4118 8544.396610554893
4119 8544.221236246036
4120 8544.392344067475
4121 8544.223554034066
4122 8544.404113307553
4123 8544.227259060704
4124 8544.398910943517
4125 8544.235563083577
4126 8544.42063382414
4127 8544.248897852758
4128 8544.418300409134
4129 8544.249164416966
4130 8544.427507326305
4131 8544.257203192357
4132 8544.428118721011
4133 8544.255460963341
4134 8544.434274332447
4135 8544.2640351134
4136 8544.432090127078
4137 8544.255719339095
4138 8544.437430432814
4139 8544.260898966671
4140 8544.423488746781
4141 8544.242807656863
4142 8544.42214433753
4143 8544.250147304918
4144 8544.410741458578
4145 8544.241525407746
4146 8544.409805768784
4147 8544.247676992196
4148 8544.40678941491
4149 8544.2366297798
4150 8544.401662406912
4151 8544.244875712031
4152 8544.398598438829
4153 8544.234832258629
4154 8544.398178900979
4155 8544.235029707832
4156 8544.393320198165
4157 8544.238805299188
4158 8544.400029493179
4159 8544.254853958842
4160 8544.41270622479
4161 8544.259769645412
4162 8544.423373264292
4163 8544.267921399742
4164 8544.41869054063
4165 8544.271377965764
4166 8544.437412660556
4167 8544.279323016974
4168 8544.439789368853
4169 8544.288035389613
4170 8544.459420349467
4171 8544.293681724703
4172 8544.45364656633
4173 8544.2887601403
4174 8544.465234264049
4175 8544.287297782535
4176 8544.455287180472
4177 8544.2852266265
4178 8544.468597692538
4179 8544.283003479963
4180 8544.452520660703
4181 8544.269535129695
4182 8544.446086791031
4183 8544.256102757221
4184 8544.422339249388
4185 8544.249823943692
4186 8544.426929333727
4187 8544.243171147937
4188 8544.412697052772
4189 8544.243075030236
4190 8544.412405590307
4191 8544.236332710538
4192 8544.40059034325
4193 8544.240320431312
4194 8544.404429697912
4195 8544.245295698554
4196 8544.399133373909
4197 8544.248627555527
4198 8544.400207053521
4199 8544.253388449013
4200 8544.395824607982
4201 8544.248446412028
4202 8544.399107658131
4203 8544.248407852361
4204 8544.389328528152
4205 8544.249330886767
4206 8544.401152719562
4207 8544.244836648038
4208 8544.392032845479
4209 8544.248968612825
4210 8544.40985453949
4211 8544.247569002571
4212 8544.389471803664
4213 8544.228353039483
4214 8544.393773354008
4215 8544.221459106686
4216 8544.379654221939
4217 8544.224368693913
4218 8544.396547651708
4219 8544.223144928745
4220 8544.382593942595
4221 8544.205039118724
4222 8544.383677492102
4223 8544.193313804468
4224 8544.367143849655
4225 8544.183465162056
4226 8544.368885642929
4227 8544.181607826906
4228 8544.364169665278
4229 8544.197653795378
4230 8544.381985058722
4231 8544.200375062703
4232 8544.366014202815
4233 8544.196144924961
4234 8544.378064588509
4235 8544.201533311978
4236 8544.367604093679
4237 8544.191597940122
4238 8544.365300486515
4239 8544.19363226484
4240 8544.351874518048
4241 8544.184753824084
4242 8544.356898871203
4243 8544.178206095194
4244 8544.336067081347
4245 8544.173338207704
4246 8544.334334448171
4247 8544.162149431071
4248 8544.320545183657
4249 8544.154107505872
4250 8544.319834183272
4251 8544.150740624935
4252 8544.314022296412
4253 8544.138851510883
4254 8544.313796604263
4255 8544.147161895544
4256 8544.31339489313
4257 8544.141815477791
4258 8544.311878752786
4259 8544.145320044316
4260 8544.307935383562
4261 8544.135365387705
4262 8544.313523463554
4263 8544.149437130171
4264 8544.317437812975
4265 8544.153341820456
4266 8544.326662726771
4267 8544.163481946549
4268 8544.323328761729
4269 8544.163006374431
4270 8544.340729888992
4271 8544.179469429266
4272 8544.33873912719
4273 8544.178791278258
4274 8544.346878392067
4275 8544.181334554538
4276 8544.333788508524
4277 8544.178987613494
4278 8544.346041785258
4279 8544.179966096239
4280 8544.334476156972
4281 8544.178536174782
4282 8544.338846076584
4283 8544.172799724431
4284 8544.332861805886
4285 8544.165287344525
4286 8544.336472935436
4287 8544.17983187828
4288 8544.335761983772
4289 8544.182495254347
4290 8544.35694551682
4291 8544.198029253357
4292 8544.357514248737
4293 8544.195204480764
4294 8544.365014352406
4295 8544.199098009365
4296 8544.36285727293
4297 8544.211354800145
4298 8544.378743255633
4299 8544.225782806205
4300 8544.386848215419
4301 8544.233015702763
4302 8544.401848756988
4303 8544.248699755142
4304 8544.400185564864
4305 8544.251913818573
4306 8544.416244959677
4307 8544.267752764683
4308 8544.419968161634
4309 8544.276496818811
4310 8544.438065038807
4311 8544.284900950583
4312 8544.428072607654
4313 8544.278655701368
4314 8544.435530027849
4315 8544.280833195402
4316 8544.422319299065
4317 8544.267612028609
4318 8544.425522953066
4319 8544.264869809258
4320 8544.420823051503
4321 8544.254421674188
4322 8544.425673649584
4323 8544.263687490284
4324 8544.425570076282
4325 8544.253315310334
4326 8544.430733646104
4327 8544.260928605361
4328 8544.430164189591
4329 8544.251812161896
4330 8544.437878127092
4331 8544.249681254863
4332 8544.4277666075
4333 8544.243985350909
4334 8544.4315378134
4335 8544.252770475647
4336 8544.435044582311
4337 8544.263966841669
4338 8544.449207044448
4339 8544.266054605634
4340 8544.433946608497
4341 8544.257900292514
4342 8544.435314549739
4343 8544.254636911697
4344 8544.421666452039
4345 8544.256600441497
4346 8544.434603991749
4347 8544.259593404218
4348 8544.424387003553
4349 8544.257419710233
4350 8544.429415259014
4351 8544.252672338807
4352 8544.416256113424
4353 8544.239088236882
4354 8544.412009743517
4355 8544.238138425389
4356 8544.393478803238
4357 8544.236735641742
4358 8544.388277216589
4359 8544.229266655024
4360 8544.380978919407
4361 8544.227964543121
4362 8544.385070497465
4363 8544.224254477725
4364 8544.376250702997
4365 8544.227607256087
4366 8544.386498391026
4367 8544.232349222215
4368 8544.394048845428
4369 8544.246961717205
4370 8544.416450712959
4371 8544.251120915773
4372 8544.411733736033
4373 8544.246546755057
4374 8544.425779783858
4375 8544.2523672722
4376 8544.422121584761
4377 8544.255650914036
4378 8544.432697717601
4379 8544.254910172562
4380 8544.420517516684
4381 8544.247278508537
4382 8544.429745730899
4383 8544.244960688751
4384 8544.417886420537
4385 8544.245043393563
4386 8544.430391624239
4387 8544.245809980088
4388 8544.410415756178
4389 8544.238383684666
4390 8544.409723953751
4391 8544.235153999107
4392 8544.394464055211
4393 8544.234573285654
4394 8544.395521090157
4395 8544.227867304024
4396 8544.377290899707
4397 8544.222219129131
4398 8544.377834393767
4399 8544.216584727783
4400 8544.374244994931
4401 8544.221564032174
4402 8544.386857395146
4403 8544.228748221725
4404 8544.387638599921
4405 8544.22915885258
4406 8544.394275081182
4407 8544.234449330665
4408 8544.388255118381
4409 8544.233566961271
4410 8544.404597079301
4411 8544.246245660379
4412 8544.40102017038
4413 8544.245524622173
4414 8544.413884985144
4415 8544.246556489936
4416 8544.398970262782
4417 8544.238912558532
4418 8544.402001248271
4419 8544.2375101091
4420 8544.396904706908
4421 8544.232924181335
4422 8544.402991826451
4423 8544.228894422256
4424 8544.393617913305
4425 8544.230160512778
4426 8544.403259354061
4427 8544.235746042512
4428 8544.40566370242
4429 8544.231297517308
4430 8544.411786504581
4431 8544.23864942478
4432 8544.405271321635
4433 8544.232845549859
4434 8544.410980279144
4435 8544.238203344894
4436 8544.405148381744
4437 8544.243696419118
4438 8544.422526237726
4439 8544.252644876929
4440 8544.422317474133
4441 8544.251342660598
4442 8544.423873383184
4443 8544.246552021263
4444 8544.410459068506
4445 8544.24846219455
4446 8544.423598721261
4447 8544.247876374673
4448 8544.413801593462
4449 8544.250481885649
4450 8544.433235439661
4451 8544.258520500483
4452 8544.420806669148
4453 8544.249691258821
4454 8544.421770639379
4455 8544.246562128088
4456 8544.409989775972
4457 8544.239974818665
4458 8544.410762208712
4459 8544.243733126683
4460 8544.403477884953
4461 8544.23211764157
4462 8544.408976731938
4463 8544.248500477541
4464 8544.408269798398
4465 8544.243775076036
4466 8544.409257615032
4467 8544.245051719945
4468 8544.407784311366
4469 8544.25575724555
4470 8544.42710190188
4471 8544.271019528496
4472 8544.428167546419
4473 8544.273259813979
4474 8544.441008764346
4475 8544.28786730817
4476 8544.440676507445
4477 8544.28320346281
4478 8544.444846007791
4479 8544.284403436213
4480 8544.432607306053
4481 8544.271899025365
4482 8544.437846830115
4483 8544.26552855808
4484 8544.417973183939
4485 8544.248354320491
4486 8544.41417013106
4487 8544.239041066192
4488 8544.396876361918
4489 8544.239308753678
4490 8544.401915965573
4491 8544.230028555439
4492 8544.386060854991
4493 8544.21313232088
4494 8544.387517400843
4495 8544.220153698998
4496 8544.376062526924
4497 8544.219826136778
4498 8544.382170868295
4499 8544.22272313855
4500 8544.379227164789
4501 8544.216623145678
4502 8544.377741931605
4503 8544.217744297464
4504 8544.387999008608
4505 8544.229418172816
4506 8544.402954398072
4507 8544.239576457496
4508 8544.397867974358
4509 8544.241152624401
4510 8544.41056952566
4511 8544.251775106355
4512 8544.401532046028
4513 8544.239383482985
4514 8544.411183502465
4515 8544.251997874906
4516 8544.399296035259
4517 8544.243149939453
4518 8544.400282708208
4519 8544.236147520289
4520 8544.387851345467
4521 8544.215068305208
4522 8544.385826416481
4523 8544.21592803929
4524 8544.376331485344
4525 8544.19991906432
4526 8544.370665310262
4527 8544.193599742419
4528 8544.362679207254
4529 8544.181658937199
4530 8544.356740829582
4531 8544.191196058588
4532 8544.356796412772
4533 8544.174928062279
4534 8544.36006017685
4535 8544.183433456679
4536 8544.354548166137
4537 8544.174544059426
4538 8544.349439984268
4539 8544.166905862419
4540 8544.338781065157
4541 8544.158691465254
4542 8544.343309241356
4543 8544.167134363168
4544 8544.336451541667
4545 8544.166454853204
4546 8544.349464003953
4547 8544.165505043284
4548 8544.33343945156
4549 8544.159719783645
4550 8544.332092100176
4551 8544.159279535781
4552 8544.325769434088
4553 8544.161735824799
4554 8544.336194263453
4555 8544.170589743439
4556 8544.319365328814
4557 8544.166380036726
4558 8544.325435642917
4559 8544.168839141363
4560 8544.31409607933
4561 8544.15327514403
4562 8544.306901482782
4563 8544.144708058833
4564 8544.28881844864
4565 8544.136832607604
4566 8544.295042470656
4567 8544.139126824697
4568 8544.293824774421
4569 8544.147273739789
4570 8544.310815023118
4571 8544.154678575998
4572 8544.315051134608
4573 8544.158231800615
4574 8544.323553133991
4575 8544.163805268872
4576 8544.333104309853
4577 8544.169308709957
4578 8544.35108916203
4579 8544.181035632264
4580 8544.350882816125
4581 8544.183568926317
4582 8544.366888734839
4583 8544.198859201679
4584 8544.371811782392
4585 8544.209162134493
4586 8544.387064129871
4587 8544.220450673969
4588 8544.377241029535
4589 8544.232269313599
4590 8544.399076011716
4591 8544.248427704671
4592 8544.394278291671
4593 8544.248266266219
4594 8544.415096890954
4595 8544.253453733132
4596 8544.392110716477
4597 8544.240372462822
4598 8544.396817273948
4599 8544.231403402522
4600 8544.388261940434
4601 8544.236643131992
4602 8544.398874155453
4603 8544.234351173414
4604 8544.393162837703
4605 8544.230411269424
4606 8544.400176543961
4607 8544.234216976864
4608 8544.399807114405
4609 8544.237586537771
4610 8544.413326220956
4611 8544.24590262001
4612 8544.414904716361
4613 8544.24960017696
4614 8544.427755371753
4615 8544.260225529955
4616 8544.422746538554
4617 8544.269209639877
4618 8544.442141848662
4619 8544.281090327157
4620 8544.437817287921
4621 8544.272321785164
4622 8544.441869092554
4623 8544.275330426553
4624 8544.425696028238
4625 8544.271948481652
4626 8544.444459185437
4627 8544.2774747736
4628 8544.441645190107
4629 8544.281527886562
4630 8544.453961713572
4631 8544.276649003996
4632 8544.441957574958
4633 8544.264369408787
4634 8544.448067280468
4635 8544.264847608054
4636 8544.437548664557
4637 8544.259003427404
4638 8544.43886577706
4639 8544.25090986111
4640 8544.425684575086
4641 8544.241007693987
4642 8544.422944690135
4643 8544.238592758269
4644 8544.418755949757
4645 8544.236950791697
4646 8544.416153772168
4647 8544.241445754747
4648 8544.406331516326
4649 8544.238167550458
4650 8544.410508093288
4651 8544.240950473122
4652 8544.410815138097
4653 8544.245996755399
4654 8544.420025357911
4655 8544.250496938977
4656 8544.409080395322
4657 8544.247998712783
4658 8544.4129428741
4659 8544.252745793146
4660 8544.400062857985
4661 8544.24423607431
4662 8544.40337364219
4663 8544.2468365195
4664 8544.396430608269
4665 8544.242614936389
4666 8544.400261293084
4667 8544.243155112315
4668 8544.39454314773
4669 8544.23843230059
4670 8544.39715435427
4671 8544.244863879499
4672 8544.396544728046
4673 8544.24091219241
4674 8544.401261535833
4675 8544.250180139257
4676 8544.395683537756
4677 8544.241302044647
4678 8544.398887188032
4679 8544.245313946754
4680 8544.394662155462
4681 8544.234843170594
4682 8544.397391316419
4683 8544.234872361818
4684 8544.396682955377
4685 8544.232215183596
4686 8544.40820346345
4687 8544.235668031371
4688 8544.401212720208
4689 8544.235582122987
4690 8544.420505180024
4691 8544.237135000181
4692 8544.408736381971
4693 8544.223118748496
4694 8544.411170664333
4695 8544.223970200868
4696 8544.39493198148
4697 8544.219043796285
4698 8544.394604870406
4699 8544.213972137075
4700 8544.38166213624
4701 8544.205080804504
4702 8544.38283937186
4703 8544.21371425673
4704 8544.376780162753
4705 8544.222599760194
4706 8544.38681030087
4707 8544.229847813051
4708 8544.388448216072
4709 8544.241170077994
4710 8544.395112310693
4711 8544.248730835683
4712 8544.401589074556
4713 8544.249694502807
4714 8544.412835300585
4715 8544.260863759495
4716 8544.408046284345
4717 8544.251746637414
4718 8544.411188249111
4719 8544.248299039624
4720 8544.404744898258
4721 8544.253656994437
4722 8544.421554688843
4723 8544.260587560939
4724 8544.418390469336
4725 8544.256784276478
4726 8544.427382081696
4727 8544.252799239162
4728 8544.412578222007
4729 8544.245342092541
4730 8544.431564636401
4731 8544.245731768564
4732 8544.419009101293
4733 8544.23993685092
4734 8544.4253401801
4735 8544.23782719866
4736 8544.411924335762
4737 8544.233647347812
4738 8544.415920458163
4739 8544.236942472049
4740 8544.410656046133
4741 8544.235856153835
4742 8544.414832393835
4743 8544.238186361359
4744 8544.416194983689
4745 8544.243931049408
4746 8544.424463287862
4747 8544.255058089493
4748 8544.424938037775
4749 8544.263804641329
4750 8544.437455414241
4751 8544.268688058737
4752 8544.431397432712
4753 8544.269402547388
4754 8544.439993315998
4755 8544.275391706067
4756 8544.436302143127
4757 8544.282498863457
4758 8544.446244088087
4759 8544.278592171819
4760 8544.431773531654
4761 8544.269274098251
4762 8544.422210427027
4763 8544.261181391515
4764 8544.404798976273
4765 8544.251172926499
4766 8544.402858753816
4767 8544.247575049347
4768 8544.394970760088
4769 8544.243966556878
4770 8544.402156496417
4771 8544.244647840766
4772 8544.394916344105
4773 8544.230091157595
4774 8544.390589629171
4775 8544.240143719311
4776 8544.397242659661
4777 8544.247737163032
4778 8544.410219218493
4779 8544.251432713145
4780 8544.406219764314
4781 8544.250914849325
4782 8544.414704977968
4783 8544.260729582487
4784 8544.420198760139
4785 8544.264563438213
4786 8544.432049465075
4787 8544.274102288999
4788 8544.437022050384
4789 8544.277626367624
4790 8544.443066375819
4791 8544.283019618526
4792 8544.435890622888
4793 8544.278685228042
4794 8544.449372486335
4795 8544.272257256993
4796 8544.429061577752
4797 8544.265181186884
4798 8544.427760324841
4799 8544.253783239692
4800 8544.409012110069
4801 8544.236869568058
4802 8544.406971986224
4803 8544.238729494753
4804 8544.392911571869
4805 8544.222610410259
4806 8544.394073923588
4807 8544.211821290135
4808 8544.380941886935
4809 8544.210348485489
4810 8544.386060913943
4811 8544.209751014878
4812 8544.387191665048
4813 8544.210964933924
4814 8544.391961085144
4815 8544.215340484507
4816 8544.381130041458
4817 8544.219216772752
4818 8544.387369159991
4819 8544.216903334336
4820 8544.37552420178
4821 8544.211786963433
4822 8544.378528244972
4823 8544.208207595211
4824 8544.372705588055
4825 8544.213823728309
4826 8544.38810426943
4827 8544.214566306619
4828 8544.37396749632
4829 8544.205074013898
4830 8544.381110577351
4831 8544.195804108935
4832 8544.36131525577
4833 8544.177456811867
4834 8544.360549149542
4835 8544.177413533431
4836 8544.3529623373
4837 8544.171030596848
4838 8544.349492523397
4839 8544.173230049169
4840 8544.335713946863
4841 8544.150177246936
4842 8544.327378390894
4843 8544.149204529094
4844 8544.317190734408
4845 8544.141994644457
4846 8544.317337055127
4847 8544.149898200114
4848 8544.31540811748
4849 8544.145520062422
4850 8544.322539865854
4851 8544.161460916777
4852 8544.328298282837
4853 8544.171608546456
4854 8544.337506779219
4855 8544.171878205183
4856 8544.320402924925
4857 8544.16947436296
4858 8544.329091423293
4859 8544.16736000257
4860 8544.324407626442
4861 8544.168859668656
4862 8544.335483266172
4863 8544.17138707204
4864 8544.318150411087
4865 8544.166042408369
4866 8544.326769471047
4867 8544.162874183035
4868 8544.317944015142
4869 8544.168164230654
4870 8544.333835485239
4871 8544.17114776605
4872 8544.329528880344
4873 8544.176032340336
4874 8544.338876081201
4875 8544.170748989767
4876 8544.337579678513
4877 8544.181126306565
4878 8544.34798800484
4879 8544.184395696284
4880 8544.349355018392
4881 8544.195100220461
4882 8544.363313998363
4883 8544.201230501832
4884 8544.36468018405
4885 8544.201869831828
4886 8544.377924954308
4887 8544.211636808992
4888 8544.388404648471
4889 8544.22242445269
4890 8544.400218952573
4891 8544.225230932128
4892 8544.393057708732
4893 8544.224137389898
4894 8544.410265440236
4895 8544.229182067904
4896 8544.398119389693
4897 8544.239074613473
4898 8544.413545820167
4899 8544.238929567115
4900 8544.400973138203
4901 8544.243799317612
4902 8544.406878366115
4903 8544.250831075447
4904 8544.396332109065
4905 8544.250369665411
4906 8544.414329422303
4907 8544.263882392226
4908 8544.410057974421
4909 8544.269038883785
4910 8544.420275478882
4911 8544.265334588339
4912 8544.4114083
4913 8544.269039030649
4914 8544.428918296826
4915 8544.27483694062
4916 8544.429038802911
4917 8544.279810280821
4918 8544.443826805391
4919 8544.275192734158
4920 8544.43690880804
4921 8544.277646471179
4922 8544.447412598078
4923 8544.276875601159
4924 8544.448630673225
4925 8544.275689779808
4926 8544.464678824226
4927 8544.275291835971
4928 8544.455002308085
4929 8544.281490347959
4930 8544.466120907633
4931 8544.280516744433
4932 8544.446148091511
4933 8544.267264105278
4934 8544.445790159429
4935 8544.262020492304
4936 8544.429490428738
4937 8544.268984851062
4938 8544.441068819378
4939 8544.272288404969
4940 8544.430232716162
4941 8544.263625516605
4942 8544.431845725496
4943 8544.26520327849
4944 8544.419722174429
4945 8544.261236865839
4946 8544.426318019325
4947 8544.256820720269
4948 8544.41910566586
4949 8544.267969106864
4950 8544.427911203908
4951 8544.26008710355
4952 8544.415891750878
4953 8544.261238247171
4954 8544.434580023117
4955 8544.261073586669
4956 8544.419730815447
4957 8544.259189306558
4958 8544.422001739467
4959 8544.251775567123
4960 8544.408219995274
4961 8544.240072723047
4962 8544.407831347542
4963 8544.242323536419
4964 8544.395876668836
4965 8544.235695838774
4966 8544.403051167274
4967 8544.239869133622
4968 8544.392950685131
4969 8544.233468886681
4970 8544.395481546599
4971 8544.237449275515
4972 8544.382518048564
4973 8544.222017039314
4974 8544.383686415304
4975 8544.229787951635
4976 8544.379823010957
4977 8544.228815311511
4978 8544.388687513043
4979 8544.236223936268
4980 8544.397749238549
4981 8544.228821553095
4982 8544.398225649516
4983 8544.233715720395
4984 8544.40366507633
4985 8544.235076903027
4986 8544.418031600182
4987 8544.239046662358
4988 8544.416688868263
4989 8544.244767311
4990 8544.433350157506
4991 8544.254427362128
4992 8544.429944420603
4993 8544.254712540642
4994 8544.441914768453
4995 8544.262713710079
4996 8544.431226376733
4997 8544.261471081425
4998 8544.431081056406
4999 8544.254194532834
5000 8544.418866026594
5001 8544.254440612158
5002 8544.42945336175
5003 8544.258189850279
5004 8544.41363479766
5005 8544.247453102209
5006 8544.416809705828
5007 8544.248000286902
5008 8544.410833697146
5009 8544.254451925228
5010 8544.422026308468
5011 8544.259575564231
5012 8544.413701742425
5013 8544.249324422701
5014 8544.410150607169
5015 8544.244691230322
5016 8544.400962958121
5017 8544.241848782005
5018 8544.410047418944
5019 8544.241510652731
5020 8544.404308549407
5021 8544.24016618367
5022 8544.41260486403
5023 8544.240812390486
5024 8544.410071211727
5025 8544.239116593801
5026 8544.429835849913
5027 8544.258500343471
5028 8544.43111136778
5029 8544.26411214335
5030 8544.444250421273
5031 8544.266552152789
5032 8544.432985534744
5033 8544.26927891408
5034 8544.443339521238
5035 8544.271767055881
5036 8544.430716554865
5037 8544.271455693452
5038 8544.430501054092
5039 8544.261890348153
5040 8544.419201297329
5041 8544.254367138685
5042 8544.420510685348
5043 8544.259556805035
5044 8544.413738971427
5045 8544.25286454436
5046 8544.421250824362
5047 8544.259143103218
5048 8544.420931052724
5049 8544.262158235564
5050 8544.427448255372
5051 8544.259627579946
5052 8544.421393202623
5053 8544.252831360942
5054 8544.431836831849
5055 8544.259767273057
5056 8544.426383987653
5057 8544.267025984742
5058 8544.444466208215
5059 8544.26804343537
5060 8544.43898423578
5061 8544.273566025373
5062 8544.44822876302
5063 8544.271697630151
5064 8544.432704977493
5065 8544.271602065823
5066 8544.444662654463
5067 8544.275875677044
5068 8544.427696411627
5069 8544.272872671316
5070 8544.436704588796
5071 8544.27502668791
5072 8544.431387597013
5073 8544.265950608895
5074 8544.437245616871
5075 8544.26036152411
5076 8544.425817157931
5077 8544.257879801831
5078 8544.417420812062
5079 8544.247495158888
5080 8544.402491529065
5081 8544.242600762771
5082 8544.407195432943
5083 8544.241133893962
5084 8544.398245183456
5085 8544.24628188902
5086 8544.414299468555
5087 8544.251936473007
5088 8544.408001124906
5089 8544.25376611721
5090 8544.416046694709
5091 8544.24823121692
5092 8544.408439027939
5093 8544.247131433118
5094 8544.42250533166
5095 8544.244539518068
5096 8544.416982609388
5097 8544.250694545985
5098 8544.426211480119
5099 8544.243229287289
5100 8544.409885673016
5101 8544.230007758611
5102 8544.402440523583
5103 8544.225180476153
5104 8544.401038555319
5105 8544.238647585236
5106 8544.407882241319
5107 8544.232664537036
5108 8544.399970265784
5109 8544.239643136585
5110 8544.402718599455
5111 8544.232689195283
5112 8544.393711070457
5113 8544.232931480117
5114 8544.395078610431
5115 8544.220470292947
5116 8544.371716905664
5117 8544.215654733061
5118 8544.373828430411
5119 8544.207615543235
5120 8544.362652073061
5121 8544.203976698642
5122 8544.367535094712
5123 8544.201901553766
5124 8544.361063709945
5125 8544.208334720468
5126 8544.361621540244
5127 8544.20428261905
5128 8544.350605208418
5129 8544.207570124985
5130 8544.370758345191
5131 8544.215469681067
5132 8544.356211387889
5133 8544.203514813236
5134 8544.36911421743
5135 8544.203195410022
5136 8544.357006284577
5137 8544.191247273548
5138 8544.36444218291
5139 8544.183813755679
5140 8544.344871934141
5141 8544.159840768418
5142 8544.344065192796
5143 8544.150307209771
5144 8544.327496822989
5145 8544.145500533648
5146 8544.33797838457
5147 8544.15426530136
5148 8544.327329621619
5149 8544.151295304016
5150 8544.33017049041
5151 8544.151063029905
5152 8544.321661296168
5153 8544.148906440656
5154 8544.320664317374
5155 8544.152907332817
5156 8544.316209519993
5157 8544.157958781818
5158 8544.319426554581
5159 8544.162568608708
5160 8544.31369783023
5161 8544.170722630402
5162 8544.330551808986
5163 8544.171029813719
5164 8544.324239042633
5165 8544.184937149315
5166 8544.345813193628
5167 8544.183561134592
5168 8544.343398560601
5169 8544.192629955693
5170 8544.359504213855
5171 8544.199014311496
5172 8544.350668476243
5173 8544.187517050927
5174 8544.357183631217
5175 8544.185300086492
5176 8544.343818343379
5177 8544.183214163882
5178 8544.357399404065
5179 8544.173439380425
5180 8544.344754069572
5181 8544.174099352356
5182 8544.349196404697
5183 8544.173815296988
5184 8544.344906342225
5185 8544.181263146102
5186 8544.357671726759
5187 8544.19194856188
5188 8544.364809219915
5189 8544.214542610856
5190 8544.387173375762
5191 8544.230018352882
5192 8544.3930266762
5193 8544.236871384104
5194 8544.407643031944
5195 8544.246574735951
5196 8544.411373366564
5197 8544.257349415997
5198 8544.425158341333
5199 8544.266929292711
5200 8544.433087076135
5201 8544.281419436575
5202 8544.450601780216
5203 8544.283810767314
5204 8544.440994724617
5205 8544.279957740961
5206 8544.456697289785
5207 8544.28099785123
5208 8544.447876673687
5209 8544.287461011501
5210 8544.455733695595
5211 8544.277130387471
5212 8544.434871039744
5213 8544.268056745947
5214 8544.440621745312
5215 8544.261818235758
5216 8544.424142784965
5217 8544.262602893848
5218 8544.427561657458
5219 8544.256028299233
5220 8544.412983508853
5221 8544.245494222301
5222 8544.408871756619
5223 8544.236033496227
5224 8544.408712851664
5225 8544.248568164021
5226 8544.424616304983
5227 8544.248459059103
5228 8544.418280535319
5229 8544.253812243889
5230 8544.430349357021
5231 8544.257523677812
5232 8544.4245437425
5233 8544.257729432913
5234 8544.438914952931
5235 8544.271588444695
5236 8544.428081431448
5237 8544.269078133571
5238 8544.437390466737
5239 8544.272507056583
5240 8544.42925753459
5241 8544.265487681228
5242 8544.430063878282
5243 8544.269878220775
5244 8544.420952285074
5245 8544.263203109949
5246 8544.419085838912
5247 8544.258764513746
5248 8544.40906312609
5249 8544.25668568836
5250 8544.417776969794
5251 8544.259379412013
5252 8544.4085534817
5253 8544.243481028851
5254 8544.401189256037
5255 8544.238762020177
5256 8544.399245321187
5257 8544.235957047546
5258 8544.403945311386
5259 8544.236097878773
5260 8544.403893779005
5261 8544.239586092845
5262 8544.411040748522
5263 8544.234529225569
5264 8544.399525268072
5265 8544.242035763449
5266 8544.408382510421
5267 8544.233812299542
5268 8544.393889988027
5269 8544.237160633962
5270 8544.4069117857
5271 8544.236433992477
5272 8544.402121403051
5273 8544.242381709648
5274 8544.415869923652
5275 8544.243007067684
5276 8544.394097133691
5277 8544.239050332673
5278 8544.406517151272
5279 8544.239059788168
5280 8544.40283753398
5281 8544.236244599671
5282 8544.40692390505
5283 8544.230939372195
5284 8544.394267439237
5285 8544.227402456323
5286 8544.40176024261
5287 8544.222746091655
5288 8544.39676776655
5289 8544.231318483306
5290 8544.407807392605
