"x-rfile"
"Iteration" "x"
("Iteration" "x")
1 5730.083620124286
2 5223.697378565324
3 3816.827690819186
4 3079.409336919572
5 2303.590369533597
6 1698.556165514386
7 1270.278565124997
8 919.9998085019773
9 646.0755217407348
10 402.9125452776543
11 215.1531087658896
12 57.33832747621736
13 -52.69137081938312
14 -131.7223990520547
15 -172.8530163704275
16 -192.5667318522548
17 -200.3078503606596
18 -199.5052377815151
19 -193.0796352744192
20 -183.856335856757
21 -174.1436403695797
22 -165.6901310558685
23 -157.1345427133536
24 -150.891007772776
25 -145.3585269049019
26 -141.2367667971828
27 -138.3148594741766
28 -136.3359191944347
29 -135.6514490463899
30 -135.4022558837091
31 -135.7166652330731
32 -136.7237321830061
33 -138.301837791127
34 -140.3639890454352
35 -143.0817175448788
36 -146.16257318623
37 -149.2062272751535
38 -153.655756323283
39 -157.804181430789
40 -162.7218868304085
41 -167.972723376495
42 -174.2875950497021
43 -181.1151977587208
44 -187.5826187076002
45 -194.4103874106293
46 -200.3829854647256
47 -207.0970564882288
48 -213.142485165451
49 -219.8591356414024
50 -225.7510851584497
51 -231.8135707704677
52 -237.2867736417688
53 -242.9801007203924
54 -248.0251379298773
55 -253.3427319418185
56 -257.9324256490195
57 -262.81676966976
58 -266.8498801896451
59 -272.3237977654206
60 -277.5426011342555
61 -282.5733977430054
62 -288.2013397459012
63 -292.4700843069598
64 -297.4264871899339
65 -301.8279119726601
66 -305.8762077436256
67 -309.6498122877275
68 -313.1861269750934
69 -316.5186254533536
70 -319.6751282976017
71 -322.3102977082831
72 -325.0420738238675
73 -327.8181716911473
74 -330.5738479423284
75 -332.8154525577318
76 -335.1936057843511
77 -337.6801363197129
78 -340.1974706009995
79 -342.7084568873228
80 -345.2278374041342
81 -347.6995560902499
82 -350.147710198042
83 -352.5158197781708
84 -354.852004348687
85 -357.1073253147883
86 -359.3047987911161
87 -361.4207328051519
88 -363.4940786514453
89 -365.5041664015811
90 -367.4579934146216
91 -369.3439104082321
92 -371.2055170698921
93 -373.0013913841611
94 -374.7634350261683
95 -376.4590346699532
96 -378.1367892812148
97 -379.7593868649706
98 -381.3592402634499
99 -382.8868982849763
100 -383.9734955518987
101 -385.5772608820031
102 -386.666181736016
103 -387.8114459813007
104 -388.998837240462
105 -390.1930430683596
106 -391.4118042252143
107 -392.6069336372964
108 -393.8129292963068
109 -394.9896962378061
110 -396.1615362853683
111 -397.2946011364382
112 -398.4240646245925
113 -399.510728524442
114 -400.5841674658014
115 -401.612774999157
116 -402.6293170157159
117 -403.595408612123
118 -404.5583901277077
119 -405.4733737609526
120 -406.3806059907985
121 -407.2456282941969
122 -408.1045897068389
123 -408.9175582165362
124 -409.7219654722148
125 -410.4864090570499
126 -411.2509837874497
127 -411.9716146762565
128 -412.691622104356
129 -413.3720171717725
130 -414.0512200086448
131 -414.6880581028402
132 -415.324945490608
133 -415.9170597934811
134 -416.5216251977704
135 -417.0693970709517
136 -417.6334208513355
137 -418.145697126416
138 -418.6698022195406
139 -419.1356454817868
140 -419.6284929602671
141 -420.0649243124496
142 -420.5200046509702
143 -420.9206086162454
144 -421.3447308124337
145 -421.7178881664472
146 -422.1180243375605
147 -422.454659902155
148 -422.827317231446
149 -423.145620937229
150 -423.4912776672783
151 -423.7747447920221
152 -424.1027264849581
153 -424.3724367266019
154 -424.6803525009149
155 -424.929664319973
156 -425.2227319694606
157 -425.460640351944
158 -425.7409622405953
159 -425.963122379425
160 -426.2364081467709
161 -426.4467593828625
162 -426.7142486386857
163 -426.9174543923211
164 -427.1721553926336
165 -427.3716545090554
166 -427.6227467166945
167 -427.8983321815302
168 -428.1056031583167
169 -428.2859155644144
170 -428.5166385492374
171 -428.7889139284511
172 -429.0010850360493
173 -429.184790044558
174 -429.513856012142
175 -429.6773290038648
176 -430.0068021376577
177 -430.1674628743944
178 -430.4157066896807
179 -430.7131116434678
180 -430.9565289260186
181 -431.2634264127181
182 -431.5074365258194
183 -431.8241885982453
184 -432.0796796375743
185 -432.4059712686318
186 -432.6662504764377
187 -433.0053100065325
188 -433.2772919653288
189 -433.6327073645648
190 -433.9167694191155
191 -434.2824996425237
192 -434.5770910965913
193 -434.8358292757372
194 -435.3084102487402
195 -435.5570267238708
196 -435.9043341707447
197 -436.3368759700534
198 -436.6682421951919
199 -436.9585571647105
200 -437.4782914840332
201 -437.7479085888729
202 -438.12223041667
203 -438.4321953932707
204 -438.834965083707
205 -439.1699591350828
206 -439.5865725387472
207 -439.93846802158
208 -440.3692991574147
209 -440.7294516565464
210 -441.164545893898
211 -441.5254652719482
212 -441.9698465161741
213 -442.3309891039377
214 -442.7723768940544
215 -443.133407276409
216 -443.5789693358877
217 -443.9405677904477
218 -444.3784486185849
219 -444.7355885239514
220 -445.1782490278106
221 -445.532752463285
222 -445.9706501682391
223 -446.3203776233961
224 -446.754853633988
225 -447.1013029743623
226 -447.5242882433765
227 -447.8702592597468
228 -448.2781966785888
229 -448.6212288028495
230 -449.0161072247603
231 -449.3521868261353
232 -449.7317578162827
233 -450.0614123374634
234 -450.4226988823313
235 -450.7369694344026
236 -451.0847908635179
237 -451.3844004038763
238 -451.7143000324687
239 -452.0003670461053
240 -452.3171495635917
241 -452.5872797996329
242 -452.8865774845324
243 -453.1333002049198
244 -453.4137482697122
245 -453.6466301376273
246 -453.9118598813064
247 -454.1259646287624
248 -454.3714173855429
249 -454.5678933866991
250 -454.7977919647917
251 -454.9754374022594
252 -455.1859092767224
253 -455.3463103611944
254 -455.5404855863718
255 -455.6797063361846
256 -455.8537425512433
257 -455.9805577779566
258 -456.1423695016331
259 -456.2540260407184
260 -456.3973770475648
261 -456.493886418718
262 -456.6228696888501
263 -456.7097323949769
264 -456.829382806118
265 -456.9003624052139
266 -457.0087365417234
267 -457.06674048617
268 -457.1665182206002
269 -457.2165262398724
270 -457.3080356680331
271 -457.344192906011
272 -457.4315644248202
273 -457.4618889166505
274 -457.5443614305516
275 -457.5663284933464
276 -457.6421168818471
277 -457.6616824784953
278 -457.7298090780973
279 -457.7442193443713
280 -457.8065232900142
281 -457.8281575248204
282 -457.8906861338486
283 -457.9065141518411
284 -457.9644444977353
285 -457.9826323208387
286 -458.043527478116
287 -458.0608371493359
288 -458.1196605556079
289 -458.1402437091975
290 -458.2060616225289
291 -458.2270643564983
292 -458.2900226973999
293 -458.3161129861109
294 -458.3799476788297
295 -458.4086666344327
296 -458.4751545199944
297 -458.5074785851548
298 -458.5812480169438
299 -458.6169806339231
300 -458.6897894086756
301 -458.7296247621788
302 -458.8150083317644
303 -458.8554798340386
304 -458.9458143303274
305 -458.9909937619215
306 -459.0880469042315
307 -459.1344930573661
308 -459.2369260278597
309 -459.2827155911658
310 -459.3897668717075
311 -459.4409982651171
312 -459.5545086702712
313 -459.609101802322
314 -459.7281823996473
315 -459.785113037964
316 -459.9109320622925
317 -459.9710682258311
318 -460.0996113256597
319 -460.1676025795644
320 -460.3020613867622
321 -460.3704996856608
322 -460.5061467309618
323 -460.5804530931654
324 -460.7225456512577
325 -460.8054115376589
326 -460.9434810792143
327 -461.0296262756927
328 -461.1734828729985
329 -461.2694006294192
330 -461.4108622242957
331 -461.5065272266531
332 -461.6540171923185
333 -461.7508764908509
334 -461.8963237794804
335 -461.9955863711555
336 -462.1478436521882
337 -462.2450626924782
338 -462.3965619796676
339 -462.4974976506525
340 -462.6524922189586
341 -462.7550507853198
342 -462.9179659423048
343 -463.0191802855661
344 -463.1841196724625
345 -463.282029299591
346 -463.4505271269576
347 -463.5474948641468
348 -463.7176820495411
349 -463.8178427321179
350 -463.9871967463972
351 -464.0816657456728
352 -464.2539530410751
353 -464.3573595891889
354 -464.5286833520036
355 -464.6301788669867
356 -464.7999630993618
357 -464.9056039776632
358 -465.0752694920255
359 -465.1845159985427
360 -465.3518512986551
361 -465.4619461110427
362 -465.6292838968716
363 -465.740607358114
364 -465.9052113084933
365 -466.0174722149807
366 -466.1799821771262
367 -466.2939642679702
368 -466.4563201313881
369 -466.5738907431582
370 -466.7353330013523
371 -466.8471681564319
372 -467.0127230710385
373 -467.1273759256305
374 -467.2892425721161
375 -467.4016465045108
376 -467.5649696805934
377 -467.6778146999901
378 -467.8414658094317
379 -467.9531242745213
380 -468.1160807906234
381 -468.2240644653305
382 -468.3856586955946
383 -468.49072902444
384 -468.6535362582435
385 -468.7580825160796
386 -468.9255388927949
387 -469.0254070904947
388 -469.1917447840496
389 -469.2869854284656
390 -469.4535133892231
391 -469.5496506425259
392 -469.7160981204073
393 -469.8124671770804
394 -469.9789381042506
395 -470.0738351834461
396 -470.2371099805384
397 -470.3319921286362
398 -470.4931334999963
399 -470.589149237612
400 -470.746161096911
401 -470.8407019315617
402 -470.9963990906596
403 -471.092298398773
404 -471.2435923640009
405 -471.3449498790097
406 -471.4959712481062
407 -471.5946880578231
408 -471.7398665934966
409 -471.843409108718
410 -471.9859558215854
411 -472.0867755679569
412 -472.2255741534073
413 -472.3247060801059
414 -472.4655032089671
415 -472.5638712670402
416 -472.7041381335237
417 -472.8020034098936
418 -472.9433654853769
419 -473.0400656238195
420 -473.1797651612872
421 -473.2742289543908
422 -473.4135523225334
423 -473.5070381890779
424 -473.6487925905081
425 -473.7388098099838
426 -473.8806747442327
427 -473.9682229630299
428 -474.1069110300373
429 -474.1967425426201
430 -474.3331740677476
431 -474.4202024910313
432 -474.5550256136163
433 -474.6424460752996
434 -474.7770371397362
435 -474.8616938916279
436 -474.9976687024526
437 -475.0806338072671
438 -475.2127594082915
439 -475.300386569123
440 -475.4297128666007
441 -475.5064536506872
442 -475.6350691042852
443 -475.7214935259287
444 -475.8452880645931
445 -475.9265800812822
446 -476.0535077286631
447 -476.1329566491416
448 -476.2591368728142
449 -476.3383848516847
450 -476.4656547264468
451 -476.5425350720672
452 -476.6628478310162
453 -476.7401663657182
454 -476.8633212214135
455 -476.9384355831014
456 -477.0618997898785
457 -477.1359781683975
458 -477.2557886034895
459 -477.329328658474
460 -477.4475465847754
461 -477.5237454783945
462 -477.6442543776561
463 -477.7186962795416
464 -477.8340391946547
465 -477.9084232259303
466 -478.0255835218985
467 -478.1019508595649
468 -478.2144459732168
469 -478.2895071582682
470 -478.3993304545463
471 -478.4799650528393
472 -478.5854975331217
473 -478.6629124495388
474 -478.7695095893956
475 -478.847279205844
476 -478.9507238731946
477 -479.0244223057658
478 -479.129738299331
479 -479.2042427052618
480 -479.3093726710185
481 -479.3808879536961
482 -479.4850334113276
483 -479.5537326145884
484 -479.6597047678843
485 -479.7268030714449
486 -479.8342473423492
487 -479.8975334466451
488 -480.0057558457461
489 -480.0676332361268
490 -480.1762642895326
491 -480.2368017334396
492 -480.3429600819504
493 -480.4019975695744
494 -480.5103323586084
495 -480.5687356890465
496 -480.6769446066194
497 -480.7347372457291
498 -480.8388834581129
499 -480.9008168992507
500 -480.9990999232018
501 -481.0590254982704
502 -481.15755605323
503 -481.2215285646055
504 -481.3143535085289
505 -481.377935419027
506 -481.4703692891662
507 -481.5284791119517
508 -481.6229783056781
509 -481.6856842899049
510 -481.7766100010614
511 -481.8334235786746
512 -481.925585785753
513 -481.982779018676
514 -482.0749283206972
515 -482.1299771020571
516 -482.2219031305789
517 -482.2729755850373
518 -482.3639191947239
519 -482.421549414882
520 -482.5102044880459
521 -482.5609727131812
522 -482.6482798096184
523 -482.7035386860851
524 -482.7882589288079
525 -482.8405785584862
526 -482.925379456222
527 -482.9767545006273
528 -483.0621270546398
529 -483.1141231897685
530 -483.1975857247592
531 -483.2455461173699
532 -483.3296565337529
533 -483.3777004367926
534 -483.4617435727546
535 -483.5082402370033
536 -483.588250103238
537 -483.6322202330147
538 -483.7165457449437
539 -483.7604171289972
540 -483.8410422309836
541 -483.8845689157624
542 -483.967277247591
543 -484.0073734725127
544 -484.0878714976128
545 -484.1321606732571
546 -484.2116813542282
547 -484.2505591856196
548 -484.3273008437131
549 -484.3689292687649
550 -484.446808883166
551 -484.4833386283498
552 -484.5599989444611
553 -484.5947261088929
554 -484.677351040221
555 -484.7095310664786
556 -484.7899109591913
557 -484.8197941702288
558 -484.8974210154444
559 -484.9328707208603
560 -485.0115150373002
561 -485.0378367939659
562 -485.1144373163477
563 -485.1434731298176
564 -485.2226355308412
565 -485.2524349683394
566 -485.3268451087578
567 -485.3553751429678
568 -485.4306027889087
569 -485.4621505092566
570 -485.5326309014807
571 -485.5616096387312
572 -485.6380681437298
573 -485.6664474894064
574 -485.7371335519542
575 -485.7654169583901
576 -485.8372330268089
577 -485.8652739942801
578 -485.9361871855776
579 -485.9578297381084
580 -486.0274685293285
581 -486.0567291977763
582 -486.1269316587538
583 -486.1495558008483
584 -486.2164946809021
585 -486.247690939386
586 -486.3100016172211
587 -486.3360576023415
588 -486.3963063962614
589 -486.4299867781511
590 -486.4892214155112
591 -486.5150955318196
592 -486.5735248688144
593 -486.607043633459
594 -486.6628909424861
595 -486.6935996113075
596 -486.7485376730266
597 -486.7786902456848
598 -486.8349424991129
599 -486.8641697289422
600 -486.9209264036862
601 -486.943762191499
602 -487.00164348837
603 -487.0233781400474
604 -487.0811569930696
605 -487.1046155741832
606 -487.1604674978995
607 -487.1860786397483
608 -487.2429255160569
609 -487.2687718846054
610 -487.3222699756736
611 -487.347855868044
612 -487.4027576957069
613 -487.4213261585961
614 -487.4788593650711
615 -487.4964769459187
616 -487.5520611294688
617 -487.568444154357
618 -487.6305623544925
619 -487.6473824438895
620 -487.7043125879483
621 -487.7179089032725
622 -487.7781407718767
623 -487.7889817555562
624 -487.8490284921892
625 -487.8602811542723
626 -487.9228209757768
627 -487.9291931487562
628 -487.991076639355
629 -488.0038694609266
630 -488.063100973874
631 -488.0732515386336
632 -488.1273782648045
633 -488.1414211243487
634 -488.1980470076024
635 -488.2065047723658
636 -488.2571113739013
637 -488.2726444629442
638 -488.3222948742769
639 -488.337916237322
640 -488.3871188188434
641 -488.4048989275261
642 -488.4521961226939
643 -488.4658925979566
644 -488.5161886631024
645 -488.5340541209237
646 -488.5805963815376
647 -488.5907796603215
648 -488.6412479081265
649 -488.6556872171536
650 -488.704032514629
651 -488.7103645575671
652 -488.7659951944618
653 -488.7724491070707
654 -488.8279201580769
655 -488.8315374080052
656 -488.8840106049477
657 -488.8934853257246
658 -488.9432753944503
659 -488.9497151881486
660 -488.9980839133644
661 -489.0098235138478
662 -489.0538804140704
663 -489.0612872214277
664 -489.107033160511
665 -489.1198190805273
666 -489.1628809113399
667 -489.1718118134774
668 -489.2126284360443
669 -489.2292819029283
670 -489.2705368567524
671 -489.2794563990586
672 -489.3247357868644
673 -489.3353591418268
674 -489.37453536387
675 -489.3863625170427
676 -489.4278972563025
677 -489.4398120268943
678 -489.4804396469457
679 -489.491613582131
680 -489.5308082696627
681 -489.5419753635535
682 -489.580185065832
683 -489.5884224178703
684 -489.6319222133532
685 -489.6437854133406
686 -489.6806574481973
687 -489.68645918428
688 -489.7267765986779
689 -489.7384272916062
690 -489.7776716728292
691 -489.7819938189717
692 -489.8218113703726
693 -489.8318988589922
694 -489.8717024188037
695 -489.8776113012744
696 -489.9172811679587
697 -489.9258817574213
698 -489.9642037697089
699 -489.9695989192648
700 -490.0089859297363
701 -490.0158763255625
702 -490.054493987978
703 -490.057350998935
704 -490.0972874817852
705 -490.100919921974
706 -490.1419193720749
707 -490.1395379974367
708 -490.1858743656111
709 -490.189481023046
710 -490.2301657040599
711 -490.2265750172318
712 -490.271544783992
713 -490.2729553426665
714 -490.3134496594882
715 -490.30737659045
716 -490.3513868198449
717 -490.3478593402553
718 -490.3924397843099
719 -490.3875621319801
720 -490.433376304922
721 -490.4270906838414
722 -490.4706675436136
723 -490.4625071898665
724 -490.5101568285034
725 -490.5039548544998
726 -490.548101853979
727 -490.5398358394328
728 -490.5841131839641
729 -490.5830756200962
730 -490.6252258978918
731 -490.6168903985973
732 -490.6596532077643
733 -490.6594267176821
734 -490.6988488581742
735 -490.6930610832636
736 -490.7321443913712
737 -490.7308101041709
738 -490.7715891422571
739 -490.767496303901
740 -490.8067859585591
741 -490.7987411601009
742 -490.8424361805696
743 -490.8348778157512
744 -490.87816768687
745 -490.8675478072229
746 -490.9127143345254
747 -490.9033214133453
748 -490.9470246654248
749 -490.9354208446002
750 -490.9764365982616
751 -490.9689646627678
752 -491.0117308119451
753 -491.0061544038094
754 -491.0442819947791
755 -491.0355077971726
756 -491.072963590085
757 -491.0716497119529
758 -491.1037176046323
759 -491.105775370862
760 -491.1376917231659
761 -491.1361635315757
762 -491.1666432870723
763 -491.1709743035485
764 -491.1992155434833
765 -491.1994444702275
766 -491.2287319390085
767 -491.2276570457635
768 -491.2573808100614
769 -491.2586764459878
770 -491.2879779732378
771 -491.2840501214769
772 -491.3185053267692
773 -491.3163853497885
774 -491.3491479817841
775 -491.3432794491406
776 -491.3745260075454
777 -491.3744980112863
778 -491.4044546043224
779 -491.4018269173079
780 -491.4318146571572
781 -491.4301262206158
782 -491.4592265319972
783 -491.4578602982339
784 -491.4882533080205
785 -491.4848572423795
786 -491.5161420948436
787 -491.5129072954962
788 -491.5454303194482
789 -491.5417885011234
790 -491.5724612397512
791 -491.5639333574603
792 -491.6001956006485
793 -491.5922943661097
794 -491.6286882864834
795 -491.6143081032805
796 -491.6547419235329
797 -491.6392886270187
798 -491.6808072597361
799 -491.6678409402962
800 -491.7066576516448
801 -491.68944008751
802 -491.7293767828972
803 -491.7130788885199
804 -491.7516179642249
805 -491.7400860311593
806 -491.776026882718
807 -491.7626949217926
808 -491.7993069430791
809 -491.7923662222046
810 -491.8267303144662
811 -491.8114971125363
812 -491.8483505391041
813 -491.8405081594948
814 -491.8750035203478
815 -491.8633797396171
816 -491.8953431955147
817 -491.888609361059
818 -491.9201871952267
819 -491.9100762968716
820 -491.9408957432595
821 -491.9358453111871
822 -491.9624640104471
823 -491.9565816816901
824 -491.9835753101561
825 -491.9790154996604
826 -492.0025486488968
827 -492.0006600246499
828 -492.0247626968022
829 -492.027869705285
830 -492.0479552748711
831 -492.0478192916569
832 -492.0711785013896
833 -492.0684865766906
834 -492.0934763452247
835 -492.0871101554475
836 -492.1119768903067
837 -492.1092828190987
838 -492.1332535515436
839 -492.1260090727844
840 -492.1534364435611
841 -492.144315762285
842 -492.1757923175622
843 -492.1658608307503
844 -492.195173755644
845 -492.1853592041102
846 -492.2157554533278
847 -492.2078217781943
848 -492.2350071915309
849 -492.2296072821617
850 -492.2580677995044
851 -492.2489573821611
852 -492.2778382109972
853 -492.2731772810962
854 -492.295020024912
855 -492.2904723500673
856 -492.3149537567954
857 -492.310685349728
858 -492.3339522253837
859 -492.3278656823142
860 -492.3515283630528
861 -492.3445965539433
862 -492.3680473008138
863 -492.3614074560305
864 -492.3888824227693
865 -492.3789973049232
866 -492.4062408555909
867 -492.3944247884872
868 -492.4212645066695
869 -492.414884362668
870 -492.440542623028
871 -492.4268128369104
872 -492.4533961566307
873 -492.4461036567876
874 -492.4743830287439
875 -492.4589644913732
876 -492.4866016022782
877 -492.4790200579536
878 -492.5028258735476
879 -492.4928029068953
880 -492.5180907285506
881 -492.5102395073315
882 -492.5371479671917
883 -492.5269260661601
884 -492.5537026791773
885 -492.5435603311419
886 -492.5710746012725
887 -492.5599114673144
888 -492.5853589857969
889 -492.5800344762494
890 -492.6005477662648
891 -492.5906785852243
892 -492.615670709599
893 -492.6138440334208
894 -492.6345704382484
895 -492.6244868209737
896 -492.6468484956604
897 -492.6433723988293
898 -492.6614338887516
899 -492.6534409728394
900 -492.6754992581339
901 -492.6687359389157
902 -492.6901566723431
903 -492.6793000109814
904 -492.7053595073164
905 -492.6917003235938
906 -492.7199648519987
907 -492.7022913933683
908 -492.7302492623504
909 -492.7173507419017
910 -492.7499098768257
911 -492.7268449852669
912 -492.76261948526
913 -492.7437356124517
914 -492.7808472097254
915 -492.7516964151787
916 -492.7881961907127
917 -492.7711868218883
918 -492.8051194796553
919 -492.7822723089568
920 -492.8145786550553
921 -492.7987343137945
922 -492.8319815840142
923 -492.8111856596801
924 -492.8405046548334
925 -492.8286229314808
926 -492.8536232230146
927 -492.8423610005881
928 -492.8670844418539
929 -492.8584250509693
930 -492.8786248816518
931 -492.8666242932908
932 -492.8889457913592
933 -492.8841119467212
934 -492.9009674557649
935 -492.8894192448975
936 -492.9098091606998
937 -492.903259692813
938 -492.9226393638663
939 -492.9104900516115
940 -492.9327109362035
941 -492.9212102449762
942 -492.9450786517946
943 -492.9316789616784
944 -492.9545041345507
945 -492.9436590404869
946 -492.9667729795298
947 -492.9523890825904
948 -492.9760222225506
949 -492.9663477699148
950 -492.9904048515257
951 -492.9716823749703
952 -492.996855780721
953 -492.9849967247101
954 -493.0105268369967
955 -492.991872798547
956 -493.0167964992322
957 -493.0065380946659
958 -493.0296257423691
959 -493.0135775737147
960 -493.0380169218037
961 -493.0250496503805
962 -493.0480699907312
963 -493.0320571487777
964 -493.0527616295405
965 -493.0438082045533
966 -493.0635262015167
967 -493.0504715505458
968 -493.0733135024704
969 -493.0640347264547
970 -493.0850406105699
971 -493.0691689500437
972 -493.0924379753462
973 -493.0837729693417
974 -493.1031797349419
975 -493.0876188943092
976 -493.1111805458571
977 -493.1001106882917
978 -493.1232049907584
979 -493.1103262012775
980 -493.1293214404471
981 -493.1183017459597
982 -493.1392571119966
983 -493.1311959000273
984 -493.1493782295983
985 -493.1402441132592
986 -493.1583719381755
987 -493.1496082885801
988 -493.1637139499168
989 -493.1618713752652
990 -493.1762868548661
991 -493.1659177889201
992 -493.1828927661961
993 -493.1775691168252
994 -493.1967302918165
995 -493.1836908848747
996 -493.2048303066738
997 -493.1949172751079
998 -493.214613482514
999 -493.2012328166689
1000 -493.2218392618802
1001 -493.2057916194532
1002 -493.2301575002047
1003 -493.2107326625238
1004 -493.2374180356136
1005 -493.2210985288448
1006 -493.2452016756436
1007 -493.2275571422163
1008 -493.2528340918228
1009 -493.2393726872981
1010 -493.2603476635417
1011 -493.2424710326468
1012 -493.2656850711973
1013 -493.2559736022404
1014 -493.2758765169216
1015 -493.2614883778998
1016 -493.2804737679993
1017 -493.2701419239243
1018 -493.2900397444311
1019 -493.2777862150238
1020 -493.2969723633987
1021 -493.2835915919768
1022 -493.3059989377865
1023 -493.2910070816532
1024 -493.3123384370527
1025 -493.2957922813068
1026 -493.3211673366247
1027 -493.305139308426
1028 -493.326380981548
1029 -493.3133542277056
1030 -493.3347406206688
1031 -493.3211614757815
1032 -493.340200770409
1033 -493.3303696098504
1034 -493.3459656017245
1035 -493.3352630458574
1036 -493.3514417072396
1037 -493.3456825702883
1038 -493.3568860840931
1039 -493.3508340464302
1040 -493.3642764295399
1041 -493.3553567940889
1042 -493.3694235919761
1043 -493.3614336047148
1044 -493.3764937102426
1045 -493.3684140806379
1046 -493.3822854774691
1047 -493.3710967604488
1048 -493.3857423358957
1049 -493.3776767062319
1050 -493.3946865411494
1051 -493.3778984280915
1052 -493.396593569637
1053 -493.3889363044663
1054 -493.4078414434908
1055 -493.3939782992022
1056 -493.4083691710265
1057 -493.4017862953356
1058 -493.4182026568482
1059 -493.407581576221
1060 -493.4229861170971
1061 -493.4140965211366
1062 -493.4326260829511
1063 -493.4193766399871
1064 -493.435967356872
1065 -493.4239626105039
1066 -493.4445991587297
1067 -493.426220586323
1068 -493.4505995537402
1069 -493.4344902151947
1070 -493.4560618760979
1071 -493.4322723126798
1072 -493.4589881353315
1073 -493.4419762075719
1074 -493.4701624664413
1075 -493.4425132877776
1076 -493.4718351575489
1077 -493.4549041771656
1078 -493.4777416966749
1079 -493.4558030442803
1080 -493.480087712995
1081 -493.4607240726083
1082 -493.4844916022244
1083 -493.4640261779617
1084 -493.486468802349
1085 -493.4719823005703
1086 -493.4943172043967
1087 -493.4764092842018
1088 -493.4982445339316
1089 -493.4863549590453
1090 -493.5066872466809
1091 -493.4895653208654
1092 -493.5079384121998
1093 -493.4972037020097
1094 -493.5148009807645
1095 -493.4995812895684
1096 -493.5167109997371
1097 -493.5078237832572
1098 -493.5266069340872
1099 -493.5092271607614
1100 -493.5269928579854
1101 -493.5155955843288
1102 -493.5338154143495
1103 -493.5174876031951
1104 -493.5345960909635
1105 -493.5238754866425
1106 -493.5392937169603
1107 -493.5282933310852
1108 -493.5428265415565
1109 -493.5360036165806
1110 -493.5491763214711
1111 -493.5372613485146
1112 -493.5531793559512
1113 -493.5425363686018
1114 -493.5588095171677
1115 -493.5432929498458
1116 -493.5628727676238
1117 -493.5493524607376
1118 -493.5676986536695
1119 -493.5510863490961
1120 -493.5724290918421
1121 -493.5543698063144
1122 -493.5785641647967
1123 -493.5587704482654
1124 -493.5794179686739
1125 -493.5640551494193
1126 -493.5850935677181
1127 -493.5667773114632
1128 -493.5847424353857
1129 -493.5759290395711
1130 -493.5890425018933
1131 -493.5789167108309
1132 -493.5901400640499
1133 -493.5853706699812
1134 -493.5956586971583
1135 -493.5897567674256
1136 -493.5963478512667
1137 -493.5950729919895
1138 -493.6013817383726
1139 -493.5954523916101
1140 -493.6029260609351
1141 -493.600187875495
1142 -493.6066736007057
1143 -493.5994055057206
1144 -493.612673676363
1145 -493.6041509896523
1146 -493.6161794241476
1147 -493.6042302833068
1148 -493.6183294852743
1149 -493.609092286979
1150 -493.6242036245091
1151 -493.6100932254257
1152 -493.629131812867
1153 -493.6156044866533
1154 -493.6339676082498
1155 -493.6150156647701
1156 -493.6369773253195
1157 -493.6235339799811
1158 -493.6424707245034
1159 -493.6252420245011
1160 -493.6430531656934
1161 -493.627034067466
1162 -493.6497760098758
1163 -493.6306688643242
1164 -493.6512278947961
1165 -493.6307379213495
1166 -493.6554813175667
1167 -493.6357539189362
1168 -493.6584890006178
1169 -493.6375567772711
1170 -493.6608792381282
1171 -493.6401124334639
1172 -493.6608527853497
1173 -493.6406810655616
1174 -493.6643498589324
1175 -493.6433438578757
1176 -493.6656215399056
1177 -493.6491042208551
1178 -493.6661904684673
1179 -493.6518137038541
1180 -493.6673254852164
1181 -493.6538621424942
1182 -493.6689937740026
1183 -493.655613484839
1184 -493.6700701398348
1185 -493.6596805897623
1186 -493.66985565349
1187 -493.6612669180485
1188 -493.6714645475109
1189 -493.6678469191092
1190 -493.6767496210913
1191 -493.6659260139064
1192 -493.6781673116853
1193 -493.6714664880042
1194 -493.6861548240884
1195 -493.6736391648907
1196 -493.6832459999828
1197 -493.6750834168055
1198 -493.6873035053924
1199 -493.6770659758063
1200 -493.6888749768497
1201 -493.6814494426138
1202 -493.695796186143
1203 -493.6802287750968
1204 -493.6905074224483
1205 -493.6863111258349
1206 -493.6962116563193
1207 -493.6856456615669
1208 -493.6941331128806
1209 -493.6915687843102
1210 -493.7005095108427
1211 -493.6883060284114
1212 -493.6977546408273
1213 -493.6931934483377
1214 -493.7025886371192
1215 -493.6927281177403
1216 -493.7015922359962
1217 -493.6969579409397
1218 -493.7065953608312
1219 -493.6957574822965
1220 -493.7059156415848
1221 -493.7025930707387
1222 -493.7107720620101
1223 -493.701109263063
1224 -493.7087110582906
1225 -493.7067862423166
1226 -493.7130142114488
1227 -493.7061038179226
1228 -493.7133976380308
1229 -493.7139539211152
1230 -493.718673089389
1231 -493.7160740117654
1232 -493.7193263021931
1233 -493.7188247320877
1234 -493.7252247556053
1235 -493.7195581661845
1236 -493.7237281199688
1237 -493.7230395625791
1238 -493.7277164702891
1239 -493.7206187745642
1240 -493.7295419378344
1241 -493.7239961895024
1242 -493.7372320932453
1243 -493.7217534485195
1244 -493.7347044931417
1245 -493.7241277027863
1246 -493.7401792135171
1247 -493.7210819786459
1248 -493.7420015943072
1249 -493.7274077618563
1250 -493.7445311359342
1251 -493.7242756764828
1252 -493.7445891801624
1253 -493.7278916533346
1254 -493.7464855830535
1255 -493.7265528095735
1256 -493.7490482861591
1257 -493.7331620653881
1258 -493.7513978652479
1259 -493.7354555771452
1260 -493.7571874737017
1261 -493.739564619682
1262 -493.7599881881049
1263 -493.7398898128751
1264 -493.7609609565625
1265 -493.7420539018936
1266 -493.7646511782312
1267 -493.743080353037
1268 -493.763054359774
1269 -493.7495983458932
1270 -493.7658414333916
1271 -493.7483379371673
1272 -493.765659824519
1273 -493.7537633899296
1274 -493.772672458059
1275 -493.7527142280634
1276 -493.7676425932772
1277 -493.7577353359247
1278 -493.7713521422012
1279 -493.7564084042465
1280 -493.7676174097842
1281 -493.7566476790219
1282 -493.7706595447427
1283 -493.7563939632617
1284 -493.772076786957
1285 -493.7616634074802
1286 -493.7736494344268
1287 -493.7629088195146
1288 -493.7741327391273
1289 -493.7655272459686
1290 -493.7740426563047
1291 -493.7646535388421
1292 -493.7756983336352
1293 -493.7675029423942
1294 -493.7782608566702
1295 -493.7701056826651
1296 -493.7809003142141
1297 -493.773636752445
1298 -493.7823404832998
1299 -493.7725514410369
1300 -493.7820897558644
1301 -493.7716385352782
1302 -493.7842165245688
1303 -493.7710945516736
1304 -493.7829809564244
1305 -493.7734577468081
1306 -493.7868856300365
1307 -493.7737434746231
1308 -493.7857948627824
1309 -493.7752058290678
1310 -493.7882847001866
1311 -493.7729079254191
1312 -493.7906936708118
1313 -493.7757195788537
1314 -493.7940767592625
1315 -493.7750969720947
1316 -493.7911592304787
1317 -493.7742755096012
1318 -493.7913699677737
1319 -493.7738315655765
1320 -493.7904211240181
1321 -493.7746477315214
1322 -493.7918934490165
1323 -493.7760775321787
1324 -493.7923796313039
1325 -493.7778195762116
1326 -493.7909746872861
1327 -493.7786786722897
1328 -493.7927332029187
1329 -493.7824760130466
1330 -493.7946450570699
1331 -493.7830982393537
1332 -493.7952937663843
1333 -493.7876299637252
1334 -493.7978533768601
1335 -493.7874308884416
1336 -493.7972615075963
1337 -493.7886144123278
1338 -493.7988030173096
1339 -493.7923453701964
1340 -493.7989378553055
1341 -493.7938500740605
1342 -493.8026916076394
1343 -493.7943119075123
1344 -493.8014267231285
1345 -493.7949171728193
1346 -493.8021299286769
1347 -493.7933897028813
1348 -493.8035560943405
1349 -493.7991929776164
1350 -493.80917742568
1351 -493.7952621175731
1352 -493.8094516632222
1353 -493.7954822816227
1354 -493.8129790518591
1355 -493.7944366778776
1356 -493.8120264854583
1357 -493.7949097072915
1358 -493.8130154191643
1359 -493.7969542074862
1360 -493.8159411536283
1361 -493.7984316285385
1362 -493.8175885756511
1363 -493.7997687812462
1364 -493.8176879955355
1365 -493.8028554386292
1366 -493.8178430428963
1367 -493.8032045335879
1368 -493.8200714561751
1369 -493.8092503543108
1370 -493.8195347823817
1371 -493.8084669015227
1372 -493.8203336273705
1373 -493.8096474035969
1374 -493.8215895683985
1375 -493.8113061485566
1376 -493.8219845026935
1377 -493.8123555490132
1378 -493.8245716137747
1379 -493.8153758375794
1380 -493.8234167524923
1381 -493.8145978200876
1382 -493.8258516556492
1383 -493.8130294310123
1384 -493.824434022179
1385 -493.8129469002988
1386 -493.8255560850802
1387 -493.8134664880733
1388 -493.8254187396841
1389 -493.8194432133925
1390 -493.8300639972032
1391 -493.8128506709214
1392 -493.8290016149296
1393 -493.8166039795729
1394 -493.8320287563231
1395 -493.8122224078418
1396 -493.8297811168134
1397 -493.8187426654055
1398 -493.8345335012123
1399 -493.8208236258271
1400 -493.8375410386075
1401 -493.8196245357618
1402 -493.8386416484819
1403 -493.8195306280509
1404 -493.8379164056859
1405 -493.8228854555088
1406 -493.8385439896774
1407 -493.8220100818895
1408 -493.8378914658296
1409 -493.8278789985605
1410 -493.840314838064
1411 -493.8243981119153
1412 -493.8364711078556
1413 -493.8271904041171
1414 -493.8399716316928
1415 -493.8258662106492
1416 -493.8367735959138
1417 -493.8287396637776
1418 -493.8390008948928
1419 -493.8271697606177
1420 -493.837109989948
1421 -493.8278494196244
1422 -493.8435813272178
1423 -493.8259659148653
1424 -493.8408934275485
1425 -493.8289366937383
1426 -493.8435832196689
1427 -493.8268197480517
1428 -493.8420362032647
1429 -493.8321557518196
1430 -493.8420533649589
1431 -493.8281893622671
1432 -493.8407638639795
1433 -493.8347733886951
1434 -493.843340926354
1435 -493.8361022922506
1436 -493.8415851392373
1437 -493.8386669174351
1438 -493.8411930389093
1439 -493.8405059305275
1440 -493.8420340571339
1441 -493.8405288110918
1442 -493.8456951035657
1443 -493.8376907261223
1444 -493.8444183965975
1445 -493.8386173951367
1446 -493.8463416751229
1447 -493.8342112952045
1448 -493.8446784081618
1449 -493.8364643732412
1450 -493.8497262313081
1451 -493.8331368451654
1452 -493.8497685443173
1453 -493.8385660547936
1454 -493.8519532924059
1455 -493.8353724996911
1456 -493.8501838581625
1457 -493.8371095468622
1458 -493.8513014929706
1459 -493.839091811397
1460 -493.8527985898759
1461 -493.8400756208235
1462 -493.8548113489554
1463 -493.8402993468061
1464 -493.855177735955
1465 -493.8398654857781
1466 -493.8550868659519
1467 -493.8367036055863
1468 -493.8553798814199
1469 -493.8421183469742
1470 -493.8609299779456
1471 -493.838062150234
1472 -493.8612217835898
1473 -493.8415762258378
1474 -493.8650420695016
1475 -493.837558025962
1476 -493.863346477696
1477 -493.8435272588571
1478 -493.8643901392126
1479 -493.841772692164
1480 -493.8627749776379
1481 -493.8451320539852
1482 -493.8637709900127
1483 -493.844793553241
1484 -493.8586834533319
1485 -493.8476733777299
1486 -493.8584962411264
1487 -493.8455621703619
1488 -493.8545564599229
1489 -493.8510655759738
1490 -493.857360178596
1491 -493.8458906301093
1492 -493.8557782706196
1493 -493.8504779953337
1494 -493.8595756233283
1495 -493.845318930062
1496 -493.8570235386907
1497 -493.8477958379166
1498 -493.8624368659317
1499 -493.8479801333052
1500 -493.8634400080724
1501 -493.8471541143537
1502 -493.8625534728109
1503 -493.8473548835879
1504 -493.8598156800203
1505 -493.8477312833775
1506 -493.8607640802254
1507 -493.8474378020071
1508 -493.8594225237782
1509 -493.8546624068298
1510 -493.8615992342513
1511 -493.8520898430275
1512 -493.8613981676686
1513 -493.8556006201065
1514 -493.8627813600815
1515 -493.8504092297096
1516 -493.8601697870322
1517 -493.8532761097129
1518 -493.8648922825906
1519 -493.855070012453
1520 -493.8654404374037
1521 -493.8517859687103
1522 -493.8688917962767
1523 -493.8512603424155
1524 -493.8648590925424
1525 -493.8506762009999
1526 -493.8637523567674
1527 -493.8485482782073
1528 -493.861050125975
1529 -493.8545124490917
1530 -493.8666287756441
1531 -493.8540613206465
1532 -493.8633317261279
1533 -493.8573253377218
1534 -493.8671869972263
1535 -493.8541474222115
1536 -493.8642551852671
1537 -493.8584102407345
1538 -493.8652656140315
1539 -493.8563306072402
1540 -493.8647801526679
1541 -493.8566571207714
1542 -493.8685133032919
1543 -493.8574623917112
1544 -493.8703024390292
1545 -493.8580964048327
1546 -493.8715075477836
1547 -493.8574219906751
1548 -493.872535134414
1549 -493.8599815994024
1550 -493.8701840469026
1551 -493.8561295970304
1552 -493.8702484146881
1553 -493.8572431389359
1554 -493.872055605264
1555 -493.8577217353546
1556 -493.8697689301852
1557 -493.8601233147635
1558 -493.8712321333807
1559 -493.8590421148633
1560 -493.8684017600651
1561 -493.8548528104614
1562 -493.8698870149478
1563 -493.8551042093397
1564 -493.870410708889
1565 -493.8554370286378
1566 -493.8745416704921
1567 -493.8561278786287
1568 -493.8745200054486
1569 -493.8565078737322
1570 -493.8787190952706
1571 -493.8563933049691
1572 -493.8776284327337
1573 -493.8605923253524
1574 -493.877495397512
1575 -493.8578649346546
1576 -493.8767711743079
1577 -493.8618938652261
1578 -493.8764166024558
1579 -493.8623349660512
1580 -493.8749562644996
1581 -493.8636012391252
1582 -493.8763128354212
1583 -493.8660869100879
1584 -493.8774494090587
1585 -493.8671763611301
1586 -493.8736121596046
1587 -493.8641910470228
1588 -493.8741862406994
1589 -493.86850377252
1590 -493.8764962093092
1591 -493.8643983791287
1592 -493.8747008652485
1593 -493.865946518698
1594 -493.8778007609476
1595 -493.8607753548336
1596 -493.8727125844656
1597 -493.8663635338863
1598 -493.8758503380664
1599 -493.86300605024
1600 -493.8745273074725
1601 -493.8636722736816
1602 -493.8768431599015
1603 -493.861990602285
1604 -493.8725545475272
1605 -493.8642482499285
1606 -493.8747208476048
1607 -493.8636115191501
1608 -493.87369620415
1609 -493.8689680528568
1610 -493.8762001914897
1611 -493.8638415627051
1612 -493.8742796339719
1613 -493.8683489926782
1614 -493.879326603434
1615 -493.8634690074957
1616 -493.8757714025603
1617 -493.8679723450174
1618 -493.8782449210433
1619 -493.8661704882874
1620 -493.8781926974202
1621 -493.8681243813848
1622 -493.8803074973946
1623 -493.865933091132
1624 -493.87895135207
1625 -493.8659947561266
1626 -493.8779566470558
1627 -493.8633845744758
1628 -493.8724633265366
1629 -493.8652639470578
1630 -493.8740555944891
1631 -493.8630823193079
1632 -493.87288050692
1633 -493.8636903696498
1634 -493.8763596788989
1635 -493.861318601072
1636 -493.8727767739285
1637 -493.8630039035354
1638 -493.8775860548087
1639 -493.8629269950083
1640 -493.8770068070822
1641 -493.8599593797946
1642 -493.8789627859526
1643 -493.8603452706857
1644 -493.8764944257678
1645 -493.8605379019955
1646 -493.87715883077
1647 -493.8642614375212
1648 -493.8790332719039
1649 -493.8667536954554
1650 -493.8815280953222
1651 -493.866475372501
1652 -493.8796201173143
1653 -493.8667739327028
1654 -493.8801747103469
1655 -493.8665206867846
1656 -493.8807034258136
1657 -493.8711585404188
1658 -493.8829437503038
1659 -493.8672385133112
1660 -493.881271697617
1661 -493.8697768315791
1662 -493.8858123479393
1663 -493.8678273939568
1664 -493.8787843545225
1665 -493.8677092332271
1666 -493.8835087389371
1667 -493.8697045110861
1668 -493.8835992540929
1669 -493.8729735288784
1670 -493.885663985249
1671 -493.8718492556475
1672 -493.8839278696141
1673 -493.8702762756854
1674 -493.8873042085659
1675 -493.871063644079
1676 -493.8839932016442
1677 -493.8730081011881
1678 -493.8872046204067
1679 -493.8703548190875
1680 -493.8878751667509
1681 -493.8754429939002
1682 -493.8908134418738
1683 -493.8719167492508
1684 -493.8877551646472
1685 -493.8736559053359
1686 -493.888964842346
1687 -493.8715838737424
1688 -493.8852655960615
1689 -493.8741525680045
1690 -493.8841138406956
1691 -493.8732150229615
1692 -493.8841191463115
1693 -493.875853722122
1694 -493.8837448766988
1695 -493.8712460889161
1696 -493.8819768964687
1697 -493.8755422447467
1698 -493.8841082566211
1699 -493.8730174168065
1700 -493.8799880318471
1701 -493.8746295600756
1702 -493.8823043117912
1703 -493.8724151687417
1704 -493.8813274783647
1705 -493.8710580705988
1706 -493.8857859025973
1707 -493.8736454506992
1708 -493.886033296156
1709 -493.8763247346498
1710 -493.8882399165265
1711 -493.8776780751152
1712 -493.8875703578589
1713 -493.8758434817613
1714 -493.8906532576294
1715 -493.8731280534361
1716 -493.8876527748802
1717 -493.8767172447185
1718 -493.888373014755
1719 -493.8767467218564
1720 -493.8885832170538
1721 -493.8767945382363
1722 -493.8895140785281
1723 -493.8747260140763
1724 -493.8908592653102
1725 -493.8729273889695
1726 -493.8887607644787
1727 -493.8718627515332
1728 -493.8886724934238
1729 -493.8722217297153
1730 -493.8883965695903
1731 -493.8714554107702
1732 -493.8891615120514
1733 -493.87261697854
1734 -493.8915209940993
1735 -493.8712785922796
1736 -493.8862405721899
1737 -493.8735780553972
1738 -493.8873043879338
1739 -493.8737741267234
1740 -493.8835973455328
1741 -493.8745495742406
1742 -493.8847589314208
1743 -493.8742201211239
1744 -493.8830154591241
1745 -493.873256061066
1746 -493.8848423452702
1747 -493.8752582227058
1748 -493.8836880926681
1749 -493.8765527926689
1750 -493.8873330198789
1751 -493.8742126430676
1752 -493.8876386475594
1753 -493.8757477460694
1754 -493.8897077203604
1755 -493.8739077455002
1756 -493.8882629365754
1757 -493.8764118992137
1758 -493.8866058594963
1759 -493.8745745496774
1760 -493.8864743756486
1761 -493.8753147436433
1762 -493.88927159983
1763 -493.8728973111458
1764 -493.8874225180695
1765 -493.8744569392913
1766 -493.8855094540116
1767 -493.8733687331061
1768 -493.8860728015111
1769 -493.8734835880644
1770 -493.887262578357
1771 -493.8729832307468
1772 -493.8864305633271
1773 -493.8756623335206
1774 -493.8902580160349
1775 -493.8754626267267
1776 -493.8880866358254
1777 -493.8746027846356
1778 -493.8907186976385
1779 -493.8741839129119
1780 -493.8873773745299
1781 -493.8755783894886
1782 -493.8905837894342
1783 -493.8760934801841
1784 -493.8857966252647
1785 -493.8779064496415
1786 -493.8866679486221
1787 -493.8776922423629
1788 -493.8840472756152
1789 -493.8812742216821
1790 -493.8859643490337
1791 -493.8792622681266
1792 -493.8843619836713
1793 -493.8785610347314
1794 -493.8830499754719
1795 -493.8767962908464
1796 -493.8835781210406
1797 -493.8805114035738
1798 -493.8883248376611
1799 -493.875380818122
1800 -493.8877233463576
1801 -493.8764736122836
1802 -493.8902057415603
1803 -493.8698213498753
1804 -493.8859982964788
1805 -493.8713799031059
1806 -493.8897870089998
1807 -493.8703825770755
1808 -493.8890895278363
1809 -493.8749865938851
1810 -493.8923481061361
1811 -493.8729918162642
1812 -493.8878933358317
1813 -493.8764634043133
1814 -493.8930744030305
1815 -493.8756683511949
1816 -493.8905834236512
1817 -493.8784055445567
1818 -493.8929986145191
1819 -493.875620613061
1820 -493.8894731150382
1821 -493.8785626115923
1822 -493.8928655453946
1823 -493.8751927944087
1824 -493.8913600521007
1825 -493.8788038746711
1826 -493.8922756473442
1827 -493.8741712905911
1828 -493.8891621287761
1829 -493.8787071443741
1830 -493.8896342733892
1831 -493.8761645426609
1832 -493.8887988128336
1833 -493.8791214415114
1834 -493.887321579771
1835 -493.8760189113583
1836 -493.8851183167421
1837 -493.8795111548861
1838 -493.8822519896888
1839 -493.8749849044789
1840 -493.8832822356409
1841 -493.8787874894645
1842 -493.8883485435218
1843 -493.8807963360447
1844 -493.8881110050215
1845 -493.8802809467078
1846 -493.8893963051278
1847 -493.8794845731488
1848 -493.889906947237
1849 -493.8803797364361
1850 -493.8922187690583
1851 -493.8791592845919
1852 -493.889262459895
1853 -493.8780856989367
1854 -493.8929753173921
1855 -493.8796348894371
1856 -493.8905984108163
1857 -493.8784481786603
1858 -493.8909316555487
1859 -493.8787020518544
1860 -493.8899361727387
1861 -493.8773615970236
1862 -493.8902856673641
1863 -493.8766769614188
1864 -493.8913598760626
1865 -493.8773117065196
1866 -493.893883769057
1867 -493.8777736623931
1868 -493.8935853723351
1869 -493.8791701976829
1870 -493.8939939241671
1871 -493.8746871828517
1872 -493.8938809097662
1873 -493.876977652072
1874 -493.8951396960813
1875 -493.8777617982399
1876 -493.8959442491157
1877 -493.8777388092037
1878 -493.8949020905721
1879 -493.8806333988162
1880 -493.8939463356387
1881 -493.8814621656077
1882 -493.8965114247404
1883 -493.8823306050079
1884 -493.8937182330569
1885 -493.8874899571923
1886 -493.8939123987047
1887 -493.8859041730171
1888 -493.8922418846323
1889 -493.8884444884113
1890 -493.8946531279233
1891 -493.8868634300029
1892 -493.891895121313
1893 -493.8846904520386
1894 -493.8919060750153
1895 -493.882922414278
1896 -493.8910905487346
1897 -493.8790660761616
1898 -493.8889531379259
1899 -493.8756917064682
1900 -493.8911168440493
1901 -493.8754075652578
1902 -493.8910058254638
1903 -493.8727529245443
1904 -493.8909490797473
1905 -493.8740747989521
1906 -493.889710370749
1907 -493.8731506301058
1908 -493.8891181290434
1909 -493.8749146335713
1910 -493.8877758611732
1911 -493.8725371939146
1912 -493.8881633021557
1913 -493.874308698603
1914 -493.8919136960757
1915 -493.8751873130288
1916 -493.8891139038203
1917 -493.8757835401491
1918 -493.8935272358476
1919 -493.8748658099382
1920 -493.8915695532208
1921 -493.8754537215744
1922 -493.8945264800197
1923 -493.8738600431029
1924 -493.8905290216239
1925 -493.8745462939339
1926 -493.8921133021984
1927 -493.8757218917201
1928 -493.8906380114773
1929 -493.8783490728515
1930 -493.8932577517629
1931 -493.8757009976088
1932 -493.8906565323757
1933 -493.8801167927463
1934 -493.8890482277339
1935 -493.8779012752454
1936 -493.886452635104
1937 -493.8795387992103
1938 -493.8873877367589
1939 -493.8781205534715
1940 -493.8878481778398
1941 -493.8790757455265
1942 -493.8892879753971
1943 -493.8774350416041
1944 -493.890132399172
1945 -493.8783783950379
1946 -493.891729032362
1947 -493.8770771756424
1948 -493.8917798533979
1949 -493.8787258720707
1950 -493.8930075050665
1951 -493.8775253029376
1952 -493.8897401506395
1953 -493.8764988346737
1954 -493.891790973994
1955 -493.8789934053505
1956 -493.8927718750818
1957 -493.8818054938379
1958 -493.8937454223628
1959 -493.8813681225529
1960 -493.8918057567327
1961 -493.8802925410989
1962 -493.8937109459865
1963 -493.87910564532
1964 -493.8912324714626
1965 -493.8794280731578
1966 -493.8941378855598
1967 -493.8755711273095
1968 -493.8908557083832
1969 -493.8811906348671
1970 -493.8911886455584
1971 -493.8770866668021
1972 -493.8890776363874
1973 -493.8801504976927
1974 -493.8888897438737
1975 -493.878593923357
1976 -493.8865590018779
1977 -493.8812464629349
1978 -493.8894672615564
1979 -493.8827369539277
1980 -493.8905550415489
1981 -493.8849858118064
1982 -493.8924290568103
1983 -493.8822625684537
1984 -493.893191126636
1985 -493.8828998527277
1986 -493.8940279698774
1987 -493.8781884026766
1988 -493.8920981480412
1989 -493.8839115035086
1990 -493.8963009196051
1991 -493.8786207561706
1992 -493.8942879509083
1993 -493.882192927672
1994 -493.8980497081926
1995 -493.8766489066568
1996 -493.8943418825583
1997 -493.8819983347943
1998 -493.8959806814464
1999 -493.8803043621699
2000 -493.8934273639443
2001 -493.877981487808
2002 -493.8947146240379
2003 -493.8748187910284
2004 -493.8917695333688
2005 -493.8782306500396
2006 -493.8904931117008
2007 -493.8758998030198
2008 -493.8918955631349
2009 -493.8836917480122
2010 -493.8944900130474
2011 -493.8798638282371
2012 -493.8933778331528
2013 -493.8823658357983
2014 -493.8956983675419
2015 -493.8788391296276
2016 -493.8955424751588
2017 -493.8821279695381
2018 -493.8970656675145
2019 -493.8800485158699
2020 -493.8964278831448
2021 -493.8792870490485
2022 -493.8986143444403
2023 -493.8798543209931
2024 -493.8949701777106
2025 -493.8793150886336
2026 -493.893477043047
2027 -493.8770027149112
2028 -493.8911037492042
2029 -493.8826891024145
2030 -493.8948961898224
2031 -493.8807013850638
2032 -493.8930746861301
2033 -493.88541531347
2034 -493.8949075200651
2035 -493.8810893597675
2036 -493.8889048715699
2037 -493.880799382688
2038 -493.888829054698
2039 -493.8767985585708
2040 -493.8877563628393
2041 -493.8804243679634
2042 -493.889984342971
2043 -493.8814231536081
2044 -493.8904254645616
2045 -493.8830835629949
2046 -493.8889801855316
2047 -493.8840732391878
2048 -493.8888406599988
2049 -493.8868899152075
2050 -493.8897887031183
2051 -493.8856624828224
2052 -493.8915392131887
2053 -493.8926351511283
2054 -493.8946300605452
2055 -493.8870946398811
2056 -493.8925700811825
2057 -493.8881047996003
2058 -493.8966664449729
2059 -493.8844979749545
2060 -493.8920015559651
2061 -493.880182263473
2062 -493.8947712338233
2063 -493.8783692232986
2064 -493.8944147394479
2065 -493.8778444615396
2066 -493.8940606074563
2067 -493.8752964217351
2068 -493.8931210424532
2069 -493.8794504905244
2070 -493.8980177430331
2071 -493.8760944455178
2072 -493.8935359577148
2073 -493.8803941991714
2074 -493.8973619457635
2075 -493.8754282794307
2076 -493.8936588816882
2077 -493.8809672083938
2078 -493.8953288542941
2079 -493.877068522102
2080 -493.8936663470419
2081 -493.8786951160207
2082 -493.8990042614051
2083 -493.8774675695872
2084 -493.8939777379324
2085 -493.8787971315114
2086 -493.8982356782624
2087 -493.8758833016478
2088 -493.8968702839258
2089 -493.8825372149254
2090 -493.8978354360718
2091 -493.8767776994275
2092 -493.8940656763424
2093 -493.8815292550095
2094 -493.8978506969293
2095 -493.8795839269261
2096 -493.8925992968294
2097 -493.8823266607387
2098 -493.896633178425
2099 -493.8816955355025
2100 -493.8920259167292
2101 -493.8832229655047
2102 -493.8934967856409
2103 -493.8789063575279
2104 -493.8887354960473
2105 -493.8800326251124
2106 -493.892545150972
2107 -493.8784458182137
2108 -493.8880532445553
2109 -493.8830225459026
2110 -493.8922557458019
2111 -493.8792505725499
2112 -493.891666407768
2113 -493.8788204380456
2114 -493.8924171872864
2115 -493.8760017688114
2116 -493.8908970591844
2117 -493.8775957802727
2118 -493.8910238147292
2119 -493.8774016362893
2120 -493.8917379803256
2121 -493.8779638166931
2122 -493.8939880776471
2123 -493.8790908081822
2124 -493.8953178708513
2125 -493.8826900481646
2126 -493.894276852221
2127 -493.8819199764098
2128 -493.8939190891321
2129 -493.8829684469077
2130 -493.8943724968559
2131 -493.8825756021173
2132 -493.8921161586007
2133 -493.8834356975012
2134 -493.8927260597386
2135 -493.8841305956578
2136 -493.892508184613
2137 -493.885943430349
2138 -493.8913284714604
2139 -493.8833619878731
2140 -493.8906058951557
2141 -493.8833588617748
2142 -493.8916141894429
2143 -493.8836523394211
2144 -493.8924819190468
2145 -493.8819609746066
2146 -493.8949022856409
2147 -493.8795590616195
2148 -493.8943054199727
2149 -493.8793434968389
2150 -493.8948021417294
2151 -493.8756587690616
2152 -493.8973852472524
2153 -493.8791740925358
2154 -493.8987171844624
2155 -493.8775533999223
2156 -493.8960576684266
2157 -493.8803664989883
2158 -493.8957690099372
2159 -493.8804559826624
2160 -493.8950892959668
2161 -493.8805335197897
2162 -493.8929767076252
2163 -493.8816835876559
2164 -493.8942017631853
2165 -493.8856362508795
2166 -493.892433774448
2167 -493.8848153282669
2168 -493.8893836810038
2169 -493.8853295200139
2170 -493.891725537775
2171 -493.8827497681905
2172 -493.8907093905352
2173 -493.8873346882368
2174 -493.893164101925
2175 -493.8798276401399
2176 -493.8902255907356
2177 -493.8832814473757
2178 -493.8949943177915
2179 -493.8804226405505
2180 -493.8924479257379
2181 -493.8808553180172
2182 -493.8970144289934
2183 -493.8808396846138
2184 -493.8951557189434
2185 -493.8803756597048
2186 -493.8962449557526
2187 -493.880994882154
2188 -493.896147516569
2189 -493.8832699465796
2190 -493.8985059930623
2191 -493.8814960070272
2192 -493.8955198375824
2193 -493.8813204179557
2194 -493.8954564494077
2195 -493.8782410024355
2196 -493.8938909582535
2197 -493.8805623014676
2198 -493.8954903661778
2199 -493.8773307494964
2200 -493.8954047912565
2201 -493.8765504234219
2202 -493.8978789858852
2203 -493.8772265283936
2204 -493.8954143820088
2205 -493.8758933417964
2206 -493.8929793446583
2207 -493.8770976633788
2208 -493.8895740110418
2209 -493.8766628121014
2210 -493.8889937498797
2211 -493.8763285432027
2212 -493.8857740575028
2213 -493.8782946000573
2214 -493.8872963776352
2215 -493.8794810058601
2216 -493.8863964692523
2217 -493.881717128947
2218 -493.8891329013484
2219 -493.879414472441
2220 -493.8871566838575
2221 -493.8784145666183
2222 -493.8892454043302
2223 -493.8784526983752
2224 -493.8897753526188
2225 -493.8807361269612
2226 -493.8915574297109
2227 -493.8800951055499
2228 -493.8920209020966
2229 -493.8833324364004
2230 -493.8930968299377
2231 -493.8797248683588
2232 -493.8903116263586
2233 -493.8805742785554
2234 -493.8899367585403
2235 -493.8789831162246
2236 -493.8878848837328
2237 -493.8790415071304
2238 -493.8893755038289
2239 -493.8795032812603
2240 -493.8897640806641
2241 -493.8783858774728
2242 -493.8910183812006
2243 -493.8770794036121
2244 -493.8883593078932
2245 -493.8761341085703
2246 -493.8909131077621
2247 -493.8757382046022
2248 -493.8892908513625
2249 -493.8775009817302
2250 -493.8924721827323
2251 -493.8771163440547
2252 -493.8893580055934
2253 -493.8771029714857
2254 -493.8928191975677
2255 -493.8779173185927
2256 -493.8926069417577
2257 -493.8824613948307
2258 -493.8912796360038
2259 -493.8839422616468
2260 -493.8914263574511
2261 -493.8841058225763
2262 -493.8934470048518
2263 -493.8836866358566
2264 -493.8937231288945
2265 -493.8828780322578
2266 -493.8967617124883
2267 -493.8839641899281
2268 -493.900346955187
2269 -493.884376168552
2270 -493.8985129185722
2271 -493.8802913149193
2272 -493.8977929293954
2273 -493.8786439084959
2274 -493.8986630226133
2275 -493.8775072114652
2276 -493.8945427923357
2277 -493.8801633742365
2278 -493.8959547620729
2279 -493.8803248263244
2280 -493.89377668192
2281 -493.8801933982296
2282 -493.8945372487485
2283 -493.880988026984
2284 -493.8894111226282
2285 -493.8832299186826
2286 -493.8939933305662
2287 -493.8819649719157
2288 -493.8896780126136
2289 -493.8852626683632
2290 -493.8948699020286
2291 -493.8819065595521
2292 -493.8934889952243
2293 -493.8851628557248
2294 -493.8962502243043
2295 -493.8799287575249
2296 -493.8955831573931
2297 -493.8857335097263
2298 -493.9001420597876
2299 -493.8854816106285
2300 -493.8978132029549
2301 -493.8849900983726
2302 -493.8970576139598
2303 -493.8839369788109
2304 -493.8942366472541
2305 -493.8852860115141
2306 -493.8938487091229
2307 -493.8820014022214
2308 -493.8930717918617
2309 -493.8858352923118
2310 -493.8962013351306
2311 -493.8804084419228
2312 -493.8930783323427
2313 -493.880030697503
2314 -493.8972420719441
2315 -493.873835863803
2316 -493.8912749142744
2317 -493.8759768628573
2318 -493.8966942655849
2319 -493.8760109123774
2320 -493.8977462704129
2321 -493.8775189998723
2322 -493.9018461410956
2323 -493.8750200075348
2324 -493.8958926787669
2325 -493.8768438508984
2326 -493.8975701809699
2327 -493.8755004157678
2328 -493.8931960067894
2329 -493.8823487204336
2330 -493.8953399949517
2331 -493.8813997475923
2332 -493.8923607591013
2333 -493.8854476970567
2334 -493.8925460512374
2335 -493.8836532262642
2336 -493.8906651819604
2337 -493.8849213200337
2338 -493.8927716909694
2339 -493.8846150123592
2340 -493.892628941126
2341 -493.8877975299521
2342 -493.8934409955464
2343 -493.880240022498
2344 -493.8916884292946
2345 -493.8823987486377
2346 -493.8950515737898
2347 -493.8799917696441
2348 -493.8903741991786
2349 -493.8821442933638
2350 -493.8933195994225
2351 -493.8783816726892
2352 -493.8901893945946
2353 -493.8824152784991
2354 -493.8944982661797
2355 -493.8825184769349
2356 -493.891369607896
2357 -493.8839318017184
2358 -493.8930446347886
2359 -493.8825372651456
2360 -493.8894401107629
2361 -493.8807521570628
2362 -493.892968031072
2363 -493.8807365436594
2364 -493.8917027887796
2365 -493.883252536383
2366 -493.8921831831044
2367 -493.8828063748129
2368 -493.8947766149773
2369 -493.883834311215
2370 -493.8963848179952
2371 -493.8828357398049
2372 -493.8949579831282
2373 -493.8808677114065
2374 -493.8929762259769
2375 -493.8797512460384
2376 -493.8943309982066
2377 -493.882715286035
2378 -493.8939085969321
2379 -493.879543345225
2380 -493.8930711995384
2381 -493.8790817511302
2382 -493.8929888745502
2383 -493.8772911778729
2384 -493.8904123045337
2385 -493.8773384817543
2386 -493.8917536627619
2387 -493.8773286413702
2388 -493.8909399366536
2389 -493.8800179259241
2390 -493.8934534797849
2391 -493.877015946406
2392 -493.8900226418454
2393 -493.8774849053711
2394 -493.894942434711
2395 -493.8796740009893
2396 -493.8915247554346
2397 -493.8818125200136
2398 -493.8938217365036
2399 -493.8803322202307
2400 -493.8929380589093
2401 -493.8798263289557
2402 -493.8950317320542
2403 -493.8783049081107
2404 -493.8956855505422
2405 -493.8804263495492
2406 -493.8966174084736
2407 -493.881152506731
2408 -493.8980450600048
2409 -493.8812412874925
2410 -493.8954955891434
2411 -493.8789635957613
2412 -493.8964289460784
2413 -493.8811504217085
2414 -493.8959374378744
2415 -493.8759577077567
2416 -493.8945544660034
2417 -493.8802948834887
2418 -493.8950723522503
2419 -493.8775164133507
2420 -493.891412686594
2421 -493.8781465944299
2422 -493.8936884039104
2423 -493.8772532408285
2424 -493.8898894878639
2425 -493.8806144239633
2426 -493.8927394802838
2427 -493.8800048028871
2428 -493.8906005040219
2429 -493.884925101556
2430 -493.8939298349219
2431 -493.8827094785229
2432 -493.8906834382544
2433 -493.8850002258889
2434 -493.8956858568675
2435 -493.8829639813866
2436 -493.8926082221357
2437 -493.887191858534
2438 -493.8929192148015
2439 -493.8851200297177
2440 -493.8923557357575
2441 -493.8849271513782
2442 -493.8920941346045
2443 -493.8822400137923
2444 -493.8885237793745
2445 -493.8856672119075
2446 -493.8886729388112
2447 -493.882681215082
2448 -493.8897703678929
2449 -493.887909176717
2450 -493.8891394564184
2451 -493.881292035276
2452 -493.8871185635385
2453 -493.8845889424898
2454 -493.8900439573951
2455 -493.8809734566315
2456 -493.8869545038882
2457 -493.8825548046196
2458 -493.8903644837254
2459 -493.8821386700981
2460 -493.8924187228203
2461 -493.8833691894409
2462 -493.8974377806852
2463 -493.8803958681565
2464 -493.8949332925114
2465 -493.8830965165835
2466 -493.9004424583705
2467 -493.878925003031
2468 -493.8955288845593
2469 -493.8834429265976
2470 -493.9010637364903
2471 -493.879903689042
2472 -493.8992183615365
2473 -493.8825109646111
2474 -493.8991109110588
2475 -493.8788144763008
2476 -493.8982557550238
2477 -493.8824536665992
2478 -493.8992721961057
2479 -493.8820783194061
2480 -493.8989254357913
2481 -493.8820085024965
2482 -493.8991894830504
2483 -493.878399207228
2484 -493.8965069866432
2485 -493.8807120603251
2486 -493.8970493830011
2487 -493.8782058860639
2488 -493.8957451202004
2489 -493.8831817356333
2490 -493.8992017088372
2491 -493.8808759782523
2492 -493.8942900459695
2493 -493.8790359170761
2494 -493.8950107159606
2495 -493.8788129977066
2496 -493.8946486382193
2497 -493.8789816388975
2498 -493.897704305901
2499 -493.8799462332423
2500 -493.8961736591558
2501 -493.8807120387669
2502 -493.8986267709342
2503 -493.877452839138
2504 -493.89366079593
2505 -493.8798309158743
2506 -493.8950507509541
2507 -493.87775978173
2508 -493.8924512773622
2509 -493.8813572881847
2510 -493.8919407654437
2511 -493.8809858295838
2512 -493.8905662757458
2513 -493.8804142993075
2514 -493.8871010767828
2515 -493.8786824813306
2516 -493.885150412314
2517 -493.8803107305134
2518 -493.8846228043832
2519 -493.8773690838626
2520 -493.8875115471722
2521 -493.878209011219
2522 -493.8886051078196
2523 -493.8762141027863
2524 -493.8875462015188
2525 -493.8771400013301
2526 -493.8893972079399
2527 -493.8755475735334
2528 -493.8874869897604
2529 -493.8786566119885
2530 -493.8911738227632
2531 -493.877429382004
2532 -493.8887655701235
2533 -493.8787399026492
2534 -493.892063062183
2535 -493.8805637560754
2536 -493.8908319930072
2537 -493.882075375639
2538 -493.8943204133826
2539 -493.8839824145384
2540 -493.8923474676999
2541 -493.8809859331795
2542 -493.8926748285512
2543 -493.8801505063237
2544 -493.8925935335825
2545 -493.882709305671
2546 -493.8934872400424
2547 -493.879011200017
2548 -493.8936935500492
2549 -493.8845350660885
2550 -493.8957416360376
2551 -493.8796614989773
2552 -493.8962468972901
2553 -493.8819962249988
2554 -493.8955677931195
2555 -493.8776217682895
2556 -493.894478083878
2557 -493.8805260541278
2558 -493.8920813998308
2559 -493.8772810955643
2560 -493.8918745511021
2561 -493.8756847555686
2562 -493.8922170836859
2563 -493.8759367316954
2564 -493.8912000489298
2565 -493.8781285098143
2566 -493.8920736269086
2567 -493.8782949255087
2568 -493.8920052106691
2569 -493.8845341487987
2570 -493.8954674088791
2571 -493.8805733941059
2572 -493.8922677684632
2573 -493.8842405694352
2574 -493.8967054531392
2575 -493.8799067694578
2576 -493.8944180777562
2577 -493.8831892406933
2578 -493.8983619214707
2579 -493.8825340940458
2580 -493.8978904204102
2581 -493.8832696765201
2582 -493.8971930722707
2583 -493.8793379836604
2584 -493.8937792614732
2585 -493.8817285864496
2586 -493.8951638995386
2587 -493.8789583698984
2588 -493.8921285264227
2589 -493.8848252721353
2590 -493.8957298262477
2591 -493.8799928315735
2592 -493.8929133700559
2593 -493.8827630662719
2594 -493.895307615685
2595 -493.8762149469242
2596 -493.8906750566616
2597 -493.8798509316831
2598 -493.8946762258274
2599 -493.8790671793473
2600 -493.8954779589399
2601 -493.8802163832438
2602 -493.8983659708019
2603 -493.8794948587737
2604 -493.894548857874
2605 -493.8833222887621
2606 -493.8936579710552
2607 -493.8799449920173
2608 -493.8882308362128
2609 -493.8864256192335
2610 -493.8935128861536
2611 -493.883955030172
2612 -493.890322335815
2613 -493.8872374753957
2614 -493.8951117180742
2615 -493.8806148707641
2616 -493.8912130544532
2617 -493.8837478885798
2618 -493.8932370197334
2619 -493.87976769729
2620 -493.8922821368487
2621 -493.882294559608
2622 -493.8954014952923
2623 -493.8797407223478
2624 -493.8937225737648
2625 -493.8809331532185
2626 -493.8944002938419
2627 -493.8804307538442
2628 -493.8957732335355
2629 -493.8843682795221
2630 -493.8955239088532
2631 -493.8824206236717
2632 -493.894178909203
2633 -493.8855187008033
2634 -493.8971096932761
2635 -493.8835831270382
2636 -493.8913702501143
2637 -493.8865432098795
2638 -493.8940228003303
2639 -493.8837537407796
2640 -493.8906276186867
2641 -493.884100746808
2642 -493.8952352415403
2643 -493.881779254795
2644 -493.890644300091
2645 -493.8841149763595
2646 -493.8944039258458
2647 -493.8806287213745
2648 -493.8911660490164
2649 -493.8830936153568
2650 -493.8955054367718
2651 -493.876799932792
2652 -493.8927311961298
2653 -493.8810888743382
2654 -493.8931206993915
2655 -493.8781251360025
2656 -493.8909814817383
2657 -493.8797502537527
2658 -493.8906813607507
2659 -493.8799965533429
2660 -493.8920429101994
2661 -493.8797887160556
2662 -493.89221001711
2663 -493.8814871359537
2664 -493.8942402570125
2665 -493.881182944988
2666 -493.8938735518456
2667 -493.8811281954536
2668 -493.8956780609721
2669 -493.8837683573215
2670 -493.8987165289241
2671 -493.8791102360015
2672 -493.8949098316579
2673 -493.8825850220737
2674 -493.8969497455507
2675 -493.8808691012673
2676 -493.8943857022516
2677 -493.8831023417904
2678 -493.89435564461
2679 -493.8829176996453
2680 -493.8931299936542
2681 -493.8818641606492
2682 -493.8939814108645
2683 -493.8844950565431
2684 -493.8921443988235
2685 -493.884300627317
2686 -493.8912487385637
2687 -493.8835482856912
2688 -493.8925772801559
2689 -493.8844035163981
2690 -493.8928625930334
2691 -493.879899189762
2692 -493.8923784494564
2693 -493.8833276912335
2694 -493.897425322405
2695 -493.8790791183133
2696 -493.8968364985688
2697 -493.8836952812034
2698 -493.8982232936661
2699 -493.8798251021973
2700 -493.8966317446317
2701 -493.8806850641001
2702 -493.8977589069335
2703 -493.8784064029556
2704 -493.8968599627627
2705 -493.8811605178857
2706 -493.8995675622007
2707 -493.8805504404137
2708 -493.8952987025198
2709 -493.8848559867728
2710 -493.8963383947998
2711 -493.8795885238197
2712 -493.8922917406288
2713 -493.8847621007067
2714 -493.8959647709344
2715 -493.8797722119709
2716 -493.8898882183452
2717 -493.8852561333268
2718 -493.8938261442065
2719 -493.8814041537393
2720 -493.8905539714322
2721 -493.8821473979395
2722 -493.8930189745695
2723 -493.87789569261
2724 -493.8896432119004
2725 -493.8790158046413
2726 -493.8871236033428
2727 -493.8778901470612
2728 -493.8885536020237
2729 -493.8820388626271
2730 -493.8911274592305
2731 -493.8797387364052
2732 -493.8916368694144
2733 -493.8825569697901
2734 -493.8923836549776
2735 -493.8823847408154
2736 -493.8926784303952
2737 -493.8832995566804
2738 -493.8926590912783
2739 -493.8834543536565
2740 -493.8946966447197
2741 -493.8796049593677
2742 -493.8976398428551
2743 -493.8829483043324
2744 -493.8980185225661
2745 -493.8791619575106
2746 -493.8982521664944
2747 -493.8833263767251
2748 -493.8985477849042
2749 -493.8817174675636
2750 -493.8979219120367
2751 -493.879361641811
2752 -493.896280627279
2753 -493.8813675916516
2754 -493.89886778473
2755 -493.8834326401833
2756 -493.8938194337398
2757 -493.884610170982
2758 -493.8950341799189
2759 -493.8806783252691
2760 -493.8942335378549
2761 -493.881934449826
2762 -493.8945990626345
2763 -493.8786643409749
2764 -493.8933918673956
2765 -493.8806434426132
2766 -493.895324707438
2767 -493.8810358518204
2768 -493.8977781898506
2769 -493.8841137096196
2770 -493.8993518158613
2771 -493.8805701004743
2772 -493.8975245225546
2773 -493.8815247779644
2774 -493.8959843053783
2775 -493.8814140008354
2776 -493.8947806529291
2777 -493.8845033690853
2778 -493.897608290019
2779 -493.8840613696321
2780 -493.8959428755144
2781 -493.8878942939573
2782 -493.8979874813743
2783 -493.884925255008
2784 -493.8940112860329
2785 -493.887382051051
2786 -493.8965218764344
2787 -493.8856690645972
2788 -493.8928547552209
2789 -493.8868888400061
2790 -493.8964259417184
2791 -493.8815101606192
2792 -493.8938805696463
2793 -493.8812754142097
2794 -493.8948068981584
2795 -493.8749160180184
2796 -493.890737585665
2797 -493.8797250399668
2798 -493.8946195251921
2799 -493.8740807809234
2800 -493.8914301674761
2801 -493.8777928880205
2802 -493.8951519603119
2803 -493.8748935517785
2804 -493.8906566599694
2805 -493.8765185996546
2806 -493.8902092523625
2807 -493.8774715794829
2808 -493.8901663185926
2809 -493.8813495934467
2810 -493.8920322752688
2811 -493.8821942820296
2812 -493.8901967499735
2813 -493.8807417428008
2814 -493.8904917238017
2815 -493.8800349003118
2816 -493.8874838477229
2817 -493.8797728921488
2818 -493.8888045427365
2819 -493.8801116515629
2820 -493.8887612167387
2821 -493.8797161235189
2822 -493.8922717662964
2823 -493.8777263300849
2824 -493.8917156145456
2825 -493.8784962876643
2826 -493.8935541890571
2827 -493.8785886627721
2828 -493.8915296313717
2829 -493.8780216419091
2830 -493.8908561493845
2831 -493.8761758217908
2832 -493.8920050835932
2833 -493.8802750662246
2834 -493.8949839081288
2835 -493.8762635862039
2836 -493.8922286443285
2837 -493.8823261209228
2838 -493.8937951954341
2839 -493.8762060950662
2840 -493.8907438674883
2841 -493.8778236364366
2842 -493.8932824338467
2843 -493.877350151524
2844 -493.8928193015989
2845 -493.8804502656939
2846 -493.8917200311637
2847 -493.880763212085
2848 -493.8916296546515
2849 -493.8828484436409
2850 -493.8938632163589
2851 -493.8802545980511
2852 -493.8914717240026
2853 -493.8838183575442
2854 -493.8930833643367
2855 -493.8805444141248
2856 -493.8906893779402
2857 -493.8863548226029
2858 -493.8932448421773
2859 -493.8811999259902
2860 -493.8907403117627
2861 -493.8815442084122
2862 -493.8947726609933
2863 -493.8782253771959
2864 -493.8919613038318
2865 -493.8804586760617
2866 -493.8946125922388
2867 -493.8769015220166
2868 -493.893062182654
2869 -493.8827007346512
2870 -493.8952658438329
2871 -493.8796302530372
2872 -493.8939071274945
2873 -493.8847477729681
2874 -493.8987712907341
2875 -493.8798290465477
2876 -493.8938578673341
2877 -493.8827114197205
2878 -493.8967811744952
2879 -493.8794640548026
2880 -493.8970143222131
2881 -493.8824662885211
2882 -493.8996997055908
2883 -493.8802227971266
2884 -493.8974548447367
2885 -493.8835754025754
2886 -493.8978625257432
2887 -493.8818702719284
2888 -493.8941394745521
2889 -493.8859056467189
2890 -493.8963661759274
2891 -493.8839289774263
2892 -493.8923777548696
2893 -493.8882980171323
2894 -493.8957234603445
2895 -493.8846037138602
2896 -493.8911425689618
2897 -493.8874155723576
2898 -493.8960963463091
2899 -493.8848392687955
2900 -493.8941242360371
2901 -493.8874197617774
2902 -493.8996943945726
2903 -493.8861807757549
2904 -493.8992346633097
2905 -493.8855321467224
2906 -493.8984410085606
2907 -493.8833667262885
2908 -493.898960496684
2909 -493.8851454600432
2910 -493.8993160624562
2911 -493.8856927155693
2912 -493.8985359095992
2913 -493.884552386189
2914 -493.8994027638453
2915 -493.8834037083751
2916 -493.8969748650152
2917 -493.8840226797102
2918 -493.8959699967589
2919 -493.8830335613918
2920 -493.8961068759552
2921 -493.8813562462506
2922 -493.8956750414143
2923 -493.8803128385351
2924 -493.8917909127605
2925 -493.877831791136
2926 -493.8922433601716
2927 -493.8765536114821
2928 -493.8940192898359
2929 -493.8781427102826
2930 -493.8952692650184
2931 -493.8760513613128
2932 -493.8926718465398
2933 -493.8764510610426
2934 -493.8953056615252
2935 -493.8740570221643
2936 -493.8908810391496
2937 -493.8783227311676
2938 -493.8952988304425
2939 -493.8763517348949
2940 -493.8926926366889
2941 -493.8805795846584
2942 -493.8943972413896
2943 -493.8790720915281
2944 -493.8932375795424
2945 -493.8803987894141
2946 -493.8945098980358
2947 -493.8822283894307
2948 -493.8956048112366
2949 -493.8830815442124
2950 -493.8968112832587
2951 -493.8836714613079
2952 -493.8990986867854
2953 -493.8860000916639
2954 -493.900125353705
2955 -493.8809945588842
2956 -493.8970991002022
2957 -493.8851802432004
2958 -493.8983958937889
2959 -493.88324257811
2960 -493.8950081664793
2961 -493.8819972042797
2962 -493.896788463864
2963 -493.8818044860042
2964 -493.8951933892556
2965 -493.8829077083495
2966 -493.8951281997902
2967 -493.8795751368928
2968 -493.8908853036687
2969 -493.8812256149033
2970 -493.8931626850446
2971 -493.8800879039709
2972 -493.893229776889
2973 -493.8807269525721
2974 -493.8953971759996
2975 -493.8792727370657
2976 -493.8938199700355
2977 -493.8801375878322
2978 -493.8955534421406
2979 -493.878689847043
2980 -493.8935307160182
2981 -493.8790136548889
2982 -493.8943368670775
2983 -493.8796129214855
2984 -493.8948673696682
2985 -493.8822558734079
2986 -493.8927458173002
2987 -493.8830103980382
2988 -493.8911700150035
2989 -493.8851093886323
2990 -493.8911519112431
2991 -493.8821507821332
2992 -493.8924926056222
2993 -493.8833819171485
2994 -493.8935208008917
2995 -493.8842801291952
2996 -493.8921007777301
2997 -493.8826720685761
2998 -493.8932529844472
2999 -493.8822488335073
3000 -493.8934758692771
3001 -493.8804963694854
3002 -493.8970090938543
3003 -493.8807469279732
3004 -493.8929687645263
3005 -493.8818719233067
3006 -493.8939284222926
3007 -493.8801763887379
3008 -493.8916130314053
3009 -493.8826786461868
3010 -493.8956951769246
3011 -493.8776846218707
3012 -493.892493469436
3013 -493.8822346349517
3014 -493.8952435089983
3015 -493.8779860843891
3016 -493.8908045676225
3017 -493.8827799803468
3018 -493.894738732197
3019 -493.8814883012144
3020 -493.896276199279
3021 -493.8841620836633
3022 -493.8987852771012
3023 -493.8782031266342
3024 -493.8968894841312
3025 -493.881302509545
3026 -493.8974831925758
3027 -493.8754721850378
3028 -493.894408119598
3029 -493.8798682566101
3030 -493.8965325185947
3031 -493.8761876001034
3032 -493.8928099943448
3033 -493.8785958554474
3034 -493.8947382844589
3035 -493.8799005476576
3036 -493.8928178803196
3037 -493.8804350034034
3038 -493.8925240384444
3039 -493.8830272688253
3040 -493.8922872909048
3041 -493.881042586721
3042 -493.8955820149759
3043 -493.8824928901759
3044 -493.8933824812555
3045 -493.8841171400561
3046 -493.89612805021
3047 -493.8802053562598
3048 -493.8951333183376
3049 -493.8874933120824
3050 -493.8988521346726
3051 -493.8826469211935
3052 -493.8962817156258
3053 -493.8853298405463
3054 -493.8974657231165
3055 -493.8868778402436
3056 -493.896840391031
3057 -493.8893493401678
3058 -493.8949362617333
3059 -493.8925124327309
3060 -493.8950997984875
3061 -493.8888652003478
3062 -493.8902050958679
3063 -493.8846201101473
3064 -493.8913844361549
3065 -493.8862354315563
3066 -493.8941350068431
3067 -493.8862152917688
3068 -493.894171094525
3069 -493.8882703004206
3070 -493.8955677074262
3071 -493.8841912727591
3072 -493.8942237773945
3073 -493.882067959677
3074 -493.8962325234798
3075 -493.8821760868282
3076 -493.8966258257675
3077 -493.8849419662238
3078 -493.8991863954897
3079 -493.8867602490809
3080 -493.8974881668912
3081 -493.8850560698129
3082 -493.8997178242126
3083 -493.8839937483692
3084 -493.8970970296605
3085 -493.8845042465051
3086 -493.8955368804813
3087 -493.88408368166
3088 -493.8954575559857
3089 -493.8870146802232
3090 -493.8970434503966
3091 -493.8843946144824
3092 -493.8948316086197
3093 -493.8828301341334
3094 -493.8946582607719
3095 -493.8811192449614
3096 -493.8953654868884
3097 -493.8810575752965
3098 -493.8955562163841
3099 -493.8796759195744
3100 -493.8958015952324
3101 -493.8761982901113
3102 -493.895814565383
3103 -493.8781735515635
3104 -493.8941084245347
3105 -493.8773073830197
3106 -493.8972847965666
3107 -493.8790732331808
3108 -493.8937831229281
3109 -493.8835551189293
3110 -493.8973187058927
3111 -493.8793730348713
3112 -493.8928990307146
3113 -493.8851316120918
3114 -493.8980401831992
3115 -493.8805390158581
3116 -493.8929996589895
3117 -493.8827272708621
3118 -493.8958355698265
3119 -493.879732749751
3120 -493.8927664689887
3121 -493.8822410251723
3122 -493.8943993078693
3123 -493.8799576914454
3124 -493.8902136569705
3125 -493.8827585245919
3126 -493.8888670149836
3127 -493.8783864692861
3128 -493.8857512925771
3129 -493.8835040626898
3130 -493.8877478547377
3131 -493.8780990721058
3132 -493.8863800962308
3133 -493.8854953621742
3134 -493.8883101299546
3135 -493.8804789781642
3136 -493.8877066243728
3137 -493.8778570038355
3138 -493.888843501844
3139 -493.8764520569546
3140 -493.8896368911969
3141 -493.8746557596914
3142 -493.8938136123654
3143 -493.8731697928554
3144 -493.8935633863979
3145 -493.8763248016284
3146 -493.8969938045312
3147 -493.8773375722435
3148 -493.896417774218
3149 -493.8817616287694
3150 -493.900244897077
3151 -493.877943462006
3152 -493.8970401964974
3153 -493.8842088968498
3154 -493.9000415240861
3155 -493.8827053753148
3156 -493.894883876393
3157 -493.8838901533653
3158 -493.8957909668836
3159 -493.8860853340082
3160 -493.8979973718855
3161 -493.8857771253506
3162 -493.8963424919226
3163 -493.8853889823048
3164 -493.8955750601039
3165 -493.8810870417212
3166 -493.892495535335
3167 -493.8796156198156
3168 -493.8936657956723
3169 -493.8847806450375
3170 -493.8955195386174
3171 -493.8812804249733
3172 -493.8952828323251
3173 -493.8824005316437
3174 -493.8936578032157
3175 -493.8811331029668
3176 -493.8908290510801
3177 -493.8798326353134
3178 -493.8909080104146
3179 -493.8845430893116
3180 -493.8915011692119
3181 -493.8845617706085
3182 -493.8937841541979
3183 -493.8856964069281
3184 -493.891613921075
3185 -493.8859401560256
3186 -493.8941523732219
3187 -493.8875362282417
3188 -493.892608966826
3189 -493.8885827111034
3190 -493.8946525540279
3191 -493.8842190297497
3192 -493.8943429373974
3193 -493.887738447998
3194 -493.8969416978247
3195 -493.8859551242709
3196 -493.8954013265442
3197 -493.8867212861906
3198 -493.896002522148
3199 -493.8876751942453
3200 -493.8976556009898
3201 -493.8837232063822
3202 -493.8946608243657
3203 -493.8827276495942
3204 -493.8934815939982
3205 -493.8830937409962
3206 -493.8943523396306
3207 -493.8803816784998
3208 -493.89372390672
3209 -493.8842862718133
3210 -493.898087682774
3211 -493.8797799672303
3212 -493.8945261711023
3213 -493.8821689810551
3214 -493.8973587720933
3215 -493.8789804833614
3216 -493.8959549532118
3217 -493.8813943001722
3218 -493.8998763164288
3219 -493.8820038428003
3220 -493.8971803499238
3221 -493.8819576813717
3222 -493.8999888769532
3223 -493.884380792896
3224 -493.8982391484099
3225 -493.8821104530452
3226 -493.8985592040923
3227 -493.8826079515969
3228 -493.8974370540457
3229 -493.8863504006407
3230 -493.8988721976559
3231 -493.8820446665503
3232 -493.8963083270534
3233 -493.8837028264463
3234 -493.8974510056162
3235 -493.881015620031
3236 -493.8942472491336
3237 -493.8828549938517
3238 -493.8925795635067
3239 -493.8811934209427
3240 -493.8911843765576
3241 -493.8799606897787
3242 -493.8913639900567
3243 -493.8801869948395
3244 -493.8936337859627
3245 -493.8816618419789
3246 -493.8931008989047
3247 -493.8825802991475
3248 -493.8919392940435
3249 -493.8836752357568
3250 -493.8935132297411
3251 -493.8846503736515
3252 -493.892062672385
3253 -493.8869475955986
3254 -493.8945331956048
3255 -493.8840334643467
3256 -493.8923765975366
3257 -493.8860914592498
3258 -493.8957889308278
3259 -493.8863376402156
3260 -493.8926243027013
3261 -493.8838604158343
3262 -493.8968206252426
3263 -493.8847530263268
3264 -493.8949577332917
3265 -493.8838123242952
3266 -493.8932144664724
3267 -493.8817948633429
3268 -493.8911901491857
3269 -493.8863010416246
3270 -493.8929628820048
3271 -493.8811273914136
3272 -493.8909772670925
3273 -493.8857806626121
3274 -493.8938237122536
3275 -493.8810082206936
3276 -493.8924992411355
3277 -493.8866352737186
3278 -493.8933008638755
3279 -493.8833047061128
3280 -493.893387903779
3281 -493.8853532660472
3282 -493.8963612556361
3283 -493.8848265099627
3284 -493.8913304439246
3285 -493.8866086074967
3286 -493.894353990541
3287 -493.8878342083615
3288 -493.8936758481306
3289 -493.8913672543335
3290 -493.8953784476422
3291 -493.885041201402
3292 -493.8915612469675
3293 -493.8882820082565
3294 -493.8955515893119
3295 -493.8839851856477
3296 -493.8921169878195
3297 -493.8871158547592
3298 -493.8982163730341
3299 -493.8824987398028
3300 -493.8976058367321
3301 -493.8825316382335
3302 -493.8999487277866
3303 -493.8770278318932
3304 -493.8995322690015
3305 -493.8778960611303
3306 -493.8989410271506
3307 -493.8751498530596
3308 -493.8977263236802
3309 -493.8776677453399
3310 -493.8978322342006
3311 -493.873777552022
3312 -493.8962858074873
3313 -493.8792260970185
3314 -493.8976680732149
3315 -493.8781425626586
3316 -493.8953738924012
3317 -493.8777753817009
3318 -493.894601244185
3319 -493.8804950673176
3320 -493.8929731083155
3321 -493.8824827842564
3322 -493.8980167957661
3323 -493.8854744042063
3324 -493.89440624452
3325 -493.88331678778
3326 -493.8935512453737
3327 -493.8851157768904
3328 -493.8928718663067
3329 -493.8863946928162
3330 -493.8961045013017
3331 -493.8861866708175
3332 -493.8936160815159
3333 -493.8849982582572
3334 -493.8945617632363
3335 -493.8825745106366
3336 -493.8930556651915
3337 -493.8834693000636
3338 -493.8919135633132
3339 -493.8817436243262
3340 -493.8937788516295
3341 -493.8831516977571
3342 -493.8937778444916
3343 -493.8808103300226
3344 -493.8926141920009
3345 -493.8814946494938
3346 -493.8928998594278
3347 -493.8803203124509
3348 -493.8944518518659
3349 -493.884939535465
3350 -493.8968145198749
3351 -493.8830126308891
3352 -493.8957941824154
3353 -493.884069435412
3354 -493.9006081860394
3355 -493.884438459131
3356 -493.8968706109328
3357 -493.8854458975717
3358 -493.8967926181986
3359 -493.886820288859
3360 -493.8944820528898
3361 -493.889138411726
3362 -493.8983537224443
3363 -493.8879403142401
3364 -493.8924693663955
3365 -493.8898537359191
3366 -493.8963866134554
3367 -493.8868057596085
3368 -493.8909827298113
3369 -493.889753527033
3370 -493.8966118042839
3371 -493.8849130427182
3372 -493.8929802125555
3373 -493.884587269872
3374 -493.8961348073466
3375 -493.8793740023082
3376 -493.8964948982866
3377 -493.8846385512272
3378 -493.8989951630058
3379 -493.8823034970898
3380 -493.8971467191032
3381 -493.8837047210967
3382 -493.8969243240181
3383 -493.8797294268203
3384 -493.8956032444131
3385 -493.8842395627008
3386 -493.8964643160736
3387 -493.8829861448118
3388 -493.8949749304602
3389 -493.886041261865
3390 -493.8971445769006
3391 -493.8839978850504
3392 -493.8938582666791
3393 -493.8843649770026
3394 -493.8973057198639
3395 -493.8797243525997
3396 -493.8932732910268
3397 -493.8837184832259
3398 -493.8974078990802
3399 -493.8796076745327
3400 -493.8925940225565
3401 -493.8820561436507
3402 -493.8982951225746
3403 -493.8800429727747
3404 -493.8932358286266
3405 -493.8813779828906
3406 -493.8927539421981
3407 -493.8781851730928
3408 -493.8895042750108
3409 -493.8837447114071
3410 -493.8903178073809
3411 -493.8815169563141
3412 -493.8888861534758
3413 -493.8854083929758
3414 -493.8906099629202
3415 -493.8796504639882
3416 -493.8905680222785
3417 -493.8841422831196
3418 -493.8930102617146
3419 -493.8809942954839
3420 -493.8934560627908
3421 -493.8800391323397
3422 -493.8970707442289
3423 -493.8796493756535
3424 -493.8989196465898
3425 -493.8803263493672
3426 -493.8995011484604
3427 -493.8787856395557
3428 -493.8962870767722
3429 -493.8805580172382
3430 -493.8976778538992
3431 -493.8769138455436
3432 -493.8949746815913
3433 -493.8813083028581
3434 -493.897241772449
3435 -493.8786935374156
3436 -493.8900061408513
3437 -493.8812023238908
3438 -493.8918571706603
3439 -493.8822054710943
3440 -493.8905454346706
3441 -493.8807376815755
3442 -493.8924509340652
3443 -493.8803445552746
3444 -493.8906229221266
3445 -493.8814012817504
3446 -493.8885959042115
3447 -493.8801351603879
3448 -493.888917565632
3449 -493.8819651735645
3450 -493.8893433186597
3451 -493.8807704800576
3452 -493.8904065310668
3453 -493.8823492176813
3454 -493.891770259464
3455 -493.8829977381861
3456 -493.8928904642293
3457 -493.8866223928347
3458 -493.8943700304977
3459 -493.8863529884756
3460 -493.8918137801294
3461 -493.8842811528526
3462 -493.8943218356071
3463 -493.8836843530769
3464 -493.8918357076761
3465 -493.8848813031487
3466 -493.8949137870921
3467 -493.8863810632597
3468 -493.8962746321776
3469 -493.8889478520309
3470 -493.8988516758486
3471 -493.885806327348
3472 -493.895490752009
3473 -493.8848474484871
3474 -493.8969060454005
3475 -493.8827860017837
3476 -493.8930537297211
3477 -493.8835841790622
3478 -493.8943490260619
3479 -493.8821226514872
3480 -493.894648423434
3481 -493.8832322506423
3482 -493.8965643709473
3483 -493.8822345890189
3484 -493.8947800099016
3485 -493.8825430139354
3486 -493.894851167705
3487 -493.8817851759923
3488 -493.8960579296753
3489 -493.883432153352
3490 -493.897351294655
3491 -493.8820478508208
3492 -493.8970563167732
3493 -493.8829891456961
3494 -493.8980187839854
3495 -493.8839638623634
3496 -493.8984510959821
3497 -493.883671040719
3498 -493.8992905351221
3499 -493.8840318837046
3500 -493.8964995316402
3501 -493.8848103330694
3502 -493.8993305321585
3503 -493.8857483427568
3504 -493.8943922231518
3505 -493.8864451262191
3506 -493.895146753287
3507 -493.8834076913922
3508 -493.8921860148791
3509 -493.8879472073981
3510 -493.8951054734172
3511 -493.8840407849493
3512 -493.8916051242484
3513 -493.8868245331972
3514 -493.8959653347993
3515 -493.8833698041585
3516 -493.8936236354498
3517 -493.8872642232789
3518 -493.8966028056054
3519 -493.8826323460232
3520 -493.8960906486372
3521 -493.8845456078998
3522 -493.8990694077235
3523 -493.8825326402034
3524 -493.8997582766582
3525 -493.8850689077557
3526 -493.9013698652709
3527 -493.8825612961137
3528 -493.8985503643598
3529 -493.8877496620722
3530 -493.8997999643352
3531 -493.8857788755446
3532 -493.8972354374532
3533 -493.887339454655
3534 -493.8983845243172
3535 -493.8852322524179
3536 -493.8950729206001
3537 -493.887043073385
3538 -493.8970727397909
3539 -493.8837453963635
3540 -493.8928317581367
3541 -493.8833897507715
3542 -493.8958784935727
3543 -493.8774432142229
3544 -493.8928520065421
3545 -493.8815541173505
3546 -493.8961769234605
3547 -493.8777264836393
3548 -493.8926360384064
3549 -493.8832157864572
3550 -493.8937612247058
3551 -493.8783271645063
3552 -493.8929893676483
3553 -493.8825078351922
3554 -493.8942394225139
3555 -493.8793256356905
3556 -493.8925198386901
3557 -493.8848692579307
3558 -493.8950022443649
3559 -493.8844331346458
3560 -493.8940675326968
3561 -493.8868764408635
3562 -493.8969536998114
3563 -493.8845296332386
3564 -493.8945524235234
3565 -493.8886266329399
3566 -493.8957281548392
3567 -493.8851933085067
3568 -493.8944772344171
3569 -493.8908949089513
3570 -493.898112210312
3571 -493.8876881764831
3572 -493.8943203425262
3573 -493.8900980749673
3574 -493.8965268199343
3575 -493.8851710001466
3576 -493.8932657967487
3577 -493.8870883811429
3578 -493.8973319626483
3579 -493.8841023189439
3580 -493.8951294544178
3581 -493.8852583825357
3582 -493.8981563178817
3583 -493.8779558311955
3584 -493.8945823866347
3585 -493.8818506296556
3586 -493.8983744147054
3587 -493.8786915426277
3588 -493.8948471154866
3589 -493.8806757502219
3590 -493.8966116875679
3591 -493.8768823585913
3592 -493.8944897947512
3593 -493.8795001977405
3594 -493.8965480470748
3595 -493.8786996972908
3596 -493.892265647736
3597 -493.8827553531077
3598 -493.8929961577119
3599 -493.8814984024498
3600 -493.8930790026286
3601 -493.8855022911588
3602 -493.8941855454689
3603 -493.8814373664636
3604 -493.8914860568105
3605 -493.8844957148956
3606 -493.8940778364155
3607 -493.8818668899357
3608 -493.8917974522717
3609 -493.8887873801183
3610 -493.8967345335763
3611 -493.8829758362555
3612 -493.8932607346803
3613 -493.8840528399053
3614 -493.8963400063706
3615 -493.8818713244141
3616 -493.8939121480197
3617 -493.8806253916349
3618 -493.8952122001158
3619 -493.8818047995088
3620 -493.8938856288009
3621 -493.8806887371377
3622 -493.898232143968
3623 -493.8822525897569
3624 -493.8957457395346
3625 -493.884715450461
3626 -493.8961498237702
3627 -493.8820702626958
3628 -493.8941129715807
3629 -493.8865643574098
3630 -493.8959477807421
3631 -493.8805280771522
3632 -493.8939466833165
3633 -493.8843081206965
3634 -493.8952103936883
3635 -493.8837280722123
3636 -493.8950544292422
3637 -493.8833397185146
3638 -493.8939655452901
3639 -493.8825984653599
3640 -493.8946756373396
3641 -493.8821477098049
3642 -493.8963140860636
3643 -493.8834662467749
3644 -493.8934926915974
3645 -493.8841178930146
3646 -493.8957827720572
3647 -493.8830922299293
3648 -493.894308009518
3649 -493.8872433373669
3650 -493.8967558524598
3651 -493.8832469060183
3652 -493.8931488264388
3653 -493.8838444245216
3654 -493.8972770439359
3655 -493.8812645749081
3656 -493.8931618916228
3657 -493.8823343156216
3658 -493.8976902999846
3659 -493.8838529471649
3660 -493.8958359301978
3661 -493.8830967520507
3662 -493.8964661257876
3663 -493.8841509779688
3664 -493.8957295918659
3665 -493.8837238759398
3666 -493.8957807317786
3667 -493.8845059961829
3668 -493.8933370582112
3669 -493.8862172107705
3670 -493.8937465020244
3671 -493.8863259305402
3672 -493.8946558133083
3673 -493.8882406766117
3674 -493.8952341956594
3675 -493.8859973089927
3676 -493.8946240676842
3677 -493.8866796251811
3678 -493.8952058092416
3679 -493.8867041919939
3680 -493.8923785261655
3681 -493.8843406628345
3682 -493.8952090017689
3683 -493.885151562859
3684 -493.891882534402
3685 -493.8855334779494
3686 -493.893328791088
3687 -493.8810589058303
3688 -493.8900084485281
3689 -493.8869625142802
3690 -493.8953820962153
3691 -493.8830256740206
3692 -493.8912735441754
3693 -493.8854364736753
3694 -493.8964649258198
3695 -493.8836546908321
3696 -493.895776080581
3697 -493.8838826101718
3698 -493.8958206202114
3699 -493.884320333523
3700 -493.8970028826342
3701 -493.879360845521
3702 -493.8973705971796
3703 -493.8810040103527
3704 -493.8985181966137
3705 -493.8788404269271
3706 -493.8970282413655
3707 -493.8775849423022
3708 -493.8950971679313
3709 -493.8802916358163
3710 -493.895329000808
3711 -493.878269112072
3712 -493.8947563235456
3713 -493.879511776776
3714 -493.8942904236111
3715 -493.8788712553005
3716 -493.8912374950077
3717 -493.8783402775999
3718 -493.8910438712672
3719 -493.879927481953
3720 -493.8914448999814
3721 -493.8801794410749
3722 -493.8949040467758
3723 -493.8826781697438
3724 -493.8944306042974
3725 -493.8818252755749
3726 -493.8958528552127
3727 -493.8816021999052
3728 -493.8939814021558
3729 -493.8829778290634
3730 -493.8987429468564
3731 -493.8821415299583
3732 -493.8967336172304
3733 -493.8863242398347
3734 -493.8962504448402
3735 -493.8837848106139
3736 -493.895880884233
3737 -493.8854031397427
3738 -493.8942593125163
3739 -493.8877590495003
3740 -493.8927535044025
3741 -493.886366281954
3742 -493.8916509967276
3743 -493.8864173887022
3744 -493.8889244661222
3745 -493.8849900257718
3746 -493.8887960205753
3747 -493.8831432275111
3748 -493.8906201198513
3749 -493.8865407342451
3750 -493.8942688543523
3751 -493.8823331215166
3752 -493.8925793006928
3753 -493.8857383008417
3754 -493.8967339610802
3755 -493.8828127704091
3756 -493.8927687488467
3757 -493.8848217633351
3758 -493.8952386293702
3759 -493.8816560476536
3760 -493.8906977005277
3761 -493.8842971436992
3762 -493.8988103673508
3763 -493.88381481382
3764 -493.8930931920588
3765 -493.8848155873448
3766 -493.8998916524552
3767 -493.8840963598138
3768 -493.8977927954236
3769 -493.8876435542736
3770 -493.9007984776567
3771 -493.8821412026429
3772 -493.8973066947349
3773 -493.8843177282364
3774 -493.9001635949426
3775 -493.8793982490949
3776 -493.8986038243576
3777 -493.8835671836818
3778 -493.9024168631353
3779 -493.8807782228558
3780 -493.8999743835478
3781 -493.881526556184
3782 -493.8971822224224
3783 -493.8772001901837
3784 -493.8921845622818
3785 -493.8794420488622
3786 -493.8954449457651
3787 -493.8804607589388
3788 -493.8933186101334
3789 -493.8865616587381
3790 -493.8974902693091
3791 -493.8831388253516
3792 -493.8943147097753
3793 -493.8842271590286
3794 -493.8974532739716
3795 -493.8842772325507
3796 -493.8945749594723
3797 -493.8860130230583
3798 -493.8972174901441
3799 -493.886348463104
3800 -493.8946843403394
3801 -493.8833228545323
3802 -493.8972432119371
3803 -493.8839505612937
3804 -493.8955391603077
3805 -493.8835009361538
3806 -493.8948626280653
3807 -493.8851081022231
3808 -493.894736390844
3809 -493.8890175737463
3810 -493.8952711277774
3811 -493.887493939235
3812 -493.8928443782183
3813 -493.8878345100933
3814 -493.8939292621677
3815 -493.8872587888622
3816 -493.8958867542205
3817 -493.8899621958429
3818 -493.8965927718901
3819 -493.8831333557174
3820 -493.8946578045252
3821 -493.8824776101314
3822 -493.89842601446
3823 -493.8795466809206
3824 -493.8959805767178
3825 -493.8809255257962
3826 -493.8966586544194
3827 -493.8818237139941
3828 -493.8956316379898
3829 -493.8839036235564
3830 -493.8958466935534
3831 -493.8820707905637
3832 -493.8940567814324
3833 -493.8861151683986
3834 -493.8973503739768
3835 -493.8874266290655
3836 -493.8945857015053
3837 -493.8895457145137
3838 -493.8955201383914
3839 -493.8847034979864
3840 -493.8927021044575
3841 -493.8854326536076
3842 -493.8968466509562
3843 -493.8825101234127
3844 -493.897453891134
3845 -493.8872486566147
3846 -493.9004089892972
3847 -493.8828460596461
3848 -493.897823052784
3849 -493.8840594085098
3850 -493.8977432053562
3851 -493.8801086595021
3852 -493.896756208614
3853 -493.8840415519332
3854 -493.89582132259
3855 -493.8805175325264
3856 -493.8949451579945
3857 -493.8858934687046
3858 -493.8958030976425
3859 -493.882066370035
3860 -493.8928392079398
3861 -493.882231555623
3862 -493.89542097695
3863 -493.8823885071952
3864 -493.8955355839113
3865 -493.8842946354563
3866 -493.8994872619534
3867 -493.8861621142458
3868 -493.8989390256493
3869 -493.885810732132
3870 -493.9012561690157
3871 -493.8835970051437
3872 -493.8971447998078
3873 -493.8831663386166
3874 -493.8968714224758
3875 -493.8821068598969
3876 -493.8945571113915
3877 -493.8831295697098
3878 -493.892685940074
3879 -493.8843720964696
3880 -493.8947680087746
3881 -493.886182337905
3882 -493.8940505687733
3883 -493.8858743945475
3884 -493.8925727296482
3885 -493.8833349582316
3886 -493.8883961201273
3887 -493.8838683880401
3888 -493.8918951232581
3889 -493.8861652960791
3890 -493.8943646116057
3891 -493.8858197517233
3892 -493.8942843724307
3893 -493.8846022750426
3894 -493.8956128254373
3895 -493.8862666347823
3896 -493.8932495369966
3897 -493.8856944955241
3898 -493.8957798164325
3899 -493.8853012163455
3900 -493.8928929081943
3901 -493.8857200075378
3902 -493.89679775727
3903 -493.8850474975263
3904 -493.8949284472092
3905 -493.8848916401112
3906 -493.8964149637159
3907 -493.8871197045574
3908 -493.8956233616959
3909 -493.8860533364658
3910 -493.8956097293454
3911 -493.8830913363111
3912 -493.8941362442568
3913 -493.8840400120339
3914 -493.8946629452693
3915 -493.8820703795014
3916 -493.8945750531361
3917 -493.8837620903756
3918 -493.895974245327
3919 -493.8837740675114
3920 -493.8973706769449
3921 -493.8833021066361
3922 -493.8969695196061
3923 -493.8831268649075
3924 -493.8948798264973
3925 -493.8860329406722
3926 -493.8949572407325
3927 -493.8840852442684
3928 -493.8961889387634
3929 -493.8877964880605
3930 -493.8996696382395
3931 -493.8836380791686
3932 -493.895188359554
3933 -493.884462111854
3934 -493.9002689123328
3935 -493.8811951909508
3936 -493.8984778601775
3937 -493.8846543783748
3938 -493.9044525470064
3939 -493.8808062038447
3940 -493.9005079340438
3941 -493.8838554153799
3942 -493.9038423050547
3943 -493.8842806687072
3944 -493.8993179159734
3945 -493.8829853634092
3946 -493.8992124798372
3947 -493.8834281585775
3948 -493.896466953536
3949 -493.885108161232
3950 -493.894687652223
3951 -493.8839303566417
3952 -493.893065741428
3953 -493.8834977452528
3954 -493.8928519849575
3955 -493.8832313816376
3956 -493.8915263095266
3957 -493.8872429838626
3958 -493.8922370829356
3959 -493.8854807942853
3960 -493.8928015805693
3961 -493.8861206697518
3962 -493.8956392195412
3963 -493.8857309625049
3964 -493.8965063270045
3965 -493.886471337786
3966 -493.8957924140951
3967 -493.886790548527
3968 -493.89413863443
3969 -493.886702944409
3970 -493.8954834241792
3971 -493.8866341894797
3972 -493.8955258324967
3973 -493.8883875852071
3974 -493.8995202590137
3975 -493.8864765545862
3976 -493.8968202796619
3977 -493.8891922527899
3978 -493.8999740493499
3979 -493.8867369108726
3980 -493.8989561439386
3981 -493.8851026381438
3982 -493.900479936654
3983 -493.8843726269637
3984 -493.9013121439572
3985 -493.8834205123795
3986 -493.9009039083322
3987 -493.8796666580183
3988 -493.8997241146698
3989 -493.8791491074576
3990 -493.8986962835265
3991 -493.8783276436912
3992 -493.8998002109817
3993 -493.8760267781821
3994 -493.8957175266772
3995 -493.8770825265247
3996 -493.8969833954428
3997 -493.8786659307414
3998 -493.8943416254109
3999 -493.8749060766214
4000 -493.8935611715805
4001 -493.8784547161737
4002 -493.8958765635342
4003 -493.8763527644288
4004 -493.8915248027163
4005 -493.8799463276754
4006 -493.8921377834868
4007 -493.8786660870634
4008 -493.8888584752701
4009 -493.8843699855702
4010 -493.8922049475028
4011 -493.8872246828742
4012 -493.8909807692652
4013 -493.8866274806398
4014 -493.8899909632987
4015 -493.8871363362634
4016 -493.8880682964976
4017 -493.8878220926337
4018 -493.8897401062131
4019 -493.8850774823132
4020 -493.889341871305
4021 -493.8887840473669
4022 -493.8903503930625
4023 -493.8835007523002
4024 -493.888293052886
4025 -493.8854585530113
4026 -493.8896592334631
4027 -493.8799224985224
4028 -493.8878603356932
4029 -493.8823880857825
4030 -493.8909762692743
4031 -493.8806189520948
4032 -493.8944426343607
4033 -493.8852018238464
4034 -493.896941506408
4035 -493.8812666186862
4036 -493.8954700994844
4037 -493.8840192449745
4038 -493.9003299096599
4039 -493.8810809468095
4040 -493.8959157585673
4041 -493.8842329305376
4042 -493.9005407830661
4043 -493.8811488974472
4044 -493.897310897377
4045 -493.8853676111553
4046 -493.9006412720082
4047 -493.8819940043237
4048 -493.8970183722296
4049 -493.8868056134759
4050 -493.9013519742112
4051 -493.8825464434323
4052 -493.8955561474911
4053 -493.8823994767063
4054 -493.8975239369562
4055 -493.8779139064321
4056 -493.897072797468
4057 -493.8831010368152
4058 -493.89775969789
4059 -493.8788898688856
4060 -493.8933030398434
4061 -493.8827584708118
4062 -493.8950071510532
4063 -493.8803333675583
4064 -493.8919805976194
4065 -493.8831150588964
4066 -493.8931199946532
4067 -493.883859451902
4068 -493.8933926991724
4069 -493.8853193208284
4070 -493.894240879993
4071 -493.8848719385154
4072 -493.8953288012405
4073 -493.8838526543001
4074 -493.8973823216257
4075 -493.8842814574921
4076 -493.8966172171274
4077 -493.8831286927664
4078 -493.8980500483357
4079 -493.8834955650136
4080 -493.8962412437743
4081 -493.8831058303689
4082 -493.8979398997088
4083 -493.8824203849334
4084 -493.8942471529302
4085 -493.8830799849642
4086 -493.894529883668
4087 -493.8841362324397
4088 -493.8930152911432
4089 -493.8869648143253
4090 -493.8947578555473
4091 -493.887967531652
4092 -493.8943356924105
4093 -493.8883473006243
4094 -493.8940283328071
4095 -493.8839307506815
4096 -493.892145096392
4097 -493.886294239189
4098 -493.8943061079912
4099 -493.8836220447978
4100 -493.8936679231738
4101 -493.8861638036225
4102 -493.8978004352089
4103 -493.8857361083663
4104 -493.8965175636738
4105 -493.8879838322267
4106 -493.8966004305649
4107 -493.8844785270846
4108 -493.8942795638752
4109 -493.8857838863928
4110 -493.8935318247596
4111 -493.8855268324286
4112 -493.8923698287255
4113 -493.8877645808827
4114 -493.897043163221
4115 -493.8874356856788
4116 -493.8935051412707
4117 -493.8896658910376
4118 -493.8945576898092
4119 -493.8843963427428
4120 -493.8910143706563
4121 -493.8868406410461
4122 -493.8974181528177
4123 -493.883094540074
4124 -493.8938752872873
4125 -493.8839111552737
4126 -493.8993827524795
4127 -493.8806432078258
4128 -493.897187411785
4129 -493.8847042491013
4130 -493.898527276477
4131 -493.8826636286274
4132 -493.8978503335982
4133 -493.8827038582912
4134 -493.8973228887564
4135 -493.8844744509902
4136 -493.9009981841202
4137 -493.8867843205618
4138 -493.9005856093414
4139 -493.8894809484166
4140 -493.9018744272014
4141 -493.8859303835238
4142 -493.8992526968113
4143 -493.8841930061764
4144 -493.8994017480255
4145 -493.8821052413723
4146 -493.8998405005461
4147 -493.8842812036884
4148 -493.8982947949505
4149 -493.8852642329393
4150 -493.8989227072435
4151 -493.8836120782237
4152 -493.8977143096749
4153 -493.8838172120866
4154 -493.8970998473544
4155 -493.8820578039941
4156 -493.8922004093225
4157 -493.8833415629624
4158 -493.8929054164065
4159 -493.8836738845575
4160 -493.8921648572151
4161 -493.8841403595107
4162 -493.8942807306821
4163 -493.8794700343096
4164 -493.891020659392
4165 -493.8831302063429
4166 -493.8931346913809
4167 -493.8785052287424
4168 -493.8917455441089
4169 -493.8847095633182
4170 -493.8967102680576
4171 -493.880143342351
4172 -493.8963780155198
4173 -493.881327602438
4174 -493.8986506412406
4175 -493.879518726781
4176 -493.8998516310705
4177 -493.8849276749637
4178 -493.9028944710751
4179 -493.8839538965059
4180 -493.8999777721949
4181 -493.885070260724
4182 -493.9003452136504
4183 -493.8827410896834
4184 -493.8969526121846
4185 -493.8857545693853
4186 -493.9003204179435
4187 -493.8853155940924
4188 -493.8974066941468
4189 -493.8901052501527
4190 -493.8998908222233
4191 -493.8825419163207
4192 -493.8963676739348
4193 -493.8858153279355
4194 -493.8987913312616
4195 -493.8825226478095
4196 -493.8943932250836
4197 -493.8860679589606
4198 -493.8970164481971
4199 -493.8828897346392
4200 -493.8955252598483
4201 -493.8846528822558
4202 -493.8967388310043
4203 -493.8818123446185
4204 -493.8907937235011
4205 -493.8868234657409
4206 -493.8927734080768
4207 -493.8850555081215
4208 -493.8886659317137
4209 -493.8900506060328
4210 -493.8925293225205
4211 -493.8864593315623
4212 -493.8894130015543
4213 -493.8898426208652
4214 -493.8911348629881
4215 -493.8847762263961
4216 -493.8898190045142
4217 -493.8881224530488
4218 -493.8957045276069
4219 -493.8873902733863
4220 -493.8931955762344
4221 -493.8851058444321
4222 -493.8971937922347
4223 -493.881591215141
4224 -493.8946431066618
4225 -493.8818554957545
4226 -493.8956535628189
4227 -493.8783071618957
4228 -493.8923061533475
4229 -493.8844003065823
4230 -493.897587421111
4231 -493.8797952870528
4232 -493.8930941905003
4233 -493.8848300006503
4234 -493.8983653444089
4235 -493.8820803445884
4236 -493.8961658844516
4237 -493.883429324533
4238 -493.896810697568
4239 -493.8831782698142
4240 -493.896958498056
4241 -493.8839076609307
4242 -493.9013735973211
4243 -493.8809096333829
4244 -493.8985912170223
4245 -493.8828816861499
4246 -493.8984472069311
4247 -493.8823860535654
4248 -493.8980775718499
4249 -493.8850638959689
4250 -493.8976736729387
4251 -493.8826071462194
4252 -493.8975379549623
4253 -493.8857101905428
4254 -493.9003327756008
4255 -493.8850440831983
4256 -493.8967012389372
4257 -493.8842914374201
4258 -493.8951318976283
4259 -493.883927129527
4260 -493.8934214652813
4261 -493.8821289418684
4262 -493.896307642107
4263 -493.8826681920361
4264 -493.894867790748
4265 -493.8824002521359
4266 -493.8965010015074
4267 -493.8835647712085
4268 -493.8947831554798
4269 -493.8827962997393
4270 -493.897629244698
4271 -493.8817589586185
4272 -493.8967386198179
4273 -493.8826413846907
4274 -493.897081894832
4275 -493.8820525131856
4276 -493.8954059902309
4277 -493.885261047994
4278 -493.8977207495368
4279 -493.886629062303
4280 -493.8977745996646
4281 -493.8872668161669
4282 -493.8980032763356
4283 -493.8871823169579
4284 -493.8958132635898
4285 -493.887137218258
4286 -493.8931591905941
4287 -493.8876605257537
4288 -493.8939025585326
4289 -493.8905872994916
4290 -493.8945393656569
4291 -493.8878157899229
4292 -493.8926246692684
4293 -493.8863282404627
4294 -493.8916891581964
4295 -493.8821865240241
4296 -493.8878303533821
4297 -493.8837818885791
4298 -493.8894093903145
4299 -493.882873981782
4300 -493.8869922260209
4301 -493.8811353024601
4302 -493.8901905900215
4303 -493.8820306674201
4304 -493.8880939091406
4305 -493.8802983642073
4306 -493.8876072288969
4307 -493.8801447536667
4308 -493.8879942107012
4309 -493.8836962992573
4310 -493.8897906276665
4311 -493.8819901313096
4312 -493.8906972295291
4313 -493.8837283991702
4314 -493.8928508249518
4315 -493.8824571769024
4316 -493.8915375137913
4317 -493.8816395689079
4318 -493.890547148792
4319 -493.879566608582
4320 -493.8941630403542
4321 -493.8792280509067
4322 -493.8961477829758
4323 -493.8807654729217
4324 -493.8960412606505
4325 -493.8781532770844
4326 -493.8961819533368
4327 -493.8806664866094
4328 -493.8976034938023
4329 -493.8796559777207
4330 -493.8990685550002
4331 -493.8763718773002
4332 -493.8990077178062
4333 -493.8773351324257
4334 -493.9001862750081
4335 -493.8763134616322
4336 -493.9001356564628
4337 -493.8817667856297
4338 -493.9026758078188
4339 -493.8792665229807
4340 -493.8969701357987
4341 -493.8798851813714
4342 -493.897769060026
4343 -493.8779401049193
4344 -493.8929659837995
4345 -493.8826946001541
4346 -493.8957195733987
4347 -493.8850019910976
4348 -493.895680470367
4349 -493.8863766574722
4350 -493.8964629323157
4351 -493.8862103365188
4352 -493.8950728479592
4353 -493.8888441477021
4354 -493.8944095523021
4355 -493.8849715074555
4356 -493.8915937122543
4357 -493.8910137371446
4358 -493.8930214267011
4359 -493.8858587958983
4360 -493.8935079608736
4361 -493.887096595052
4362 -493.8958883887584
4363 -493.8848094581181
4364 -493.8911139268399
4365 -493.8849055805613
4366 -493.8929249748517
4367 -493.8825700117981
4368 -493.8911656180977
4369 -493.8867739337123
4370 -493.8976292116694
4371 -493.8825965378353
4372 -493.8946279795057
4373 -493.8854907530996
4374 -493.8984817892351
4375 -493.8783647558633
4376 -493.8946888126874
4377 -493.8819191787267
4378 -493.9002023033188
4379 -493.8783488869138
4380 -493.8977361016767
4381 -493.8813296581915
4382 -493.9021071757714
4383 -493.8807316042803
4384 -493.9001251376183
4385 -493.8832645102361
4386 -493.9017614231942
4387 -493.8818766880402
4388 -493.8993096256951
4389 -493.8868151831753
4390 -493.8992624923053
4391 -493.8838890946982
4392 -493.8990545000344
4393 -493.8904802128337
4394 -493.9001482628698
4395 -493.8847564019574
4396 -493.8965000210838
4397 -493.8880809453586
4398 -493.8964279939299
4399 -493.8833448389249
4400 -493.8924300094509
4401 -493.8844062235478
4402 -493.8954144700896
4403 -493.88407166184
4404 -493.8928334209243
4405 -493.8836662756706
4406 -493.8915830531901
4407 -493.8829038210496
4408 -493.8906332524017
4409 -493.8848370452959
4410 -493.8955394485574
4411 -493.8856674095863
4412 -493.8930418086002
4413 -493.8878950279341
4414 -493.8944376326604
4415 -493.8813162028894
4416 -493.8904221732716
4417 -493.8838376584034
4418 -493.8922129388957
4419 -493.8822105755147
4420 -493.8924631130105
4421 -493.8864416147649
4422 -493.8958549148132
4423 -493.8830232484242
4424 -493.8949015671978
4425 -493.8848700751926
4426 -493.8951296060418
4427 -493.8851067102602
4428 -493.8955962588579
4429 -493.8846665667844
4430 -493.8935553657337
4431 -493.8840578206779
4432 -493.8957162058535
4433 -493.8855411039835
4434 -493.8967065080752
4435 -493.8825876509148
4436 -493.8934429354001
4437 -493.8862689516072
4438 -493.8941502676141
4439 -493.883205886983
4440 -493.8921694176854
4441 -493.8843961620931
4442 -493.8960045862923
4443 -493.8815593389679
4444 -493.8937766737102
4445 -493.8824655323649
4446 -493.8974626426763
4447 -493.8811786191176
4448 -493.8982862998322
4449 -493.8837959006945
4450 -493.9023946224677
4451 -493.879955059454
4452 -493.9007444199066
4453 -493.8825784668844
4454 -493.901722264639
4455 -493.878391701028
4456 -493.8987956194562
4457 -493.8803416656509
4458 -493.8982063964061
4459 -493.8789372651111
4460 -493.8967508961409
4461 -493.8783807550988
4462 -493.8965907172823
4463 -493.8814947523018
4464 -493.8957531699421
4465 -493.8802546298712
4466 -493.8921031335493
4467 -493.87865904705
4468 -493.8908147364583
4469 -493.8815912596261
4470 -493.8925077024203
4471 -493.8826836487755
4472 -493.8909377027038
4473 -493.8836379354162
4474 -493.8929908092721
4475 -493.8849756737666
4476 -493.8921669040925
4477 -493.885875954274
4478 -493.8954105474134
4479 -493.8869478027411
4480 -493.8941173869259
4481 -493.8874244068035
4482 -493.897798530857
4483 -493.8879683253782
4484 -493.8930791613909
4485 -493.8864229265104
4486 -493.897009708648
4487 -493.8854639915037
4488 -493.8945093815323
4489 -493.8903698869107
4490 -493.8965876649488
4491 -493.8879538877101
4492 -493.8935267445751
4493 -493.8874044848632
4494 -493.8939602322616
4495 -493.8855246579405
4496 -493.8934786104345
4497 -493.8875023175829
4498 -493.8947050627703
4499 -493.886973696613
4500 -493.8949101358761
4501 -493.8864051101277
4502 -493.8949764938988
4503 -493.8816809441533
4504 -493.8936229735839
4505 -493.8811824073517
4506 -493.8944270764889
4507 -493.8804087161145
4508 -493.8902000066771
4509 -493.8805369210171
4510 -493.8929522629603
4511 -493.8828709514315
4512 -493.8911033399756
4513 -493.8846361630486
4514 -493.8941143711582
4515 -493.8842325692556
4516 -493.8909257176376
4517 -493.8856482110737
4518 -493.893908668558
4519 -493.8855157985262
4520 -493.8904958382726
4521 -493.8819857610546
4522 -493.8940166139359
4523 -493.8819727431498
4524 -493.8937293671411
4525 -493.8807069913879
4526 -493.8947040265426
4527 -493.8805428906748
4528 -493.8972307002733
4529 -493.8827040756615
4530 -493.8951043495417
4531 -493.8819633526473
4532 -493.8958466830661
4533 -493.8807794732294
4534 -493.8951937956277
4535 -493.8818632472241
4536 -493.896231088205
4537 -493.8848082278367
4538 -493.8970749189607
4539 -493.8850656473614
4540 -493.8985020790995
4541 -493.882802120835
4542 -493.8992416958115
4543 -493.8813255684241
4544 -493.898814845016
4545 -493.8827877587397
4546 -493.9036447341027
4547 -493.8811755252955
4548 -493.9005354129962
4549 -493.8834112409941
4550 -493.9033509158903
4551 -493.8787067369929
4552 -493.9000340464204
4553 -493.882431592205
4554 -493.9041660321092
4555 -493.8850867440794
4556 -493.9003708128208
4557 -493.88732918896
4558 -493.9011231851825
4559 -493.8880795669701
4560 -493.8991190982899
4561 -493.8903976212429
4562 -493.8991595572896
4563 -493.8885792271132
4564 -493.8940720814402
4565 -493.8905555536589
4566 -493.8922660090539
4567 -493.8855964134553
4568 -493.891163174749
4569 -493.8878974242718
4570 -493.8940869289956
4571 -493.8856331576985
4572 -493.8939968357571
4573 -493.8868719311199
4574 -493.8956136293102
4575 -493.8834978095909
4576 -493.8951233457253
4577 -493.8836655132999
4578 -493.8970769494695
4579 -493.8793492003243
4580 -493.8916728552453
4581 -493.8807705908418
4582 -493.8959967380331
4583 -493.8785393688044
4584 -493.8930567588793
4585 -493.8830460414799
4586 -493.8944767091506
4587 -493.8814938871989
4588 -493.8911800590361
4589 -493.886225363514
4590 -493.8946380899285
4591 -493.8832452358451
4592 -493.8937345301229
4593 -493.886547497512
4594 -493.8988584125242
4595 -493.883132600822
4596 -493.8946817188859
4597 -493.884683503713
4598 -493.8964842988559
4599 -493.8788860628429
4600 -493.8961034129435
4601 -493.8838051230952
4602 -493.8989763319992
4603 -493.8812006376622
4604 -493.8973267401359
4605 -493.8841106351712
4606 -493.8957693538776
4607 -493.8794547704674
4608 -493.8939912647356
4609 -493.8825050026815
4610 -493.8920705536532
4611 -493.8776122599322
4612 -493.8897497379016
4613 -493.8792443964002
4614 -493.8891400426594
4615 -493.8759029087196
4616 -493.8879449547796
4617 -493.8790229938832
4618 -493.8930690130402
4619 -493.8787819763641
4620 -493.8913623630401
4621 -493.8788658441454
4622 -493.8923784451248
4623 -493.877911523687
4624 -493.8892773568581
4625 -493.8797696903209
4626 -493.8922922092603
4627 -493.8786326863915
4628 -493.8897486256161
4629 -493.8844597665164
4630 -493.8944021325016
4631 -493.8830953011727
4632 -493.8929258856941
4633 -493.8860937982788
4634 -493.8942116793097
4635 -493.8833054919396
4636 -493.8928444326143
4637 -493.8856523867077
4638 -493.8947609483085
4639 -493.8831253984658
4640 -493.8965647076432
4641 -493.8824379668014
4642 -493.8981519119174
4643 -493.8817830195212
4644 -493.8997937344025
4645 -493.8826792317053
4646 -493.8969478483956
4647 -493.880810532132
4648 -493.8975087545338
4649 -493.8823156550533
4650 -493.8967687776453
4651 -493.8800684130865
4652 -493.8947791982304
4653 -493.88287440596
4654 -493.8954577713487
4655 -493.8814622964733
4656 -493.895030437825
4657 -493.8843832735391
4658 -493.8958933887988
4659 -493.88629586493
4660 -493.8928729891632
4661 -493.883647202525
4662 -493.8957872116675
4663 -493.883735330848
4664 -493.8932652288627
4665 -493.8862425264307
4666 -493.8972659876057
4667 -493.8854121727605
4668 -493.8958414956681
4669 -493.8876241420638
4670 -493.8957570388748
4671 -493.8826789566897
4672 -493.8952685906782
4673 -493.8841142139791
4674 -493.8957366824204
4675 -493.8842075557891
4676 -493.8953947149279
4677 -493.8853742847869
4678 -493.8936122542889
4679 -493.8866483115792
4680 -493.8936071953028
4681 -493.8859974002429
4682 -493.8947495310177
4683 -493.8840918640764
4684 -493.8938287288786
4685 -493.8846982029355
4686 -493.8969198079415
4687 -493.8846377835476
4688 -493.895457071662
4689 -493.8877090681822
4690 -493.9005472245907
4691 -493.8848655720994
4692 -493.8985494132176
4693 -493.8852634148544
4694 -493.8999558054928
4695 -493.8850328979169
4696 -493.8978418982224
4697 -493.8837067019111
4698 -493.8971007589377
4699 -493.8845280744348
4700 -493.8957041958971
4701 -493.8843176096876
4702 -493.8976493551191
4703 -493.8832419095667
4704 -493.8948489088604
4705 -493.8850033272282
4706 -493.8933074926929
4707 -493.884419654673
4708 -493.8927055411114
4709 -493.8880368765182
4710 -493.8925718303952
4711 -493.8856108910214
4712 -493.8934837096888
4713 -493.8876730402071
4714 -493.8936606164174
4715 -493.8853215069235
4716 -493.8908368818221
4717 -493.8855265664281
4718 -493.8904073596677
4719 -493.8806598526666
4720 -493.8903181261644
4721 -493.8835671886721
4722 -493.8955229083282
4723 -493.8816348864805
4724 -493.8915146878955
4725 -493.8842451696921
4726 -493.8941024378406
4727 -493.880367899339
4728 -493.8919454099
4729 -493.8852218910554
4730 -493.8981795113758
4731 -493.8798230980513
4732 -493.8952769946815
4733 -493.8836947925304
4734 -493.9021277419133
4735 -493.8820349954159
4736 -493.8992403481794
4737 -493.885034000757
4738 -493.9010399663509
4739 -493.881145482996
4740 -493.8986493565328
4741 -493.882478375474
4742 -493.9002164225012
4743 -493.8785101041768
4744 -493.8976457264079
4745 -493.8846686632892
4746 -493.898404582795
4747 -493.885215088011
4748 -493.8988898621025
4749 -493.8884118539311
4750 -493.8967506709932
4751 -493.8854389177695
4752 -493.8969709177389
4753 -493.8884022422762
4754 -493.8981684542404
4755 -493.8866213212553
4756 -493.897722331613
4757 -493.8910172750553
4758 -493.9018830820419
4759 -493.8896330170858
4760 -493.89834797416
4761 -493.8896892371626
4762 -493.8990797088103
4763 -493.886405653675
4764 -493.8920241365886
4765 -493.8861778047127
4766 -493.8934308319182
4767 -493.8838830408041
4768 -493.8906505593303
4769 -493.8881159176715
4770 -493.8959146984528
4771 -493.8862455307027
4772 -493.8931430330371
4773 -493.88497825512
4774 -493.8944032631132
4775 -493.8802716166429
4776 -493.8934727115171
4777 -493.8827881276703
4778 -493.8961875876726
4779 -493.879421749812
4780 -493.8948238043233
4781 -493.8773332017819
4782 -493.8959635046882
4783 -493.8776218063467
4784 -493.8973942933027
4785 -493.8797696228566
4786 -493.8978915638165
4787 -493.8791378430043
4788 -493.8958356690459
4789 -493.8829358455444
4790 -493.8948642668457
4791 -493.8799316042601
4792 -493.8938890261901
4793 -493.8867382525817
4794 -493.8989560461595
4795 -493.8841677100574
4796 -493.8948788288978
4797 -493.8879078832978
4798 -493.897994974567
4799 -493.8865194098757
4800 -493.8947064674774
4801 -493.884259290454
4802 -493.8964186822627
4803 -493.8849451107452
4804 -493.894864603015
4805 -493.8839308720582
4806 -493.8967157918826
4807 -493.8831835754531
4808 -493.8950696650282
4809 -493.8843884356427
4810 -493.8978341603099
4811 -493.8807923116108
4812 -493.8961184213194
4813 -493.8866471661249
4814 -493.8965769066945
4815 -493.8812813225058
4816 -493.8934691928587
4817 -493.8859717646758
4818 -493.8942315650733
4819 -493.8833916280901
4820 -493.8918369681895
4821 -493.8847208576089
4822 -493.8943060389585
4823 -493.882162957003
4824 -493.8941590013546
4825 -493.8839607730965
4826 -493.8955162678083
4827 -493.8809155036842
4828 -493.894063575568
4829 -493.8828176205498
4830 -493.8969048268847
4831 -493.8794502106803
4832 -493.8933193982042
4833 -493.8814905822762
4834 -493.8976874427876
4835 -493.8812524679151
4836 -493.8957236704118
4837 -493.883042220451
4838 -493.89617577148
4839 -493.8844365262354
4840 -493.8964447186938
4841 -493.8847809464143
4842 -493.897628525685
4843 -493.8843358225732
4844 -493.8946321474297
4845 -493.8832585510304
4846 -493.8955379192505
4847 -493.8815664375609
4848 -493.8953749376184
4849 -493.8846118636189
4850 -493.8953911134597
4851 -493.8808329410303
4852 -493.896647835502
4853 -493.8873306388646
4854 -493.8982033633421
4855 -493.8812798748115
4856 -493.8959205268393
4857 -493.884868340267
4858 -493.8961401546399
4859 -493.8830447629986
4860 -493.8964920027429
4861 -493.8881296439215
4862 -493.8984721147295
4863 -493.8850741057246
4864 -493.8956987320459
4865 -493.8862229272866
4866 -493.8966864008793
4867 -493.8826362307189
4868 -493.8950208168329
4869 -493.8882118462934
4870 -493.8992567292954
4871 -493.8837830207218
4872 -493.8968949875999
4873 -493.8889704006009
4874 -493.9010449770201
4875 -493.882021870109
4876 -493.8976675974852
4877 -493.8879614661525
4878 -493.8998744258954
4879 -493.8827786019354
4880 -493.8958152776484
4881 -493.8845183317634
4882 -493.8980103325192
4883 -493.8828862918492
4884 -493.8948354921316
4885 -493.8817303956292
4886 -493.8918694723914
4887 -493.8829270386107
4888 -493.8948484824419
4889 -493.8848209149884
4890 -493.8948214459241
4891 -493.8803513319484
4892 -493.8927468321253
4893 -493.8819725026656
4894 -493.8947442399422
4895 -493.8772660271773
4896 -493.8924945537623
4897 -493.8840972128556
4898 -493.8951381149523
4899 -493.8799334013923
4900 -493.8906537681978
4901 -493.8817702407441
4902 -493.8930313130363
4903 -493.8820322970348
4904 -493.8897766676598
4905 -493.8833501562103
4906 -493.8908662556698
4907 -493.8866040145396
4908 -493.886613904728
4909 -493.8906489396162
4910 -493.8886170081027
4911 -493.8840053717913
4912 -493.8840877665956
4913 -493.8892488699879
4914 -493.8895995508973
4915 -493.8855318603199
4916 -493.886831550903
4917 -493.8876890346506
4918 -493.8912113453743
4919 -493.879809057751
4920 -493.8882509611249
4921 -493.8802592918194
4922 -493.894438739424
4923 -493.8787048771539
4924 -493.8964605155068
4925 -493.8812586588416
4926 -493.899863646157
4927 -493.8767470134277
4928 -493.898838409639
4929 -493.8811706460178
4930 -493.9019447305121
4931 -493.8745541664434
4932 -493.8961557900503
4933 -493.8789068933235
4934 -493.898488539703
4935 -493.875381656454
4936 -493.8951239687339
4937 -493.8827765956532
4938 -493.8992461195996
4939 -493.879924809656
4940 -493.8941242375951
4941 -493.8812180063022
4942 -493.8977245926288
4943 -493.8806145070432
4944 -493.894109413444
4945 -493.8852768672098
4946 -493.8991218535025
4947 -493.8834041062323
4948 -493.895114393451
4949 -493.8894736395304
4950 -493.899658079475
4951 -493.8850254669166
4952 -493.8933463554159
4953 -493.8887678651082
4954 -493.8985422268025
4955 -493.8846458010714
4956 -493.8926913888318
4957 -493.8920473512022
4958 -493.8958144873679
4959 -493.8884183289594
4960 -493.8941783226545
4961 -493.8888363109823
4962 -493.8964397895456
4963 -493.8906095113888
4964 -493.8961805398586
4965 -493.8890536955225
4966 -493.8952700429218
4967 -493.887577642533
4968 -493.895990527587
4969 -493.8888310639696
4970 -493.896815831405
4971 -493.8858962920879
4972 -493.8970990193683
4973 -493.8858249039019
4974 -493.8979791395552
4975 -493.882335930078
4976 -493.8954702127386
4977 -493.8839107879271
4978 -493.8983520593227
4979 -493.8846986812362
4980 -493.8981757695094
4981 -493.8850588100573
4982 -493.8987203191822
4983 -493.882688610469
4984 -493.8955773748745
4985 -493.8837899539234
4986 -493.8960525728614
4987 -493.8800953475886
4988 -493.8941129016863
4989 -493.8836662643321
4990 -493.8979786271364
4991 -493.8788336163975
4992 -493.8972930557803
4993 -493.8827503120425
4994 -493.9002555150051
4995 -493.8817555544528
4996 -493.8980907108791
4997 -493.8843682259397
4998 -493.8999633406627
4999 -493.8800369464477
5000 -493.9000437290083
5001 -493.885525006104
5002 -493.9039568885788
5003 -493.8837244314573
5004 -493.9002759866438
5005 -493.8841703616498
5006 -493.8987157068813
5007 -493.8846662394089
5008 -493.8990489435237
5009 -493.8874245627902
5010 -493.9007409653135
5011 -493.8866131511211
5012 -493.897478743575
5013 -493.8870511642094
5014 -493.897441415049
5015 -493.8827632390585
5016 -493.8944211182655
5017 -493.8865062534097
5018 -493.8986839614401
5019 -493.8837251200499
5020 -493.8972764115055
5021 -493.8841799334045
5022 -493.8988572494345
5023 -493.8817057590971
5024 -493.8946524627594
5025 -493.8807351028191
5026 -493.8943208352627
5027 -493.8821266872515
5028 -493.893432324634
5029 -493.8860501213438
5030 -493.8942270159746
5031 -493.8846088140064
5032 -493.8933019998011
5033 -493.8903983262555
5034 -493.8947937486189
5035 -493.8863413118773
5036 -493.8899376528705
5037 -493.8906238083063
5038 -493.8923786369886
5039 -493.8864973405379
5040 -493.8928607137033
5041 -493.8878770211998
5042 -493.8959529975675
5043 -493.8864508603613
5044 -493.8957558231781
5045 -493.8850054622342
5046 -493.8978759047067
5047 -493.8858248205728
5048 -493.8947251101544
5049 -493.8840334059645
5050 -493.8956690079929
5051 -493.8825232663566
5052 -493.8938598056112
5053 -493.8836515247915
5054 -493.8954107435013
5055 -493.8791763068395
5056 -493.8932257769694
5057 -493.8857267816693
5058 -493.8994743638736
5059 -493.8800979183255
5060 -493.894929162801
5061 -493.8820822752131
5062 -493.8985099610584
5063 -493.8768430955992
5064 -493.89657788633
5065 -493.8803422657372
5066 -493.8983741032258
5067 -493.8801464309497
5068 -493.8972668162626
