"mz-rfile"
"Iteration" "mz"
("Iteration" "mz")
1 12386.27052198665
2 16310.23729613749
3 17550.44628301083
4 17106.76317048299
5 15403.55201572859
6 13128.12571289383
7 10549.0417136012
8 8001.370311891016
9 5642.932057325635
10 3600.12089994957
11 1941.340884365502
12 686.8546225684389
13 -170.2664845794652
14 -660.0834506598849
15 -835.98640215951
16 -757.6232675087554
17 -483.6282614395742
18 -73.8051130310964
19 413.4517806055896
20 930.2069334151951
21 1434.881329647976
22 1896.458299545789
23 2296.48423898852
24 2621.534229288272
25 2867.102222263247
26 3037.292024012328
27 3138.183228048666
28 3181.018850239172
29 3177.627015141468
30 3140.04469197808
31 3081.306704394749
32 3011.692267626578
33 2940.153169395895
34 2873.535906643161
35 2830.390892535531
36 2792.789277296332
37 2763.429341451319
38 2743.200557496969
39 2729.689021896148
40 2729.304015363622
41 2739.778647541947
42 2753.671745655839
43 2778.657883672987
44 2799.209339413053
45 2828.892631010576
46 2849.98425401338
47 2876.820554440003
48 2894.158062747587
49 2909.243127727056
50 2921.891276308333
51 2931.945019415148
52 2939.512611540577
53 2944.579362035874
54 2947.508753587715
55 2948.529914605076
56 2947.693376502882
57 2945.990029759824
58 2942.683107543
59 2939.079770901987
60 2935.522988220253
61 2932.205697793764
62 2929.469483642406
63 2927.360668848688
64 2925.916589832726
65 2925.116692520653
66 2924.854320433722
67 2925.014004285124
68 2925.064431233129
69 2925.961497414283
70 2926.363499021768
71 2927.45723197652
72 2927.801336671659
73 2928.598974011866
74 2928.591897114256
75 2928.783142150864
76 2928.514804491746
77 2927.84494221873
78 2926.820630029672
79 2925.46988214698
80 2923.852975817999
81 2922.069304205992
82 2920.130942641323
83 2918.091286581458
84 2915.945900786267
85 2913.773694686142
86 2911.60154008993
87 2909.450447208788
88 2907.258307720084
89 2905.073543962302
90 2902.931482183637
91 2900.774492560751
92 2898.65595662927
93 2896.533698471782
94 2894.439807022235
95 2892.360302957453
96 2890.294072589301
97 2888.208782599374
98 2886.143448474271
99 2884.079149968877
100 2881.972665717628
101 2879.853082421586
102 2877.737069859619
103 2875.583956168076
104 2873.489769687281
105 2871.356165268803
106 2869.273189847923
107 2867.16026618287
108 2865.064877021996
109 2863.018952089456
110 2861.023992515287
111 2859.0662273655
112 2857.136661332456
113 2855.24973586324
114 2853.440517591358
115 2851.672990821643
116 2849.987954182005
117 2848.352066083544
118 2846.782421281409
119 2845.29506216845
120 2843.896226449908
121 2842.602559296377
122 2841.401232305451
123 2840.296845822894
124 2839.242034903813
125 2838.358187557998
126 2837.558570033802
127 2836.874707885012
128 2836.325837796181
129 2835.927704142942
130 2835.675603581841
131 2835.562940576609
132 2835.619145723945
133 2835.851776295202
134 2836.213467845612
135 2836.728030795901
136 2837.472094513783
137 2838.374048826407
138 2839.451116389986
139 2840.712099914761
140 2842.176577685203
141 2843.831003088565
142 2845.615940159686
143 2847.545647601051
144 2849.630623876642
145 2851.839520138593
146 2854.198911562186
147 2856.654050836409
148 2859.262644882523
149 2861.98893092623
150 2864.773195192255
151 2867.648673836372
152 2870.56047198928
153 2873.582814336468
154 2876.6155579132
155 2879.743809735193
156 2882.91504794409
157 2886.127301984667
158 2889.392746782573
159 2892.721017203423
160 2896.105359854608
161 2899.531297622622
162 2902.978328021135
163 2906.485600778274
164 2910.041916312654
165 2913.632283548875
166 2917.238143713888
167 2920.879444650496
168 2924.431834086468
169 2928.007990913126
170 2931.636611489659
171 2935.220394704177
172 2938.853605713976
173 2942.449455550524
174 2946.006964960591
175 2949.586904184888
176 2953.121840127976
177 2956.607399716576
178 2960.077267948083
179 2963.497251034844
180 2966.934779345933
181 2970.271662639722
182 2973.596603072559
183 2976.885834560755
184 2980.110453016862
185 2983.297593970256
186 2986.457592989027
187 2989.574161706948
188 2992.634190028436
189 2995.652389344591
190 2998.639206127867
191 3001.554604864619
192 3004.462645663069
193 3007.322604286631
194 3010.175562031583
195 3012.992789889512
196 3015.729881942494
197 3018.449577177236
198 3021.132890708526
199 3023.746763296033
200 3026.364378123302
201 3028.931516544614
202 3031.485742573082
203 3034.001887470398
204 3036.506347760549
205 3038.947406084174
206 3041.373455614143
207 3043.821367131676
208 3046.283366731929
209 3048.621484582359
210 3051.071086511523
211 3053.439824107777
212 3055.776157232645
213 3058.079262631153
214 3060.416325888551
215 3062.729463967104
216 3065.025382454201
217 3067.359351438023
218 3069.606501918503
219 3071.857845258164
220 3074.152505634175
221 3076.367308292383
222 3078.614920682433
223 3080.865823530735
224 3083.108376556254
225 3085.330708084346
226 3087.575879010091
227 3089.798227656165
228 3091.981317380422
229 3094.077583298488
230 3096.232170348305
231 3098.375931628685
232 3100.510245584012
233 3102.682429327326
234 3104.771269147563
235 3106.889019818298
236 3108.962461705164
237 3111.06417418413
238 3113.225190565918
239 3115.27684291931
240 3117.330384012521
241 3119.457892760241
242 3121.547617423446
243 3123.715377060447
244 3125.751035361438
245 3127.822079283551
246 3129.990215078768
247 3132.222747765284
248 3134.45031173508
249 3136.675593632199
250 3138.970716201574
251 3141.326260175791
252 3143.775545036245
253 3146.252230521995
254 3148.83652448039
255 3151.394757239535
256 3154.118144751237
257 3157.002277886633
258 3159.938514809528
259 3162.982016555635
260 3166.308963399488
261 3169.711507872886
262 3173.330592152466
263 3177.146169758134
264 3181.212434413551
265 3185.345130685044
266 3189.728163490824
267 3194.288579954387
268 3199.064330485276
269 3204.197778771673
270 3209.626358799865
271 3215.373058045073
272 3221.313997524012
273 3227.603756033212
274 3234.162856298736
275 3241.08481953264
276 3248.316971726426
277 3255.843598756567
278 3263.822658805821
279 3272.090527216265
280 3280.681772047736
281 3289.639893306853
282 3298.839994703075
283 3308.50661754165
284 3318.490643366629
285 3328.869658677729
286 3339.749428623779
287 3350.989485152897
288 3362.522643537505
289 3374.48631121608
290 3386.795526438701
291 3399.523350906157
292 3412.638093809274
293 3426.13625753976
294 3440.064844435788
295 3454.494818493808
296 3469.274920636001
297 3484.23687500292
298 3499.525818107249
299 3515.181228132108
300 3531.157846232477
301 3547.529905499458
302 3564.254912412694
303 3581.34173337841
304 3598.675341852447
305 3616.308334542139
306 3634.225790535775
307 3652.557644518442
308 3671.082364704357
309 3689.869853060925
310 3708.975123173404
311 3728.374967480203
312 3748.015954427754
313 3767.736177172031
314 3787.678935343726
315 3807.786776322211
316 3828.137968944924
317 3848.593447772751
318 3869.315693357844
319 3890.161724524971
320 3911.167908532867
321 3932.20581144496
322 3953.261510765819
323 3974.31791557566
324 3995.612933553541
325 4016.834748595995
326 4038.044212769386
327 4059.405665080124
328 4080.549361840577
329 4101.475926495414
330 4122.377232884114
331 4143.190084422193
332 4163.729428148481
333 4184.074001190407
334 4204.138575660832
335 4224.013115970677
336 4243.536861263102
337 4262.898873403486
338 4281.775740755839
339 4300.233025304636
340 4318.371565508852
341 4335.930124869034
342 4353.264423669691
343 4369.98311348823
344 4386.169936258143
345 4401.738894259894
346 4416.756823737329
347 4431.107896416456
348 4444.816795855849
349 4457.812997530178
350 4470.10440408774
351 4481.639773493378
352 4492.361379058705
353 4502.327866861621
354 4511.396263016867
355 4519.622712427
356 4526.998278474915
357 4533.483557522427
358 4539.026565791365
359 4543.447449571525
360 4546.773217693893
361 4548.997537487599
362 4550.27824605034
363 4550.402061234383
364 4549.336517156949
365 4547.137092839461
366 4543.861907577445
367 4539.352595547556
368 4533.624234873127
369 4526.596959669897
370 4518.429308395647
371 4509.058899219309
372 4498.386065157758
373 4486.546462817556
374 4473.462030424554
375 4459.208014357432
376 4443.572240727163
377 4426.84523829091
378 4408.914215092288
379 4389.783923078056
380 4369.544283369087
381 4348.231105733235
382 4325.728719150565
383 4302.122974548759
384 4277.690682223276
385 4252.345911053961
386 4226.025235940665
387 4199.028014174999
388 4171.106274754643
389 4142.386976106807
390 4112.983560951334
391 4083.123687101101
392 4052.598781420669
393 4021.439331820694
394 3990.034924447657
395 3958.225316226084
396 3926.31404497412
397 3894.14241329826
398 3861.74607874281
399 3829.440078482122
400 3797.295021747409
401 3765.227906216805
402 3733.361152749417
403 3701.708978079817
404 3670.571058176483
405 3640.038078214407
406 3609.998133430835
407 3580.51618483355
408 3551.807531550889
409 3523.714327479832
410 3496.515598672462
411 3470.28823683484
412 3445.084973188973
413 3420.764662884723
414 3397.511266895977
415 3375.415547090874
416 3354.519914826582
417 3334.750944366814
418 3316.205017853359
419 3298.971562345576
420 3282.9751493761
421 3268.167427159131
422 3254.543643448753
423 3241.944877180699
424 3230.503212842445
425 3220.300904641449
426 3211.073577231354
427 3202.688347396693
428 3195.354806631715
429 3188.832488661503
430 3183.217059958214
431 3178.350699998151
432 3173.974234439456
433 3170.161447688241
434 3166.668369096909
435 3163.526771817908
436 3160.429949769476
437 3157.454055932533
438 3154.533090058126
439 3151.551087460929
440 3148.296387847081
441 3144.418241397245
442 3140.136111037506
443 3135.328441501756
444 3129.825981407024
445 3123.399987554468
446 3116.162155645927
447 3107.880397095835
448 3098.458912190908
449 3087.932799593861
450 3076.229055731851
451 3063.255863930064
452 3048.993009174619
453 3033.28961143158
454 3016.448089728053
455 2998.188045784345
456 2978.634476938333
457 2957.708966652547
458 2935.660918056544
459 2912.476146671587
460 2888.251193370845
461 2862.968559559824
462 2836.881211251166
463 2809.962227521925
464 2782.376180502972
465 2754.132865234624
466 2725.349115675796
467 2696.162133037681
468 2666.756961747224
469 2637.14060144262
470 2607.567990994019
471 2578.115170113263
472 2548.844111219581
473 2519.9271609186
474 2491.445034588844
475 2463.571938631643
476 2436.245152633995
477 2409.823221207469
478 2384.212306113771
479 2359.636805065738
480 2336.051416500557
481 2313.641779875179
482 2292.491928126778
483 2272.695656614923
484 2254.197534153799
485 2237.015702960596
486 2221.251692332365
487 2206.980212558413
488 2194.285479936174
489 2183.030460046704
490 2173.311175948105
491 2165.07424514991
492 2158.309291937378
493 2152.954360470179
494 2148.96350418561
495 2146.417228452104
496 2145.136678047792
497 2145.094810405439
498 2146.261596499449
499 2148.503463239653
500 2151.726049272042
501 2155.825384464568
502 2160.66654836108
503 2166.062512753639
504 2171.970761330775
505 2178.208863326799
506 2184.693479158791
507 2191.301964038401
508 2197.827258262412
509 2204.196574391918
510 2210.202229130762
511 2215.878580086903
512 2221.100931445952
513 2225.759650503061
514 2229.7666963485
515 2233.071149966462
516 2235.649902331817
517 2237.504914163858
518 2238.646770637266
519 2239.005943457206
520 2238.583185098056
521 2237.469833677731
522 2235.543515190278
523 2233.001221436291
524 2229.822776006527
525 2226.023872408392
526 2221.727630613342
527 2216.950584080952
528 2211.810178525793
529 2206.350849708891
530 2200.588810956904
531 2194.665815278257
532 2188.613799172425
533 2182.475132122082
534 2176.265092994814
535 2170.190098859434
536 2164.323310139978
537 2158.568691271161
538 2153.078324593935
539 2147.816978589618
540 2142.834303516604
541 2138.146214083341
542 2133.884918031448
543 2129.955480521272
544 2126.434906480476
545 2123.305603796187
546 2120.530805520862
547 2118.119465563504
548 2116.065360877157
549 2114.369150623197
550 2112.988931804039
551 2111.92565453641
552 2111.119346205041
553 2110.589432994268
554 2110.290510922537
555 2110.19545949484
556 2110.331085058416
557 2110.597007632693
558 2111.031436038907
559 2111.645152047719
560 2112.326844389901
561 2113.139671612715
562 2114.026244565308
563 2114.997357925271
564 2116.041361130609
565 2117.13804145997
566 2118.354551318462
567 2119.586915168147
568 2120.923210025473
569 2122.32249222646
570 2123.784484387272
571 2125.318292976177
572 2126.968648115544
573 2128.745049777732
574 2130.594702807161
575 2132.512134470759
576 2134.555033231065
577 2136.728624213039
578 2139.011467088953
579 2141.392477646188
580 2143.911061286233
581 2146.595783430146
582 2149.340844508537
583 2152.256142195033
584 2155.258135520102
585 2158.465928095821
586 2161.75800630867
587 2165.128993469583
588 2168.66501679124
589 2172.24176940807
590 2175.92115257393
591 2179.666263391103
592 2183.48635708029
593 2187.341156250628
594 2191.282248334127
595 2195.183332909255
596 2199.151131033405
597 2203.16019834032
598 2207.140581057032
599 2211.138945139615
600 2215.12603705389
601 2219.153290189869
602 2223.187498216334
603 2227.274267121913
604 2231.370179854778
605 2235.50232015573
606 2239.700698998362
607 2243.881655342432
608 2248.13764254053
609 2252.453427787222
610 2256.830741001635
611 2261.272466866511
612 2265.753307356325
613 2270.301334072738
614 2274.93036788125
615 2279.619188537196
616 2284.346388922509
617 2289.188519047231
618 2294.098095876429
619 2299.121114543088
620 2304.19627900147
621 2309.291876158691
622 2314.476559662888
623 2319.715542832274
624 2325.016053541336
625 2330.341084932598
626 2335.691529724214
627 2341.164577642725
628 2346.653890095718
629 2352.243796122522
630 2357.824463757008
631 2363.504827992261
632 2369.254335236528
633 2375.072166882893
634 2380.97966623398
635 2386.963663886171
636 2393.031303130364
637 2399.184505948896
638 2405.458523378808
639 2411.776583878922
640 2418.148676072785
641 2424.580474101471
642 2431.087216688693
643 2437.701629867939
644 2444.369978242608
645 2451.103273492721
646 2457.940473493936
647 2464.817841898841
648 2471.855097201886
649 2478.975370708704
650 2486.151330485524
651 2493.429154762259
652 2500.746865278939
653 2508.160911467799
654 2515.604949597332
655 2523.084400036036
656 2530.622729707068
657 2538.145811152013
658 2545.712849647387
659 2553.308899082811
660 2560.90363139623
661 2568.51457639326
662 2576.106362104239
663 2583.620025144148
664 2591.139710620996
665 2598.64121229245
666 2606.012809770954
667 2613.264404875104
668 2620.471248172169
669 2627.592246802901
670 2634.593902597552
671 2641.455611419044
672 2648.182794477734
673 2654.76715753023
674 2661.19254450619
675 2667.436806350402
676 2673.52020655153
677 2679.465002118861
678 2685.235622696262
679 2690.827977229487
680 2696.277345454381
681 2701.524270030989
682 2706.597091809095
683 2711.499600778206
684 2716.210545331567
685 2720.778985343124
686 2725.199407211317
687 2729.48642487395
688 2733.611407805232
689 2737.6158154952
690 2741.492419078363
691 2745.265071123641
692 2748.937195007459
693 2752.539526415119
694 2756.099614769707
695 2759.579114536403
696 2762.954658973953
697 2766.307811488923
698 2769.638905299632
699 2772.947628871122
700 2776.221950288415
701 2779.516657895924
702 2782.79694114991
703 2786.093166209397
704 2789.397778009145
705 2792.706114659668
706 2796.033310783038
707 2799.339878289939
708 2802.689598165974
709 2806.085524345123
710 2809.455546474712
711 2812.855754466013
712 2816.254635339621
713 2819.623191109739
714 2822.985237854258
715 2826.366430490881
716 2829.740116933607
717 2833.110889731233
718 2836.470474016576
719 2839.839988954161
720 2843.164913222209
721 2846.444989174616
722 2849.693430911713
723 2852.884532138944
724 2856.018778309905
725 2859.123202905671
726 2862.147148886847
727 2865.12172485651
728 2868.098820813567
729 2870.996722395643
730 2873.822310739141
731 2876.604750740972
732 2879.304531571285
733 2881.985012499167
734 2884.604862006288
735 2887.21492993882
736 2889.789513039778
737 2892.302745660958
738 2894.780525910725
739 2897.207143116315
740 2899.621587836936
741 2901.974150018848
742 2904.333472186758
743 2906.689935689739
744 2909.04015423557
745 2911.3780847788
746 2913.743418032178
747 2916.153680912052
748 2918.561621901105
749 2921.0392528364
750 2923.516214092288
751 2926.048782621813
752 2928.599454276756
753 2931.227555101323
754 2933.901345210222
755 2936.636220725839
756 2939.451151965799
757 2942.342400624136
758 2945.280400338359
759 2948.344127479482
760 2951.5186040247
761 2954.755014291984
762 2958.143151388173
763 2961.622091303053
764 2965.248905855259
765 2968.958135165088
766 2972.815048616577
767 2976.803954121391
768 2980.97617204977
769 2985.29373762182
770 2989.746368537194
771 2994.271712605894
772 2999.010367991154
773 3003.884449003423
774 3008.950413846761
775 3014.164333152187
776 3019.590156163986
777 3025.14725934827
778 3030.864884761009
779 3036.733759315476
780 3042.79590884416
781 3048.971285915041
782 3055.338508818595
783 3061.800422659279
784 3068.450203772043
785 3075.185076844954
786 3082.068460452412
787 3089.018729565456
788 3096.056303150418
789 3103.242784804002
790 3110.414081730897
791 3117.666986314473
792 3124.935427554762
793 3132.237031632929
794 3139.614667755116
795 3146.947105823468
796 3154.276598990754
797 3161.530177748837
798 3168.679603884068
799 3175.773544860743
800 3182.744232927559
801 3189.483729562127
802 3196.063861789779
803 3202.363517713713
804 3208.538431672408
805 3214.368679224172
806 3219.908517120999
807 3225.069192563834
808 3229.907294957656
809 3234.273582064634
810 3238.272720320531
811 3241.708768796221
812 3244.751396419379
813 3247.259322292817
814 3249.140614108055
815 3250.383967710434
816 3251.091486534199
817 3251.117433191261
818 3250.443141052794
819 3249.062970581344
820 3246.933433356936
821 3244.054647940392
822 3240.378402224433
823 3235.898514514789
824 3230.561870189326
825 3224.505361034252
826 3217.694042521203
827 3210.060073002387
828 3201.662788839505
829 3192.525836228251
830 3182.547317216835
831 3171.7965359565
832 3160.388992406585
833 3148.379791264701
834 3135.592015399562
835 3122.254482457039
836 3108.378135733217
837 3093.898202403571
838 3079.010718704367
839 3063.620910405087
840 3047.95976247179
841 3032.017538750003
842 3015.856753182741
843 2999.551539836299
844 2983.213273534138
845 2966.906908226151
846 2950.716071910937
847 2934.615440561085
848 2918.753006892208
849 2903.109810278297
850 2887.922045397431
851 2873.097493980669
852 2858.790619328157
853 2844.887042891672
854 2831.610141459032
855 2818.920565946958
856 2806.878217109627
857 2795.406436098885
858 2784.527020313355
859 2774.265606498486
860 2764.582345173694
861 2755.520209563741
862 2746.939193052721
863 2738.982038922928
864 2731.630753729389
865 2724.734904147884
866 2718.195884791924
867 2712.045739017722
868 2706.199673085415
869 2700.634687859394
870 2695.281474012153
871 2689.969775932496
872 2684.649756972996
873 2679.343081233942
874 2673.911947451944
875 2668.326804888766
876 2662.500167443445
877 2656.388707329963
878 2649.878493129875
879 2642.9809611657
880 2635.663449846082
881 2627.904762785792
882 2619.627851336778
883 2610.851967656221
884 2601.573353762538
885 2591.832941025472
886 2581.59978741358
887 2570.947466078158
888 2559.773400376442
889 2548.235538754945
890 2536.279043026265
891 2524.082558124787
892 2511.695801954291
893 2499.064189685774
894 2486.322135064691
895 2473.518764757118
896 2460.798341028348
897 2448.217075266648
898 2435.921488049377
899 2423.805939727911
900 2412.051342427529
901 2400.663699809334
902 2389.689541870328
903 2379.243667345402
904 2369.394157473509
905 2360.045108239915
906 2351.308887786289
907 2343.18427960133
908 2335.703939284715
909 2328.870596456468
910 2322.754061537426
911 2317.361119081107
912 2312.631375476621
913 2308.548379683959
914 2305.034856807294
915 2302.08369436708
916 2299.625572573842
917 2297.674815781802
918 2296.095989480509
919 2294.912009174034
920 2294.045279169036
921 2293.446672883819
922 2292.972580193033
923 2292.626039440016
924 2292.288508522794
925 2291.983109501375
926 2291.667444843624
927 2291.136916429162
928 2290.4265433103
929 2289.418088097148
930 2288.121257436864
931 2286.431888663858
932 2284.376683858673
933 2281.926459890486
934 2278.977997526293
935 2275.570249152509
936 2271.776005424409
937 2267.562447423779
938 2262.964267770298
939 2257.929353597705
940 2252.544018420181
941 2246.818121344756
942 2240.825930121322
943 2234.596635579208
944 2228.202899461047
945 2221.712719004921
946 2215.152174852976
947 2208.57386649188
948 2202.075055550877
949 2195.676653069285
950 2189.509175784489
951 2183.556216521716
952 2177.876457963321
953 2172.498430455053
954 2167.553074462482
955 2163.00062830392
956 2158.937140529466
957 2155.383351352106
958 2152.282594078917
959 2149.664680158103
960 2147.639997361156
961 2146.121899354853
962 2145.09642772926
963 2144.555483417482
964 2144.535054352878
965 2144.970262039576
966 2145.825940307648
967 2147.061662735597
968 2148.687074932045
969 2150.632520998097
970 2152.853468234813
971 2155.398216706506
972 2158.100622995349
973 2160.943243794289
974 2163.903794115724
975 2167.018704672878
976 2170.155507049154
977 2173.394800654637
978 2176.621932401818
979 2179.828428491686
980 2183.028230025728
981 2186.167998111351
982 2189.160649186048
983 2192.047010517898
984 2194.893800625117
985 2197.568621489889
986 2200.120529620057
987 2202.580044951469
988 2204.929296515958
989 2207.13838368879
990 2209.255171569708
991 2211.261227501129
992 2213.13885056692
993 2215.007903793341
994 2216.828052920045
995 2218.633343574038
996 2220.398252379144
997 2222.182067765751
998 2224.055023748862
999 2225.947140876305
1000 2227.93565385667
1001 2230.011307936288
1002 2232.209678307718
1003 2234.521622121477
1004 2237.037573856701
1005 2239.688035904513
1006 2242.548118815369
1007 2245.539485348224
1008 2248.71568824816
1009 2251.203113478025
1010 2255.026111307606
1011 2259.006772900068
1012 2262.130404410862
1013 2266.783662788509
1014 2270.353604797501
1015 2275.489756779038
1016 2279.314008446131
1017 2284.902891847285
1018 2289.051485715039
1019 2295.07227957597
1020 2300.921991266317
1021 2305.180149610117
1022 2311.32063567586
1023 2317.328545689105
1024 2323.142454634085
1025 2327.333222445947
1026 2333.257774748535
1027 2338.985684934134
1028 2344.616829654906
1029 2350.038428460785
1030 2355.308328618366
1031 2360.469693313463
1032 2365.472501628151
1033 2370.281178236913
1034 2374.943221455743
1035 2379.453836851981
1036 2383.827545675149
1037 2388.097510148272
1038 2392.230979977598
1039 2396.256580516605
1040 2400.170111958873
1041 2403.963404729617
1042 2407.61127076753
1043 2411.177323201973
1044 2414.657203378351
1045 2418.075615460285
1046 2421.447480082479
1047 2424.759386773384
1048 2428.023504578837
1049 2431.312014573857
1050 2434.649918748336
1051 2437.995771492273
1052 2441.403366757916
1053 2444.816769334021
1054 2448.308459957776
1055 2451.896483718137
1056 2455.5651781324
1057 2459.306329442027
1058 2463.138393343209
1059 2467.042476766946
1060 2470.988222670935
1061 2475.032436546753
1062 2479.106780413979
1063 2483.213664311
1064 2487.310180993075
1065 2491.367030892795
1066 2495.386278701564
1067 2499.352752066652
1068 2503.211114036892
1069 2507.023751518938
1070 2510.715708780916
1071 2514.313811632842
1072 2517.706585081548
1073 2520.968777681244
1074 2524.03820772659
1075 2526.968688526299
1076 2529.712504562156
1077 2532.251137142986
1078 2534.496707972439
1079 2536.593600677658
1080 2538.512269472896
1081 2540.25504126125
1082 2541.807265136631
1083 2543.162365767387
1084 2544.366523101128
1085 2545.370217264644
1086 2546.317571469884
1087 2547.197975025223
1088 2547.993323604865
1089 2548.684324082555
1090 2549.357450210885
1091 2550.034188334867
1092 2550.744845565367
1093 2551.516553395892
1094 2552.390668250358
1095 2553.387570360837
1096 2554.51983645518
1097 2555.818864837561
1098 2557.275636228595
1099 2558.863330343874
1100 2560.729892970954
1101 2562.786593446392
1102 2565.074195950236
1103 2567.596070297373
1104 2570.302421506833
1105 2573.240969493739
1106 2576.45201201496
1107 2579.940641436151
1108 2583.650247693931
1109 2587.59810350537
1110 2591.736854883124
1111 2596.062638880453
1112 2600.594354814531
1113 2605.298314234664
1114 2610.175809450192
1115 2615.261970163205
1116 2620.41343806336
1117 2625.728434340462
1118 2631.154352551222
1119 2636.736363347457
1120 2642.368328532687
1121 2648.143582416285
1122 2653.94007878467
1123 2659.845495435635
1124 2665.767826341894
1125 2671.70602806653
1126 2677.723315207961
1127 2683.773848692078
1128 2689.822177866265
1129 2695.889414096941
1130 2702.001159106776
1131 2708.045780874986
1132 2714.094593108817
1133 2720.116433332903
1134 2726.087402668554
1135 2732.044787957758
1136 2737.996581576497
1137 2743.973473732138
1138 2749.906469181628
1139 2755.825846508179
1140 2761.733707733658
1141 2767.554484271614
1142 2773.2887402925
1143 2779.012343488243
1144 2784.667894631122
1145 2790.240754732807
1146 2795.754208253139
1147 2801.155392229238
1148 2806.485139296684
1149 2811.768408184841
1150 2816.971100115515
1151 2822.078628031168
1152 2827.139673372069
1153 2832.034048079122
1154 2836.84737978528
1155 2841.523303285429
1156 2846.034480530102
1157 2850.360315323473
1158 2854.595575832524
1159 2858.624240171278
1160 2862.526944725106
1161 2866.282084560971
1162 2869.854317032062
1163 2873.247482085524
1164 2876.465251124528
1165 2879.517499391052
1166 2882.333975740034
1167 2884.974146867107
1168 2887.396187151871
1169 2889.616049062783
1170 2891.694014864161
1171 2893.523851692121
1172 2895.170129892443
1173 2896.617289573573
1174 2897.860611377934
1175 2898.934492483694
1176 2899.781872444875
1177 2900.448529719121
1178 2900.926585694934
1179 2901.248273286572
1180 2901.388405362336
1181 2901.361446851643
1182 2901.185674559425
1183 2900.937177594156
1184 2900.508259142179
1185 2899.981850255506
1186 2899.366271333541
1187 2898.619096838543
1188 2897.842442292502
1189 2896.96290099588
1190 2896.080520890238
1191 2895.122247760284
1192 2894.160133593051
1193 2893.148039141831
1194 2892.194873838053
1195 2891.246358696994
1196 2890.353901576316
1197 2889.480069847526
1198 2888.646441025066
1199 2887.924477908251
1200 2887.232893706274
1201 2886.637586762616
1202 2886.090634729446
1203 2885.58731640945
1204 2885.15992741069
1205 2884.75422077658
1206 2884.447316957387
1207 2884.176558885085
1208 2883.968596953725
1209 2883.761899836105
1210 2883.615502413919
1211 2883.497560750629
1212 2883.28544987143
1213 2883.036304967603
1214 2882.7868705299
1215 2882.441968417411
1216 2882.006970355829
1217 2881.478670997595
1218 2880.823330727083
1219 2879.983691504031
1220 2878.901524376306
1221 2877.561591722768
1222 2876.046942442062
1223 2874.227539617936
1224 2872.163339435555
1225 2869.809791033561
1226 2867.125929586396
1227 2864.183811492697
1228 2860.910307011632
1229 2857.223989744503
1230 2853.315355806846
1231 2849.000728040943
1232 2844.299476314342
1233 2839.341656272627
1234 2833.964070243758
1235 2828.204133353727
1236 2822.131755300727
1237 2815.634423466384
1238 2808.842219515244
1239 2801.658761449082
1240 2794.154441952732
1241 2786.247492107684
1242 2778.15541182027
1243 2769.579365402603
1244 2760.701687351867
1245 2751.587845692877
1246 2742.1101137708
1247 2732.35578549287
1248 2722.340217725447
1249 2712.100842635242
1250 2701.548722503928
1251 2690.754266253556
1252 2679.739686251605
1253 2668.594868744708
1254 2657.289102236086
1255 2645.893878641842
1256 2634.403706601531
1257 2622.834315623576
1258 2611.268464058562
1259 2599.680475832558
1260 2588.119427953869
1261 2576.635079186976
1262 2565.351823868725
1263 2554.21806516185
1264 2543.257144692779
1265 2532.558932737194
1266 2522.136963610905
1267 2512.015230405057
1268 2502.097672857579
1269 2492.570272197912
1270 2483.457512712063
1271 2474.700782940208
1272 2466.341595254128
1273 2458.520919106576
1274 2451.075290305102
1275 2444.096243769535
1276 2437.523825330698
1277 2431.356132427491
1278 2425.630053768645
1279 2420.395186067976
1280 2415.590470756481
1281 2411.189377918298
1282 2407.157351121804
1283 2403.478767053607
1284 2400.248546563338
1285 2397.395516845827
1286 2394.839773157446
1287 2392.582071126271
1288 2390.673661468844
1289 2388.972596457626
1290 2387.475509338369
1291 2386.212474810114
1292 2385.190631704269
1293 2384.317822970097
1294 2383.604885368582
1295 2383.030923628862
1296 2382.537953786041
1297 2382.074545449535
1298 2381.712882212848
1299 2381.355296386373
1300 2380.974473800916
1301 2380.559401709275
1302 2380.100436704769
1303 2379.57561935777
1304 2378.956133234391
1305 2378.242808653139
1306 2377.416933166279
1307 2376.459600872405
1308 2375.3197959222
1309 2374.077425829587
1310 2372.611476644378
1311 2371.014036175574
1312 2369.230299114395
1313 2367.280071394515
1314 2365.134388611703
1315 2362.852739747098
1316 2360.416069564164
1317 2357.821676645593
1318 2355.098817125655
1319 2352.181419943721
1320 2349.175940309213
1321 2346.05423333563
1322 2342.90871249188
1323 2339.658326628935
1324 2336.390697229112
1325 2333.126446498866
1326 2329.876464530436
1327 2326.647598650101
1328 2323.48565516617
1329 2320.396839533591
1330 2317.452000186238
1331 2314.661535674668
1332 2312.029863904826
1333 2309.626810152873
1334 2307.403847615093
1335 2305.390401235944
1336 2303.660568829467
1337 2302.162996282058
1338 2300.893916649166
1339 2299.927365227614
1340 2299.181968201692
1341 2298.708144691229
1342 2298.48353268516
1343 2298.492624873627
1344 2298.71045377313
1345 2299.116702728516
1346 2299.719731456568
1347 2300.484628855634
1348 2301.366182553595
1349 2302.381795965073
1350 2303.422985820287
1351 2304.511329925542
1352 2305.645457567767
1353 2306.706955694883
1354 2307.734887394583
1355 2308.688279880399
1356 2309.53131258978
1357 2310.247856005278
1358 2310.832432573636
1359 2311.203546483596
1360 2311.362112163652
1361 2311.331771838632
1362 2311.084233814718
1363 2310.602887165583
1364 2309.87530686013
1365 2308.907673342155
1366 2307.702390490165
1367 2306.225044638549
1368 2304.479477644673
1369 2302.541621111714
1370 2300.392219964614
1371 2298.066444234207
1372 2295.585910600261
1373 2292.998427826334
1374 2290.309579409001
1375 2287.537086958959
1376 2284.702953595375
1377 2281.842677636267
1378 2279.003060035011
1379 2276.203597599993
1380 2273.466663551299
1381 2270.834597522348
1382 2268.29454607072
1383 2265.928916269146
1384 2263.736086576435
1385 2261.767657932877
1386 2259.986580795659
1387 2258.483810228741
1388 2257.184606355217
1389 2256.20210044256
1390 2255.518138003922
1391 2255.108447042091
1392 2255.003162313889
1393 2255.217956848958
1394 2255.740666674306
1395 2256.530688679779
1396 2257.674551781935
1397 2259.097703072293
1398 2260.866524721098
1399 2262.879107911705
1400 2265.157241885427
1401 2267.693176240906
1402 2270.422652980943
1403 2273.365269087533
1404 2276.48330380329
1405 2279.750111448069
1406 2283.174082300705
1407 2286.737764684926
1408 2290.36607672107
1409 2294.05810011683
1410 2297.836210187506
1411 2301.56310817234
1412 2305.312593269123
1413 2309.019385808809
1414 2312.677735732451
1415 2316.27199098673
1416 2319.796541510189
1417 2323.207859237139
1418 2326.525909017369
1419 2329.714028888144
1420 2332.759923440347
1421 2335.59139150597
1422 2338.271632665603
1423 2340.818874544423
1424 2343.231535037223
1425 2345.421558628397
1426 2347.492429509453
1427 2349.368878129024
1428 2351.127911842289
1429 2352.725479940249
1430 2354.126110293223
1431 2355.325683476435
1432 2356.382339819751
1433 2357.234741029497
1434 2357.934113471327
1435 2358.505016686348
1436 2358.977341173354
1437 2359.367837598134
1438 2359.663622456618
1439 2359.884554785074
1440 2360.067980128025
1441 2360.182878619158
1442 2360.278557951055
1443 2360.369886250754
1444 2360.48455314691
1445 2360.55688366973
1446 2360.685202832867
1447 2360.901417345176
1448 2361.204777399981
1449 2361.604004152995
1450 2362.122377173879
1451 2362.789181898858
1452 2363.661636340398
1453 2364.7274709413
1454 2366.031767536961
1455 2367.544759519833
1456 2369.35478334289
1457 2371.39186156348
1458 2373.715871845545
1459 2376.355018760264
1460 2379.395210246446
1461 2382.749813650245
1462 2386.413860326162
1463 2390.409550938
1464 2394.694061489031
1465 2399.384993265574
1466 2404.40837245156
1467 2409.737090542311
1468 2415.422273486151
1469 2421.362319578574
1470 2427.595384439521
1471 2434.078598245793
1472 2440.809804065722
1473 2447.739285225124
1474 2454.900002978233
1475 2462.160213033942
1476 2469.571605238092
1477 2477.071351993387
1478 2484.583747535044
1479 2492.163067459174
1480 2499.748234740061
1481 2507.343201432773
1482 2514.954599705668
1483 2522.423331121335
1484 2529.884494708485
1485 2537.232379906385
1486 2544.442064315509
1487 2551.445364451256
1488 2558.317055259857
1489 2565.087603063712
1490 2571.625992579829
1491 2577.886852687386
1492 2583.959233700209
1493 2589.837617014962
1494 2595.443229469601
1495 2600.788639469059
1496 2605.890593209162
1497 2610.79648948376
1498 2615.469962003475
1499 2619.850382638127
1500 2624.013680443775
1501 2627.895093334296
1502 2631.589506760184
1503 2634.992833355199
1504 2638.19696355747
1505 2641.232122026282
1506 2644.073041949774
1507 2646.677967728584
1508 2649.096737932618
1509 2651.376518900174
1510 2653.513159159137
1511 2655.478688132678
1512 2657.276786040315
1513 2658.902475998007
1514 2660.409860440796
1515 2661.757388011819
1516 2662.984081027963
1517 2664.114239959663
1518 2665.139610994064
1519 2666.06871211528
1520 2666.940067137122
1521 2667.762919236768
1522 2668.478597876217
1523 2669.105383521712
1524 2669.643739619898
1525 2670.061742429141
1526 2670.401774154416
1527 2670.667068660694
1528 2670.782803384774
1529 2670.796223354881
1530 2670.741916402507
1531 2670.507474039327
1532 2670.159148870923
1533 2669.686096008598
1534 2669.084767604201
1535 2668.337961694325
1536 2667.446196619857
1537 2666.411906480306
1538 2665.240814859821
1539 2663.916882156171
1540 2662.495686588262
1541 2660.991332624607
1542 2659.340862780831
1543 2657.607200657817
1544 2655.871166871409
1545 2654.118288535599
1546 2652.326784519399
1547 2650.578818058597
1548 2648.91096824508
1549 2647.325837463718
1550 2645.863096011109
1551 2644.620622411514
1552 2643.570902938876
1553 2642.699015495991
1554 2642.144297074489
1555 2641.894425277148
1556 2641.955922234711
1557 2642.373166168662
1558 2643.205919621703
1559 2644.464390127088
1560 2646.173304142194
1561 2648.338527753924
1562 2651.011616183824
1563 2654.128593285637
1564 2657.678150378793
1565 2661.722432889295
1566 2666.212650251417
1567 2671.149287085796
1568 2676.499358107516
1569 2682.214863381227
1570 2688.257945459467
1571 2694.600000817889
1572 2701.213851427888
1573 2708.008308126591
1574 2714.962331870965
1575 2722.044664109522
1576 2729.131843067422
1577 2736.299749160309
1578 2743.36577094568
1579 2750.36270126348
1580 2757.220458389756
1581 2763.878866330455
1582 2770.243453604623
1583 2776.264550049693
1584 2781.94618003854
1585 2787.236344014582
1586 2792.10557964462
1587 2796.555607680775
1588 2800.478356746568
1589 2803.952083111974
1590 2806.909722476633
1591 2809.226287028282
1592 2811.039104703881
1593 2812.318552677385
1594 2813.08066744447
1595 2813.196659509977
1596 2812.832347418611
1597 2811.953618898698
1598 2810.560649086163
1599 2808.698128854665
1600 2806.344218203143
1601 2803.533243830222
1602 2800.345721093495
1603 2796.731449190896
1604 2792.76657206028
1605 2788.465887225101
1606 2783.882823553739
1607 2779.059624246601
1608 2773.924576584779
1609 2768.634795173637
1610 2763.190470603752
1611 2757.650563729623
1612 2751.928167939253
1613 2746.089479311936
1614 2740.134246197428
1615 2734.087775452288
1616 2728.01609846904
1617 2721.968642379956
1618 2715.939417570748
1619 2709.972941724762
1620 2704.148579310634
1621 2698.339028945032
1622 2692.677642526605
1623 2687.142221504502
1624 2681.715488456504
1625 2676.530903784648
1626 2671.515195864719
1627 2666.745853221235
1628 2662.237263975081
1629 2657.911514705173
1630 2653.843931981143
1631 2649.99144359141
1632 2646.410482074251
1633 2643.093010606599
1634 2639.968016472176
1635 2637.106328424842
1636 2634.466052402269
1637 2632.129200136186
1638 2630.017320897502
1639 2628.175801408319
1640 2626.555362415361
1641 2625.071643829065
1642 2623.70638745757
1643 2622.49991479031
1644 2621.398582494713
1645 2620.441950278115
1646 2619.599020567157
1647 2618.759545648829
1648 2617.955630000786
1649 2617.135279497239
1650 2616.310121166858
1651 2615.404585374781
1652 2614.359888539157
1653 2613.127902387444
1654 2611.714226630575
1655 2610.199381946919
1656 2608.352690935462
1657 2606.24918011572
1658 2603.912466307646
1659 2601.335194299153
1660 2598.325916438837
1661 2594.911945755578
1662 2591.065594008788
1663 2586.763079430096
1664 2582.084561567945
1665 2576.9990611657
1666 2571.476696802163
1667 2565.524108997537
1668 2559.11552267474
1669 2552.281747431044
1670 2545.050247720769
1671 2537.382370705182
1672 2529.383121290958
1673 2520.970133466268
1674 2512.311508607778
1675 2503.433513393763
1676 2494.40317278663
1677 2485.196631495366
1678 2476.044726369172
1679 2466.835480482842
1680 2457.663151988435
1681 2448.582203080459
1682 2439.720582235482
1683 2431.049583551771
1684 2422.715308284026
1685 2414.735576291209
1686 2407.193825761914
1687 2400.145688526925
1688 2393.635577616144
1689 2387.63561320083
1690 2382.141596314922
1691 2377.294736678942
1692 2373.023724402594
1693 2369.380426029529
1694 2366.384614262368
1695 2363.97761874403
1696 2362.117970728342
1697 2360.796323700296
1698 2360.077974756189
1699 2359.825616568142
1700 2360.048732740389
1701 2360.702773436256
1702 2361.726340600468
1703 2363.073714424019
1704 2364.688785044837
1705 2366.52034921243
1706 2368.445147852057
1707 2370.440989852194
1708 2372.498210734281
1709 2374.512150881254
1710 2376.401280063139
1711 2378.182398416803
1712 2379.774802936464
1713 2381.104167701626
1714 2382.120201324026
1715 2382.806075149129
1716 2383.133368153334
1717 2383.149332780913
1718 2382.744080386836
1719 2381.972376309486
1720 2380.768845500942
1721 2379.147585214649
1722 2377.08533749219
1723 2374.680499083721
1724 2371.886756805749
1725 2368.719106448913
1726 2365.221011499075
1727 2361.469136674683
1728 2357.393832127284
1729 2353.043930479912
1730 2348.465671087679
1731 2343.724560323728
1732 2338.788777510591
1733 2333.724604837692
1734 2328.547293365338
1735 2323.287703908991
1736 2318.00132464753
1737 2312.714635347034
1738 2307.477783254657
1739 2302.260914991733
1740 2297.156551041938
1741 2292.144047262019
1742 2287.24930777992
1743 2282.527153748998
1744 2277.977456008573
1745 2273.584361123855
1746 2269.399837664975
1747 2265.421091900723
1748 2261.702436074336
1749 2258.206283404219
1750 2254.930455614564
1751 2251.905215130658
1752 2249.124756861
1753 2246.606364961865
1754 2244.279488204194
1755 2242.187100750554
1756 2240.29097720609
1757 2238.669015369509
1758 2237.212480420118
1759 2235.981438314476
1760 2234.900061079437
1761 2233.940731478491
1762 2233.187517053617
1763 2232.540711307341
1764 2232.015873261059
1765 2231.604070169406
1766 2231.302424272513
1767 2231.011683750545
1768 2230.82390128753
1769 2230.703024167698
1770 2230.607397002392
1771 2230.523146375632
1772 2230.448281086218
1773 2230.393793487428
1774 2230.371844719655
1775 2230.329023076161
1776 2230.284644949065
1777 2230.227374277285
1778 2230.148397112802
1779 2230.074072469267
1780 2230.013530416422
1781 2229.929265112177
1782 2229.844651683235
1783 2229.758465155949
1784 2229.69914513786
1785 2229.64923296609
1786 2229.550518736633
1787 2229.549161521659
1788 2229.620508467525
1789 2229.725919409829
1790 2229.888043518297
1791 2230.0908852574
1792 2230.388647829951
1793 2230.793044707919
1794 2231.240775549742
1795 2231.82968728679
1796 2232.558386247854
1797 2233.368179124821
1798 2234.301709191616
1799 2235.347858060134
1800 2236.535324093567
1801 2237.876675541336
1802 2239.356712222196
1803 2240.991420225555
1804 2242.764084738302
1805 2244.703419191743
1806 2246.733185593536
1807 2248.926309379732
1808 2251.275136403962
1809 2253.778441191171
1810 2256.443944580869
1811 2259.250216278241
1812 2262.184668791802
1813 2265.301565934466
1814 2268.566679872889
1815 2271.95188577178
1816 2275.505021367598
1817 2279.216127088009
1818 2283.089370129814
1819 2287.044761151008
1820 2291.173548215577
1821 2295.427201601839
1822 2299.830841546222
1823 2304.342208462969
1824 2308.949239764699
1825 2313.674812767359
1826 2318.468607770486
1827 2323.33336723619
1828 2328.258688711921
1829 2333.243461800457
1830 2338.264638075208
1831 2343.361592372533
1832 2348.463252166309
1833 2353.585168446427
1834 2358.664536263135
1835 2363.695389117705
1836 2368.683705574937
1837 2373.622898040269
1838 2378.523194888167
1839 2383.266371550023
1840 2387.890993711562
1841 2392.398650265536
1842 2396.755676969241
1843 2400.953792728963
1844 2404.98581184352
1845 2408.842578431645
1846 2412.562670430401
1847 2416.091821315176
1848 2419.447394708888
1849 2422.596039619064
1850 2425.568382444209
1851 2428.320102866884
1852 2430.88912340475
1853 2433.275638475222
1854 2435.473610215533
1855 2437.487630494056
1856 2439.340894306079
1857 2441.009613424247
1858 2442.558588219296
1859 2443.940892444065
1860 2445.205377685587
1861 2446.33684104815
1862 2447.35204525678
1863 2448.274939158072
1864 2449.098541530137
1865 2449.873046748355
1866 2450.556919905456
1867 2451.156737639644
1868 2451.678327113433
1869 2452.131367370921
1870 2452.52311167584
1871 2452.90208236786
1872 2453.240186440653
1873 2453.593127787094
1874 2453.883260257263
1875 2454.156896850193
1876 2454.421023903065
1877 2454.683299006156
1878 2454.931968622761
1879 2455.165893006111
1880 2455.369971434908
1881 2455.553992836617
1882 2455.724227710734
1883 2455.911322678372
1884 2456.050294390973
1885 2456.16022003482
1886 2456.274001610567
1887 2456.367197168817
1888 2456.423926838989
1889 2456.421245869792
1890 2456.399033101673
1891 2456.353304211106
1892 2456.296078976301
1893 2456.225457726129
1894 2456.110764378897
1895 2455.970931299361
1896 2455.835796983964
1897 2455.693942126821
1898 2455.523101948939
1899 2455.37213502971
1900 2455.164653145453
1901 2455.036121040846
1902 2454.909099783012
1903 2454.806981644084
1904 2454.736105089309
1905 2454.679963672315
1906 2454.715496817437
1907 2454.814721832139
1908 2455.026613839585
1909 2455.306782212175
1910 2455.711584937078
1911 2456.272925884991
1912 2456.940098639376
1913 2457.759433436452
1914 2458.779668313262
1915 2459.987572565523
1916 2461.385000140189
1917 2463.001213160068
1918 2464.834378104152
1919 2466.906068744845
1920 2469.198122883416
1921 2471.791591720767
1922 2474.590672365426
1923 2477.699181958686
1924 2481.06647466804
1925 2484.737907297686
1926 2488.706239213182
1927 2492.919884488764
1928 2497.42682663873
1929 2502.206088266873
1930 2507.258654428592
1931 2512.541390598634
1932 2518.065891762703
1933 2523.841275418455
1934 2529.818797655353
1935 2536.004206161446
1936 2542.36704677342
1937 2548.855751210551
1938 2555.479955890194
1939 2562.229206809437
1940 2569.059930101764
1941 2575.961722294205
1942 2582.905216347046
1943 2589.81059326496
1944 2596.696466165271
1945 2603.532635006446
1946 2610.335070905617
1947 2617.027190355824
1948 2623.637182211266
1949 2630.078330453659
1950 2636.333598817327
1951 2642.407270643977
1952 2648.213295432145
1953 2653.836366565681
1954 2659.187030129089
1955 2664.224413974676
1956 2669.034735098629
1957 2673.565719488122
1958 2677.7622836388
1959 2681.685424049883
1960 2685.324793777952
1961 2688.657471017099
1962 2691.649658276185
1963 2694.361446753647
1964 2696.751426805376
1965 2698.843284429304
1966 2700.641155289132
1967 2702.179709042233
1968 2703.464345415677
1969 2704.483911029273
1970 2705.245597897386
1971 2705.761743786371
1972 2706.027167897281
1973 2706.069862549254
1974 2705.924042197421
1975 2705.572405921388
1976 2705.036336354058
1977 2704.363034312013
1978 2703.535518918115
1979 2702.510815942932
1980 2701.365398660042
1981 2700.027981624882
1982 2698.603561103319
1983 2697.074454964514
1984 2695.415557798774
1985 2693.666989323792
1986 2691.781548881689
1987 2689.791931259315
1988 2687.662867588759
1989 2685.460274994525
1990 2683.060796248055
1991 2680.57163546689
1992 2677.933782339373
1993 2675.112698098734
1994 2672.130042665192
1995 2668.972194320731
1996 2665.581642179623
1997 2662.051828045422
1998 2658.331006764308
1999 2654.407653542039
2000 2650.203582682304
2001 2645.891452969754
2002 2641.340456331983
2003 2636.550679916806
2004 2631.519489146462
2005 2626.309476472972
2006 2620.957448872964
2007 2615.421433500574
2008 2609.77051639497
2009 2603.88887081016
2010 2597.915853045417
2011 2591.812829768955
2012 2585.60114257551
2013 2579.372726592271
2014 2573.095133812709
2015 2566.742758024985
2016 2560.433252838932
2017 2554.176080982024
2018 2547.93603011757
2019 2541.7307948049
2020 2535.672881098929
2021 2529.7267459359
2022 2523.887579665365
2023 2518.286727863194
2024 2512.83736970476
2025 2507.610587027537
2026 2502.54222623744
2027 2497.724430681821
2028 2493.136110463053
2029 2488.823507944261
2030 2484.744346583024
2031 2480.914452962012
2032 2477.341605683442
2033 2473.991989400436
2034 2470.867661391231
2035 2467.967020346606
2036 2465.243522406342
2037 2462.680684041357
2038 2460.279737186567
2039 2458.008362663591
2040 2455.885252526673
2041 2453.867893605778
2042 2451.907997826632
2043 2449.973055430407
2044 2448.148348368747
2045 2446.306956761521
2046 2444.54217661599
2047 2442.832122456952
2048 2441.044444779119
2049 2439.245757765415
2050 2437.399074838104
2051 2435.502502001363
2052 2433.522187097371
2053 2431.522107915044
2054 2429.425853825398
2055 2427.289726796389
2056 2425.102028513697
2057 2422.840172709517
2058 2420.484428842916
2059 2418.075687292539
2060 2415.586052518859
2061 2413.001106410705
2062 2410.266887844349
2063 2407.488540984711
2064 2404.595100046844
2065 2401.648100598363
2066 2398.574797374204
2067 2395.439783528307
2068 2392.240174186771
2069 2389.004971639383
2070 2385.706782841721
2071 2382.396145081651
2072 2379.056779664052
2073 2375.733122170908
2074 2372.407687863823
2075 2369.115330160717
2076 2365.849850291392
2077 2362.660136849077
2078 2359.533112595627
2079 2356.474852009887
2080 2353.576125554983
2081 2350.792182095893
2082 2348.099689271271
2083 2345.553156187829
2084 2343.148712031143
2085 2340.893276751787
2086 2338.802488415603
2087 2336.903604114876
2088 2335.133386937222
2089 2333.489972449748
2090 2331.971076653641
2091 2330.570631893549
2092 2329.27753476301
2093 2328.062608300572
2094 2326.919904112376
2095 2325.820933611129
2096 2324.777222513193
2097 2323.764442066818
2098 2322.721454697844
2099 2321.620315626699
2100 2320.461780295516
2101 2319.16521651674
2102 2317.803759491744
2103 2316.251564069506
2104 2314.47782184572
2105 2312.550007866393
2106 2310.367268363357
2107 2307.984814203084
2108 2305.293901666882
2109 2302.363604630852
2110 2299.20174003851
2111 2295.708066357831
2112 2291.913316060915
2113 2287.862166068652
2114 2283.508450093825
2115 2278.95565851164
2116 2274.167919388664
2117 2269.195914491209
2118 2264.029705374637
2119 2258.714376388528
2120 2253.363451332119
2121 2247.943143786842
2122 2242.486587612334
2123 2237.097177922264
2124 2231.82943477851
2125 2226.669716502022
2126 2221.790913846
2127 2217.090822998635
2128 2212.743464557374
2129 2208.670234740475
2130 2204.967528568732
2131 2201.638819316164
2132 2198.844402182414
2133 2196.474882743822
2134 2194.585425537036
2135 2193.183792646137
2136 2192.321885109162
2137 2191.991787938751
2138 2192.240536096519
2139 2193.028109465867
2140 2194.359350323542
2141 2196.155950609476
2142 2198.527853388864
2143 2201.429533028922
2144 2204.825645992159
2145 2208.674362411348
2146 2212.963597737467
2147 2217.684778144122
2148 2222.756049039583
2149 2228.140534743517
2150 2233.822562919542
2151 2239.701872864242
2152 2245.741711303866
2153 2251.901623258131
2154 2258.174273418312
2155 2264.508157400736
2156 2270.810064276832
2157 2277.019325330545
2158 2283.109707571309
2159 2288.930191361028
2160 2294.546655200872
2161 2299.907184895706
2162 2304.90508301608
2163 2309.548407082746
2164 2313.802318107431
2165 2317.650601563694
2166 2321.034658715986
2167 2323.943521480262
2168 2326.356094896834
2169 2328.308290147106
2170 2329.757254133126
2171 2330.735277786815
2172 2331.20317077283
2173 2331.248095648367
2174 2330.791145446682
2175 2329.883188631876
2176 2328.601730488357
2177 2326.894136600528
2178 2324.84240067288
2179 2322.453769421416
2180 2319.757896625112
2181 2316.800723812579
2182 2313.659355630546
2183 2310.303742092736
2184 2306.869191823249
2185 2303.336654504222
2186 2299.768104272453
2187 2296.151344855667
2188 2292.585616982343
2189 2289.082195208553
2190 2285.742416696714
2191 2282.498777783873
2192 2279.423698436532
2193 2276.554545041228
2194 2273.930359822038
2195 2271.635935694706
2196 2269.665186206886
2197 2267.973909259204
2198 2266.62111235933
2199 2265.599935937418
2200 2264.99182602455
2201 2264.722153411901
2202 2264.839681900295
2203 2265.364533228034
2204 2266.18492372818
2205 2267.418075186581
2206 2268.967907874452
2207 2270.909984085337
2208 2273.160625340829
2209 2275.751062068596
2210 2278.598795030659
2211 2281.758860175388
2212 2285.166166037247
2213 2288.802412028318
2214 2292.728180576622
2215 2296.911733718074
2216 2301.256341884481
2217 2305.779990630595
2218 2310.465017348176
2219 2315.324667216087
2220 2320.317381324968
2221 2325.441501234955
2222 2330.63698698208
2223 2335.948455726107
2224 2341.327587515364
2225 2346.773219485577
2226 2352.334654813622
2227 2357.89422519495
2228 2363.483073859997
2229 2369.084268963479
2230 2374.683888489664
2231 2380.371029557965
2232 2385.984722718955
2233 2391.63922179814
2234 2397.303640795565
2235 2402.88216573996
2236 2408.409194656847
2237 2413.837443923114
2238 2419.164622507734
2239 2424.437684210487
2240 2429.6328685005
2241 2434.685464419477
2242 2439.601032301544
2243 2444.435627788873
2244 2449.051678711935
2245 2453.558820941995
2246 2457.872152421086
2247 2462.028171830199
2248 2466.044921943251
2249 2469.844552166946
2250 2473.49311576816
2251 2476.973208110987
2252 2480.177063813439
2253 2483.265970554347
2254 2486.109205118205
2255 2488.746815316388
2256 2491.155779706451
2257 2493.339058276872
2258 2495.376937336673
2259 2497.097881913876
2260 2498.692617331639
2261 2500.075100757041
2262 2501.257855824321
2263 2502.180458268068
2264 2502.954713597201
2265 2503.533969698218
2266 2503.986429348375
2267 2504.317167777702
2268 2504.436668511834
2269 2504.436945892958
2270 2504.331038713422
2271 2504.096208684877
2272 2503.739239786349
2273 2503.263247554814
2274 2502.717315580775
2275 2502.051281139896
2276 2501.326517530715
2277 2500.580590318003
2278 2499.856724052109
2279 2499.05161020782
2280 2498.222655598499
2281 2497.422819284001
2282 2496.627759062871
2283 2495.878833493715
2284 2495.136176720356
2285 2494.469548888832
2286 2493.852575889109
2287 2493.316953395208
2288 2492.891873278522
2289 2492.575646538147
2290 2492.440701083036
2291 2492.448327173869
2292 2492.590407478829
2293 2492.898193522547
2294 2493.424496755911
2295 2494.115160609599
2296 2495.035992099112
2297 2496.165285753458
2298 2497.476335831991
2299 2498.99141367885
2300 2500.728289573142
2301 2502.715938659199
2302 2504.898579612453
2303 2507.321263614286
2304 2509.981691778588
2305 2512.841167107616
2306 2515.947788883791
2307 2519.274388171193
2308 2522.787118651841
2309 2526.504139343899
2310 2530.42454755027
2311 2534.523280033543
2312 2538.799152114411
2313 2543.194905462619
2314 2547.697149908613
2315 2552.310135220422
2316 2557.043935445532
2317 2561.823687105697
2318 2566.660859509595
2319 2571.569325630426
2320 2576.468202608213
2321 2581.379912439529
2322 2586.291889708024
2323 2591.169663099809
2324 2595.983651485909
2325 2600.67335615113
2326 2605.288396828596
2327 2609.757654835876
2328 2614.070649430049
2329 2618.219840692478
2330 2622.208826489338
2331 2625.998030725513
2332 2629.604517535928
2333 2633.012124348464
2334 2636.215362658747
2335 2639.225350187109
2336 2641.999452396969
2337 2644.571474933888
2338 2646.916571119933
2339 2649.031165724556
2340 2650.952166223208
2341 2652.653835882079
2342 2654.135142691285
2343 2655.447189344276
2344 2656.55368154587
2345 2657.51379314792
2346 2658.307704413344
2347 2658.955370702514
2348 2659.504354191749
2349 2659.928244739607
2350 2660.230811057356
2351 2660.433465407605
2352 2660.575667085369
2353 2660.648136519394
2354 2660.664154341607
2355 2660.65874498721
2356 2660.662097007331
2357 2660.657949086317
2358 2660.63478443178
2359 2660.654992042154
2360 2660.653978827441
2361 2660.715438605649
2362 2660.787052016912
2363 2660.885838280622
2364 2661.018315190627
2365 2661.176074060582
2366 2661.408526262785
2367 2661.611976196682
2368 2661.849125461251
2369 2662.072423437129
2370 2662.313669290169
2371 2662.540432674717
2372 2662.771706552607
2373 2662.917026985338
2374 2663.018729234707
2375 2663.015271277869
2376 2662.937919329058
2377 2662.742428000729
2378 2662.470329025718
2379 2662.014808653572
2380 2661.420158374788
2381 2660.636892612334
2382 2659.617035416988
2383 2658.406490681729
2384 2656.984729131588
2385 2655.272599490922
2386 2653.270233860958
2387 2651.028118713045
2388 2648.469643474609
2389 2645.586961108962
2390 2642.395660745137
2391 2638.915701537572
2392 2635.090227961465
2393 2630.937719603809
2394 2626.469965507137
2395 2621.675127173914
2396 2616.571645497015
2397 2611.143137731851
2398 2605.367855776722
2399 2599.356097281531
2400 2593.048175054549
2401 2586.461596232869
2402 2579.645251209547
2403 2572.672718470963
2404 2565.492661891928
2405 2558.12443712025
2406 2550.658095015487
2407 2543.131548949449
2408 2535.501894207462
2409 2527.877194365851
2410 2520.253425476023
2411 2512.697933351432
2412 2505.20471086839
2413 2497.814247763037
2414 2490.57754348684
2415 2483.516568150514
2416 2476.634990379372
2417 2469.992642696809
2418 2463.627624720378
2419 2457.599497293369
2420 2451.861234106439
2421 2446.470197562275
2422 2441.462642850543
2423 2436.858177882087
2424 2432.66830749952
2425 2428.863879032474
2426 2425.417231936537
2427 2422.381736337216
2428 2419.694302273418
2429 2417.419780810604
2430 2415.54432720848
2431 2413.984525242498
2432 2412.74392243694
2433 2411.765356688323
2434 2411.036921082781
2435 2410.55578248057
2436 2410.268348029165
2437 2410.155426017707
2438 2410.122117047224
2439 2410.147890805978
2440 2410.218844923677
2441 2410.226964591549
2442 2410.266861713135
2443 2410.200898164273
2444 2409.952018280733
2445 2409.587306723984
2446 2409.004398196935
2447 2408.202977039172
2448 2407.186624241868
2449 2405.882571439753
2450 2404.325100167842
2451 2402.438986474204
2452 2400.250850963115
2453 2397.738917455881
2454 2394.96253570959
2455 2391.894178631554
2456 2388.510146564832
2457 2384.823298432451
2458 2380.848698555662
2459 2376.630054564064
2460 2372.189619036146
2461 2367.462640665555
2462 2362.589437930851
2463 2357.516057397016
2464 2352.283856035219
2465 2346.96381363743
2466 2341.534867663187
2467 2336.032795232409
2468 2330.4959969437
2469 2324.965120122527
2470 2319.400005464564
2471 2313.880658665963
2472 2308.443293899267
2473 2303.013429865022
2474 2297.69348390761
2475 2292.457689023737
2476 2287.396005875828
2477 2282.496106047753
2478 2277.758436033217
2479 2273.224780148928
2480 2268.894477259792
2481 2264.767714988791
2482 2260.847410724791
2483 2257.162021221948
2484 2253.771277805286
2485 2250.675042887453
2486 2247.839236235698
2487 2245.264613907115
2488 2243.027856381181
2489 2241.03703065841
2490 2239.351431232672
2491 2237.924272455415
2492 2236.816901291945
2493 2235.98548716998
2494 2235.418617697266
2495 2235.083500669244
2496 2235.03436425231
2497 2235.228207340082
2498 2235.566350271849
2499 2236.12518564218
2500 2236.821811703948
2501 2237.683089672192
2502 2238.647818150913
2503 2239.710454673481
2504 2240.805695205121
2505 2241.925348272352
2506 2243.014165515008
2507 2244.074966342197
2508 2245.059120592987
2509 2245.917450517823
2510 2246.673322110271
2511 2247.291895402211
2512 2247.820198508344
2513 2248.185227712836
2514 2248.413404291831
2515 2248.475628088602
2516 2248.424596576704
2517 2248.214188091348
2518 2247.947268235564
2519 2247.600637340267
2520 2247.163914781141
2521 2246.719841782651
2522 2246.272147977777
2523 2245.883548160327
2524 2245.536086014103
2525 2245.328483635963
2526 2245.275217477018
2527 2245.355525526131
2528 2245.627703450833
2529 2246.142361787376
2530 2246.919497961228
2531 2247.939354059673
2532 2249.266851571746
2533 2250.886651812467
2534 2252.758331677878
2535 2254.910909005321
2536 2257.321266443558
2537 2259.984616052069
2538 2262.879783899318
2539 2265.8902783362
2540 2269.087704986126
2541 2272.381475332401
2542 2275.70515971026
2543 2279.077865446994
2544 2282.435548867047
2545 2285.752990656043
2546 2288.985915610689
2547 2292.038050282265
2548 2294.912797485128
2549 2297.584034453068
2550 2300.02815969872
2551 2302.181137775594
2552 2304.082950869681
2553 2305.670915844825
2554 2306.908101406371
2555 2307.770665192451
2556 2308.330555608083
2557 2308.558662504837
2558 2308.455433929216
2559 2308.087618402154
2560 2307.417570453845
2561 2306.550154715606
2562 2305.426598087438
2563 2304.134800054865
2564 2302.710738983747
2565 2301.209241399562
2566 2299.723419010883
2567 2298.236910153601
2568 2296.836382362815
2569 2295.533964433077
2570 2294.41561281957
2571 2293.576040289782
2572 2292.99274407093
2573 2292.712904813831
2574 2292.741891859793
2575 2293.157394092289
2576 2294.004441213893
2577 2295.258985031663
2578 2297.007416908288
2579 2299.192418385651
2580 2301.861773944594
2581 2305.064125087373
2582 2308.735442375047
2583 2312.892926072555
2584 2317.494619550817
2585 2322.589882656466
2586 2328.156165141006
2587 2334.065612052462
2588 2340.334807859991
2589 2346.915703197531
2590 2353.769739143243
2591 2360.893085827307
2592 2368.279379038681
2593 2375.728869305722
2594 2383.370431782421
2595 2391.04956108698
2596 2398.808774875059
2597 2406.569021050672
2598 2414.313434166644
2599 2422.020208256065
2600 2429.55827132675
2601 2436.983822857337
2602 2444.255663220982
2603 2451.289497688769
2604 2458.045194468526
2605 2464.607709730178
2606 2470.855478513746
2607 2476.844016811854
2608 2482.528914932054
2609 2487.817843276016
2610 2492.77837150155
2611 2497.378600188841
2612 2501.625489129001
2613 2505.538051094032
2614 2509.069102194246
2615 2512.298257870186
2616 2515.156711583731
2617 2517.695541719066
2618 2519.905277509486
2619 2521.75747818671
2620 2523.293266864762
2621 2524.476000656914
2622 2525.399050366121
2623 2526.051874753869
2624 2526.5192389906
2625 2526.761453435286
2626 2526.786108125536
2627 2526.649613787757
2628 2526.304436599301
2629 2525.868157989255
2630 2525.311551970889
2631 2524.665795421234
2632 2523.921158649865
2633 2523.103298537987
2634 2522.252955751977
2635 2521.412054294562
2636 2520.585154671463
2637 2519.769157665499
2638 2519.00363034421
2639 2518.342323294016
2640 2517.722197256955
2641 2517.201752635071
2642 2516.885401319091
2643 2516.716543380494
2644 2516.690068353883
2645 2516.833227586051
2646 2517.22223126237
2647 2517.84880636953
2648 2518.701278645029
2649 2519.860077401881
2650 2521.27761965778
2651 2523.04836926056
2652 2525.113777942687
2653 2527.532801431275
2654 2530.29149156065
2655 2533.350243486188
2656 2536.745719467548
2657 2540.516548021774
2658 2544.656461674181
2659 2549.132210599645
2660 2553.879834744644
2661 2558.980370390724
2662 2564.350421282846
2663 2570.056937462973
2664 2576.025294404886
2665 2582.22454118511
2666 2588.585430213706
2667 2595.056998920167
2668 2601.676417872385
2669 2608.397125708972
2670 2615.130712041131
2671 2621.855274518119
2672 2628.541141001197
2673 2635.081054531161
2674 2641.390854784998
2675 2647.51330495988
2676 2653.33437817294
2677 2658.823836328045
2678 2663.972725707867
2679 2668.724077979484
2680 2672.99753531496
2681 2676.835780160487
2682 2680.141656531142
2683 2682.91695784013
2684 2685.17188241848
2685 2686.894632532882
2686 2688.088925597151
2687 2688.755896172804
2688 2688.876200026102
2689 2688.446830494264
2690 2687.515976121088
2691 2686.1438261651
2692 2684.365660059595
2693 2682.163755077698
2694 2679.59837164158
2695 2676.69004986264
2696 2673.51202350774
2697 2670.078916505668
2698 2666.496563869616
2699 2662.782851432467
2700 2658.960450452028
2701 2655.147346331601
2702 2651.298812596961
2703 2647.509563519832
2704 2643.81723002739
2705 2640.318173952258
2706 2636.973168287576
2707 2633.845554503439
2708 2631.011854306732
2709 2628.415155698292
2710 2626.092719557725
2711 2624.06896624675
2712 2622.376864806524
2713 2620.986522715023
2714 2619.946017497878
2715 2619.215531805164
2716 2618.861884863496
2717 2618.783708605794
2718 2618.974455952484
2719 2619.398918064988
2720 2620.083462957616
2721 2620.967581800845
2722 2622.057503343882
2723 2623.331076337088
2724 2624.689895899389
2725 2626.123496770535
2726 2627.618099576975
2727 2629.111507724351
2728 2630.612946187809
2729 2632.082765053843
2730 2633.428155671961
2731 2634.695788449802
2732 2635.79185910782
2733 2636.771259464153
2734 2637.559632938005
2735 2638.096828141614
2736 2638.442327655927
2737 2638.511996281881
2738 2638.346425987937
2739 2637.86495732218
2740 2637.105641142924
2741 2636.062542371325
2742 2634.6581696847
2743 2632.982835460803
2744 2630.99014797033
2745 2628.697236348852
2746 2626.149989909912
2747 2623.300388349523
2748 2620.180265532264
2749 2616.699513578627
2750 2613.008260474249
2751 2609.034491805543
2752 2604.805528361558
2753 2600.343027395361
2754 2595.638117984814
2755 2590.707355851478
2756 2585.620404559923
2757 2580.272868154181
2758 2574.760657683067
2759 2569.158451126258
2760 2563.409665268706
2761 2557.4771902729
2762 2551.467336558796
2763 2545.323089588454
2764 2539.057234392284
2765 2532.764245678162
2766 2526.397759390731
2767 2519.960393115107
2768 2513.512417215095
2769 2506.963812034689
2770 2500.474338185114
2771 2493.924901956759
2772 2487.43686285493
2773 2480.981771621907
2774 2474.591766535055
2775 2468.299647331096
2776 2462.08906212615
2777 2455.952904409685
2778 2449.989421912256
2779 2444.19705647149
2780 2438.604027326204
2781 2433.171158781157
2782 2427.938145209899
2783 2422.944215636955
2784 2418.19400549864
2785 2413.749976512849
2786 2409.581719437599
2787 2405.702082279435
2788 2402.140416258012
2789 2398.862110233371
2790 2395.923833174047
2791 2393.355246316115
2792 2391.110884065643
2793 2389.181078040093
2794 2387.563035957259
2795 2386.253676534348
2796 2385.234992926955
2797 2384.490131508805
2798 2384.049332359227
2799 2383.880892518733
2800 2383.962471396872
2801 2384.284089670269
2802 2384.783341034733
2803 2385.508155063296
2804 2386.416801378565
2805 2387.438774099548
2806 2388.60431035923
2807 2389.865759557726
2808 2391.208284649618
2809 2392.655151846682
2810 2394.112917906148
2811 2395.559604369343
2812 2397.013587834964
2813 2398.410455144596
2814 2399.743909233518
2815 2401.020373838662
2816 2402.239954110328
2817 2403.300083889141
2818 2404.170626595755
2819 2404.869272987801
2820 2405.398973004596
2821 2405.67006038392
2822 2405.680523608796
2823 2405.479964750326
2824 2404.978306856374
2825 2404.170587976744
2826 2403.060907099467
2827 2401.571408499799
2828 2399.725545762936
2829 2397.478926581406
2830 2394.882289053059
2831 2391.870077390923
2832 2388.457211776783
2833 2384.651602781991
2834 2380.465640163297
2835 2375.894397275023
2836 2371.000648148965
2837 2365.622725717233
2838 2359.900760655428
2839 2353.863448020389
2840 2347.492999894911
2841 2340.756539937341
2842 2333.829093432833
2843 2326.6765308302
2844 2319.269906815274
2845 2311.716115471034
2846 2304.091427633657
2847 2296.335081528931
2848 2288.677527089128
2849 2280.958565824583
2850 2273.367766707754
2851 2265.866048490599
2852 2258.533845164433
2853 2251.407690634065
2854 2244.598251864785
2855 2238.106810669993
2856 2232.055282190353
2857 2226.390091583407
2858 2221.264838405999
2859 2216.659449634353
2860 2212.596542609519
2861 2209.156835088412
2862 2206.38418223947
2863 2204.229514026613
2864 2202.739303635985
2865 2201.923021464978
2866 2201.760821828772
2867 2202.278500809506
2868 2203.466506626666
2869 2205.295863456364
2870 2207.706584664531
2871 2210.717731796218
2872 2214.256487535916
2873 2218.327422982998
2874 2222.858451800868
2875 2227.819391877802
2876 2233.065369138522
2877 2238.645372369503
2878 2244.450529600701
2879 2250.399005207008
2880 2256.484076951829
2881 2262.593841584882
2882 2268.671523249604
2883 2274.727194440762
2884 2280.650054982872
2885 2286.395122954943
2886 2291.918428399187
2887 2297.22736940726
2888 2302.2643235463
2889 2307.000241879288
2890 2311.372255083981
2891 2315.360253260416
2892 2318.937659283365
2893 2322.114470388345
2894 2324.907361955053
2895 2327.312110498984
2896 2329.344051689605
2897 2331.00054895895
2898 2332.252979153825
2899 2333.203195003705
2900 2333.828323986367
2901 2334.15188741881
2902 2334.219756672463
2903 2334.03372676584
2904 2333.629519057413
2905 2333.072035378306
2906 2332.400155620281
2907 2331.616794561001
2908 2330.737424164436
2909 2329.796861553673
2910 2328.786150316929
2911 2327.834084988465
2912 2326.934150947306
2913 2326.114366045959
2914 2325.365911513281
2915 2324.68977889567
2916 2324.143425078218
2917 2323.716853131911
2918 2323.413732324278
2919 2323.255224799098
2920 2323.200725631087
2921 2323.297600348008
2922 2323.530756778699
2923 2323.908491805442
2924 2324.392802708868
2925 2324.983922524586
2926 2325.658193874402
2927 2326.421149416689
2928 2327.285629104363
2929 2328.206397898939
2930 2329.176721390936
2931 2330.210183887474
2932 2331.30494719124
2933 2332.399820512263
2934 2333.48320721246
2935 2334.618865547915
2936 2335.724920982176
2937 2336.849050418713
2938 2337.952820748568
2939 2339.042788264167
2940 2340.127969360943
2941 2341.211230856889
2942 2342.329946806135
2943 2343.409537040297
2944 2344.511054751034
2945 2345.664782516329
2946 2346.841982749203
2947 2348.039997936883
2948 2349.347358028631
2949 2350.715535614491
2950 2352.192369897703
2951 2353.810887778367
2952 2355.550074865444
2953 2357.437805020139
2954 2359.500957000692
2955 2361.727554897233
2956 2364.1786165972
2957 2366.816602329275
2958 2369.660058705518
2959 2372.684455478119
2960 2375.959906601803
2961 2379.435950189669
2962 2383.172418363508
2963 2387.097295081789
2964 2391.231083728402
2965 2395.582091132577
2966 2400.1450076775
2967 2404.860969189469
2968 2409.740614852484
2969 2414.809695193133
2970 2420.040310284543
2971 2425.363626964671
2972 2430.763615935086
2973 2436.253984817447
2974 2441.764545872853
2975 2447.274441082016
2976 2452.713744072916
2977 2458.163593142676
2978 2463.529022929323
2979 2468.816830464591
2980 2473.977419708063
2981 2478.98164729143
2982 2483.813861820362
2983 2488.497420895198
2984 2492.98038924804
2985 2497.236723644196
2986 2501.256940014448
2987 2505.036402252965
2988 2508.576928533381
2989 2511.864424749588
2990 2514.935163512412
2991 2517.726871746105
2992 2520.275311969321
2993 2522.566790671618
2994 2524.595376366396
2995 2526.408272651362
2996 2528.00540487545
2997 2529.38701045012
2998 2530.580378552634
2999 2531.608483027154
3000 2532.477739905128
3001 2533.190306306445
3002 2533.779508203078
3003 2534.257859696992
3004 2534.670028937074
3005 2535.015942510227
3006 2535.287555911259
3007 2535.528027572323
3008 2535.742960486144
3009 2535.943030373869
3010 2536.11036942408
3011 2536.299823988862
3012 2536.507667203754
3013 2536.71856961614
3014 2536.950222350708
3015 2537.200485941763
3016 2537.479377114634
3017 2537.782698262757
3018 2538.103462293959
3019 2538.407193031645
3020 2538.714089575855
3021 2539.022842172707
3022 2539.352120502843
3023 2539.674839225181
3024 2539.965463668135
3025 2540.241522249456
3026 2540.496719097303
3027 2540.690012500628
3028 2540.858700683964
3029 2540.974958653445
3030 2541.040216185907
3031 2541.003173165763
3032 2540.900202294467
3033 2540.694261606714
3034 2540.376234982798
3035 2539.945145600293
3036 2539.415519401495
3037 2538.773028934917
3038 2538.025630449506
3039 2537.154351824995
3040 2536.131120865062
3041 2535.006099015528
3042 2533.743718229352
3043 2532.388157466747
3044 2530.88155535611
3045 2529.290267827354
3046 2527.545835803901
3047 2525.725539212078
3048 2523.828012156907
3049 2521.910691154619
3050 2519.892143672619
3051 2517.890203405456
3052 2515.884395884521
3053 2513.862264805559
3054 2511.902153033463
3055 2509.960219659429
3056 2508.063153341665
3057 2506.310975307218
3058 2504.724526574284
3059 2503.270137892956
3060 2501.977370592325
3061 2500.850813988503
3062 2500.008075706597
3063 2499.405466496008
3064 2499.08528892193
3065 2499.036035225796
3066 2499.315713813158
3067 2499.890784428664
3068 2500.800524855155
3069 2502.021679689911
3070 2503.586459282294
3071 2505.487183011995
3072 2507.721545317796
3073 2510.288905015803
3074 2513.143460538103
3075 2516.292484024753
3076 2519.685736399061
3077 2523.354124715448
3078 2527.202241659391
3079 2531.221046256204
3080 2535.404779917404
3081 2539.681129873285
3082 2544.020110545163
3083 2548.370529478183
3084 2552.74051950977
3085 2556.982858035935
3086 2561.143894368551
3087 2565.165152866653
3088 2568.951780221151
3089 2572.46326841822
3090 2575.690590496643
3091 2578.597139459085
3092 2581.147758899978
3093 2583.358842821645
3094 2585.113730681104
3095 2586.362404136543
3096 2587.145459487857
3097 2587.448270040769
3098 2587.27027212863
3099 2586.56666963764
3100 2585.329352589202
3101 2583.56648585508
3102 2581.330266481721
3103 2578.666019963287
3104 2575.604418670363
3105 2572.071675841831
3106 2568.199246518757
3107 2564.000677086252
3108 2559.497869889025
3109 2554.725193199733
3110 2549.70739403802
3111 2544.50643144096
3112 2539.259663488757
3113 2533.970143684429
3114 2528.659525036993
3115 2523.365236717793
3116 2518.157769485069
3117 2513.154316508112
3118 2508.256064466977
3119 2503.576683112928
3120 2499.185743762665
3121 2495.089680590243
3122 2491.298381765239
3123 2487.797812954574
3124 2484.619718689846
3125 2481.894237842829
3126 2479.477071947605
3127 2477.412406414453
3128 2475.683791810735
3129 2474.346908157345
3130 2473.32657633909
3131 2472.576749019204
3132 2472.084285624232
3133 2471.783762670942
3134 2471.814648698553
3135 2471.98499188768
3136 2472.272937358778
3137 2472.665922397191
3138 2473.104187202189
3139 2473.568819159547
3140 2473.985029549958
3141 2474.391676866842
3142 2474.717390587451
3143 2474.853564014014
3144 2474.751457274799
3145 2474.496781151573
3146 2473.934938984557
3147 2473.086795943159
3148 2471.918011447158
3149 2470.416104651267
3150 2468.52867661048
3151 2466.263899500339
3152 2463.623576595545
3153 2460.604164176025
3154 2457.138636802565
3155 2453.271227089961
3156 2449.029916461517
3157 2444.391207895703
3158 2439.413571113459
3159 2434.060096284948
3160 2428.406891828928
3161 2422.48168635988
3162 2416.269214521456
3163 2409.788398006572
3164 2403.127601666261
3165 2396.291116448419
3166 2389.34719934768
3167 2382.332054219707
3168 2375.235717795967
3169 2368.181675743053
3170 2361.170219680494
3171 2354.223452380852
3172 2347.426160064648
3173 2340.837583435317
3174 2334.385292283044
3175 2328.224285183071
3176 2322.381756033457
3177 2316.89850000455
3178 2311.729437982434
3179 2306.95192353334
3180 2302.595653454718
3181 2298.633796820639
3182 2295.104055411994
3183 2292.010695942459
3184 2289.372262013255
3185 2287.158879031614
3186 2285.374106166689
3187 2284.01883825736
3188 2283.06982711408
3189 2282.459283112584
3190 2282.232158526775
3191 2282.325430652461
3192 2282.683276724084
3193 2283.310231351137
3194 2284.192328675539
3195 2285.284157282691
3196 2286.520058463328
3197 2287.893768970632
3198 2289.369562712825
3199 2290.94581474387
3200 2292.568962971564
3201 2294.159987676536
3202 2295.742859711045
3203 2297.307795610336
3204 2298.809518071858
3205 2300.206970138688
3206 2301.480709590609
3207 2302.682431171766
3208 2303.671137047407
3209 2304.556165958845
3210 2305.251960987165
3211 2305.763200339623
3212 2306.123968118535
3213 2306.301108800193
3214 2306.363061988446
3215 2306.24174332738
3216 2305.960518384144
3217 2305.515095522825
3218 2304.889343942948
3219 2304.167605945276
3220 2303.350542674308
3221 2302.416666316689
3222 2301.459379004824
3223 2300.43820719742
3224 2299.390703631605
3225 2298.34111749414
3226 2297.309537103292
3227 2296.302985132695
3228 2295.37900974196
3229 2294.554211527068
3230 2293.768911713417
3231 2293.14936662616
3232 2292.706642707531
3233 2292.393778724609
3234 2292.291202392302
3235 2292.362908612914
3236 2292.687069405966
3237 2293.243167626025
3238 2294.004159337424
3239 2295.008254725688
3240 2296.290509832152
3241 2297.81694020577
3242 2299.624274853015
3243 2301.733790548532
3244 2304.074324847531
3245 2306.635925371214
3246 2309.515877051518
3247 2312.602189100943
3248 2315.93242313224
3249 2319.453970997776
3250 2323.217521123297
3251 2327.131484133162
3252 2331.173475179028
3253 2335.399729716524
3254 2339.68496410065
3255 2344.051069957698
3256 2348.482737398303
3257 2352.960030215678
3258 2357.383364392596
3259 2361.750886768579
3260 2366.068176553874
3261 2370.259233649877
3262 2374.283984529909
3263 2378.146152007288
3264 2381.799361017779
3265 2385.148759648952
3266 2388.214353264156
3267 2391.035691036825
3268 2393.527909238182
3269 2395.648941824921
3270 2397.402148476679
3271 2398.865734927397
3272 2399.905445546794
3273 2400.585074305043
3274 2400.889164498392
3275 2400.84052457296
3276 2400.394807431489
3277 2399.591614030172
3278 2398.437173568832
3279 2396.91979684343
3280 2395.073081091936
3281 2392.884849764886
3282 2390.411376454384
3283 2387.683918790526
3284 2384.702703764205
3285 2381.569080395804
3286 2378.231739357317
3287 2374.761223203667
3288 2371.203076636562
3289 2367.582764689425
3290 2363.912171541066
3291 2360.19778722646
3292 2356.50423275168
3293 2352.897308129302
3294 2349.381619552133
3295 2345.980572701399
3296 2342.725030443122
3297 2339.618653594811
3298 2336.671199431009
3299 2333.936924183517
3300 2331.405749133909
3301 2329.118063866986
3302 2327.057059406201
3303 2325.272376034924
3304 2323.732526514736
3305 2322.480755760235
3306 2321.48388287743
3307 2320.71981522455
3308 2320.260993927215
3309 2320.074009413674
3310 2320.088307906388
3311 2320.375687151683
3312 2320.852695539083
3313 2321.516228753038
3314 2322.366704641158
3315 2323.4170941752
3316 2324.65010907339
3317 2326.031139147216
3318 2327.535539955906
3319 2329.187888853403
3320 2330.993881310688
3321 2332.919441812047
3322 2334.940380923016
3323 2337.102042761991
3324 2339.337746276208
3325 2341.671841292557
3326 2344.121828330315
3327 2346.630059723581
3328 2349.243708075965
3329 2351.950717795233
3330 2354.75923552182
3331 2357.716662105767
3332 2360.733027194712
3333 2363.902621869515
3334 2367.177121220784
3335 2370.547466959626
3336 2374.078685110237
3337 2377.731269984301
3338 2381.496774040684
3339 2385.404851319258
3340 2389.46887844583
3341 2393.691204769349
3342 2398.038368917312
3343 2402.444812848208
3344 2407.011476144429
3345 2411.659543229259
3346 2416.386041240748
3347 2421.219473012601
3348 2426.136520474963
3349 2431.057479885544
3350 2436.115945916228
3351 2441.194794612552
3352 2446.341578984164
3353 2451.508906224714
3354 2456.744460622695
3355 2462.099300335447
3356 2467.502687818697
3357 2472.952580141797
3358 2478.435372491396
3359 2483.923925552838
3360 2489.452805060823
3361 2494.949275262676
3362 2500.515467213421
3363 2506.052025681061
3364 2511.595841488934
3365 2517.189661970516
3366 2522.779197248143
3367 2528.32827041497
3368 2533.819139215637
3369 2539.295838190439
3370 2544.753875927865
3371 2550.112716625506
3372 2555.369866888637
3373 2560.595151078857
3374 2565.644727204834
3375 2570.56607477529
3376 2575.289403930805
3377 2579.829822089813
3378 2584.151387923902
3379 2588.266077739874
3380 2592.144221083731
3381 2595.793488499915
3382 2599.213697833254
3383 2602.393400490614
3384 2605.280987366703
3385 2607.823303068094
3386 2610.106200779356
3387 2612.082783073943
3388 2613.807338230244
3389 2615.259995827709
3390 2616.350592752692
3391 2617.169247797476
3392 2617.688073465417
3393 2617.911158459905
3394 2617.86617950738
3395 2617.531280778557
3396 2616.966362933784
3397 2616.112790679727
3398 2615.048313539292
3399 2613.713765359159
3400 2612.180077460942
3401 2610.418372336675
3402 2608.476943397789
3403 2606.401837591572
3404 2604.229730557995
3405 2601.919639013186
3406 2599.538458215681
3407 2597.021417979312
3408 2594.509106227907
3409 2591.92085208744
3410 2589.319847780331
3411 2586.765931924861
3412 2584.215703876293
3413 2581.70577682685
3414 2579.20240247943
3415 2576.795685862193
3416 2574.502897480067
3417 2572.31173869595
3418 2570.194948093998
3419 2568.086997144097
3420 2566.109952903169
3421 2564.206571965661
3422 2562.430917840062
3423 2560.719070829288
3424 2559.197727922018
3425 2557.761644083945
3426 2556.432776178391
3427 2555.200773629805
3428 2554.143860320669
3429 2553.120160373212
3430 2552.143956707316
3431 2551.27102920482
3432 2550.476917676527
3433 2549.789659645508
3434 2549.256795045032
3435 2548.757901091879
3436 2548.343334512323
3437 2548.023355339245
3438 2547.842823758953
3439 2547.718474484986
3440 2547.764144984559
3441 2547.867185910268
3442 2548.162236974899
3443 2548.548175379703
3444 2549.007617433402
3445 2549.530083856133
3446 2550.182541001087
3447 2550.862610095225
3448 2551.665546680947
3449 2552.499110502971
3450 2553.413258497497
3451 2554.340542793951
3452 2555.276665372542
3453 2556.249893418611
3454 2557.201902713085
3455 2558.094281860345
3456 2558.947357210069
3457 2559.668245494069
3458 2560.260470912545
3459 2560.698391508191
3460 2560.91719355199
3461 2560.973401887551
3462 2560.770689990198
3463 2560.289995130342
3464 2559.528638461261
3465 2558.4803657983
3466 2557.063689543217
3467 2555.29038873512
3468 2553.153964877074
3469 2550.582343051783
3470 2547.588303448937
3471 2544.192657457189
3472 2540.353684866006
3473 2536.068278610881
3474 2531.406251508879
3475 2526.33587104665
3476 2520.812896381389
3477 2514.97544051464
3478 2508.809613679697
3479 2502.300525868328
3480 2495.520872804683
3481 2488.459731668809
3482 2481.222714878552
3483 2473.831215041623
3484 2466.361026779548
3485 2458.800791746216
3486 2451.234649109752
3487 2443.734245595034
3488 2436.307895650434
3489 2428.959463320378
3490 2421.815324497095
3491 2414.909381632493
3492 2408.266411639779
3493 2401.881837461705
3494 2395.860537824414
3495 2390.209432328145
3496 2384.94271887639
3497 2380.069555617283
3498 2375.604034790755
3499 2371.585368623445
3500 2368.013243795172
3501 2364.885962713729
3502 2362.229239624815
3503 2359.97017916915
3504 2358.100078864932
3505 2356.641192257349
3506 2355.528384045871
3507 2354.766994587041
3508 2354.297948693617
3509 2354.150144147955
3510 2354.207739364032
3511 2354.451249443068
3512 2354.870654276677
3513 2355.418048365319
3514 2356.046774718221
3515 2356.696695770318
3516 2357.384760928011
3517 2358.020642707627
3518 2358.612958815489
3519 2359.099026023292
3520 2359.446265914779
3521 2359.681774850622
3522 2359.721594514534
3523 2359.605159088126
3524 2359.287817983641
3525 2358.781827141
3526 2358.040442577332
3527 2357.110337869058
3528 2355.980479840306
3529 2354.68287827889
3530 2353.212199405165
3531 2351.543792670187
3532 2349.728247225856
3533 2347.760333376873
3534 2345.776198816111
3535 2343.694497436331
3536 2341.575895076584
3537 2339.455833634953
3538 2337.379594558641
3539 2335.366860542478
3540 2333.414429499456
3541 2331.561843335349
3542 2329.850876803674
3543 2328.31969936208
3544 2326.94880196386
3545 2325.790662957936
3546 2324.851469347353
3547 2324.104445427108
3548 2323.584753578029
3549 2323.267825069693
3550 2323.150016380992
3551 2323.245409973955
3552 2323.519883558949
3553 2323.965466084298
3554 2324.564970803894
3555 2325.290986765361
3556 2326.132396426041
3557 2327.053361341839
3558 2328.007398987069
3559 2329.009008305551
3560 2329.982862356791
3561 2330.953126622066
3562 2331.828027209407
3563 2332.624691869948
3564 2333.28537374669
3565 2333.814686244285
3566 2334.222961117427
3567 2334.428916838488
3568 2334.467171686028
3569 2334.246974611079
3570 2333.760488721137
3571 2333.038716689703
3572 2332.066063747757
3573 2330.829658835721
3574 2329.357445024468
3575 2327.66811913518
3576 2325.706762629846
3577 2323.535691390272
3578 2321.113050202168
3579 2318.531433253131
3580 2315.752122426702
3581 2312.849004173185
3582 2309.745782114299
3583 2306.572808163062
3584 2303.293519009816
3585 2299.895727407769
3586 2296.517331777792
3587 2293.09878208043
3588 2289.744484299061
3589 2286.427473327383
3590 2283.181596165515
3591 2280.121456989316
3592 2277.205564738744
3593 2274.439187742537
3594 2271.888841513505
3595 2269.543897316411
3596 2267.500796130962
3597 2265.724454693465
3598 2264.213936746609
3599 2263.044614653447
3600 2262.184464994361
3601 2261.685761892444
3602 2261.502659505844
3603 2261.584309326388
3604 2262.031805090789
3605 2262.855738220501
3606 2264.000890183989
3607 2265.476037340322
3608 2267.27946584725
3609 2269.412345565235
3610 2271.845333993045
3611 2274.549199278611
3612 2277.552659049769
3613 2280.903000451235
3614 2284.522650600124
3615 2288.347916272965
3616 2292.492688603819
3617 2296.863167727794
3618 2301.513949803916
3619 2306.354325098257
3620 2311.416143049915
3621 2316.781989958108
3622 2322.368039992544
3623 2328.133064659459
3624 2334.114805794068
3625 2340.309295031163
3626 2346.753718159133
3627 2353.325937041481
3628 2360.039760801617
3629 2366.961882938611
3630 2374.076362769612
3631 2381.34683902999
3632 2388.821692619352
3633 2396.415423274438
3634 2404.065705815087
3635 2411.853573102112
3636 2419.605837826882
3637 2427.371317276239
3638 2434.992746040202
3639 2442.505842574545
3640 2450.015749048987
3641 2457.30272818611
3642 2464.279807819865
3643 2471.071763434018
3644 2477.491097551988
3645 2483.645036755125
3646 2489.387725510707
3647 2494.715735245694
3648 2499.590159480019
3649 2504.014519734432
3650 2507.9758926134
3651 2511.437750614415
3652 2514.349972940567
3653 2516.797201224367
3654 2518.744967019443
3655 2520.202998968101
3656 2521.131401965791
3657 2521.628363833386
3658 2521.677526632777
3659 2521.302262388259
3660 2520.543944780059
3661 2519.418768519702
3662 2518.036602802459
3663 2516.384069270254
3664 2514.497835891609
3665 2512.408671278532
3666 2510.165500744919
3667 2507.839251877552
3668 2505.453442065736
3669 2503.072905818212
3670 2500.689684524329
3671 2498.414311326124
3672 2496.242523390667
3673 2494.198003738466
3674 2492.330873713973
3675 2490.685881925568
3676 2489.276594049182
3677 2488.142635230899
3678 2487.297020127969
3679 2486.696451526713
3680 2486.354573168383
3681 2486.370905303857
3682 2486.690549862428
3683 2487.302077319189
3684 2488.201004480394
3685 2489.429457044735
3686 2490.898666326668
3687 2492.63441934168
3688 2494.62962806792
3689 2496.801207959913
3690 2499.20417834533
3691 2501.774756379919
3692 2504.493914608223
3693 2507.319644066502
3694 2510.312030758265
3695 2513.354953448126
3696 2516.496082793714
3697 2519.664182541522
3698 2522.851651030588
3699 2526.062785295453
3700 2529.287413720774
3701 2532.47478792725
3702 2535.673034818305
3703 2538.808843524078
3704 2541.906417233052
3705 2544.874665909383
3706 2547.784773584953
3707 2550.698309018102
3708 2553.584920763242
3709 2556.364487400347
3710 2559.150869595001
3711 2561.908090001133
3712 2564.631514003097
3713 2567.316026667304
3714 2570.037268901619
3715 2572.711424135102
3716 2575.365152405059
3717 2578.032228165282
3718 2580.65911376036
3719 2583.334141942128
3720 2585.953812663754
3721 2588.599914497397
3722 2591.244636996124
3723 2593.908131372309
3724 2596.553743042723
3725 2599.190205982014
3726 2601.789893514113
3727 2604.345146556283
3728 2606.855041511754
3729 2609.252340141466
3730 2611.57518747065
3731 2613.78266706961
3732 2615.90039655898
3733 2617.882064361861
3734 2619.695347163485
3735 2621.390281435095
3736 2622.885464736697
3737 2624.106662385281
3738 2625.132185471387
3739 2625.913501854729
3740 2626.460102194367
3741 2626.73320935926
3742 2626.77678825174
3743 2626.511221839592
3744 2625.93211354493
3745 2625.088896698921
3746 2623.915436264079
3747 2622.403857419451
3748 2620.588554314766
3749 2618.451364382652
3750 2615.93095401963
3751 2613.060437544535
3752 2609.890541641278
3753 2606.37342643401
3754 2602.555292532803
3755 2598.408787279179
3756 2593.967420370461
3757 2589.221506162625
3758 2584.235743588868
3759 2578.940291503948
3760 2573.426290356202
3761 2567.683840277886
3762 2561.773508047213
3763 2555.678010742252
3764 2549.396906547776
3765 2543.044710051488
3766 2536.584472152683
3767 2530.104597917158
3768 2523.687274112851
3769 2517.301975636334
3770 2511.036687637139
3771 2504.893603958456
3772 2498.884045981407
3773 2493.135287723023
3774 2487.619849924161
3775 2482.423117548698
3776 2477.591328076308
3777 2473.040800103606
3778 2468.928379055997
3779 2465.267254523051
3780 2462.174112286636
3781 2459.539103794181
3782 2457.42828457545
3783 2455.848445018811
3784 2454.801470961254
3785 2454.406567443583
3786 2454.597853395733
3787 2455.426262965277
3788 2456.822030824475
3789 2458.765124683886
3790 2461.256895057909
3791 2464.270720905473
3792 2467.814090408448
3793 2471.801022187552
3794 2476.163164199073
3795 2480.982130338684
3796 2486.080341243034
3797 2491.432662031297
3798 2497.061363750664
3799 2502.806781904578
3800 2508.687232367027
3801 2514.659187095136
3802 2520.540116425651
3803 2526.388390785959
3804 2532.113852249834
3805 2537.621882765651
3806 2542.832495298362
3807 2547.71633482366
3808 2552.187957974409
3809 2556.287509076689
3810 2559.852821487714
3811 2562.875098578096
3812 2565.38111654336
3813 2567.275357556035
3814 2568.548317671682
3815 2569.203931737442
3816 2569.205434286499
3817 2568.568891490524
3818 2567.213035505501
3819 2565.289086923729
3820 2562.665491007815
3821 2559.436697348041
3822 2555.534373646402
3823 2550.974040441222
3824 2545.822893089068
3825 2540.189803896967
3826 2534.079142550862
3827 2527.458483017964
3828 2520.407425786064
3829 2512.986004259233
3830 2505.214714932404
3831 2497.190588159064
3832 2488.975915808403
3833 2480.606811563135
3834 2472.103315964946
3835 2463.573716062718
3836 2455.091033983996
3837 2446.798407866736
3838 2438.576093370211
3839 2430.536095045818
3840 2422.729907295443
3841 2415.152653922511
3842 2407.923350076835
3843 2401.036477276245
3844 2394.505742122954
3845 2388.385732844926
3846 2382.66889736255
3847 2377.38607767618
3848 2372.565006934063
3849 2368.21984814744
3850 2364.342783292128
3851 2360.896094655125
3852 2357.882033004496
3853 2355.29709156959
3854 2353.09209495287
3855 2351.20206935634
3856 2349.683425744945
3857 2348.476619115903
3858 2347.496704306597
3859 2346.748841907498
3860 2346.167543954287
3861 2345.759679799609
3862 2345.420576748229
3863 2345.103131717956
3864 2344.846615531848
3865 2344.615078190713
3866 2344.309686668682
3867 2343.875162785887
3868 2343.367528843573
3869 2342.676955529405
3870 2341.837460408478
3871 2340.843266235107
3872 2339.695965167676
3873 2338.388770701805
3874 2336.877011774171
3875 2335.210486856627
3876 2333.407892865678
3877 2331.421804453131
3878 2329.315299023503
3879 2327.103156511801
3880 2324.847070200654
3881 2322.549063891491
3882 2320.20467543829
3883 2317.845522761791
3884 2315.577386233541
3885 2313.315111778566
3886 2311.166728894138
3887 2309.149603284361
3888 2307.281554841019
3889 2305.638121621247
3890 2304.200269184922
3891 2302.975662972247
3892 2302.016056334561
3893 2301.281543632977
3894 2300.848952041461
3895 2300.735261326915
3896 2300.85949569398
3897 2301.321887530384
3898 2302.119238962413
3899 2303.252010645974
3900 2304.718052492025
3901 2306.503849903262
3902 2308.682777066401
3903 2311.126283188163
3904 2313.89320681517
3905 2316.950417169765
3906 2320.270127556166
3907 2323.830668769704
3908 2327.643537205781
3909 2331.6562408234
3910 2335.84508931371
3911 2340.18937869215
3912 2344.657908106523
3913 2349.201446692568
3914 2353.839591867529
3915 2358.559746236632
3916 2363.311206930223
3917 2368.013352103849
3918 2372.678505085566
3919 2377.278289301706
3920 2381.821104226237
3921 2386.227210610495
3922 2390.502909657373
3923 2394.653511759522
3924 2398.60238690149
3925 2402.339791803916
3926 2405.894471984507
3927 2409.237322446894
3928 2412.339211522948
3929 2415.195629592534
3930 2417.816027185072
3931 2420.231063469628
3932 2422.409385257044
3933 2424.35087556485
3934 2426.031854122889
3935 2427.527892214276
3936 2428.819294719249
3937 2429.961566630455
3938 2430.89405215838
3939 2431.708221944215
3940 2432.429252173514
3941 2433.054534941691
3942 2433.674656343477
3943 2434.237105413329
3944 2434.82521771279
3945 2435.426045115753
3946 2436.100345213837
3947 2436.891532898745
3948 2437.770036836007
3949 2438.794060338235
3950 2439.942983509039
3951 2441.268490820995
3952 2442.770250056569
3953 2444.439802376191
3954 2446.314446287107
3955 2448.359547966591
3956 2450.590330618608
3957 2452.992261291872
3958 2455.599904586552
3959 2458.324048544397
3960 2461.177521885644
3961 2464.079900289517
3962 2467.056035342427
3963 2470.123538383373
3964 2473.187564418998
3965 2476.233083306912
3966 2479.191840762732
3967 2482.054545150019
3968 2484.756194920627
3969 2487.292718356407
3970 2489.553465344264
3971 2491.53577431218
3972 2493.271269909239
3973 2494.681021687785
3974 2495.745025923945
3975 2496.414394327951
3976 2496.660687448182
3977 2496.52641593667
3978 2495.995954488347
3979 2495.008879698499
3980 2493.628326803243
3981 2491.796837532778
3982 2489.575320263161
3983 2486.93591300359
3984 2483.920096934095
3985 2480.512052755286
3986 2476.778961937466
3987 2472.741960243711
3988 2468.426487949103
3989 2463.908006834718
3990 2459.212524581518
3991 2454.347921772949
3992 2449.413557973684
3993 2444.37683902993
3994 2439.355375488013
3995 2434.377212005798
3996 2429.456254373325
3997 2424.622466034
3998 2419.965297400908
3999 2415.511491467157
4000 2411.289421272158
4001 2407.332801190287
4002 2403.686752570893
4003 2400.361819627063
4004 2397.370268686278
4005 2394.735516928106
4006 2392.459482979064
4007 2390.560065593718
4008 2389.037387714565
4009 2387.879847713443
4010 2387.11910596234
4011 2386.737285843812
4012 2386.730746652797
4013 2387.073457058227
4014 2387.768774375861
4015 2388.801341414775
4016 2390.120500275772
4017 2391.730580093878
4018 2393.617668698135
4019 2395.778730643827
4020 2398.18990925531
4021 2400.848757075172
4022 2403.713061784293
4023 2406.779211742694
4024 2410.000013843949
4025 2413.391379592442
4026 2416.950855673413
4027 2420.653526370359
4028 2424.521707554686
4029 2428.48402682248
4030 2432.555084392362
4031 2436.719118492391
4032 2440.957373592475
4033 2445.284598589137
4034 2449.671959540978
4035 2454.073849307785
4036 2458.506700821769
4037 2462.966359897433
4038 2467.435695479911
4039 2471.842258119997
4040 2476.258933453116
4041 2480.618777800493
4042 2484.91754900361
4043 2489.126852880289
4044 2493.198747456017
4045 2497.164736950953
4046 2501.006776795687
4047 2504.726524653859
4048 2508.293917542621
4049 2511.620206712606
4050 2514.761806662515
4051 2517.710688542848
4052 2520.407312949805
4053 2522.906650956083
4054 2525.112880377939
4055 2527.112987983507
4056 2528.849568914767
4057 2530.28609846551
4058 2531.455537622957
4059 2532.295318981698
4060 2532.836954563699
4061 2533.12816918108
4062 2533.064093403104
4063 2532.699060582199
4064 2531.958273482498
4065 2530.892761953539
4066 2529.520142043591
4067 2527.833578106819
4068 2525.806595266424
4069 2523.445977782355
4070 2520.764948232687
4071 2517.766396470948
4072 2514.51167975102
4073 2511.01010477148
4074 2507.254901310814
4075 2503.322018888673
4076 2499.193408669939
4077 2494.865000631585
4078 2490.470032403387
4079 2485.920972427535
4080 2481.283807474185
4081 2476.607699520699
4082 2471.909247418457
4083 2467.188674337507
4084 2462.552359645148
4085 2458.018375729385
4086 2453.664704346821
4087 2449.456981709643
4088 2445.459719679624
4089 2441.696327520922
4090 2438.1961011691
4091 2435.004159877831
4092 2432.186289103145
4093 2429.703745044665
4094 2427.670554536498
4095 2426.023929998152
4096 2424.839036157298
4097 2424.123444084287
4098 2423.804408561929
4099 2423.921206150665
4100 2424.486292272505
4101 2425.553784845226
4102 2427.074647931959
4103 2428.970767086816
4104 2431.237800699791
4105 2433.888368453434
4106 2436.86241039953
4107 2440.101366780809
4108 2443.589567463618
4109 2447.354016158058
4110 2451.297414619861
4111 2455.363093405685
4112 2459.505784578821
4113 2463.662148948124
4114 2467.846340537955
4115 2472.011866533374
4116 2476.093594054288
4117 2480.05202966883
4118 2483.872428334431
4119 2487.462521002674
4120 2490.842482515523
4121 2493.939850221056
4122 2496.792239712807
4123 2499.285814753721
4124 2501.436664782661
4125 2503.254141559984
4126 2504.683352657556
4127 2505.751930586748
4128 2506.433834638534
4129 2506.734307227635
4130 2506.663980179041
4131 2506.196237179416
4132 2505.35361533122
4133 2504.184300178526
4134 2502.680451798478
4135 2500.906130251315
4136 2498.842922921283
4137 2496.531042473038
4138 2493.987321001839
4139 2491.301123897976
4140 2488.42120913579
4141 2485.435768561581
4142 2482.357306193938
4143 2479.21518804781
4144 2476.052466972535
4145 2472.934730622555
4146 2469.847407872441
4147 2466.809640375234
4148 2463.861341578057
4149 2461.042460202743
4150 2458.353292032546
4151 2455.802095119427
4152 2453.375377658175
4153 2451.079445228266
4154 2448.934962326236
4155 2446.967776877072
4156 2445.215598202586
4157 2443.620127760857
4158 2442.148249944993
4159 2440.806665241776
4160 2439.614898152831
4161 2438.528868129432
4162 2437.554025169859
4163 2436.689898128204
4164 2435.91468188652
4165 2435.184094012296
4166 2434.482735395818
4167 2433.833456813124
4168 2433.194106886124
4169 2432.550956832612
4170 2431.877556451547
4171 2431.197882449491
4172 2430.491629940826
4173 2429.739565744794
4174 2428.930668961307
4175 2428.093100946895
4176 2427.197809643731
4177 2426.28881222494
4178 2425.330671264123
4179 2424.338804293283
4180 2423.284621328899
4181 2422.21868977245
4182 2421.12206120579
4183 2420.016569269822
4184 2418.940606590607
4185 2417.889440003919
4186 2416.931797220722
4187 2415.987124413277
4188 2415.161116221797
4189 2414.448803568703
4190 2413.871250670857
4191 2413.419776325779
4192 2413.134023954703
4193 2412.934495884349
4194 2412.898461606396
4195 2413.033104868322
4196 2413.364734232522
4197 2413.860009262039
4198 2414.516316476017
4199 2415.353572705334
4200 2416.37559519887
4201 2417.56046880298
4202 2418.893064287951
4203 2420.330474416291
4204 2421.868240134038
4205 2423.511058376032
4206 2425.242090738619
4207 2426.986336692914
4208 2428.785188224789
4209 2430.603207722884
4210 2432.398219932263
4211 2434.156984774839
4212 2435.859871824405
4213 2437.482540985493
4214 2438.966244113393
4215 2440.30717002221
4216 2441.50544691154
4217 2442.491946281869
4218 2443.303261479953
4219 2443.943972833118
4220 2444.35288475715
4221 2444.508461323195
4222 2444.465489807916
4223 2444.161111280026
4224 2443.606909973846
4225 2442.807100110238
4226 2441.780902287472
4227 2440.497449901608
4228 2438.997240452336
4229 2437.30742078112
4230 2435.376620479526
4231 2433.287576730559
4232 2431.009142022733
4233 2428.575608393632
4234 2425.962986345758
4235 2423.228864048817
4236 2420.438149680949
4237 2417.542821791531
4238 2414.606048969587
4239 2411.671106193187
4240 2408.693351378579
4241 2405.692950203567
4242 2402.719999166789
4243 2399.844309407406
4244 2396.966688209262
4245 2394.205704508187
4246 2391.532802066497
4247 2388.990295327998
4248 2386.57072860902
4249 2384.202104277957
4250 2381.996214903261
4251 2379.987633260437
4252 2378.152780134134
4253 2376.498813499598
4254 2375.004799557254
4255 2373.653562419194
4256 2372.502898941806
4257 2371.535750619061
4258 2370.699637350408
4259 2370.007233578104
4260 2369.467661594714
4261 2369.031875185502
4262 2368.724880948922
4263 2368.52701244384
4264 2368.387103592891
4265 2368.293056106178
4266 2368.19672512054
4267 2368.179644289094
4268 2368.129483412164
4269 2367.997511279231
4270 2367.871557178943
4271 2367.720935091673
4272 2367.485803151058
4273 2367.196690853903
4274 2366.74949363335
4275 2366.234112040866
4276 2365.604260625967
4277 2364.847167386597
4278 2364.025941113453
4279 2363.090354344446
4280 2362.071143555596
4281 2360.935215038213
4282 2359.71925916925
4283 2358.469156583942
4284 2357.158316123476
4285 2355.86285179237
4286 2354.526054667359
4287 2353.256117195708
4288 2352.013334596607
4289 2350.860058541706
4290 2349.813824620677
4291 2348.954277700138
4292 2348.218937580555
4293 2347.646001047006
4294 2347.297298034276
4295 2347.230786638346
4296 2347.434412911331
4297 2347.93406314546
4298 2348.708784046302
4299 2349.786604257186
4300 2351.217940513183
4301 2352.956201215253
4302 2355.012169188615
4303 2357.475028147689
4304 2360.291586222447
4305 2363.480077065358
4306 2366.936983216414
4307 2370.727158174225
4308 2374.861836221854
4309 2379.290974188851
4310 2384.004168650059
4311 2388.940043603521
4312 2394.126545449734
4313 2399.48648596596
4314 2405.075222884156
4315 2410.757878184384
4316 2416.546439006996
4317 2422.352520728749
4318 2428.241944610317
4319 2434.205310781221
4320 2440.178794152055
4321 2446.178419862373
4322 2452.055739418437
4323 2457.902999704015
4324 2463.631017573799
4325 2469.271413280541
4326 2474.70595034676
4327 2479.976651888238
4328 2485.097392877701
4329 2490.039110147672
4330 2494.828392850312
4331 2499.462282681126
4332 2503.837637883647
4333 2508.025653039153
4334 2512.003994937637
4335 2515.750562992846
4336 2519.291771232113
4337 2522.57682114594
4338 2525.599695608423
4339 2528.412810796111
4340 2530.999012613774
4341 2533.324407010324
4342 2535.336259842805
4343 2537.139362681767
4344 2538.702014162427
4345 2539.918364164976
4346 2540.869853571965
4347 2541.599516445325
4348 2542.005111515329
4349 2542.145321797277
4350 2542.061283137331
4351 2541.691604739084
4352 2541.005999667551
4353 2540.062686348378
4354 2538.865217508718
4355 2537.472135359304
4356 2535.870571895839
4357 2534.058126502621
4358 2532.045836112043
4359 2529.796749272953
4360 2527.392289903927
4361 2524.919931848269
4362 2522.294601948098
4363 2519.653403230473
4364 2516.971107140818
4365 2514.278413215694
4366 2511.638751873615
4367 2509.067241984959
4368 2506.515675934744
4369 2504.066139304132
4370 2501.743720189193
4371 2499.58160258396
4372 2497.599564799696
4373 2495.770939982292
4374 2494.178637127554
4375 2492.833373326617
4376 2491.665136171482
4377 2490.72217734675
4378 2490.031425162083
4379 2489.595933663748
4380 2489.365663082153
4381 2489.35674880738
4382 2489.614094462602
4383 2490.066459755796
4384 2490.743952384963
4385 2491.517260449453
4386 2492.453971872662
4387 2493.520798171546
4388 2494.685205504366
4389 2495.837107035866
4390 2496.997611803909
4391 2498.128372200306
4392 2499.196287869796
4393 2500.138008796206
4394 2500.993046002428
4395 2501.608643023478
4396 2501.964942554446
4397 2502.112897272779
4398 2501.952790346003
4399 2501.48618205401
4400 2500.717631054936
4401 2499.599567005213
4402 2498.099576746351
4403 2496.177046672673
4404 2493.897990229331
4405 2491.201649380404
4406 2488.183392566678
4407 2484.829298877982
4408 2481.151614702195
4409 2477.203891789119
4410 2473.036292401143
4411 2468.65332018758
4412 2464.096354384588
4413 2459.443672124329
4414 2454.745699737198
4415 2450.065064625676
4416 2445.417416114913
4417 2440.89228467239
4418 2436.532529397271
4419 2432.446778101349
4420 2428.691441073991
4421 2425.313742780042
4422 2422.300024246471
4423 2419.688925170648
4424 2417.533557692468
4425 2415.883866077886
4426 2414.767909939168
4427 2414.244626812097
4428 2414.307145505757
4429 2414.957200974979
4430 2416.231682474391
4431 2418.079431668427
4432 2420.489061528674
4433 2423.465682895124
4434 2426.93289288962
4435 2430.891969564552
4436 2435.353587256665
4437 2440.187048218854
4438 2445.381872438832
4439 2450.959982392513
4440 2456.774546036153
4441 2462.769110802957
4442 2468.888149369167
4443 2475.03257855084
4444 2481.22093573689
4445 2487.329305335532
4446 2493.395156039034
4447 2499.27648672888
4448 2504.993685175675
4449 2510.415362034716
4450 2515.563649291276
4451 2520.389794679992
4452 2524.836008549797
4453 2528.870834648325
4454 2532.496143788411
4455 2535.655054845945
4456 2538.380839755356
4457 2540.627000635708
4458 2542.366226150946
4459 2543.610072458564
4460 2544.384433982269
4461 2544.655148851874
4462 2544.424608473197
4463 2543.769845470305
4464 2542.62531995357
4465 2541.074995376156
4466 2539.132241002731
4467 2536.835082390945
4468 2534.153342184153
4469 2531.138025387637
4470 2527.851813922297
4471 2524.311242524102
4472 2520.594198769432
4473 2516.677213789067
4474 2512.606011614923
4475 2508.421083572606
4476 2504.170132339259
4477 2499.862603401655
4478 2495.532464211485
4479 2491.191453558555
4480 2486.890866582358
4481 2482.604032822422
4482 2478.399637562956
4483 2474.298447148819
4484 2470.322550643402
4485 2466.46194166975
4486 2462.753613814136
4487 2459.142298480966
4488 2455.683846371076
4489 2452.391319853612
4490 2449.210853122554
4491 2446.210344431677
4492 2443.32755288573
4493 2440.599852471093
4494 2438.009580790366
4495 2435.551625425825
4496 2433.259755095524
4497 2431.083777834963
4498 2429.042807272434
4499 2427.084603075841
4500 2425.264969626849
4501 2423.563157138602
4502 2421.948983223564
4503 2420.430726091244
4504 2419.050592359394
4505 2417.779328486501
4506 2416.659174576333
4507 2415.626650326463
4508 2414.701510835432
4509 2413.85842162965
4510 2413.128326762187
4511 2412.553034486256
4512 2412.017175724776
4513 2411.62489142916
4514 2411.426631916622
4515 2411.324090406416
4516 2411.314335977281
4517 2411.42532538282
4518 2411.680940357793
4519 2412.073812116652
4520 2412.584292643678
4521 2413.22833722282
4522 2413.985607023583
4523 2414.896998546613
4524 2415.911871895029
4525 2417.023529765614
4526 2418.307318722804
4527 2419.680745661445
4528 2421.161590087639
4529 2422.751179183923
4530 2424.438945903381
4531 2426.182965799793
4532 2427.988126238933
4533 2429.831214378014
4534 2431.758807927436
4535 2433.710956883725
4536 2435.622301009031
4537 2437.521809531913
4538 2439.396091193701
4539 2441.266850434597
4540 2443.129184671749
4541 2444.899832533957
4542 2446.668839775733
4543 2448.360632500491
4544 2450.002529090363
4545 2451.583585221174
4546 2453.038333113916
4547 2454.42569280583
4548 2455.749232476468
4549 2456.993563636458
4550 2458.145492587065
4551 2459.264546675339
4552 2460.263012970848
4553 2461.181685068439
4554 2462.066745298865
4555 2462.855482516414
4556 2463.577983496289
4557 2464.260523882503
4558 2464.910996489774
4559 2465.520801880717
4560 2466.138594215901
4561 2466.710395567816
4562 2467.259956386328
4563 2467.854536790886
4564 2468.498085951687
4565 2469.177925369411
4566 2469.916087295134
4567 2470.680231362299
4568 2471.520629608091
4569 2472.44079603659
4570 2473.37650769261
4571 2474.350157820094
4572 2475.35957765616
4573 2476.49356567445
4574 2477.702083524169
4575 2478.955563739524
4576 2480.261518068862
4577 2481.655691352376
4578 2483.100562862234
4579 2484.534840932222
4580 2486.002024500819
4581 2487.385530232039
4582 2488.751008634637
4583 2490.109536798437
4584 2491.354482774057
4585 2492.564707134445
4586 2493.665373982188
4587 2494.639352031229
4588 2495.511724764704
4589 2496.233605875912
4590 2496.817094598538
4591 2497.246763428069
4592 2497.507478039
4593 2497.566546837385
4594 2497.463830127138
4595 2497.189487598979
4596 2496.719746608825
4597 2496.086272242264
4598 2495.231841581537
4599 2494.22324883903
4600 2493.032806000233
4601 2491.669405402943
4602 2490.075585137929
4603 2488.354437159596
4604 2486.473064034186
4605 2484.468183906475
4606 2482.346487233208
4607 2480.102034614945
4608 2477.759745267085
4609 2475.438478402855
4610 2473.043915488075
4611 2470.646978870454
4612 2468.261867824508
4613 2465.887932784036
4614 2463.569296843025
4615 2461.388063105882
4616 2459.324457508676
4617 2457.415550062008
4618 2455.672452317404
4619 2454.119328743246
4620 2452.832095332996
4621 2451.811662934582
4622 2451.128463619713
4623 2450.689561434387
4624 2450.625037515803
4625 2450.894284416113
4626 2451.549907077669
4627 2452.696775490859
4628 2454.249309364845
4629 2456.146088380171
4630 2458.402816542372
4631 2461.09965409951
4632 2464.176452422882
4633 2467.645924897004
4634 2471.51586019955
4635 2475.742353578008
4636 2480.294448657148
4637 2485.177277892258
4638 2490.340566383105
4639 2495.773032734283
4640 2501.371189878151
4641 2507.197665717545
4642 2513.08325628086
4643 2519.090877203172
4644 2525.126263203129
4645 2531.117040455541
4646 2537.11299579013
4647 2542.92809749743
4648 2548.624377632245
4649 2554.096685138667
4650 2559.343245513087
4651 2564.216104432239
4652 2568.754680309809
4653 2572.947393706978
4654 2576.740133465765
4655 2580.05306481521
4656 2582.818198420447
4657 2585.087625440363
4658 2586.822803748427
4659 2588.083336759788
4660 2588.777580873116
4661 2588.90786000622
4662 2588.439225408271
4663 2587.417057928209
4664 2585.816203232525
4665 2583.625186053936
4666 2580.981708529195
4667 2577.805970227283
4668 2574.190474475724
4669 2570.132276158008
4670 2565.608258187156
4671 2560.632728740817
4672 2555.310688049817
4673 2549.700718369917
4674 2543.851676317031
4675 2537.773053549825
4676 2531.446852599067
4677 2524.942796701837
4678 2518.334367375483
4679 2511.557223545911
4680 2504.711815829819
4681 2497.847629085391
4682 2490.930297541078
4683 2484.086487202403
4684 2477.286206251335
4685 2470.586806358175
4686 2463.998932983714
4687 2457.60314800205
4688 2451.409536783058
4689 2445.426883513206
4690 2439.714610635432
4691 2434.294914255082
4692 2429.176016104494
4693 2424.384520843451
4694 2419.958888146729
4695 2415.824795827655
4696 2412.087630959863
4697 2408.704104961643
4698 2405.6873738753
4699 2403.058128401856
4700 2400.802856397728
4701 2398.938484642573
4702 2397.462116463707
4703 2396.372064474664
4704 2395.631846404051
4705 2395.262505946788
4706 2395.248108232534
4707 2395.524488633639
4708 2396.148261466279
4709 2397.049041636402
4710 2398.238707200184
4711 2399.65411361487
4712 2401.315303968077
4713 2403.133717520434
4714 2405.115314493485
4715 2407.254151524868
4716 2409.467685505359
4717 2411.746211882935
4718 2413.997850948354
4719 2416.237779584472
4720 2418.398199019121
4721 2420.49809101274
4722 2422.494345788448
4723 2424.323297382243
4724 2426.00119943943
4725 2427.454845017109
4726 2428.710443844104
4727 2429.733134446531
4728 2430.553809043127
4729 2431.122573803668
4730 2431.397549442043
4731 2431.436411785381
4732 2431.212503073383
4733 2430.764973139362
4734 2430.02213269852
4735 2429.05641571904
4736 2427.868042275094
4737 2426.52452811233
4738 2425.002822121137
4739 2423.32631689686
4740 2421.513864929623
4741 2419.639749965805
4742 2417.694908705475
4743 2415.723121786417
4744 2413.77684097697
4745 2411.890656638237
4746 2410.062615029925
4747 2408.332105421805
4748 2406.713306339419
4749 2405.232157835217
4750 2403.883152153911
4751 2402.721423693405
4752 2401.793358914739
4753 2401.179475492598
4754 2400.791783820609
4755 2400.62355280893
4756 2400.7755056748
4757 2401.218219966651
4758 2401.942975165146
4759 2402.923391578576
4760 2404.213322715892
4761 2405.815532860615
4762 2407.719442962178
4763 2409.903614712492
4764 2412.416475252747
4765 2415.234978470774
4766 2418.302917667915
4767 2421.662118018614
4768 2425.224599133498
4769 2429.093043765718
4770 2433.166179807656
4771 2437.500279958286
4772 2441.968796854285
4773 2446.632820994096
4774 2451.451847265987
4775 2456.432033462255
4776 2461.523370560187
4777 2466.741189078524
4778 2472.073716525023
4779 2477.477805625483
4780 2482.868915828301
4781 2488.256200298198
4782 2493.686833688039
4783 2499.094107339884
4784 2504.44264091586
4785 2509.678197720155
4786 2514.812987590143
4787 2519.819765564171
4788 2524.65519204725
4789 2529.240687409835
4790 2533.615760407067
4791 2537.809510945609
4792 2541.698228743407
4793 2545.230508219879
4794 2548.411687759062
4795 2551.20900071954
4796 2553.59426890554
4797 2555.507083891961
4798 2556.955723769117
4799 2557.952940157522
4800 2558.49738764519
4801 2558.444480846089
4802 2557.863552971025
4803 2556.760687613826
4804 2555.14482805465
4805 2552.971663456828
4806 2550.218447179702
4807 2546.965541867889
4808 2543.185501245288
4809 2538.862694197378
4810 2534.056736886578
4811 2528.701797935424
4812 2522.845248438274
4813 2516.600525269239
4814 2509.882666628302
4815 2502.84922718379
4816 2495.441535723359
4817 2487.749243991658
4818 2479.7992134776
4819 2471.612246844762
4820 2463.246954116068
4821 2454.693498423078
4822 2446.110844388931
4823 2437.445360921471
4824 2428.854475927481
4825 2420.314813676615
4826 2411.901038689751
4827 2403.617827480463
4828 2395.619097161791
4829 2387.820059028443
4830 2380.409614528083
4831 2373.30023364075
4832 2366.599782555074
4833 2360.359681832089
4834 2354.549359873047
4835 2349.207458854407
4836 2344.43472006547
4837 2340.200567834896
4838 2336.602570383374
4839 2333.624244279211
4840 2331.240333485859
4841 2329.487311980922
4842 2328.368912512608
4843 2327.869031377641
4844 2327.997675242917
4845 2328.711048300439
4846 2330.072934397577
4847 2331.966089837701
4848 2334.48620374755
4849 2337.470069607316
4850 2340.950528258617
4851 2344.896597621038
4852 2349.271718680976
4853 2354.051921932478
4854 2359.163157235761
4855 2364.570602965483
4856 2370.203527389314
4857 2376.020794751798
4858 2381.96374660608
4859 2387.997844950903
4860 2394.066189144808
4861 2400.174934500323
4862 2406.220798539297
4863 2412.123113115758
4864 2417.90522770028
4865 2423.538660683267
4866 2428.95395123286
4867 2434.142301213572
4868 2439.086103991927
4869 2443.795998118881
4870 2448.24737355529
4871 2452.39950024369
4872 2456.235770471841
4873 2459.772665570577
4874 2463.042210585131
4875 2466.000735776655
4876 2468.668847517071
4877 2471.059397837359
4878 2473.175506543995
4879 2475.069172927881
4880 2476.698058982465
4881 2478.152539324666
4882 2479.389799298688
4883 2480.398021860269
4884 2481.23344773803
4885 2481.90899259252
4886 2482.461998852674
4887 2482.88318275804
4888 2483.213150973817
4889 2483.427600084868
4890 2483.557341696361
4891 2483.636098249181
4892 2483.641965522585
4893 2483.653321793344
4894 2483.599839458966
4895 2483.520600547534
4896 2483.439215355103
4897 2483.344004502503
4898 2483.261179940026
4899 2483.197817869547
4900 2483.195604065188
4901 2483.197773992101
4902 2483.234257172008
4903 2483.323006211543
4904 2483.492205135714
4905 2483.716477614204
4906 2483.96893315415
4907 2484.271142811658
4908 2484.661719900015
4909 2485.156366394938
4910 2485.71913867688
4911 2486.377674677933
4912 2487.118806538555
4913 2487.958750696644
4914 2488.887554327364
4915 2489.876477358081
4916 2490.937016212902
4917 2492.054443033633
4918 2493.309558163172
4919 2494.636282572449
4920 2496.059556522274
4921 2497.544510619372
4922 2499.116873146491
4923 2500.68458001284
4924 2502.310366688858
4925 2503.994584029088
4926 2505.753383863765
4927 2507.426404007512
4928 2509.13395057253
4929 2510.82079369332
4930 2512.447218103406
4931 2514.057671753106
4932 2515.567761479823
4933 2517.036381186062
4934 2518.362293859029
4935 2519.586422089636
4936 2520.694767634528
4937 2521.630962502016
4938 2522.440365273777
4939 2523.032974067577
4940 2523.452399811157
4941 2523.672246189483
4942 2523.687229396054
4943 2523.509934531708
4944 2523.128825232998
4945 2522.514578172487
4946 2521.710260707894
4947 2520.694941856821
4948 2519.486693409738
4949 2518.106370867085
4950 2516.570713595223
4951 2514.853107330581
4952 2513.018173455376
4953 2511.01437467809
4954 2508.920213265683
4955 2506.646529822675
4956 2504.311467115636
4957 2501.954229040703
4958 2499.531517710071
4959 2497.07279351947
4960 2494.598746541947
4961 2492.119721701411
4962 2489.645851506264
4963 2487.182166441547
4964 2484.769438316185
4965 2482.400099015876
4966 2480.042851943098
4967 2477.783823742722
4968 2475.584773888897
4969 2473.440368933233
4970 2471.358529666757
4971 2469.361521325502
4972 2467.412806607795
4973 2465.543705793593
4974 2463.774426937198
4975 2462.066183112527
4976 2460.475888312134
4977 2459.013105969429
4978 2457.632791922909
4979 2456.351389688489
4980 2455.155298771891
4981 2454.043545661732
4982 2453.059399286392
4983 2452.195140779754
4984 2451.480662090584
4985 2450.930034861932
4986 2450.530522433468
4987 2450.296670085039
4988 2450.266587077748
4989 2450.405989788685
4990 2450.721047356049
4991 2451.265236616971
4992 2451.981853117596
4993 2452.91332034264
4994 2454.073096119321
4995 2455.457493652004
4996 2457.082857328086
4997 2458.905564154071
4998 2460.977801016193
4999 2463.283102680403
5000 2465.82625759415
5001 2468.579314872748
5002 2471.535007916839
5003 2474.698203162065
5004 2478.071903951539
5005 2481.608560846043
5006 2485.291167739161
5007 2489.119693777839
5008 2493.088583638954
5009 2497.151089714601
5010 2501.23844565783
5011 2505.366933718879
5012 2509.526964349777
5013 2513.620152128628
5014 2517.704683997813
5015 2521.725961212001
5016 2525.692435319885
5017 2529.532248761428
5018 2533.189307505781
5019 2536.682590788866
5020 2539.977105806298
5021 2543.038989216441
5022 2545.857013143313
5023 2548.421897707532
5024 2550.701270785008
5025 2552.647856242498
5026 2554.300174411114
5027 2555.574090046622
5028 2556.508519312114
5029 2557.071515646467
5030 2557.240944698362
5031 2557.014283165703
5032 2556.367876626443
5033 2555.307518266747
5034 2553.833417477289
5035 2551.958176028349
5036 2549.674367015751
5037 2547.011603923723
5038 2543.915954082066
5039 2540.436574327991
5040 2536.544534299127
5041 2532.301459224288
5042 2527.75220584711
5043 2522.786869537753
5044 2517.397369821748
5045 2511.761618504988
5046 2505.801238673464
5047 2499.586988373388
5048 2493.106752992385
5049 2486.3534875845
5050 2479.411916914612
5051 2472.29618818992
5052 2465.017537346022
5053 2457.646317861906
5054 2450.178266108773
5055 2442.639136964056
5056 2435.108397023531
5057 2427.663885603919
5058 2420.30073066631
5059 2413.049295414835
5060 2405.900725952946
5061 2398.936294136137
5062 2392.257795363306
5063 2385.805659798101
5064 2379.675441003649
5065 2373.919608430585
5066 2368.425875106023
5067 2363.385108415431
5068 2358.858320657996
5069 2354.73754512773
5070 2351.091174729388
5071 2347.959024218732
5072 2345.326220256955
5073 2343.167053763316
5074 2341.596904220577
5075 2340.567708201009
5076 2340.043247449408
5077 2340.044742873498
5078 2340.53355319401
5079 2341.494766535238
5080 2342.863161132944
5081 2344.673718883393
5082 2346.79812375376
5083 2349.237210086834
5084 2351.991131139309
5085 2355.057104867803
5086 2358.320498137912
5087 2361.86926459071
5088 2365.634163718027
5089 2369.518487456708
5090 2373.526728298994
5091 2377.627247540359
5092 2381.895776738193
5093 2386.210419870058
5094 2390.558137743127
5095 2394.927626880778
5096 2399.362971328493
5097 2403.886615796666
5098 2408.302933154434
5099 2412.778872188753
5100 2417.243022367623
5101 2421.720048380945
5102 2426.193042110772
5103 2430.638447183568
5104 2435.073013477348
5105 2439.516269221657
5106 2443.989105871885
5107 2448.435958565169
5108 2452.891455832543
5109 2457.380415504434
5110 2461.846918213171
5111 2466.380128517547
5112 2470.935240932994
5113 2475.500291778636
5114 2480.088573795105
5115 2484.73569752891
5116 2489.388055699926
5117 2494.162098609694
5118 2498.939332173198
5119 2503.73760431702
5120 2508.594606815668
5121 2513.465465898802
5122 2518.343376705979
5123 2523.196346256171
5124 2527.966481219491
5125 2532.687091072618
5126 2537.385670469479
5127 2541.910421441492
5128 2546.296057146331
5129 2550.64145904791
5130 2554.770771545497
5131 2558.654081187525
5132 2562.255528791296
5133 2565.613448604641
5134 2568.691314421112
5135 2571.501494560429
5136 2573.970678078
5137 2576.027737858511
5138 2577.769301244889
5139 2579.090818983743
5140 2579.977303226969
5141 2580.540671823399
5142 2580.640401421985
5143 2580.327270485725
5144 2579.592398709806
5145 2578.458684124144
5146 2576.980504941841
5147 2575.125659963866
5148 2572.905020136271
5149 2570.326215217824
5150 2567.351582802306
5151 2564.144094079387
5152 2560.677130133473
5153 2556.939656988622
5154 2552.99727749062
5155 2548.886633138359
5156 2544.6744244646
5157 2540.390505525696
5158 2535.996168403447
5159 2531.593431459515
5160 2527.208627536695
5161 2522.844085115915
5162 2518.569025398381
5163 2514.368559234054
5164 2510.287863861633
5165 2506.261155209288
5166 2502.495773405592
5167 2498.933802871204
5168 2495.483783335072
5169 2492.299522234247
5170 2489.327598456604
5171 2486.583711111683
5172 2484.028609201744
5173 2481.760949908086
5174 2479.673822683928
5175 2477.781238337962
5176 2476.152337659616
5177 2474.69424217517
5178 2473.452228578047
5179 2472.427329094518
5180 2471.569672357338
5181 2470.913282950071
5182 2470.434121271106
5183 2470.13354094323
5184 2470.022997369064
5185 2470.11007137652
5186 2470.39762923334
5187 2470.84194404908
5188 2471.444066698231
5189 2472.213247385507
5190 2473.145686625604
5191 2474.251055137795
5192 2475.485715076153
5193 2476.854139632228
5194 2478.39283723265
5195 2480.042538632289
5196 2481.80091861069
5197 2483.702322139165
5198 2485.709841767
5199 2487.818450431271
5200 2489.988210375477
5201 2492.253961899955
5202 2494.525178167064
5203 2496.869896590315
5204 2499.295052503029
5205 2501.694591658673
5206 2504.102967627667
5207 2506.537851630856
5208 2508.895861209536
5209 2511.223945591229
5210 2513.447982790895
5211 2515.638540335627
5212 2517.746062836747
5213 2519.768376339312
5214 2521.677975520143
5215 2523.44780056658
5216 2525.071832965194
5217 2526.56418785031
5218 2527.8630159988
5219 2529.035816332404
5220 2530.009819531474
5221 2530.770918368692
5222 2531.33189814499
5223 2531.742613681094
5224 2531.959025104232
5225 2531.954623820093
5226 2531.787346486266
5227 2531.442212177797
5228 2530.873642248104
5229 2530.133447691799
5230 2529.264789565706
5231 2528.276673704022
5232 2527.175444864093
5233 2525.938662387301
5234 2524.596187533365
5235 2523.210415342042
5236 2521.690617161893
5237 2520.125497838208
5238 2518.556544533335
5239 2517.058524823039
5240 2515.570327969881
5241 2514.138567647381
5242 2512.740123650638
5243 2511.430451756931
5244 2510.212214857687
5245 2509.162461872103
5246 2508.241181216679
5247 2507.516043966911
5248 2506.992550427241
5249 2506.698881366292
5250 2506.60143063924
5251 2506.680031417591
5252 2506.993535002206
5253 2507.529359157251
5254 2508.288989061849
5255 2509.270711605726
5256 2510.489172710416
5257 2511.940312370307
5258 2513.587530290893
5259 2515.429830033908
5260 2517.461922549238
5261 2519.690691569711
5262 2522.062547199713
5263 2524.636668177954
5264 2527.25224972968
5265 2529.989381365955
5266 2532.800481799893
5267 2535.7089044746
5268 2538.606737884607
5269 2541.494933525902
5270 2544.398402955252
5271 2547.178268150034
5272 2549.895690749093
5273 2552.468746277392
5274 2554.873753347606
5275 2557.120476983911
5276 2559.163171029421
5277 2560.92409156371
5278 2562.511130056168
5279 2563.771422894245
5280 2564.709951898249
5281 2565.336523506926
5282 2565.526480794937
5283 2565.37430414219
5284 2564.794705411823
5285 2563.735400225764
5286 2562.256485265845
5287 2560.409976464853
5288 2558.077491161997
5289 2555.324443824306
