"y-rfile"
"Iteration" "y"
("Iteration" "y")
1 -7338.525104147589
2 -6963.492115932633
3 -6031.385022548765
4 -5269.684924920396
5 -4447.099581576498
6 -3782.420623678492
7 -2661.15923106488
8 -1734.626021623017
9 -1103.642350483724
10 -796.7798056665046
11 -488.6928789581407
12 -177.6515110533115
13 13.95295470709073
14 131.5839635602263
15 137.1916645977421
16 123.2334274710133
17 43.5672922729857
18 -40.0801173507765
19 -167.0639628519689
20 -281.3313864237607
21 -397.0707757353857
22 -519.0126606818246
23 -641.4829516760417
24 -760.2615957869725
25 -858.2685588304582
26 -937.0361756520588
27 -992.5459214540269
28 -1036.073615322921
29 -1055.293256290397
30 -1083.460810376822
31 -1081.147690939916
32 -1098.423830782367
33 -1085.635818175053
34 -1097.820074895055
35 -1080.203762573347
36 -1090.918438149163
37 -1069.908273328657
38 -1081.5422226671
39 -1059.081503374255
40 -1073.897868241248
41 -1051.989404772019
42 -1069.608763148548
43 -1050.230060715595
44 -1068.914657759419
45 -1051.762863605811
46 -1070.350744689219
47 -1055.918959621426
48 -1072.882614295104
49 -1061.37113504287
50 -1077.962834742533
51 -1068.957932800333
52 -1085.417173113719
53 -1076.478019283636
54 -1091.815813965501
55 -1082.901637088203
56 -1096.070816320266
57 -1087.922714442653
58 -1099.692245289751
59 -1092.051549761278
60 -1101.897539441631
61 -1095.296861214409
62 -1103.758557927302
63 -1098.210194041846
64 -1105.50628385977
65 -1100.488518367362
66 -1106.920147407382
67 -1102.188807738045
68 -1107.855813556082
69 -1103.251779568572
70 -1108.222145885743
71 -1103.56475511894
72 -1107.941491663729
73 -1103.191712114983
74 -1107.081398191741
75 -1102.224949125953
76 -1105.629402938069
77 -1100.66368893139
78 -1103.858166662092
79 -1099.631385298236
80 -1102.180391471945
81 -1098.327722073596
82 -1099.956913599111
83 -1096.166866562408
84 -1097.405342314182
85 -1093.655909599191
86 -1094.52383674935
87 -1090.9181837561
88 -1091.527343035434
89 -1088.06461775148
90 -1088.386256204024
91 -1085.149614535133
92 -1085.316096993168
93 -1082.255117285769
94 -1082.239800287588
95 -1079.373122146618
96 -1079.761698957532
97 -1077.136461002821
98 -1077.331421601701
99 -1074.894228890988
100 -1074.987612982823
101 -1072.684727927529
102 -1072.679844646219
103 -1070.461377297554
104 -1070.380554378254
105 -1068.275183297196
106 -1068.165441231453
107 -1066.140377747181
108 -1065.9768721269
109 -1064.021529366475
110 -1063.852215683346
111 -1061.978717123527
112 -1061.829988282159
113 -1060.014276374669
114 -1059.872571404211
115 -1058.117570812894
116 -1057.989784728448
117 -1056.311006115351
118 -1056.211377598137
119 -1054.591909744041
120 -1054.50571195763
121 -1052.945634617373
122 -1052.914257491322
123 -1051.397166995857
124 -1051.399826233705
125 -1049.948955042675
126 -1050.006333329244
127 -1048.614238177105
128 -1048.700964909995
129 -1047.369269263435
130 -1047.502783867237
131 -1046.240811819694
132 -1046.4217668608
133 -1045.212197394624
134 -1045.438512024263
135 -1044.286637232073
136 -1044.573170630878
137 -1043.475927156166
138 -1043.803219351872
139 -1042.762954812969
140 -1043.145901561587
141 -1042.155910276058
142 -1042.57647488715
143 -1041.646124852758
144 -1042.126937537942
145 -1041.265023489861
146 -1041.789518312119
147 -1040.973279220259
148 -1041.552324082529
149 -1040.786546143837
150 -1041.393380771301
151 -1040.695959645826
152 -1041.35344340949
153 -1040.69619503152
154 -1041.385273477662
155 -1040.798492009899
156 -1041.544156393709
157 -1041.008664079159
158 -1041.80122844051
159 -1041.325546396284
160 -1042.16981018507
161 -1041.745594914402
162 -1042.63967627646
163 -1042.342770386106
164 -1043.281961528251
165 -1042.916710132156
166 -1043.902063910417
167 -1043.590008396206
168 -1044.803254965957
169 -1044.474278642207
170 -1045.515288007839
171 -1045.43600732918
172 -1046.520389006391
173 -1046.280499185315
174 -1047.643129032538
175 -1047.420202157344
176 -1048.572319986374
177 -1048.606360072975
178 -1049.775242786612
179 -1049.842216586115
180 -1051.051466748997
181 -1051.145118394418
182 -1052.37971624011
183 -1052.481855823148
184 -1053.736929569623
185 -1053.845295087785
186 -1055.39683288924
187 -1055.208240964526
188 -1056.758128546199
189 -1056.586314523122
190 -1058.149987626258
191 -1058.216689851412
192 -1059.511551736002
193 -1059.634415561634
194 -1061.241023506338
195 -1061.066167206295
196 -1062.653706385809
197 -1062.740123653025
198 -1064.038543755513
199 -1064.152780925576
200 -1065.751409543831
201 -1065.577919427069
202 -1067.155435349017
203 -1067.21664633382
204 -1068.501812489994
205 -1068.578282370569
206 -1070.169152393137
207 -1069.966970467822
208 -1071.538656810181
209 -1071.572619876845
210 -1072.835849372564
211 -1072.878907738761
212 -1074.126114803624
213 -1074.180701783615
214 -1075.697933282223
215 -1075.459657151793
216 -1076.680792547594
217 -1076.719507329473
218 -1077.9332884108
219 -1077.747125780809
220 -1079.223216577154
221 -1079.225667968488
222 -1080.404032626321
223 -1080.186519076689
224 -1081.599416442901
225 -1081.37236935808
226 -1082.51638926448
227 -1082.305758649758
228 -1083.417947271331
229 -1083.451993165325
230 -1084.572053428894
231 -1084.369422332037
232 -1085.479581239662
233 -1085.283884762921
234 -1086.382731866736
235 -1086.180324137039
236 -1087.277993577444
237 -1087.066788003792
238 -1088.138374619806
239 -1087.938045690493
240 -1089.01213620216
241 -1088.789995776325
242 -1089.848742326923
243 -1089.619710042318
244 -1090.681897789927
245 -1090.440840763842
246 -1091.480479200028
247 -1091.222735391844
248 -1092.258959181126
249 -1091.970649596193
250 -1092.982823618743
251 -1092.710352005745
252 -1093.699267075713
253 -1093.413512087892
254 -1094.377690116033
255 -1094.095975300735
256 -1095.061836708542
257 -1094.745633588426
258 -1095.69763034719
259 -1095.390940654382
260 -1096.337320348035
261 -1096.020911064945
262 -1096.939211186763
263 -1096.643325944938
264 -1097.563839920952
265 -1097.231421565473
266 -1098.175598729384
267 -1097.851588082575
268 -1098.77855044791
269 -1098.444208698288
270 -1099.374316995224
271 -1099.040329862869
272 -1099.964594206635
273 -1099.606337692226
274 -1100.529447638921
275 -1100.184162415949
276 -1101.109750473091
277 -1100.745946686701
278 -1101.675698873202
279 -1101.323668669754
280 -1102.255258456845
281 -1101.884121667438
282 -1102.798593941432
283 -1102.428674253204
284 -1103.354131868804
285 -1102.967542414777
286 -1103.876165200245
287 -1103.509040006633
288 -1104.423384077942
289 -1104.051460714358
290 -1104.969148054152
291 -1104.586434278433
292 -1105.498933973283
293 -1105.11791913261
294 -1106.034023917533
295 -1105.648240943204
296 -1106.557804231948
297 -1106.149655325702
298 -1107.053125492738
299 -1106.646879933716
300 -1107.547192982237
301 -1107.136158694861
302 -1108.045733415613
303 -1107.638201711906
304 -1108.539594224905
305 -1108.135930389619
306 -1109.024376947201
307 -1108.617616275377
308 -1109.528607533612
309 -1109.109464159987
310 -1109.995853016994
311 -1109.585349765945
312 -1110.45953077632
313 -1110.056975285378
314 -1110.92471815893
315 -1110.511823117243
316 -1111.386568974437
317 -1110.965802582585
318 -1111.83461854572
319 -1111.424350011272
320 -1112.309227602516
321 -1111.881878465925
322 -1112.751878395089
323 -1112.323678377764
324 -1113.204182613326
325 -1112.767445043236
326 -1113.622122890526
327 -1113.193404129028
328 -1114.037123012552
329 -1113.616322253927
330 -1114.463920611494
331 -1114.036682906077
332 -1114.881502675258
333 -1114.446755099704
334 -1115.282124802713
335 -1114.854223513561
336 -1115.700184893243
337 -1115.257759223227
338 -1116.088931944244
339 -1115.652245468257
340 -1116.501837841519
341 -1116.051979636856
342 -1116.887307449177
343 -1116.434787742469
344 -1117.274384997704
345 -1116.833012127707
346 -1117.658978988051
347 -1117.200649052573
348 -1118.033989341716
349 -1117.58692934125
350 -1118.400488133778
351 -1117.948375057769
352 -1118.766896445945
353 -1118.316005458868
354 -1119.131456942006
355 -1118.676300915161
356 -1119.490998979256
357 -1119.036522809007
358 -1119.853387707251
359 -1119.393104359224
360 -1120.212983892465
361 -1119.75125522936
362 -1120.56608961912
363 -1120.090633089455
364 -1120.910326869083
365 -1120.42818701234
366 -1121.236154656752
367 -1120.76517900007
368 -1121.572121937913
369 -1121.095639112206
370 -1121.894702509283
371 -1121.426276307497
372 -1122.226930273274
373 -1121.751545991199
374 -1122.546299203436
375 -1122.070822524097
376 -1122.873422473184
377 -1122.396021810756
378 -1123.183539064934
379 -1122.690679635535
380 -1123.485108488575
381 -1123.002530342097
382 -1123.793585384106
383 -1123.298830158779
384 -1124.077317376194
385 -1123.594318371287
386 -1124.373788152738
387 -1123.880495839923
388 -1124.670135479328
389 -1124.181434896484
390 -1124.963963875275
391 -1124.469574643199
392 -1125.255105168221
393 -1124.744257506113
394 -1125.514619078052
395 -1125.007332852242
396 -1125.794075174935
397 -1125.279707804225
398 -1126.047147212738
399 -1125.547740868849
400 -1126.31738425702
401 -1125.813638673074
402 -1126.572867841718
403 -1126.066599737081
404 -1126.83710625447
405 -1126.325316274454
406 -1127.077601765148
407 -1126.570646760351
408 -1127.336176295315
409 -1126.814746410043
410 -1127.575298782871
411 -1127.063104984211
412 -1127.831608714049
413 -1127.303668490692
414 -1128.063499760571
415 -1127.538435157041
416 -1128.305419290495
417 -1127.764345353082
418 -1128.523046968251
419 -1128.003604921443
420 -1128.75465130456
421 -1128.224540781205
422 -1128.965403561887
423 -1128.437228188163
424 -1129.18570633459
425 -1128.663191866054
426 -1129.401544092635
427 -1128.868773224965
428 -1129.609700578357
429 -1129.06961395403
430 -1129.815121702991
431 -1129.277250360834
432 -1130.028764257852
433 -1129.480491344502
434 -1130.216874895507
435 -1129.676971052133
436 -1130.428241304291
437 -1129.870221526284
438 -1130.60879705631
439 -1130.058974248002
440 -1130.791727033574
441 -1130.250681944038
442 -1130.97621903411
443 -1130.427059275987
444 -1131.161461865754
445 -1130.60657888279
446 -1131.328640022448
447 -1130.783010671859
448 -1131.514835957164
449 -1130.950653156892
450 -1131.676366271854
451 -1131.107659240114
452 -1131.842932079295
453 -1131.276034518234
454 -1132.005419935114
455 -1131.437886743978
456 -1132.173117184984
457 -1131.602238805516
458 -1132.319016693431
459 -1131.750916530695
460 -1132.469635053736
461 -1131.900540943865
462 -1132.618427697038
463 -1132.047260850023
464 -1132.769425403649
465 -1132.195920939384
466 -1132.917308305824
467 -1132.344400114359
468 -1133.062647137943
469 -1132.496281659319
470 -1133.19948196735
471 -1132.631720691334
472 -1133.341384527062
473 -1132.769067738772
474 -1133.479138092969
475 -1132.905243367361
476 -1133.608434486732
477 -1133.038765822777
478 -1133.738324235148
479 -1133.168676086962
480 -1133.864700025082
481 -1133.285100736029
482 -1133.984721891811
483 -1133.403067107189
484 -1134.115084083628
485 -1133.520158729299
486 -1134.22303809965
487 -1133.63212524175
488 -1134.344287219226
489 -1133.746039601311
490 -1134.452870339209
491 -1133.866179504163
492 -1134.573606254526
493 -1133.973467373148
494 -1134.669619942398
495 -1134.07840200941
496 -1134.784911867832
497 -1134.190826270797
498 -1134.880259356721
499 -1134.287700534969
500 -1134.990012203369
501 -1134.394975775854
502 -1135.089472162527
503 -1134.494996199445
504 -1135.195836720322
505 -1134.606085796854
506 -1135.292483790193
507 -1134.69333803306
508 -1135.38963376526
509 -1134.791117640586
510 -1135.487395546523
511 -1134.883465266154
512 -1135.587170801636
513 -1134.989740053707
514 -1135.669368202874
515 -1135.068989238131
516 -1135.766861868156
517 -1135.159368487834
518 -1135.846234537197
519 -1135.249628054949
520 -1135.946941540378
521 -1135.347925152186
522 -1136.025777094995
523 -1135.439239585707
524 -1136.129011170321
525 -1135.520841600264
526 -1136.197699040082
527 -1135.59487185278
528 -1136.29066523897
529 -1135.677697889602
530 -1136.359496929262
531 -1135.746499079452
532 -1136.444356429159
533 -1135.832757689103
534 -1136.515357771676
535 -1135.9067041425
536 -1136.599064509174
537 -1135.987245112445
538 -1136.657800113832
539 -1136.04173162491
540 -1136.728943840587
541 -1136.118620739482
542 -1136.79577691726
543 -1136.193623772815
544 -1136.880371459405
545 -1136.27524379233
546 -1136.950204637332
547 -1136.336342599881
548 -1137.022468490381
549 -1136.404172389678
550 -1137.082925543503
551 -1136.46583164541
552 -1137.157872859961
553 -1136.535592197988
554 -1137.211340296287
555 -1136.591526514681
556 -1137.281671750256
557 -1136.669035349139
558 -1137.353113350222
559 -1136.729102748688
560 -1137.41756866569
561 -1136.793444413071
562 -1137.478255115107
563 -1136.855389397416
564 -1137.542847315931
565 -1136.923359869703
566 -1137.600297586868
567 -1136.984580671324
568 -1137.673442140616
569 -1137.040289283346
570 -1137.729604967518
571 -1137.102558562877
572 -1137.789183193888
573 -1137.158380208539
574 -1137.841004805228
575 -1137.209149753877
576 -1137.901514021974
577 -1137.257656665058
578 -1137.946434246161
579 -1137.311563443049
580 -1137.998993055
581 -1137.361653533814
582 -1138.039138417497
583 -1137.410172979557
584 -1138.086108368729
585 -1137.460039616649
586 -1138.132555070297
587 -1137.505396171872
588 -1138.181793888928
589 -1137.551461058397
590 -1138.232138265062
591 -1137.594610886504
592 -1138.272232815809
593 -1137.646663196703
594 -1138.309308186649
595 -1137.690628672877
596 -1138.366380454755
597 -1137.730756865421
598 -1138.413285741119
599 -1137.786709267442
600 -1138.46946983138
601 -1137.82503761584
602 -1138.502150570476
603 -1137.865563717951
604 -1138.540772710187
605 -1137.909556829206
606 -1138.581492138735
607 -1137.950383760207
608 -1138.629074067389
609 -1137.989242023201
610 -1138.663178152695
611 -1138.028341909038
612 -1138.700967114757
613 -1138.06079319081
614 -1138.725958605783
615 -1138.099502936981
616 -1138.764178497412
617 -1138.131621799225
618 -1138.792362592182
619 -1138.156723256781
620 -1138.819333720298
621 -1138.186578482436
622 -1138.844358077376
623 -1138.222790936464
624 -1138.890385998387
625 -1138.252311700035
626 -1138.913188726315
627 -1138.271157731652
628 -1138.942784665077
629 -1138.301151575271
630 -1138.967544941749
631 -1138.334092424234
632 -1139.009056204947
633 -1138.360765875296
634 -1139.022866885326
635 -1138.377510614633
636 -1139.041626545693
637 -1138.411284117308
638 -1139.074000531428
639 -1138.437711859781
640 -1139.097774772346
641 -1138.469034179324
642 -1139.140535222218
643 -1138.502380473553
644 -1139.176336449642
645 -1138.532624625956
646 -1139.204777298946
647 -1138.556394938909
648 -1139.22854999412
649 -1138.586433192607
650 -1139.254314483288
651 -1138.61076176473
652 -1139.278816108973
653 -1138.633919416092
654 -1139.291680825532
655 -1138.655798563841
656 -1139.326109119864
657 -1138.672958886797
658 -1139.333132328622
659 -1138.697262575782
660 -1139.370327584172
661 -1138.725601103652
662 -1139.381747622021
663 -1138.731520738302
664 -1139.403446152956
665 -1138.758478558051
666 -1139.42125534394
667 -1138.775064528547
668 -1139.446172952183
669 -1138.805826058286
670 -1139.4642118837
671 -1138.81595049809
672 -1139.490647322079
673 -1138.847661247532
674 -1139.506690898852
675 -1138.864534514087
676 -1139.537247567479
677 -1138.890600812665
678 -1139.552153142822
679 -1138.902232409196
680 -1139.571067487328
681 -1138.92287125671
682 -1139.58890476921
683 -1138.943223409105
684 -1139.606180137955
685 -1138.959727219131
686 -1139.61021289919
687 -1138.971471965523
688 -1139.646917664796
689 -1138.996663588002
690 -1139.658314902252
691 -1139.024074855349
692 -1139.698173803706
693 -1139.045081443104
694 -1139.700351742388
695 -1139.053675932531
696 -1139.718594764624
697 -1139.078898069335
698 -1139.742242626827
699 -1139.094724988241
700 -1139.757351406035
701 -1139.113416651952
702 -1139.783546136139
703 -1139.130124321162
704 -1139.796945128132
705 -1139.159899885829
706 -1139.816111111276
707 -1139.176253248789
708 -1139.838438103127
709 -1139.179606442735
710 -1139.833189918359
711 -1139.189601481472
712 -1139.857191093179
713 -1139.199816913803
714 -1139.859590179097
715 -1139.208210498103
716 -1139.872134397643
717 -1139.220692071852
718 -1139.882977688525
719 -1139.250943265312
720 -1139.904483693378
721 -1139.255362373822
722 -1139.899941763523
723 -1139.257837565057
724 -1139.917700810595
725 -1139.266236015283
726 -1139.920957053116
727 -1139.288803939817
728 -1139.951611365055
729 -1139.302737918229
730 -1139.952126671851
731 -1139.308955785954
732 -1139.969380790867
733 -1139.328347292444
734 -1139.972872635322
735 -1139.343071984399
736 -1139.98969095502
737 -1139.350623324418
738 -1139.99264527639
739 -1139.357232527543
740 -1139.996926443227
741 -1139.362262973829
742 -1140.002777777557
743 -1139.377498437076
744 -1140.021260980147
745 -1139.388593663876
746 -1140.0246251794
747 -1139.394306065964
748 -1140.035114420616
749 -1139.404927241189
750 -1140.046872938679
751 -1139.413837509648
752 -1140.049707937755
753 -1139.415805206323
754 -1140.058638552996
755 -1139.423953382393
756 -1140.075953059083
757 -1139.434204129783
758 -1140.065872113203
759 -1139.432011064506
760 -1140.077576324126
761 -1139.44548357656
762 -1140.082115367122
763 -1139.463833884496
764 -1140.094123545178
765 -1139.479030744128
766 -1140.111570059571
767 -1139.486691657022
768 -1140.127642250916
769 -1139.494902684335
770 -1140.117255896226
771 -1139.493732432226
772 -1140.133528000715
773 -1139.497868964654
774 -1140.141786408483
775 -1139.509533131836
776 -1140.158252271042
777 -1139.521643921209
778 -1140.162651129335
779 -1139.529382413123
780 -1140.166459736111
781 -1139.533568981942
782 -1140.168149005276
783 -1139.538622149297
784 -1140.179270414696
785 -1139.553940969336
786 -1140.187239583717
787 -1139.554131203639
788 -1140.192966804667
789 -1139.566265353164
790 -1140.201211603815
791 -1139.56707430744
792 -1140.207648135754
793 -1139.580433376005
794 -1140.212882331541
795 -1139.578705291178
796 -1140.221277560958
797 -1139.589215277557
798 -1140.230147956346
799 -1139.595067753574
800 -1140.233374964717
801 -1139.604943465876
802 -1140.239220279256
803 -1139.606353061959
804 -1140.24846996421
805 -1139.618983099121
806 -1140.249291548949
807 -1139.621243575662
808 -1140.256941503085
809 -1139.64197506688
810 -1140.273207483208
811 -1139.644771297947
812 -1140.282875475314
813 -1139.652287055159
814 -1140.285621412746
815 -1139.651691599965
816 -1140.298677475364
817 -1139.666718536103
818 -1140.299045615217
819 -1139.664136404378
820 -1140.316357047649
821 -1139.683961362584
822 -1140.323312081321
823 -1139.684440596314
824 -1140.325869512817
825 -1139.689650648617
826 -1140.322388146222
827 -1139.687187927711
828 -1140.336688874848
829 -1139.698323445567
830 -1140.332001179722
831 -1139.701217106367
832 -1140.342481678395
833 -1139.715471356074
834 -1140.352388203146
835 -1139.723055630692
836 -1140.367792960573
837 -1139.736381594391
838 -1140.372692568354
839 -1139.737080369981
840 -1140.378836962262
841 -1139.743084345805
842 -1140.38113571109
843 -1139.743342310069
844 -1140.389079658373
845 -1139.751867036839
846 -1140.390365432328
847 -1139.763281155985
848 -1140.401337951868
849 -1139.757088624582
850 -1140.398024962979
851 -1139.763282718933
852 -1140.412896586582
853 -1139.774673379513
854 -1140.407132866764
855 -1139.778585091606
856 -1140.409887134121
857 -1139.775331732163
858 -1140.414323268647
859 -1139.780453110594
860 -1140.420522177203
861 -1139.786497650864
862 -1140.421919296774
863 -1139.790232444292
864 -1140.432418226104
865 -1139.799668147634
866 -1140.433193201665
867 -1139.802813354721
868 -1140.444753389484
869 -1139.805478334528
870 -1140.440067067443
871 -1139.8014106865
872 -1140.436941655354
873 -1139.792902386459
874 -1140.436609248614
875 -1139.807296489895
876 -1140.453851963421
877 -1139.820177610647
878 -1140.451145701054
879 -1139.823583987416
880 -1140.458064040051
881 -1139.814474230262
882 -1140.451503633861
883 -1139.824427373392
884 -1140.465273161509
885 -1139.829053895775
886 -1140.466786158484
887 -1139.834795968736
888 -1140.48451645725
889 -1139.835209435657
890 -1140.476154973313
891 -1139.846207618969
892 -1140.481165351511
893 -1139.852579330039
894 -1140.494196226791
895 -1139.856603954838
896 -1140.487562991947
897 -1139.849635217398
898 -1140.498298600245
899 -1139.862864328597
900 -1140.498829001738
901 -1139.857886477666
902 -1140.502955816168
903 -1139.860089186246
904 -1140.502192559823
905 -1139.872014843224
906 -1140.510497834311
907 -1139.864915243838
908 -1140.496917834621
909 -1139.852978145028
910 -1140.497614051986
911 -1139.86199811631
912 -1140.496869592214
913 -1139.857664968908
914 -1140.496924389388
915 -1139.856809978695
916 -1140.505546484392
917 -1139.852394470436
918 -1140.497679933093
919 -1139.853557877598
920 -1140.501689956112
921 -1139.855585594448
922 -1140.495243429415
923 -1139.847848816599
924 -1140.503803961275
925 -1139.853005144922
926 -1140.488519198353
927 -1139.846804218289
928 -1140.495937488107
929 -1139.849847950165
930 -1140.496197683388
931 -1139.860021193785
932 -1140.505903115589
933 -1139.868844205507
934 -1140.512973422603
935 -1139.868103111964
936 -1140.507794145724
937 -1139.858206525006
938 -1140.49453256076
939 -1139.854241918413
940 -1140.492789155554
941 -1139.854194873643
942 -1140.493837980411
943 -1139.852945668643
944 -1140.491299198866
945 -1139.848284034311
946 -1140.488144304707
947 -1139.846337060525
948 -1140.493853837691
949 -1139.847183663947
950 -1140.483484751581
951 -1139.835343075118
952 -1140.478273919885
953 -1139.832402566241
954 -1140.481522100165
955 -1139.8341618527
956 -1140.481711226558
957 -1139.842748166551
958 -1140.486968329158
959 -1139.839873204249
960 -1140.484597441124
961 -1139.839992997046
962 -1140.476770031478
963 -1139.839993886189
964 -1140.486244218734
965 -1139.841192402279
966 -1140.479398181213
967 -1139.83727572565
968 -1140.480815039686
969 -1139.838591560698
970 -1140.486833439446
971 -1139.840074877669
972 -1140.491476392528
973 -1139.848676337522
974 -1140.482169150763
975 -1139.836176039425
976 -1140.483104345244
977 -1139.838911729002
978 -1140.489783569663
979 -1139.853867945802
980 -1140.503349016996
981 -1139.856500917006
982 -1140.497192516101
983 -1139.860974985823
984 -1140.515259350336
985 -1139.870911453807
986 -1140.509729956187
987 -1139.879192710086
988 -1140.520230090535
989 -1139.877843350881
990 -1140.514956129892
991 -1139.875494761457
992 -1140.523168929511
993 -1139.879642491358
994 -1140.523285173182
995 -1139.887673807472
996 -1140.527765638464
997 -1139.883260846385
998 -1140.517996330962
999 -1139.874868666292
1000 -1140.515411263728
1001 -1139.876257844142
1002 -1140.513519481461
1003 -1139.881608594862
1004 -1140.517035605233
1005 -1139.886575777204
1006 -1140.51900516016
1007 -1139.891557529243
1008 -1140.51730652926
1009 -1139.889313330717
1010 -1140.519594488989
1011 -1139.886198344639
1012 -1140.513503957216
1013 -1139.884152489532
1014 -1140.529428346167
1015 -1139.892433824658
1016 -1140.526092679447
1017 -1139.896751283554
1018 -1140.541103354712
1019 -1139.902346063143
1020 -1140.558667589482
1021 -1139.912972945585
1022 -1140.550024895063
1023 -1139.912944079939
1024 -1140.56003609706
1025 -1139.912975481894
1026 -1140.558926413571
1027 -1139.916821324641
1028 -1140.568337401687
1029 -1139.91915035169
1030 -1140.563041606717
1031 -1139.92512111442
1032 -1140.566985349067
1033 -1139.920917217667
1034 -1140.558665653166
1035 -1139.911376827253
1036 -1140.56119708187
1037 -1139.916324527612
1038 -1140.560300402218
1039 -1139.930080728012
1040 -1140.581523901507
1041 -1139.929170695045
1042 -1140.577690373953
1043 -1139.928775097858
1044 -1140.58714724896
1045 -1139.936816088937
1046 -1140.570132201986
1047 -1139.926755188356
1048 -1140.56803505457
1049 -1139.923138185333
1050 -1140.568081347742
1051 -1139.927297599378
1052 -1140.559974557244
1053 -1139.922400916159
1054 -1140.558386357594
1055 -1139.923172192916
1056 -1140.562314012154
1057 -1139.92698924722
1058 -1140.558890642458
1059 -1139.942801967137
1060 -1140.588023390887
1061 -1139.947407965639
1062 -1140.588195326654
1063 -1139.959132009014
1064 -1140.59586389197
1065 -1139.95403065466
1066 -1140.58901015698
1067 -1139.956251812245
1068 -1140.603746841293
1069 -1139.96429963371
1070 -1140.587076942404
1071 -1139.954087477869
1072 -1140.59640411742
1073 -1139.957669983002
1074 -1140.59148773921
1075 -1139.95325528946
1076 -1140.591544382826
1077 -1139.949970456443
1078 -1140.584509342434
1079 -1139.944619352522
1080 -1140.592137549778
1081 -1139.96224072507
1082 -1140.581931046444
1083 -1139.955486652363
1084 -1140.590790089851
1085 -1139.95217905261
1086 -1140.587669590343
1087 -1139.951591480894
1088 -1140.586032335604
1089 -1139.960301584588
1090 -1140.589358936863
1091 -1139.94828501406
1092 -1140.590769705903
1093 -1139.941443484609
1094 -1140.580071173448
1095 -1139.939866352098
1096 -1140.580493125681
1097 -1139.934772269094
1098 -1140.577895572486
1099 -1139.936454608573
1100 -1140.581095507782
1101 -1139.938187393734
1102 -1140.573315516428
1103 -1139.935606473348
1104 -1140.572362853203
1105 -1139.925480329415
1106 -1140.566739255329
1107 -1139.931366928556
1108 -1140.567196837789
1109 -1139.932351891179
1110 -1140.580652905899
1111 -1139.93613375929
1112 -1140.57878720743
1113 -1139.94724709731
1114 -1140.588205593071
1115 -1139.942384537248
1116 -1140.595481450311
1117 -1139.951252998612
1118 -1140.593403645662
1119 -1139.949570398533
1120 -1140.600701478593
1121 -1139.952256713799
1122 -1140.589408034778
1123 -1139.938886371896
1124 -1140.586126182709
1125 -1139.945781035573
1126 -1140.573943754656
1127 -1139.942477257122
1128 -1140.585896587855
1129 -1139.951502094841
1130 -1140.584459611262
1131 -1139.948996304118
1132 -1140.586952753955
1133 -1139.950051857383
1134 -1140.584161815536
1135 -1139.943885953604
1136 -1140.583427458565
1137 -1139.942221439169
1138 -1140.577410350331
1139 -1139.941937881562
1140 -1140.585444907599
1141 -1139.952809449042
1142 -1140.591633255706
1143 -1139.955741376839
1144 -1140.602251465605
1145 -1139.963850086922
1146 -1140.600404236376
1147 -1139.962940730998
1148 -1140.603892800609
1149 -1139.959960005249
1150 -1140.591372778991
1151 -1139.948041690083
1152 -1140.594806509487
1153 -1139.953650262512
1154 -1140.588000097104
1155 -1139.950172944444
1156 -1140.588880568172
1157 -1139.946425555017
1158 -1140.567366028086
1159 -1139.930728027227
1160 -1140.572071415277
1161 -1139.93652583385
1162 -1140.579102089288
1163 -1139.938826456595
1164 -1140.580070820636
1165 -1139.942156287199
1166 -1140.56712955251
1167 -1139.9369203942
1168 -1140.571320838636
1169 -1139.93381459581
1170 -1140.579487211181
1171 -1139.937479540158
1172 -1140.569884015545
1173 -1139.935346298606
1174 -1140.579202745749
1175 -1139.932540962219
1176 -1140.581173265943
1177 -1139.939147527435
1178 -1140.575492371333
1179 -1139.927567859263
1180 -1140.571858511191
1181 -1139.923392153271
1182 -1140.5650626765
1183 -1139.921134831719
1184 -1140.567549184175
1185 -1139.922514640876
1186 -1140.562740085481
1187 -1139.921636565647
1188 -1140.564522825976
1189 -1139.919542249869
1190 -1140.563992024599
1191 -1139.931169010762
1192 -1140.56486310996
1193 -1139.919045539283
1194 -1140.559660431119
1195 -1139.916395929922
1196 -1140.555797485615
1197 -1139.913704224655
1198 -1140.54654631189
1199 -1139.916711682994
1200 -1140.555248157179
1201 -1139.917101907776
1202 -1140.551578567339
1203 -1139.913866404948
1204 -1140.554194012343
1205 -1139.91316174298
1206 -1140.555414136677
1207 -1139.926477175847
1208 -1140.566572787427
1209 -1139.922541817099
1210 -1140.558563348575
1211 -1139.914657212069
1212 -1140.551083866521
1213 -1139.906764938241
1214 -1140.541301724956
1215 -1139.911450544908
1216 -1140.552551991075
1217 -1139.917567700739
1218 -1140.553360841117
1219 -1139.91714233039
1220 -1140.554368834425
1221 -1139.92129940996
1222 -1140.552579717157
1223 -1139.921042969529
1224 -1140.548117175042
1225 -1139.910362630527
1226 -1140.542802044835
1227 -1139.920783539925
1228 -1140.56183049827
1229 -1139.91193905878
1230 -1140.547438203562
1231 -1139.916123047469
1232 -1140.559141234742
1233 -1139.910841510711
1234 -1140.554795982089
1235 -1139.915967400494
1236 -1140.562055153977
1237 -1139.917763363672
1238 -1140.552602660061
1239 -1139.909379633726
1240 -1140.544259547934
1241 -1139.910461436938
1242 -1140.54754256532
1243 -1139.918836734328
1244 -1140.550503940255
1245 -1139.917798543751
1246 -1140.548402657449
1247 -1139.915141472787
1248 -1140.553701098162
1249 -1139.918255397375
1250 -1140.54868960896
1251 -1139.91939159303
1252 -1140.562208638732
1253 -1139.92341331644
1254 -1140.556466191918
1255 -1139.91781239749
1256 -1140.559319692297
1257 -1139.916897172693
1258 -1140.553828096601
1259 -1139.921214053528
1260 -1140.56244556966
1261 -1139.935209953742
1262 -1140.56828691165
1263 -1139.927180278533
1264 -1140.567034293049
1265 -1139.930624008801
1266 -1140.56294130307
1267 -1139.937759019781
1268 -1140.571544127518
1269 -1139.934739753432
1270 -1140.566799744621
1271 -1139.932146716463
1272 -1140.567474628705
1273 -1139.942220513118
1274 -1140.575762668438
1275 -1139.940730574144
1276 -1140.583916863903
1277 -1139.939491454176
1278 -1140.580846181479
1279 -1139.936178451469
1280 -1140.576774008633
1281 -1139.934641798671
1282 -1140.57312180653
1283 -1139.933994290905
1284 -1140.573243482958
1285 -1139.93347777435
1286 -1140.569775269873
1287 -1139.931810234095
1288 -1140.569903552746
1289 -1139.93379688413
1290 -1140.566315413264
1291 -1139.943044599264
1292 -1140.578607649659
1293 -1139.944723793986
1294 -1140.576120431324
1295 -1139.943803581476
1296 -1140.583904571036
1297 -1139.952674093787
1298 -1140.589609217728
1299 -1139.952509644893
1300 -1140.602377880591
1301 -1139.957004124785
1302 -1140.599445894653
1303 -1139.959478362605
1304 -1140.604130084259
1305 -1139.957333971245
1306 -1140.602169645165
1307 -1139.955299289138
1308 -1140.598789053317
1309 -1139.956999380893
1310 -1140.594495844235
1311 -1139.955019198797
1312 -1140.594526332039
1313 -1139.959090273819
1314 -1140.588576538557
1315 -1139.959874073111
1316 -1140.585925900562
1317 -1139.94659871037
1318 -1140.58295094086
1319 -1139.952405536765
1320 -1140.589115667146
1321 -1139.946708975317
1322 -1140.582099524527
1323 -1139.945094257553
1324 -1140.585724256158
1325 -1139.943131879544
1326 -1140.587951518769
1327 -1139.958035235224
1328 -1140.589121840079
1329 -1139.954284515593
1330 -1140.59435140868
1331 -1139.949720789269
1332 -1140.583096699211
1333 -1139.953128807864
1334 -1140.593607626161
1335 -1139.95243599795
1336 -1140.592321248925
1337 -1139.949029795885
1338 -1140.598142344783
1339 -1139.957513109151
1340 -1140.593351837011
1341 -1139.945784982713
1342 -1140.588277061207
1343 -1139.942642804013
1344 -1140.584192019628
1345 -1139.944124192147
1346 -1140.58385480028
1347 -1139.942614033142
1348 -1140.58982740796
1349 -1139.949200348477
1350 -1140.601095862513
1351 -1139.95749749651
1352 -1140.598414396271
1353 -1139.957439350701
1354 -1140.596107093513
1355 -1139.957030632605
1356 -1140.60494737705
1357 -1139.954102371954
1358 -1140.599279643499
1359 -1139.959505412327
1360 -1140.610158706074
1361 -1139.957711520577
1362 -1140.601372431114
1363 -1139.964678998068
1364 -1140.599751775223
1365 -1139.962766259805
1366 -1140.593289590948
1367 -1139.952395691555
1368 -1140.601636905673
1369 -1139.953655877045
1370 -1140.592057569859
1371 -1139.951686831055
1372 -1140.597117649617
1373 -1139.952165824233
1374 -1140.583544943222
1375 -1139.936472293875
1376 -1140.576298553242
1377 -1139.937866983999
1378 -1140.578577586123
1379 -1139.944950350976
1380 -1140.584587351203
1381 -1139.940990882807
1382 -1140.584507745376
1383 -1139.950407618821
1384 -1140.593001070365
1385 -1139.951023678439
1386 -1140.589534830747
1387 -1139.951206821222
1388 -1140.59148807935
1389 -1139.955991536966
1390 -1140.594902108501
1391 -1139.961232318034
1392 -1140.590542489849
1393 -1139.948908050398
1394 -1140.583106009243
1395 -1139.951449560449
1396 -1140.590682412571
1397 -1139.960208620065
1398 -1140.592240664958
1399 -1139.960856823727
1400 -1140.601759808655
1401 -1139.964162341433
1402 -1140.600243198128
1403 -1139.969612635508
1404 -1140.598375721067
1405 -1139.959867775384
1406 -1140.596189770928
1407 -1139.960942613755
1408 -1140.602223276655
1409 -1139.960005396916
1410 -1140.589202627531
1411 -1139.952457876278
1412 -1140.588267439497
1413 -1139.948141611448
1414 -1140.588632075394
1415 -1139.95232252518
1416 -1140.585126654206
1417 -1139.943156473693
1418 -1140.580076229436
1419 -1139.944659815017
1420 -1140.580845475491
1421 -1139.935059148603
1422 -1140.569416783253
1423 -1139.925999954435
1424 -1140.57557177953
1425 -1139.936562727561
1426 -1140.571079178285
1427 -1139.940138794028
1428 -1140.581920673473
1429 -1139.925053387699
1430 -1140.564504385327
1431 -1139.933853480256
1432 -1140.579127357521
1433 -1139.928466262752
1434 -1140.5691575265
1435 -1139.93231074963
1436 -1140.594069803103
1437 -1139.9469541083
1438 -1140.590532407332
1439 -1139.948498826264
1440 -1140.596556310941
1441 -1139.947411131655
1442 -1140.59124991962
1443 -1139.9523580953
1444 -1140.601504142805
1445 -1139.966513534477
1446 -1140.606165612298
1447 -1139.961941203218
1448 -1140.608740846491
1449 -1139.953758966992
1450 -1140.599558492108
1451 -1139.943663297307
1452 -1140.595456828456
1453 -1139.942198785308
1454 -1140.591550009463
1455 -1139.946187172274
1456 -1140.597888361243
1457 -1139.943033650594
1458 -1140.582654494154
1459 -1139.934826086948
1460 -1140.577832832817
1461 -1139.93763125409
1462 -1140.584367060479
1463 -1139.937509737113
1464 -1140.578294623227
1465 -1139.927699920454
1466 -1140.574828005195
1467 -1139.936725202275
1468 -1140.58383834767
1469 -1139.935926735588
1470 -1140.57982710812
1471 -1139.942046628192
1472 -1140.587467769684
1473 -1139.940856319315
1474 -1140.588491912241
1475 -1139.952979387304
1476 -1140.589986132554
1477 -1139.944477607497
1478 -1140.581921605288
1479 -1139.944058238358
1480 -1140.591520006418
1481 -1139.942446687467
1482 -1140.578669042623
1483 -1139.944368812136
1484 -1140.585794913028
1485 -1139.939979979347
1486 -1140.578291485514
1487 -1139.943428403907
1488 -1140.585015518552
1489 -1139.943537788567
1490 -1140.581191937734
1491 -1139.948769845093
1492 -1140.589862314258
1493 -1139.942552580791
1494 -1140.576952637907
1495 -1139.934880564641
1496 -1140.577990058861
1497 -1139.928933436701
1498 -1140.574444480295
1499 -1139.930870214418
1500 -1140.571255651601
1501 -1139.920918344274
1502 -1140.573607522932
1503 -1139.936293621375
1504 -1140.583975419953
1505 -1139.937344886604
1506 -1140.575167488413
1507 -1139.933621719863
1508 -1140.577532849317
1509 -1139.927522827266
1510 -1140.566797130069
1511 -1139.929377030326
1512 -1140.57456716704
1513 -1139.921908660693
1514 -1140.559635718415
1515 -1139.924507247146
1516 -1140.559205266662
1517 -1139.916249529373
1518 -1140.563120061021
1519 -1139.923511432328
1520 -1140.564482484378
1521 -1139.926752989773
1522 -1140.569314976866
1523 -1139.923922929566
1524 -1140.567484435687
1525 -1139.915207229543
1526 -1140.552190932616
1527 -1139.918678907485
1528 -1140.569726312644
1529 -1139.919268995
1530 -1140.557678728108
1531 -1139.923558249161
1532 -1140.569067790143
1533 -1139.921378920404
1534 -1140.56442433965
1535 -1139.924401694136
1536 -1140.571783093059
1537 -1139.929610109248
1538 -1140.560492452414
1539 -1139.934381712758
1540 -1140.579589580356
1541 -1139.929718624979
1542 -1140.567209137074
1543 -1139.932950508611
1544 -1140.56707845023
1545 -1139.922823166881
1546 -1140.559468422447
1547 -1139.921129362609
1548 -1140.565536095221
1549 -1139.917157161185
1550 -1140.549233450832
1551 -1139.930641155443
1552 -1140.580876096599
1553 -1139.932084255903
1554 -1140.574362073163
1555 -1139.921520440304
1556 -1140.563618148127
1557 -1139.918572687237
1558 -1140.554240903527
1559 -1139.910194903402
1560 -1140.551682225568
1561 -1139.906656303515
1562 -1140.53793759794
1563 -1139.900842279613
1564 -1140.532652172264
1565 -1139.898197528143
1566 -1140.526784429301
1567 -1139.907359771808
1568 -1140.541649849465
1569 -1139.900500156477
1570 -1140.540853594142
1571 -1139.909802146189
1572 -1140.554253896415
1573 -1139.905199309795
1574 -1140.538265677311
1575 -1139.902998634488
1576 -1140.552720864649
1577 -1139.903871675788
1578 -1140.550579089756
1579 -1139.921057013892
1580 -1140.552924794558
1581 -1139.917592112686
1582 -1140.552970839909
1583 -1139.922236184161
1584 -1140.561701412748
1585 -1139.925703325109
1586 -1140.550432247561
1587 -1139.915628969163
1588 -1140.552592173987
1589 -1139.905783673859
1590 -1140.549332031722
1591 -1139.903231169042
1592 -1140.543863413963
1593 -1139.901147665274
1594 -1140.550306480943
1595 -1139.90851969802
1596 -1140.554070074428
1597 -1139.902985092263
1598 -1140.547217514348
1599 -1139.902445320473
1600 -1140.548413941507
1601 -1139.902838859227
1602 -1140.547743249814
1603 -1139.903773048969
1604 -1140.538877723729
1605 -1139.891365339321
1606 -1140.537421939278
1607 -1139.897630826694
1608 -1140.540984021336
1609 -1139.887125425819
1610 -1140.52953629413
1611 -1139.891372647947
1612 -1140.540814917437
1613 -1139.891710755227
1614 -1140.540778555614
1615 -1139.900340132152
1616 -1140.537106726866
1617 -1139.89770496442
1618 -1140.546253959198
1619 -1139.896207564507
1620 -1140.546634570221
1621 -1139.899162791918
1622 -1140.55423152966
1623 -1139.909409546635
1624 -1140.559370408921
1625 -1139.909667762093
1626 -1140.556504162261
1627 -1139.921205024741
1628 -1140.562755617422
1629 -1139.916076256765
1630 -1140.569663366353
1631 -1139.92486829598
1632 -1140.571263699039
1633 -1139.924508903261
1634 -1140.561279130735
1635 -1139.917935197466
1636 -1140.552668464199
1637 -1139.910018747682
1638 -1140.5517945791
1639 -1139.910513392846
1640 -1140.55026120191
1641 -1139.910777247749
1642 -1140.555436280684
1643 -1139.912430545989
1644 -1140.559128493952
1645 -1139.914957345763
1646 -1140.555526392556
1647 -1139.916112796469
1648 -1140.558378461808
1649 -1139.915124639052
1650 -1140.560249411614
1651 -1139.917237175621
1652 -1140.552788568065
1653 -1139.911012012981
1654 -1140.551559642138
1655 -1139.913577229562
1656 -1140.547363460815
1657 -1139.902540524947
1658 -1140.536077735369
1659 -1139.898574557648
1660 -1140.539084658838
1661 -1139.895737262073
1662 -1140.537799751989
1663 -1139.894320593108
1664 -1140.539362268811
1665 -1139.890277999816
1666 -1140.532459925422
1667 -1139.897211836089
1668 -1140.543380112544
1669 -1139.896300744082
1670 -1140.540920133219
1671 -1139.906651724218
1672 -1140.547036547694
1673 -1139.906187707353
1674 -1140.546073637489
1675 -1139.917260373902
1676 -1140.562425785949
1677 -1139.91382021396
1678 -1140.546891817499
1679 -1139.916617804607
1680 -1140.567206160626
1681 -1139.918917275936
1682 -1140.558251804956
1683 -1139.923159005949
1684 -1140.569381300357
1685 -1139.92537856852
1686 -1140.571346899345
1687 -1139.926202722022
1688 -1140.576209768869
1689 -1139.927563849296
1690 -1140.564091201521
1691 -1139.924425147072
1692 -1140.564083133527
1693 -1139.9166564443
1694 -1140.561661611379
1695 -1139.912061647664
1696 -1140.559548497137
1697 -1139.902491077642
1698 -1140.548369885103
1699 -1139.902407628506
1700 -1140.554511696312
1701 -1139.897221059721
1702 -1140.543691968445
1703 -1139.900549936848
1704 -1140.560794852942
1705 -1139.908225996417
1706 -1140.553506075838
1707 -1139.906597576974
1708 -1140.53660044044
1709 -1139.903734679585
1710 -1140.543028957446
1711 -1139.902300262041
1712 -1140.54823886416
1713 -1139.910832431756
1714 -1140.546994107287
1715 -1139.909752399405
1716 -1140.555401733835
1717 -1139.909077590975
1718 -1140.554573472112
1719 -1139.911106398682
1720 -1140.557292595589
1721 -1139.917583876597
1722 -1140.56194968749
1723 -1139.919842748845
1724 -1140.565490890566
1725 -1139.920861537957
1726 -1140.561455897649
1727 -1139.919920876838
1728 -1140.56281862299
1729 -1139.919988774224
1730 -1140.563393309338
1731 -1139.921830499461
1732 -1140.561334438851
1733 -1139.918848760734
1734 -1140.560476149415
1735 -1139.918480824721
1736 -1140.563700724597
1737 -1139.912931936693
1738 -1140.55397283542
1739 -1139.907082035055
1740 -1140.557260742009
1741 -1139.902928868515
1742 -1140.552001365966
1743 -1139.901146546921
1744 -1140.553633955758
1745 -1139.900437432269
1746 -1140.553098267501
1747 -1139.902306300266
1748 -1140.553207957549
1749 -1139.905430890661
1750 -1140.549163810145
1751 -1139.906697478177
1752 -1140.552407488678
1753 -1139.896988504457
1754 -1140.539678319028
1755 -1139.892455929984
1756 -1140.534066149003
1757 -1139.885812797851
1758 -1140.531546072273
1759 -1139.887961894507
1760 -1140.539947128378
1761 -1139.891182622675
1762 -1140.533072676973
1763 -1139.889702604161
1764 -1140.541978744922
1765 -1139.891930531652
1766 -1140.54084514495
1767 -1139.897324293352
1768 -1140.544046443581
1769 -1139.893585208897
1770 -1140.543873654854
1771 -1139.90260576848
1772 -1140.558865596338
1773 -1139.907817279461
1774 -1140.552411784869
1775 -1139.907448981213
1776 -1140.554025593594
1777 -1139.902919698814
1778 -1140.540527373137
1779 -1139.901568846403
1780 -1140.542031347989
1781 -1139.898491495022
1782 -1140.543691528535
1783 -1139.908923116442
1784 -1140.560641443737
1785 -1139.9126466701
1786 -1140.553315797284
1787 -1139.905667001793
1788 -1140.558723698531
1789 -1139.904632575056
1790 -1140.54956472816
1791 -1139.896724580237
1792 -1140.536334894759
1793 -1139.897955983228
1794 -1140.543404095545
1795 -1139.891480572242
1796 -1140.541635340733
1797 -1139.892675500809
1798 -1140.538712253198
1799 -1139.894459616281
1800 -1140.538154633286
1801 -1139.888339081138
1802 -1140.533843187961
1803 -1139.884614880523
1804 -1140.536179948522
1805 -1139.887021354307
1806 -1140.538715512581
1807 -1139.890852766951
1808 -1140.53536349266
1809 -1139.891914828767
1810 -1140.540727650257
1811 -1139.883326945525
1812 -1140.546272179596
1813 -1139.891164602253
1814 -1140.545360559295
1815 -1139.897942639594
1816 -1140.548866812686
1817 -1139.893310011104
1818 -1140.544297768751
1819 -1139.895614644869
1820 -1140.549854804138
1821 -1139.901202464706
1822 -1140.542001172825
1823 -1139.904027239596
1824 -1140.55313507322
1825 -1139.910590566554
1826 -1140.551088310707
1827 -1139.909102405963
1828 -1140.551019726644
1829 -1139.906965287043
1830 -1140.55090901635
1831 -1139.908525790938
1832 -1140.554905925714
1833 -1139.909336728387
1834 -1140.550389112415
1835 -1139.907713814943
1836 -1140.555239669047
1837 -1139.91525529001
1838 -1140.556225600918
1839 -1139.908872544452
1840 -1140.54288654419
1841 -1139.896943262499
1842 -1140.538263558853
1843 -1139.889777831648
1844 -1140.53456885212
1845 -1139.890598508498
1846 -1140.531290690831
1847 -1139.886985019379
1848 -1140.535139508453
1849 -1139.895330788079
1850 -1140.535422840222
1851 -1139.896080446711
1852 -1140.535862394777
1853 -1139.895712651675
1854 -1140.539764524391
1855 -1139.900581842267
1856 -1140.543886107846
1857 -1139.897076718602
1858 -1140.536582435773
1859 -1139.887230980098
1860 -1140.534495018529
1861 -1139.890567471078
1862 -1140.5379735161
1863 -1139.893453831831
1864 -1140.534416905679
1865 -1139.897158514055
1866 -1140.547766938632
1867 -1139.896913128057
1868 -1140.548802613892
1869 -1139.90274166208
1870 -1140.551777372795
1871 -1139.91067996122
1872 -1140.554668399182
1873 -1139.910577530783
1874 -1140.555331661856
1875 -1139.911155326492
1876 -1140.551252185766
1877 -1139.90448883617
1878 -1140.543254251859
1879 -1139.902181381713
1880 -1140.543757575639
1881 -1139.894318262435
1882 -1140.534734761868
1883 -1139.887404738534
1884 -1140.533899366669
1885 -1139.883859798636
1886 -1140.530917272703
1887 -1139.888280956062
1888 -1140.52900639579
1889 -1139.884737243268
1890 -1140.52993774647
1891 -1139.882669045594
1892 -1140.531973365301
1893 -1139.888325704507
1894 -1140.535905540232
1895 -1139.893586464146
1896 -1140.542948128983
1897 -1139.896465853004
1898 -1140.536197736836
1899 -1139.895382005692
1900 -1140.541848030882
1901 -1139.892437397263
1902 -1140.545664954945
1903 -1139.902235783851
1904 -1140.552355512044
1905 -1139.90595996382
1906 -1140.547741273385
1907 -1139.904415804895
1908 -1140.553344796476
1909 -1139.905634959785
1910 -1140.553484913533
1911 -1139.905262567908
1912 -1140.552093832457
1913 -1139.909681828959
1914 -1140.555665315766
1915 -1139.915597569305
1916 -1140.559202970971
1917 -1139.910233280555
1918 -1140.550462841026
1919 -1139.909856209328
1920 -1140.557301708781
1921 -1139.90312984984
1922 -1140.542484728393
1923 -1139.895172863268
1924 -1140.537921059656
1925 -1139.889327057568
1926 -1140.537196483939
1927 -1139.892883976481
1928 -1140.538678759236
1929 -1139.894816918089
1930 -1140.532761623007
1931 -1139.892120977761
1932 -1140.53690248209
1933 -1139.892446628952
1934 -1140.534289140959
1935 -1139.889208010514
1936 -1140.53290405006
1937 -1139.888909246197
1938 -1140.536820920868
1939 -1139.890183271004
1940 -1140.546952776429
1941 -1139.901023304127
1942 -1140.54720263394
1943 -1139.89745506777
1944 -1140.545198259869
1945 -1139.899999852943
1946 -1140.541537323158
1947 -1139.90132799816
1948 -1140.535476172766
1949 -1139.902240760543
1950 -1140.535970879744
1951 -1139.897714191778
1952 -1140.528940400778
1953 -1139.902491946624
1954 -1140.533419351072
1955 -1139.890220033854
1956 -1140.53314901409
1957 -1139.890146978477
1958 -1140.539671898191
1959 -1139.89423331599
1960 -1140.537510084627
1961 -1139.89332162117
1962 -1140.54095995318
1963 -1139.892098092074
1964 -1140.543340268882
1965 -1139.893965440256
1966 -1140.539693985066
1967 -1139.891228051142
1968 -1140.540803149365
1969 -1139.891225727894
1970 -1140.540586482993
1971 -1139.893729992385
1972 -1140.539721247887
1973 -1139.892186305891
1974 -1140.536099343691
1975 -1139.898754143098
1976 -1140.539025153224
1977 -1139.893269789929
1978 -1140.533585383232
1979 -1139.889925628318
1980 -1140.529483233995
1981 -1139.88328176582
1982 -1140.531937805174
1983 -1139.890249360831
1984 -1140.531855031257
1985 -1139.881977315024
1986 -1140.528118800639
1987 -1139.881618873614
1988 -1140.531335673595
1989 -1139.883528909838
1990 -1140.527228426093
1991 -1139.878961942909
1992 -1140.527011177065
1993 -1139.879668507141
1994 -1140.526364248943
1995 -1139.883643702731
1996 -1140.532891356115
1997 -1139.886391266719
1998 -1140.533441294688
1999 -1139.886255365771
2000 -1140.535490635407
2001 -1139.884600859026
2002 -1140.527026788252
2003 -1139.88717857615
2004 -1140.533971193136
2005 -1139.883563932472
2006 -1140.531306382199
2007 -1139.888223212502
2008 -1140.53678451044
2009 -1139.881404810042
2010 -1140.539594418867
2011 -1139.889622287059
2012 -1140.543856073115
2013 -1139.894469164585
2014 -1140.545751977949
2015 -1139.898966874197
2016 -1140.545612392265
2017 -1139.894092808756
2018 -1140.54559498047
2019 -1139.897092452919
2020 -1140.537203606515
2021 -1139.882197008168
2022 -1140.529671339074
2023 -1139.879794819244
2024 -1140.527982634182
2025 -1139.880284712405
2026 -1140.520370719691
2027 -1139.8767059683
2028 -1140.523338164879
2029 -1139.872261127783
2030 -1140.518392815653
2031 -1139.869502960367
2032 -1140.516021246857
2033 -1139.873339129536
2034 -1140.522692116469
2035 -1139.879446323146
2036 -1140.518442609314
2037 -1139.883466019833
2038 -1140.524219230188
2039 -1139.876162720508
2040 -1140.523557508747
2041 -1139.883191676484
2042 -1140.529339575223
2043 -1139.895894187547
2044 -1140.532883828956
2045 -1139.88131450719
2046 -1140.529861613034
2047 -1139.885540995505
2048 -1140.533926402526
2049 -1139.885372647179
2050 -1140.533358870402
2051 -1139.893207670616
2052 -1140.540613466574
2053 -1139.889465497159
2054 -1140.537681183718
2055 -1139.894922296013
2056 -1140.532341414815
2057 -1139.880031501271
2058 -1140.531771154237
2059 -1139.880134471404
2060 -1140.53104017943
2061 -1139.879613879645
2062 -1140.528359590431
2063 -1139.881767618304
2064 -1140.532492836808
2065 -1139.8832689082
2066 -1140.534643292292
2067 -1139.889839123142
2068 -1140.534023710707
2069 -1139.880222377231
2070 -1140.53186793712
2071 -1139.885185207114
2072 -1140.536110250699
2073 -1139.882868565207
2074 -1140.530501804972
2075 -1139.887607870225
2076 -1140.53735469409
2077 -1139.883314485151
2078 -1140.531724706285
2079 -1139.885541550039
2080 -1140.530149155766
2081 -1139.875474762111
2082 -1140.525260950875
2083 -1139.885790835677
2084 -1140.534875846781
2085 -1139.890150376513
2086 -1140.533495715926
2087 -1139.890174757298
2088 -1140.53832985098
2089 -1139.88871483179
2090 -1140.535437006815
2091 -1139.890903427035
2092 -1140.533367915398
2093 -1139.887766929307
2094 -1140.53219510144
2095 -1139.887017395902
2096 -1140.529422162472
2097 -1139.882974076507
2098 -1140.523608543236
2099 -1139.880779917657
2100 -1140.526691239896
2101 -1139.884095612466
2102 -1140.525216348557
2103 -1139.8898387195
2104 -1140.518535585591
2105 -1139.875129843383
2106 -1140.51770027479
2107 -1139.884466723342
2108 -1140.538726257807
2109 -1139.894497063132
2110 -1140.531297333595
2111 -1139.891160293944
2112 -1140.529906407567
2113 -1139.897480059203
2114 -1140.539109879344
2115 -1139.900706207616
2116 -1140.546057591819
2117 -1139.903980400586
2118 -1140.546127620959
2119 -1139.902849104239
2120 -1140.546415748416
2121 -1139.903406892641
2122 -1140.545638103088
2123 -1139.895056192351
2124 -1140.547832327653
2125 -1139.891526040434
2126 -1140.541565649901
2127 -1139.900837349046
2128 -1140.548380871281
2129 -1139.907842616863
2130 -1140.544698520767
2131 -1139.900037203133
2132 -1140.546822772384
2133 -1139.899608742328
2134 -1140.546622251444
2135 -1139.901279916285
2136 -1140.560661984848
2137 -1139.906165481482
2138 -1140.552083197031
2139 -1139.909492676799
2140 -1140.547950890553
2141 -1139.902951560541
2142 -1140.546427730353
2143 -1139.901155092875
2144 -1140.554720007395
2145 -1139.911279368004
2146 -1140.548681987128
2147 -1139.906214820867
2148 -1140.557757540092
2149 -1139.910880327657
2150 -1140.559572318706
2151 -1139.908835775906
2152 -1140.56538082124
2153 -1139.91665838627
2154 -1140.573440068561
2155 -1139.921261359287
2156 -1140.579337665882
2157 -1139.931139409776
2158 -1140.580180061572
2159 -1139.920433105444
2160 -1140.583247472719
2161 -1139.938225179314
2162 -1140.585694320042
2163 -1139.932692581074
2164 -1140.582803087665
2165 -1139.932376647261
2166 -1140.576723077234
2167 -1139.923778007542
2168 -1140.573379642665
2169 -1139.927840792008
2170 -1140.571276207987
2171 -1139.916760585915
2172 -1140.570297444993
2173 -1139.926051527124
2174 -1140.576996860317
2175 -1139.931019448358
2176 -1140.580072630311
2177 -1139.935184920659
2178 -1140.579396674065
2179 -1139.92769039146
2180 -1140.576891231837
2181 -1139.93323233701
2182 -1140.573367752245
2183 -1139.926308532902
2184 -1140.574326527208
2185 -1139.934531076608
2186 -1140.576161999933
2187 -1139.929783375612
2188 -1140.570872773401
2189 -1139.927825313303
2190 -1140.571275746701
2191 -1139.930745539036
2192 -1140.570299340764
2193 -1139.934459866138
2194 -1140.568092205759
2195 -1139.929340382058
2196 -1140.569601090717
2197 -1139.931552365266
2198 -1140.570338270668
2199 -1139.931797789432
2200 -1140.568784333823
2201 -1139.92837827674
2202 -1140.570756437048
2203 -1139.932706839494
2204 -1140.580230026569
2205 -1139.940401455887
2206 -1140.579293904023
2207 -1139.940718612638
2208 -1140.583946512118
2209 -1139.943787197393
2210 -1140.576149233407
2211 -1139.931868682404
2212 -1140.573109783787
2213 -1139.931797360694
2214 -1140.573658201463
2215 -1139.928179045338
2216 -1140.576736878746
2217 -1139.943710724992
2218 -1140.577254590466
2219 -1139.936841704727
2220 -1140.577196253591
2221 -1139.936651128027
2222 -1140.572715424265
2223 -1139.934911619778
2224 -1140.577802003685
2225 -1139.938122746088
2226 -1140.581161857393
2227 -1139.934803700414
2228 -1140.587622149611
2229 -1139.941615361178
2230 -1140.582215727557
2231 -1139.929549526112
2232 -1140.578782412777
2233 -1139.930534319732
2234 -1140.572391851803
2235 -1139.923003474624
2236 -1140.572326383198
2237 -1139.928437766555
2238 -1140.578691812176
2239 -1139.928313649449
2240 -1140.573629024394
2241 -1139.93059499855
2242 -1140.572882276619
2243 -1139.92366535837
2244 -1140.583956637992
2245 -1139.93237274595
2246 -1140.576024424174
2247 -1139.929751766463
2248 -1140.579602824195
2249 -1139.92866055282
2250 -1140.578441682354
2251 -1139.925759606172
2252 -1140.581993301641
2253 -1139.931477997966
2254 -1140.575296949218
2255 -1139.926505064033
2256 -1140.580036751018
2257 -1139.933746585131
2258 -1140.577646757552
2259 -1139.935197709304
2260 -1140.582704571663
2261 -1139.938184573238
2262 -1140.584861984589
2263 -1139.94022371328
2264 -1140.591840399915
2265 -1139.945570173654
2266 -1140.584080877762
2267 -1139.932511896219
2268 -1140.581451771961
2269 -1139.935446696816
2270 -1140.580496743404
2271 -1139.9308505649
2272 -1140.582148654445
2273 -1139.934149948398
2274 -1140.585489606149
2275 -1139.934813834617
2276 -1140.592481477268
2277 -1139.947690407846
2278 -1140.589895173609
2279 -1139.94656605365
2280 -1140.597515214102
2281 -1139.944146218088
2282 -1140.583133390012
2283 -1139.941288721112
2284 -1140.586663471396
2285 -1139.943174549665
2286 -1140.583694814174
2287 -1139.937498355052
2288 -1140.590938399028
2289 -1139.943610449905
2290 -1140.580867512047
2291 -1139.938587451919
2292 -1140.585122739654
2293 -1139.935077333984
2294 -1140.581709998882
2295 -1139.933593219446
2296 -1140.586816891273
2297 -1139.932713168866
2298 -1140.584793313341
2299 -1139.929265051588
2300 -1140.583793500031
2301 -1139.929984315539
2302 -1140.571890741151
2303 -1139.923320338479
2304 -1140.571645722078
2305 -1139.928242446132
2306 -1140.582832169158
2307 -1139.936152958655
2308 -1140.58200005438
2309 -1139.932902007507
2310 -1140.57705913935
2311 -1139.943223324847
2312 -1140.592762069811
2313 -1139.941470263698
2314 -1140.584130684368
2315 -1139.940278302473
2316 -1140.588286420816
2317 -1139.938467715412
2318 -1140.583974268613
2319 -1139.938366746704
2320 -1140.592760974148
2321 -1139.932379988481
2322 -1140.589416875006
2323 -1139.934486995323
2324 -1140.587735848604
2325 -1139.931329081914
2326 -1140.576543416065
2327 -1139.931373456108
2328 -1140.579963495979
2329 -1139.935905878592
2330 -1140.585399043618
2331 -1139.932020365016
2332 -1140.576185010646
2333 -1139.923211286651
2334 -1140.578118948737
2335 -1139.926898376246
2336 -1140.575410236593
2337 -1139.93541567346
2338 -1140.575401621793
2339 -1139.930968087233
2340 -1140.569466512049
2341 -1139.915531043575
2342 -1140.567178800748
2343 -1139.926542338995
2344 -1140.562843806835
2345 -1139.923643002378
2346 -1140.570240098835
2347 -1139.933332474652
2348 -1140.565659233726
2349 -1139.924306358381
2350 -1140.566686064515
2351 -1139.934366429235
2352 -1140.576336994978
2353 -1139.934164934449
2354 -1140.578724350622
2355 -1139.934614152564
2356 -1140.57293018605
2357 -1139.930338365548
2358 -1140.579431936201
2359 -1139.93799761744
2360 -1140.582222139832
2361 -1139.932696648845
2362 -1140.573146897239
2363 -1139.932933350793
2364 -1140.572978766581
2365 -1139.936936699632
2366 -1140.56686446327
2367 -1139.935797928383
2368 -1140.56904389387
2369 -1139.933304124965
2370 -1140.582432514741
2371 -1139.944538348953
2372 -1140.581596734332
2373 -1139.942995081239
2374 -1140.583087582836
2375 -1139.946044615167
2376 -1140.580434817773
2377 -1139.940321665169
2378 -1140.582794221766
2379 -1139.941941596822
2380 -1140.583294188799
2381 -1139.942479474335
2382 -1140.584347279497
2383 -1139.940023728
2384 -1140.583817623046
2385 -1139.934742932243
2386 -1140.576949719219
2387 -1139.93523261654
2388 -1140.581181043808
2389 -1139.931849550343
2390 -1140.576673086782
2391 -1139.931332231939
2392 -1140.569684284885
2393 -1139.920731373903
2394 -1140.559670837517
2395 -1139.920696353073
2396 -1140.57106409188
2397 -1139.923547713095
2398 -1140.564384051165
2399 -1139.921895884023
2400 -1140.570017802114
2401 -1139.931202077678
2402 -1140.577546631355
2403 -1139.934063549082
2404 -1140.579601650543
2405 -1139.929181386776
2406 -1140.580149875392
2407 -1139.936207441506
2408 -1140.585729878215
2409 -1139.941936559326
2410 -1140.579863990353
2411 -1139.929981793275
2412 -1140.575295570091
2413 -1139.933184969206
2414 -1140.574968997675
2415 -1139.937889437417
2416 -1140.575960930103
2417 -1139.931206115581
2418 -1140.571764691229
2419 -1139.928802792631
2420 -1140.579028372113
2421 -1139.936447217802
2422 -1140.573768197346
2423 -1139.928582057516
2424 -1140.574473929263
2425 -1139.934516224399
2426 -1140.573977264512
2427 -1139.928603814689
2428 -1140.565549954166
2429 -1139.929024889264
2430 -1140.561786682954
2431 -1139.915870728625
2432 -1140.557174111744
2433 -1139.922555637776
2434 -1140.550351781176
2435 -1139.910766799173
2436 -1140.549716530983
2437 -1139.919506349097
2438 -1140.551864655497
2439 -1139.916257375514
2440 -1140.54934352745
2441 -1139.911957068434
2442 -1140.549175516041
2443 -1139.90652280582
2444 -1140.546066006023
2445 -1139.907569352042
2446 -1140.543118787568
2447 -1139.900824762667
2448 -1140.54708307036
2449 -1139.910610338555
2450 -1140.551398621495
2451 -1139.908405026077
2452 -1140.549772656407
2453 -1139.905233761307
2454 -1140.540631663706
2455 -1139.895169597169
2456 -1140.5441613056
2457 -1139.898853681311
2458 -1140.532986144415
2459 -1139.889495976184
2460 -1140.532940195689
2461 -1139.896967500763
2462 -1140.53092239822
2463 -1139.895873745854
2464 -1140.537444430406
2465 -1139.892271700971
2466 -1140.533886893792
2467 -1139.886554496048
2468 -1140.532528022447
2469 -1139.890955070906
2470 -1140.525396787901
2471 -1139.885455568576
2472 -1140.535368107864
2473 -1139.889831744561
2474 -1140.525295042679
2475 -1139.875832753645
2476 -1140.518947586659
2477 -1139.876866981686
2478 -1140.51911167542
2479 -1139.876680339182
2480 -1140.527153947111
2481 -1139.886745028302
2482 -1140.523635059097
2483 -1139.880141895721
2484 -1140.527302125204
2485 -1139.882393248379
2486 -1140.521698360227
2487 -1139.869202073908
2488 -1140.510741447151
2489 -1139.859985727056
2490 -1140.495892526506
2491 -1139.844057344037
2492 -1140.494139280805
2493 -1139.842771629321
2494 -1140.493123075699
2495 -1139.848098474797
2496 -1140.499223851476
2497 -1139.851271179515
2498 -1140.487908180309
2499 -1139.853155427327
2500 -1140.498837990072
2501 -1139.851141842887
2502 -1140.497736042408
2503 -1139.860751362524
2504 -1140.502806374949
2505 -1139.858172976478
2506 -1140.492115466075
2507 -1139.850162963092
2508 -1140.494101147365
2509 -1139.848742456982
2510 -1140.489734776222
2511 -1139.852314125356
2512 -1140.49432298937
2513 -1139.848574881643
2514 -1140.499996539933
2515 -1139.849389824612
2516 -1140.504342866135
2517 -1139.850417721943
2518 -1140.492676695027
2519 -1139.851337924159
2520 -1140.500609816241
2521 -1139.85852898895
2522 -1140.505742786593
2523 -1139.867324925252
2524 -1140.507954950533
2525 -1139.867679821893
2526 -1140.50952844754
2527 -1139.872757153886
2528 -1140.515462366721
2529 -1139.891054237666
2530 -1140.526859383775
2531 -1139.884474364013
2532 -1140.535179205838
2533 -1139.892293249033
2534 -1140.529131587087
2535 -1139.886632955051
2536 -1140.526204083697
2537 -1139.877708167963
2538 -1140.520789039196
2539 -1139.879199540124
2540 -1140.524442623565
2541 -1139.883600322034
2542 -1140.521525576775
2543 -1139.882647315943
2544 -1140.528046673149
2545 -1139.887637069563
2546 -1140.526965957715
2547 -1139.882740636207
2548 -1140.525640250335
2549 -1139.891499455633
2550 -1140.529094521638
2551 -1139.890086718059
2552 -1140.533697552754
2553 -1139.896295991526
2554 -1140.532118534248
2555 -1139.895954999839
2556 -1140.53904973833
2557 -1139.905347975859
2558 -1140.530685508013
2559 -1139.902586518129
2560 -1140.540761344336
2561 -1139.904975107965
2562 -1140.545104280608
2563 -1139.908873663899
2564 -1140.558812102259
2565 -1139.910337284022
2566 -1140.547500641001
2567 -1139.90513196993
2568 -1140.546278745547
2569 -1139.913225818006
2570 -1140.558873627597
2571 -1139.913332652625
2572 -1140.562011546473
2573 -1139.923438575867
2574 -1140.565123681016
2575 -1139.926579293013
2576 -1140.573297724636
2577 -1139.935722086184
2578 -1140.576102656275
2579 -1139.936491966083
2580 -1140.587079034052
2581 -1139.948276423344
2582 -1140.588425434138
2583 -1139.945766929143
2584 -1140.584918898816
2585 -1139.94247785657
2586 -1140.585813745308
2587 -1139.940688404194
2588 -1140.58481495514
2589 -1139.936510765894
2590 -1140.575914136984
2591 -1139.930777811024
2592 -1140.584562209548
2593 -1139.934221396415
2594 -1140.582570907699
2595 -1139.93182330994
2596 -1140.58398574828
2597 -1139.934454071858
2598 -1140.584118552676
2599 -1139.940593843073
2600 -1140.594651802322
2601 -1139.942098586705
2602 -1140.574391924244
2603 -1139.934119870278
2604 -1140.587265511025
2605 -1139.934489461929
2606 -1140.583044796427
2607 -1139.941026925561
2608 -1140.594876453198
2609 -1139.937668562077
2610 -1140.586451339595
2611 -1139.937958813605
2612 -1140.588261164732
2613 -1139.94359973602
2614 -1140.592144078304
2615 -1139.942825371883
2616 -1140.5951962636
2617 -1139.943541724175
2618 -1140.59613821584
2619 -1139.948739987388
2620 -1140.59723311511
2621 -1139.952309762878
2622 -1140.600829362628
2623 -1139.957673683766
2624 -1140.603210570945
2625 -1139.95647827216
2626 -1140.584860857369
2627 -1139.946434839917
2628 -1140.589691388332
2629 -1139.945036008634
2630 -1140.581362966084
2631 -1139.941431687718
2632 -1140.584372576738
2633 -1139.94234144285
2634 -1140.579489355916
2635 -1139.939418587956
2636 -1140.589002559501
2637 -1139.940840100915
2638 -1140.581637415147
2639 -1139.930748949733
2640 -1140.574071146707
2641 -1139.93052799197
2642 -1140.575930401059
2643 -1139.933198762577
2644 -1140.577708386247
2645 -1139.933466998508
2646 -1140.576117540518
2647 -1139.929709314862
2648 -1140.580046223539
2649 -1139.937637109717
2650 -1140.573603982845
2651 -1139.923200211288
2652 -1140.570948825449
2653 -1139.929855890433
2654 -1140.576130183916
2655 -1139.929137162861
2656 -1140.56506874579
2657 -1139.924091975825
2658 -1140.573546463486
2659 -1139.929019091715
2660 -1140.575485016829
2661 -1139.930736165938
2662 -1140.556966543709
2663 -1139.924984827311
2664 -1140.568659133538
2665 -1139.926717844915
2666 -1140.571504124518
2667 -1139.933296105445
2668 -1140.568674201065
2669 -1139.930037965946
2670 -1140.573076157644
2671 -1139.931840173095
2672 -1140.576344751848
2673 -1139.925461339379
2674 -1140.568524798017
2675 -1139.91867160202
2676 -1140.564771381472
2677 -1139.915217291491
2678 -1140.55510075244
2679 -1139.910650823081
2680 -1140.544314102253
2681 -1139.900846415246
2682 -1140.542192365924
2683 -1139.898984747969
2684 -1140.545567182141
2685 -1139.899081323371
2686 -1140.537490706379
2687 -1139.895877151002
2688 -1140.5457607425
2689 -1139.895691889209
2690 -1140.546608805842
2691 -1139.894612022357
2692 -1140.542993919447
2693 -1139.887295009835
2694 -1140.540238176025
2695 -1139.888920735209
2696 -1140.539870704018
2697 -1139.890422987201
2698 -1140.523302648027
2699 -1139.880939287506
2700 -1140.524460736242
2701 -1139.887027396362
2702 -1140.531040701221
2703 -1139.881099798023
2704 -1140.525897980892
2705 -1139.878838910238
2706 -1140.534202816438
2707 -1139.883964669614
2708 -1140.533238882054
2709 -1139.889389342569
2710 -1140.526289537058
2711 -1139.88241570659
2712 -1140.529376106212
2713 -1139.879249308854
2714 -1140.530579814895
2715 -1139.885655933003
2716 -1140.526884794052
2717 -1139.880898010737
2718 -1140.52285057391
2719 -1139.874582379444
2720 -1140.516565972671
2721 -1139.876179641941
2722 -1140.512100048897
2723 -1139.875205461738
2724 -1140.519241137079
2725 -1139.874187970792
2726 -1140.512607709226
2727 -1139.872530784549
2728 -1140.515982891136
2729 -1139.874839462061
2730 -1140.521908248357
2731 -1139.880130967977
2732 -1140.527543221207
2733 -1139.874069769018
2734 -1140.511202335474
2735 -1139.870161935939
2736 -1140.510074598046
2737 -1139.874808857009
2738 -1140.515885056327
2739 -1139.868752532808
2740 -1140.504762929412
2741 -1139.869790915502
2742 -1140.518950049402
2743 -1139.88045478404
2744 -1140.532653281259
2745 -1139.894595375552
2746 -1140.536125915316
2747 -1139.885311352174
2748 -1140.542528503769
2749 -1139.900607299737
2750 -1140.539962190277
2751 -1139.890174189859
2752 -1140.539814261772
2753 -1139.894603420935
2754 -1140.53734230784
2755 -1139.886329928522
2756 -1140.537650909301
2757 -1139.894822165563
2758 -1140.537376037455
2759 -1139.888224787848
2760 -1140.541483460129
2761 -1139.893012297738
2762 -1140.55222794916
2763 -1139.898685744191
2764 -1140.550260674775
2765 -1139.897899538155
2766 -1140.54527390474
2767 -1139.910646085276
2768 -1140.561945592691
2769 -1139.910822961912
2770 -1140.547814354848
2771 -1139.898588262485
2772 -1140.541946211607
2773 -1139.902438599016
2774 -1140.548537320418
2775 -1139.900575251503
2776 -1140.5461641305
2777 -1139.90383703938
2778 -1140.551570026167
2779 -1139.904094113205
2780 -1140.548888177458
2781 -1139.900973684558
2782 -1140.547549896032
2783 -1139.895417054124
2784 -1140.551126487158
2785 -1139.891180298622
2786 -1140.536622199744
2787 -1139.889716198277
2788 -1140.545569248733
2789 -1139.900963537187
2790 -1140.55162231453
2791 -1139.913754438016
2792 -1140.560827041829
2793 -1139.920083628221
2794 -1140.557048725866
2795 -1139.917996378063
2796 -1140.56403226574
2797 -1139.927138452281
2798 -1140.560928677519
2799 -1139.929170494946
2800 -1140.568786527225
2801 -1139.930208144729
2802 -1140.573263330813
2803 -1139.929119279255
2804 -1140.571064622824
2805 -1139.92500616366
2806 -1140.55854372353
2807 -1139.91884174268
2808 -1140.562681849592
2809 -1139.915164867888
2810 -1140.551520062098
2811 -1139.919231061565
2812 -1140.568160025133
2813 -1139.919853160223
2814 -1140.559433107375
2815 -1139.918628516843
2816 -1140.569873720531
2817 -1139.922826573652
2818 -1140.573440372702
2819 -1139.922063132102
2820 -1140.577754947375
2821 -1139.925142658472
2822 -1140.569674517812
2823 -1139.917810445921
2824 -1140.569632589004
2825 -1139.919677407835
2826 -1140.559475967471
2827 -1139.920036337969
2828 -1140.569726162763
2829 -1139.925551662999
2830 -1140.568112236628
2831 -1139.921641951744
2832 -1140.57314495058
2833 -1139.929040554939
2834 -1140.576253496193
2835 -1139.929553752107
2836 -1140.576578200143
2837 -1139.93158857997
2838 -1140.582021043162
2839 -1139.935794125435
2840 -1140.584604254859
2841 -1139.937935748098
2842 -1140.578060546544
2843 -1139.930755644512
2844 -1140.575792393375
2845 -1139.935428158134
2846 -1140.569026046888
2847 -1139.938579323199
2848 -1140.574951312742
2849 -1139.927898439021
2850 -1140.568050166588
2851 -1139.934131125595
2852 -1140.587407504622
2853 -1139.938897587436
2854 -1140.5782256641
2855 -1139.939039679164
2856 -1140.593565183355
2857 -1139.940969270595
2858 -1140.584208934753
2859 -1139.936665180084
2860 -1140.569258234887
2861 -1139.927027627673
2862 -1140.573920824795
2863 -1139.925826355161
2864 -1140.568538318785
2865 -1139.923569163947
2866 -1140.560775275717
2867 -1139.930173898485
2868 -1140.573631684014
2869 -1139.928651818734
2870 -1140.573353749718
2871 -1139.929253296249
2872 -1140.569888012841
2873 -1139.918289980805
2874 -1140.559796347349
2875 -1139.908573106013
2876 -1140.555807837233
2877 -1139.913172047366
2878 -1140.549309149931
2879 -1139.908137381224
2880 -1140.547865276421
2881 -1139.911374891628
2882 -1140.55376679857
2883 -1139.908423767105
2884 -1140.551060486634
2885 -1139.91006867765
2886 -1140.563202878512
2887 -1139.917956568723
2888 -1140.56801469548
2889 -1139.932438887195
2890 -1140.568001226049
2891 -1139.927429496779
2892 -1140.570891802474
2893 -1139.926810834116
2894 -1140.57645178696
2895 -1139.939112163173
2896 -1140.574009017935
2897 -1139.929159710341
2898 -1140.574668547866
2899 -1139.932318672908
2900 -1140.568770574977
2901 -1139.927158659319
2902 -1140.561820924032
2903 -1139.92664675576
2904 -1140.560672559079
2905 -1139.92493581462
2906 -1140.570640823518
2907 -1139.921379608075
2908 -1140.548743987697
2909 -1139.917268092103
2910 -1140.570581081126
2911 -1139.926304579618
2912 -1140.570226167431
2913 -1139.931447164961
2914 -1140.57691060171
2915 -1139.931384202576
2916 -1140.579051494754
2917 -1139.933308272171
2918 -1140.570851993893
2919 -1139.933233127363
2920 -1140.574807318694
2921 -1139.926416470083
2922 -1140.56715468811
2923 -1139.924687446006
2924 -1140.565332226922
2925 -1139.936192699824
2926 -1140.576255103206
2927 -1139.936915110379
2928 -1140.585701238962
2929 -1139.934435053872
2930 -1140.577341669423
2931 -1139.926923245522
2932 -1140.572994321064
2933 -1139.922998932136
2934 -1140.570579360207
2935 -1139.930865798836
2936 -1140.577735973961
2937 -1139.929640635294
2938 -1140.569729400705
2939 -1139.926452692626
2940 -1140.574627324315
2941 -1139.932256779101
2942 -1140.57258994062
2943 -1139.928334386956
2944 -1140.564802036562
2945 -1139.925295448917
2946 -1140.568927537503
2947 -1139.928228506361
2948 -1140.569645994659
2949 -1139.922586999815
2950 -1140.554151010856
2951 -1139.917749643336
2952 -1140.564808176129
2953 -1139.915365164526
2954 -1140.557594763634
2955 -1139.914560946845
2956 -1140.554189978546
2957 -1139.916282036276
2958 -1140.56311706615
2959 -1139.915909582807
2960 -1140.569967534947
2961 -1139.919599670747
2962 -1140.561083431156
2963 -1139.910279126953
2964 -1140.563254539775
2965 -1139.913262636208
2966 -1140.55413172569
2967 -1139.91417681724
2968 -1140.547887682233
2969 -1139.904627972784
2970 -1140.544411999692
2971 -1139.908320083482
2972 -1140.551955484345
2973 -1139.904424521135
2974 -1140.544126808537
2975 -1139.905603530758
2976 -1140.556415450396
2977 -1139.907256378563
2978 -1140.548166252363
2979 -1139.913615474776
2980 -1140.555029928214
2981 -1139.910128774683
2982 -1140.559662677226
2983 -1139.918457422426
2984 -1140.575409061953
2985 -1139.929657307938
2986 -1140.57168014945
2987 -1139.928312861917
2988 -1140.574547604924
2989 -1139.923696052691
2990 -1140.565660920367
2991 -1139.923768471945
2992 -1140.562166093923
2993 -1139.915953679839
2994 -1140.565415026098
2995 -1139.922835328213
2996 -1140.563907275462
2997 -1139.912587971413
2998 -1140.551269107234
2999 -1139.907745403169
3000 -1140.548102304428
3001 -1139.905269775838
3002 -1140.555204174243
3003 -1139.902077223803
3004 -1140.543837600528
3005 -1139.903607944838
3006 -1140.556592854139
3007 -1139.910696937905
3008 -1140.5656135199
3009 -1139.926342408652
3010 -1140.559241851594
3011 -1139.916233100754
3012 -1140.563087313476
3013 -1139.920884799638
3014 -1140.558812830701
3015 -1139.918869832155
3016 -1140.56142556596
3017 -1139.921548810816
3018 -1140.559044332336
3019 -1139.916117157691
3020 -1140.554690157555
3021 -1139.913836979366
3022 -1140.55099471112
3023 -1139.911391899096
3024 -1140.558868140375
3025 -1139.913211469959
3026 -1140.546268643767
3027 -1139.916405943633
3028 -1140.56120835248
3029 -1139.913466139208
3030 -1140.556080318572
3031 -1139.916556865934
3032 -1140.56071973231
3033 -1139.923592725517
3034 -1140.562580676127
3035 -1139.915532549921
3036 -1140.56547640329
3037 -1139.913431183996
3038 -1140.559346972003
3039 -1139.91820313906
3040 -1140.566851744114
3041 -1139.918403582388
3042 -1140.565127036206
3043 -1139.920598872361
3044 -1140.563585328419
3045 -1139.912147214011
3046 -1140.553537129154
3047 -1139.91388072514
3048 -1140.559877080843
3049 -1139.91154176878
3050 -1140.553405987857
3051 -1139.918463232321
3052 -1140.563066380312
3053 -1139.916132120021
3054 -1140.558709861637
3055 -1139.925294161411
3056 -1140.568977851223
3057 -1139.928382448312
3058 -1140.56622488061
3059 -1139.920956616093
3060 -1140.573665591258
3061 -1139.919379765859
3062 -1140.557860165706
3063 -1139.912510030893
3064 -1140.559085061006
3065 -1139.911238737684
3066 -1140.555612769602
3067 -1139.910527434222
3068 -1140.561010036307
3069 -1139.913533256955
3070 -1140.554267697458
3071 -1139.91529203603
3072 -1140.564610706108
3073 -1139.919792868873
3074 -1140.561994107284
3075 -1139.925395785085
3076 -1140.566237774648
3077 -1139.925000708114
3078 -1140.56791261544
3079 -1139.927786162969
3080 -1140.570025375017
3081 -1139.926024292728
3082 -1140.560824999111
3083 -1139.931648468825
3084 -1140.575416438829
3085 -1139.924776404297
3086 -1140.560990937677
3087 -1139.934374313281
3088 -1140.578667911934
3089 -1139.929751921717
3090 -1140.573761016374
3091 -1139.93096634503
3092 -1140.572671637973
3093 -1139.918122281699
3094 -1140.562022724022
3095 -1139.924769490803
3096 -1140.564963159523
3097 -1139.915244225228
3098 -1140.552438875558
3099 -1139.915944410422
3100 -1140.551389720031
3101 -1139.898510855637
3102 -1140.542427864321
3103 -1139.901744107922
3104 -1140.546497611837
3105 -1139.902621248943
3106 -1140.538132459795
3107 -1139.902968119277
3108 -1140.546699023662
3109 -1139.906835857004
3110 -1140.548475338847
3111 -1139.921475732282
3112 -1140.556709338736
3113 -1139.919017029272
3114 -1140.559636999403
3115 -1139.928019911621
3116 -1140.571218882194
3117 -1139.928097094555
3118 -1140.557912609791
3119 -1139.930050065389
3120 -1140.55951416668
3121 -1139.923054794078
3122 -1140.555165440305
3123 -1139.91827512545
3124 -1140.555003041436
3125 -1139.911749850722
3126 -1140.552615351324
3127 -1139.917637410989
3128 -1140.564860927211
3129 -1139.918577200734
3130 -1140.552807511176
3131 -1139.921155414121
3132 -1140.556841722938
3133 -1139.918447926445
3134 -1140.554100302937
3135 -1139.914962556642
3136 -1140.554168672899
3137 -1139.911572415713
3138 -1140.550043852037
3139 -1139.913426886337
3140 -1140.554583699492
3141 -1139.910315384311
3142 -1140.548378374043
3143 -1139.909565685916
3144 -1140.551576026161
3145 -1139.906141300647
3146 -1140.542109511025
3147 -1139.898405875732
3148 -1140.536667490585
3149 -1139.892561181852
3150 -1140.538314312067
3151 -1139.894821694412
3152 -1140.538800041464
3153 -1139.897558042373
3154 -1140.539446568047
3155 -1139.898880937217
3156 -1140.547464841104
3157 -1139.903837296272
3158 -1140.547050516156
3159 -1139.903991143941
3160 -1140.543800829441
3161 -1139.90251302427
3162 -1140.547804448073
3163 -1139.911342624475
3164 -1140.555567564722
3165 -1139.91924112879
3166 -1140.554918200844
3167 -1139.91167959783
3168 -1140.557549620328
3169 -1139.912205457563
3170 -1140.545358673636
3171 -1139.903270094643
3172 -1140.541311443497
3173 -1139.898800178997
3174 -1140.544075296398
3175 -1139.906123518835
3176 -1140.546213438131
3177 -1139.907390247394
3178 -1140.542356491726
3179 -1139.905789765238
3180 -1140.548547434257
3181 -1139.903330281386
3182 -1140.534948731741
3183 -1139.900477656196
3184 -1140.534592350638
3185 -1139.905196094943
3186 -1140.536802275007
3187 -1139.91372281893
3188 -1140.55762949846
3189 -1139.916366608948
3190 -1140.537848169588
3191 -1139.9065149937
3192 -1140.547772477049
3193 -1139.903635905198
3194 -1140.551640193783
3195 -1139.907953751854
3196 -1140.553298556914
3197 -1139.905833661562
3198 -1140.548074022194
3199 -1139.902303448832
3200 -1140.551050242298
3201 -1139.900976665744
3202 -1140.533317521305
3203 -1139.897492985996
3204 -1140.53946500649
3205 -1139.902771969307
3206 -1140.548926787344
3207 -1139.908327816695
3208 -1140.557596218361
3209 -1139.917588340007
3210 -1140.565686932143
3211 -1139.921941366287
3212 -1140.567163421159
3213 -1139.923204539495
3214 -1140.560130744753
3215 -1139.909874769124
3216 -1140.563527372944
3217 -1139.913470719295
3218 -1140.563949696175
3219 -1139.916725323991
3220 -1140.567888545467
3221 -1139.918096661322
3222 -1140.565001945791
3223 -1139.915820338787
3224 -1140.56886261425
3225 -1139.919777391743
3226 -1140.56116796546
3227 -1139.921727578276
3228 -1140.574857836682
3229 -1139.928215967746
3230 -1140.566075251392
3231 -1139.934159770307
3232 -1140.572109641156
3233 -1139.918708194173
3234 -1140.5525717105
3235 -1139.919793558082
3236 -1140.569312557214
3237 -1139.918229890809
3238 -1140.563745895672
3239 -1139.922500565849
3240 -1140.568527689569
3241 -1139.918243368901
3242 -1140.569521539833
3243 -1139.930405378945
3244 -1140.568382089468
3245 -1139.917681111351
3246 -1140.56800639283
3247 -1139.915266536761
3248 -1140.560633278391
3249 -1139.906094852937
3250 -1140.548412425725
3251 -1139.908655718589
3252 -1140.55662639364
3253 -1139.910307126212
3254 -1140.556796610694
3255 -1139.918777595842
3256 -1140.558848463817
3257 -1139.912761139216
3258 -1140.557625852661
3259 -1139.912524974279
3260 -1140.558059440638
3261 -1139.915138897896
3262 -1140.553360111772
3263 -1139.91523780759
3264 -1140.564477306944
3265 -1139.918800708726
3266 -1140.569283756254
3267 -1139.928527185828
3268 -1140.570309821591
3269 -1139.928654001898
3270 -1140.576785913232
3271 -1139.931447057512
3272 -1140.576228826425
3273 -1139.929777250434
3274 -1140.571297033099
3275 -1139.930266919319
3276 -1140.571769265448
3277 -1139.925833554246
3278 -1140.574894060182
3279 -1139.930625230296
3280 -1140.571484490845
3281 -1139.919079668131
3282 -1140.568308755498
3283 -1139.92073967134
3284 -1140.569259359035
3285 -1139.917770823667
3286 -1140.566164834029
3287 -1139.921297884522
3288 -1140.571402690911
3289 -1139.924109577562
3290 -1140.579457166634
3291 -1139.928207584515
3292 -1140.572693393044
3293 -1139.921528228467
3294 -1140.572644985928
3295 -1139.928735322537
3296 -1140.57258703755
3297 -1139.921561389614
3298 -1140.569864164651
3299 -1139.921475640648
3300 -1140.574568037743
3301 -1139.91598817558
3302 -1140.567716535817
3303 -1139.912923529853
3304 -1140.565307618697
3305 -1139.915636753531
3306 -1140.572644305284
3307 -1139.926519540229
3308 -1140.570221474851
3309 -1139.930805728029
3310 -1140.577129325885
3311 -1139.922282533133
3312 -1140.569941383394
3313 -1139.926746073597
3314 -1140.586812754401
3315 -1139.931198599829
3316 -1140.570629410606
3317 -1139.928157359627
3318 -1140.58451408923
3319 -1139.933404727912
3320 -1140.587040357836
3321 -1139.93943383911
3322 -1140.590866357087
3323 -1139.945934418814
3324 -1140.598641014082
3325 -1139.944651279817
3326 -1140.591919570835
3327 -1139.944659531203
3328 -1140.590349521708
3329 -1139.939035093378
3330 -1140.589735085373
3331 -1139.943353296467
3332 -1140.606909795067
3333 -1139.952481423691
3334 -1140.604221842838
3335 -1139.94856262034
3336 -1140.605728497586
3337 -1139.955507886301
3338 -1140.602268873711
3339 -1139.957174527191
3340 -1140.59236273658
3341 -1139.9467888919
3342 -1140.590341893537
3343 -1139.942797441978
3344 -1140.588315304336
3345 -1139.945172743653
3346 -1140.589409079439
3347 -1139.938939473541
3348 -1140.581755277094
3349 -1139.926334177136
3350 -1140.579061230772
3351 -1139.93881160965
3352 -1140.584712999354
3353 -1139.934076222036
3354 -1140.586485628897
3355 -1139.947497687292
3356 -1140.599716915683
3357 -1139.948496243383
3358 -1140.594607614496
3359 -1139.945397713465
3360 -1140.593536736606
3361 -1139.942858530988
3362 -1140.592613079001
3363 -1139.948070765563
3364 -1140.591762185107
3365 -1139.945135848915
3366 -1140.584862915205
3367 -1139.944846423594
3368 -1140.601982188868
3369 -1139.948334814004
3370 -1140.597959875083
3371 -1139.949894347033
3372 -1140.612140725742
3373 -1139.952503429592
3374 -1140.604737178097
3375 -1139.95194855066
3376 -1140.596073404745
3377 -1139.945882774211
3378 -1140.593603633102
3379 -1139.960310643941
3380 -1140.605472149766
3381 -1139.953730740802
3382 -1140.596296191902
3383 -1139.947978341548
3384 -1140.597880601528
3385 -1139.943183420552
3386 -1140.582262283649
3387 -1139.932853109849
3388 -1140.575946909235
3389 -1139.92411005009
3390 -1140.574696524984
3391 -1139.926270773004
3392 -1140.579154365346
3393 -1139.928480773108
3394 -1140.569575270899
3395 -1139.921246614978
3396 -1140.559086506971
3397 -1139.921714239787
3398 -1140.557329412543
3399 -1139.918464068797
3400 -1140.552683840135
3401 -1139.91439794863
3402 -1140.556496453985
3403 -1139.921620086976
3404 -1140.57883555151
3405 -1139.933704973736
3406 -1140.576240287696
3407 -1139.936913239045
3408 -1140.59032648326
3409 -1139.938131253125
3410 -1140.584304256645
3411 -1139.937087170787
3412 -1140.577640912576
3413 -1139.933877240192
3414 -1140.586382120035
3415 -1139.934683906503
3416 -1140.58731538822
3417 -1139.934980842267
3418 -1140.578627161281
3419 -1139.920810503747
3420 -1140.577955909423
3421 -1139.931739608488
3422 -1140.57725801869
3423 -1139.927602103551
3424 -1140.570989010916
3425 -1139.924143350367
3426 -1140.573809324786
3427 -1139.92350501535
3428 -1140.563687555446
3429 -1139.919975147996
3430 -1140.558794533089
3431 -1139.91029865473
3432 -1140.555027052685
3433 -1139.915356546148
3434 -1140.561291799229
3435 -1139.918161602657
3436 -1140.5597361282
3437 -1139.908775367563
3438 -1140.562010125834
3439 -1139.910632319643
3440 -1140.567442795597
3441 -1139.924617409732
3442 -1140.569434912649
3443 -1139.917137540069
3444 -1140.567164755735
3445 -1139.918075982026
3446 -1140.561434575949
3447 -1139.909381852978
3448 -1140.545555715033
3449 -1139.905312544801
3450 -1140.552585078239
3451 -1139.910228374713
3452 -1140.561363283231
3453 -1139.917247044953
3454 -1140.558302067766
3455 -1139.917787609077
3456 -1140.567415617839
3457 -1139.923530465118
3458 -1140.569657214311
3459 -1139.922543957481
3460 -1140.564414725403
3461 -1139.918051214698
3462 -1140.573395500627
3463 -1139.92744081277
3464 -1140.578037965344
3465 -1139.934809905675
3466 -1140.571617415122
3467 -1139.933781174175
3468 -1140.573285911359
3469 -1139.928319873038
3470 -1140.580277065983
3471 -1139.9416127127
3472 -1140.585770021822
3473 -1139.942764783955
3474 -1140.589229395443
3475 -1139.946116758061
3476 -1140.591689660885
3477 -1139.95403248303
3478 -1140.576751789414
3479 -1139.937080604165
3480 -1140.576075642626
3481 -1139.935397426598
3482 -1140.579161676581
3483 -1139.943458589074
3484 -1140.582669637777
3485 -1139.939562715778
3486 -1140.582035352616
3487 -1139.938287718167
3488 -1140.584350121094
3489 -1139.941854841143
3490 -1140.579620323734
3491 -1139.940654539756
3492 -1140.583118861238
3493 -1139.938982172181
3494 -1140.572792003129
3495 -1139.931558418167
3496 -1140.566155517907
3497 -1139.93058601162
3498 -1140.575778979607
3499 -1139.925166613445
3500 -1140.56181624623
3501 -1139.935274508636
3502 -1140.573335848231
3503 -1139.93937260218
3504 -1140.585241492578
3505 -1139.945462856508
3506 -1140.5819782173
3507 -1139.938461520002
3508 -1140.585733165088
3509 -1139.940845907256
3510 -1140.583940837794
3511 -1139.936751716315
3512 -1140.575973953484
3513 -1139.931746036975
3514 -1140.563295129848
3515 -1139.920900982793
3516 -1140.563303134468
3517 -1139.923417274633
3518 -1140.559928770093
3519 -1139.915822535743
3520 -1140.554079590114
3521 -1139.908490869152
3522 -1140.546789692898
3523 -1139.915105210767
3524 -1140.566244883907
3525 -1139.916649320677
3526 -1140.55151541522
3527 -1139.899841854173
3528 -1140.560846588119
3529 -1139.909570570599
3530 -1140.55474189225
3531 -1139.910636475586
3532 -1140.55296678365
3533 -1139.900312237361
3534 -1140.54254217126
3535 -1139.894920847718
3536 -1140.543531594293
3537 -1139.908702279623
3538 -1140.553457036151
3539 -1139.90712235679
3540 -1140.553301582422
3541 -1139.897523499187
3542 -1140.543372685463
3543 -1139.906190153818
3544 -1140.547124752965
3545 -1139.900499548546
3546 -1140.548194129354
3547 -1139.898015905109
3548 -1140.541479147854
3549 -1139.886389056285
3550 -1140.529929267289
3551 -1139.888412089959
3552 -1140.537003740044
3553 -1139.889028148404
3554 -1140.532260625284
3555 -1139.885213376849
3556 -1140.527776636641
3557 -1139.880760258279
3558 -1140.520377575441
3559 -1139.87486204249
3560 -1140.514181675006
3561 -1139.872961900597
3562 -1140.496948072167
3563 -1139.855477756681
3564 -1140.495356725821
3565 -1139.852513484667
3566 -1140.502316173772
3567 -1139.868556450398
3568 -1140.504847486245
3569 -1139.863485104852
3570 -1140.503549864807
3571 -1139.861446831057
3572 -1140.507334600345
3573 -1139.860015359968
3574 -1140.49720733469
3575 -1139.852275964881
3576 -1140.507236636387
3577 -1139.863098731471
3578 -1140.508545000717
3579 -1139.858549902074
3580 -1140.508793334574
3581 -1139.855332565414
3582 -1140.503616466611
3583 -1139.864520868214
3584 -1140.514659469859
3585 -1139.867628309897
3586 -1140.505950798335
3587 -1139.857156370099
3588 -1140.508311755655
3589 -1139.862222175848
3590 -1140.50376802909
3591 -1139.866574777951
3592 -1140.506070153347
3593 -1139.863389541504
3594 -1140.511165686027
3595 -1139.861700860863
3596 -1140.50300466437
3597 -1139.859988378928
3598 -1140.484042116452
3599 -1139.863496435466
3600 -1140.511426218092
3601 -1139.864055154114
3602 -1140.504337908243
3603 -1139.862164252749
3604 -1140.494668617247
3605 -1139.857211693756
3606 -1140.504886639798
3607 -1139.861751341005
3608 -1140.506347591817
3609 -1139.86699428757
3610 -1140.506075304079
3611 -1139.865452205827
3612 -1140.511734765004
3613 -1139.860098421366
3614 -1140.513919743008
3615 -1139.870303967294
3616 -1140.524626468034
3617 -1139.877380766428
3618 -1140.515200567092
3619 -1139.87648522906
3620 -1140.521606156763
3621 -1139.87444314974
3622 -1140.504560889317
3623 -1139.879793856365
3624 -1140.517236916986
3625 -1139.877718197062
3626 -1140.524378234514
3627 -1139.895351043967
3628 -1140.535867744504
3629 -1139.894664206969
3630 -1140.544496390961
3631 -1139.912184444952
3632 -1140.548880303226
3633 -1139.907193442666
3634 -1140.541616451079
3635 -1139.897095902825
3636 -1140.539821921455
3637 -1139.894113941737
3638 -1140.539610272899
3639 -1139.897988554423
3640 -1140.541742779655
3641 -1139.889086636501
3642 -1140.531493487136
3643 -1139.894304264064
3644 -1140.535130160466
3645 -1139.891159755897
3646 -1140.530441206332
3647 -1139.89412028927
3648 -1140.53682770041
3649 -1139.894793228775
3650 -1140.539416084501
3651 -1139.899032837277
3652 -1140.541315121639
3653 -1139.895593796874
3654 -1140.543688457583
3655 -1139.891463953603
3656 -1140.542150564404
3657 -1139.898499674321
3658 -1140.544866510458
3659 -1139.907296636818
3660 -1140.5487429966
3661 -1139.905866074378
3662 -1140.541753403124
3663 -1139.899024623765
3664 -1140.530253459691
3665 -1139.899016511137
3666 -1140.539352494259
3667 -1139.906261902232
3668 -1140.540666306106
3669 -1139.9085238873
3670 -1140.542716870125
3671 -1139.906441191505
3672 -1140.551609886435
3673 -1139.926608125513
3674 -1140.554413477986
3675 -1139.91742158537
3676 -1140.558501443278
3677 -1139.914108966627
3678 -1140.556305183975
3679 -1139.912186482422
3680 -1140.56273733718
3681 -1139.910110592213
3682 -1140.549011804904
3683 -1139.90636421515
3684 -1140.54931727343
3685 -1139.904591849316
3686 -1140.553741594687
3687 -1139.914358103429
3688 -1140.550818893055
3689 -1139.906036847681
3690 -1140.541650151349
3691 -1139.909934568704
3692 -1140.551922514482
3693 -1139.907530353014
3694 -1140.541169507335
3695 -1139.909792708105
3696 -1140.558735981191
3697 -1139.909053696761
3698 -1140.552029116707
3699 -1139.922649645291
3700 -1140.5519713221
3701 -1139.916585604406
3702 -1140.552240685113
3703 -1139.918327716764
3704 -1140.572648804072
3705 -1139.927758335251
3706 -1140.553392466351
3707 -1139.918220071936
3708 -1140.562848426251
3709 -1139.917343171483
3710 -1140.551541970918
3711 -1139.916625328546
3712 -1140.560410694289
3713 -1139.920175596046
3714 -1140.563021762285
3715 -1139.923840034263
3716 -1140.565929316719
3717 -1139.920935861491
3718 -1140.551349681941
3719 -1139.915445198022
3720 -1140.563648643482
3721 -1139.918930619714
3722 -1140.565185825608
3723 -1139.922160389489
3724 -1140.563821829992
3725 -1139.923829385288
3726 -1140.565875048184
3727 -1139.933973597577
3728 -1140.568037342361
3729 -1139.936226178902
3730 -1140.5705762344
3731 -1139.929847311585
3732 -1140.582121697385
3733 -1139.93641868968
3734 -1140.574110619438
3735 -1139.935393960478
3736 -1140.577648823606
3737 -1139.92929510197
3738 -1140.571364124163
3739 -1139.929398489587
3740 -1140.58412828608
3741 -1139.938120596751
3742 -1140.580785863356
3743 -1139.931673886489
3744 -1140.585956449389
3745 -1139.941107688232
3746 -1140.581056653524
3747 -1139.939216087238
3748 -1140.57879950836
3749 -1139.93407527056
3750 -1140.575154584362
3751 -1139.936340623058
3752 -1140.578266238101
3753 -1139.944268272446
3754 -1140.579249520817
3755 -1139.936501351611
3756 -1140.579749629877
3757 -1139.945642979233
3758 -1140.593194021923
3759 -1139.947983517096
3760 -1140.595367415829
3761 -1139.951975836779
3762 -1140.595017625754
3763 -1139.945445234654
3764 -1140.602153454715
3765 -1139.953233679582
3766 -1140.593037994602
3767 -1139.94407155414
3768 -1140.594950624688
3769 -1139.950283614938
3770 -1140.586248362727
3771 -1139.944264373109
3772 -1140.582572104697
3773 -1139.943006504474
3774 -1140.592941786509
3775 -1139.943408547633
3776 -1140.589723184498
3777 -1139.942135006095
3778 -1140.577116994528
3779 -1139.948880581383
3780 -1140.599720214491
3781 -1139.944755518065
3782 -1140.592110034641
3783 -1139.94559396044
3784 -1140.591557698948
3785 -1139.940737958114
3786 -1140.582770211494
3787 -1139.938390670428
3788 -1140.584149589028
3789 -1139.943621777922
3790 -1140.589688696399
3791 -1139.944072847167
3792 -1140.592428101646
3793 -1139.948624006168
3794 -1140.593491362696
3795 -1139.941415551139
3796 -1140.585095115459
3797 -1139.937786518521
3798 -1140.591302205207
3799 -1139.939986687287
3800 -1140.588344815297
3801 -1139.946005574309
3802 -1140.585250743515
3803 -1139.945326733382
3804 -1140.587844251141
3805 -1139.94642753517
3806 -1140.590306788103
3807 -1139.945340867858
3808 -1140.576277538538
3809 -1139.939249439366
3810 -1140.580434975546
3811 -1139.929140555904
3812 -1140.573709014043
3813 -1139.925670774569
3814 -1140.572371083089
3815 -1139.924522946548
3816 -1140.568089578376
3817 -1139.926944387268
3818 -1140.574489649417
3819 -1139.920306403087
3820 -1140.565374469632
3821 -1139.922078403805
3822 -1140.562570941986
3823 -1139.919670855184
3824 -1140.561597504013
3825 -1139.914577221403
3826 -1140.56038085312
3827 -1139.914256565215
3828 -1140.553838743655
3829 -1139.911145881707
3830 -1140.556441581938
3831 -1139.911041621108
3832 -1140.554608493207
3833 -1139.90480728656
3834 -1140.563483005747
3835 -1139.914723210635
3836 -1140.565929860908
3837 -1139.90537029994
3838 -1140.549859170307
3839 -1139.919715787267
3840 -1140.569454861563
3841 -1139.92219042048
3842 -1140.556882628227
3843 -1139.921943806555
3844 -1140.561938270747
3845 -1139.916064656512
3846 -1140.561065332835
3847 -1139.921561861892
3848 -1140.565719267318
3849 -1139.917934507001
3850 -1140.549250298439
3851 -1139.904806449146
3852 -1140.552289163995
3853 -1139.9017024212
3854 -1140.546715500251
3855 -1139.910428098465
3856 -1140.56189454662
3857 -1139.913773432361
3858 -1140.555372924729
3859 -1139.913797372471
3860 -1140.547166021197
3861 -1139.911540924296
3862 -1140.546683882241
3863 -1139.903631118514
3864 -1140.541041260789
3865 -1139.903663301084
3866 -1140.547188224395
3867 -1139.916604510971
3868 -1140.561692279132
3869 -1139.920779486781
3870 -1140.560065688653
3871 -1139.91872752045
3872 -1140.565843284216
3873 -1139.923704822424
3874 -1140.557423398389
3875 -1139.908415018739
3876 -1140.5592165269
3877 -1139.915555767945
3878 -1140.556134160788
3879 -1139.916558007326
3880 -1140.555402251136
3881 -1139.914461481703
3882 -1140.561044608485
3883 -1139.917334992454
3884 -1140.556757376685
3885 -1139.915572585518
3886 -1140.542547513765
3887 -1139.910192090998
3888 -1140.548119251772
3889 -1139.907481984756
3890 -1140.538253739919
3891 -1139.909902183715
3892 -1140.548354273808
3893 -1139.916077710159
3894 -1140.553057730067
3895 -1139.919643336461
3896 -1140.567217876067
3897 -1139.928485254337
3898 -1140.569776588444
3899 -1139.922633038501
3900 -1140.567324384829
3901 -1139.911831389033
3902 -1140.555311573782
3903 -1139.917166713421
3904 -1140.561160833234
3905 -1139.918241805965
3906 -1140.5631686661
3907 -1139.926826702832
3908 -1140.576613079515
3909 -1139.936868907617
3910 -1140.583971825697
3911 -1139.938490510027
3912 -1140.585563917418
3913 -1139.942870748655
3914 -1140.575037987276
3915 -1139.936250995309
3916 -1140.576580301963
3917 -1139.933139411731
3918 -1140.574309400234
3919 -1139.934701733589
3920 -1140.573045965654
3921 -1139.930059641854
3922 -1140.577201236709
3923 -1139.931352957175
3924 -1140.575277614665
3925 -1139.92835296731
3926 -1140.578889565492
3927 -1139.930964222286
3928 -1140.580398474561
3929 -1139.926158823908
3930 -1140.576800718449
3931 -1139.937480460265
3932 -1140.58370524427
3933 -1139.933528462871
3934 -1140.57584910389
3935 -1139.933524815416
3936 -1140.580873151126
3937 -1139.936185454118
3938 -1140.579761733175
3939 -1139.940666157129
3940 -1140.582855617681
3941 -1139.934101712872
3942 -1140.576953682356
3943 -1139.932690970805
3944 -1140.58046371521
3945 -1139.934074704682
3946 -1140.570074013592
3947 -1139.932675085705
3948 -1140.578210132977
3949 -1139.930156499223
3950 -1140.563373741226
3951 -1139.9262243329
3952 -1140.573825017319
3953 -1139.923376371057
3954 -1140.561786730359
3955 -1139.934085748492
3956 -1140.582826615291
3957 -1139.928857085043
3958 -1140.558538931017
3959 -1139.931107924583
3960 -1140.577602334145
3961 -1139.934271872604
3962 -1140.57790910325
3963 -1139.934822759202
3964 -1140.576454501325
3965 -1139.932713174186
3966 -1140.574629621181
3967 -1139.933609587506
3968 -1140.568272393887
3969 -1139.924052784318
3970 -1140.562202985943
3971 -1139.925418071242
3972 -1140.570885931724
3973 -1139.936035618419
3974 -1140.571337966963
3975 -1139.93699448459
3976 -1140.570405510768
3977 -1139.930511201587
3978 -1140.570667734762
3979 -1139.928487548924
3980 -1140.564983195443
3981 -1139.923219155461
3982 -1140.556992404383
3983 -1139.924191006779
3984 -1140.5605422721
3985 -1139.916204929053
3986 -1140.559995171284
3987 -1139.927607069804
3988 -1140.560233524528
3989 -1139.922767136286
3990 -1140.559765844151
3991 -1139.923773961289
3992 -1140.565416198008
3993 -1139.917856472194
3994 -1140.555235887598
3995 -1139.913476435813
3996 -1140.554000270573
3997 -1139.910943004836
3998 -1140.556689134121
3999 -1139.922023918358
4000 -1140.561029320822
4001 -1139.90913638919
4002 -1140.551313587081
4003 -1139.91321528707
4004 -1140.555259006082
4005 -1139.911029374202
4006 -1140.551114967524
4007 -1139.913373236442
4008 -1140.557652539056
4009 -1139.904237181604
4010 -1140.546449588429
4011 -1139.903215414901
4012 -1140.544395547132
4013 -1139.889833419493
4014 -1140.539084494663
4015 -1139.89876459923
4016 -1140.540325788429
4017 -1139.898226391801
4018 -1140.544054254864
4019 -1139.893617898581
4020 -1140.541997823343
4021 -1139.894593053268
4022 -1140.539138232901
4023 -1139.899950873008
4024 -1140.537807105536
4025 -1139.890995972821
4026 -1140.542742026888
4027 -1139.894229176992
4028 -1140.541944790377
4029 -1139.894251370624
4030 -1140.527812282993
4031 -1139.889180894102
4032 -1140.522964996086
4033 -1139.882047251481
4034 -1140.505807779709
4035 -1139.888999079444
4036 -1140.523413249387
4037 -1139.881072816159
4038 -1140.515291177946
4039 -1139.871377517255
4040 -1140.519292699923
4041 -1139.879168359961
4042 -1140.513076326059
4043 -1139.871068455108
4044 -1140.516930830981
4045 -1139.872075911988
4046 -1140.516746226516
4047 -1139.872948651589
4048 -1140.515696507184
4049 -1139.870305574714
4050 -1140.512411111675
4051 -1139.86683374228
4052 -1140.513335421124
4053 -1139.864359909966
4054 -1140.506138852445
4055 -1139.868563236444
4056 -1140.50645866282
4057 -1139.869214837036
4058 -1140.498569036543
4059 -1139.865549024971
4060 -1140.495182331535
4061 -1139.859415837297
4062 -1140.496943211979
4063 -1139.861352603004
4064 -1140.502071954434
4065 -1139.864164431241
4066 -1140.497025572512
4067 -1139.853598669512
4068 -1140.497492373977
4069 -1139.852465529267
4070 -1140.495097667518
4071 -1139.851507434106
4072 -1140.496781324117
4073 -1139.848710970178
4074 -1140.491880768011
4075 -1139.847680565367
4076 -1140.495132831398
4077 -1139.848850026377
4078 -1140.491601262215
4079 -1139.850464553424
4080 -1140.503664227688
4081 -1139.864249210722
4082 -1140.505613314573
4083 -1139.86204665702
4084 -1140.499937921746
4085 -1139.85217195318
4086 -1140.497368528876
4087 -1139.852537204646
4088 -1140.503602294138
4089 -1139.86267087951
4090 -1140.50313221984
4091 -1139.857091676071
4092 -1140.507769086717
4093 -1139.865467687894
4094 -1140.506351960173
4095 -1139.868355989787
4096 -1140.516547813169
4097 -1139.874109635751
4098 -1140.509071190658
4099 -1139.866878052882
4100 -1140.511917144214
4101 -1139.869074257959
4102 -1140.506417609042
4103 -1139.870899477035
4104 -1140.509080136151
4105 -1139.872263919973
4106 -1140.511537191226
4107 -1139.872434680526
4108 -1140.512492669933
4109 -1139.871051351925
4110 -1140.519544453443
4111 -1139.879002683939
4112 -1140.521435969986
4113 -1139.875301461348
4114 -1140.507475462719
4115 -1139.88284077586
4116 -1140.532286499418
4117 -1139.88026872669
4118 -1140.52766464151
4119 -1139.886254894184
4120 -1140.539308331088
4121 -1139.886634166293
4122 -1140.542631344309
4123 -1139.894754659094
4124 -1140.550182462476
4125 -1139.910933543099
4126 -1140.552526363998
4127 -1139.904965298992
4128 -1140.552916623131
4129 -1139.903796384197
4130 -1140.553766287701
4131 -1139.899391181424
4132 -1140.550808041618
4133 -1139.895557388925
4134 -1140.545354130422
4135 -1139.895170536579
4136 -1140.548837970113
4137 -1139.901096475237
4138 -1140.544276784546
4139 -1139.900334244806
4140 -1140.548481451784
4141 -1139.904838349426
4142 -1140.554721621541
4143 -1139.910190071828
4144 -1140.565083689129
4145 -1139.910304629489
4146 -1140.563601586264
4147 -1139.91539649432
4148 -1140.561416400288
4149 -1139.922562063746
4150 -1140.571520233903
4151 -1139.926201129669
4152 -1140.58319989989
4153 -1139.931636494439
4154 -1140.581593711889
4155 -1139.932839503928
4156 -1140.575426186949
4157 -1139.91871123226
4158 -1140.571107012463
4159 -1139.92889673696
4160 -1140.575497252663
4161 -1139.917900990406
4162 -1140.568615628765
4163 -1139.918343927895
4164 -1140.577152390101
4165 -1139.933805421945
4166 -1140.584854852691
4167 -1139.944514814913
4168 -1140.588089796875
4169 -1139.939522568179
4170 -1140.585415701951
4171 -1139.940556421402
4172 -1140.584371022618
4173 -1139.935864404031
4174 -1140.579871436503
4175 -1139.934055918532
4176 -1140.580198849974
4177 -1139.928124733183
4178 -1140.576052498405
4179 -1139.929584660131
4180 -1140.571454223167
4181 -1139.921745331512
4182 -1140.574058699256
4183 -1139.925393120654
4184 -1140.574235968719
4185 -1139.924184603318
4186 -1140.570085128102
4187 -1139.923195341584
4188 -1140.569422908924
4189 -1139.916416932075
4190 -1140.560151993334
4191 -1139.924352066106
4192 -1140.569786217378
4193 -1139.91406909418
4194 -1140.562161638325
4195 -1139.908691775409
4196 -1140.562574894643
4197 -1139.91637205266
4198 -1140.568802392199
4199 -1139.919491516844
4200 -1140.567879432123
4201 -1139.927659394241
4202 -1140.571498134435
4203 -1139.936473829992
4204 -1140.572444056493
4205 -1139.935605017863
4206 -1140.581579097415
4207 -1139.939047095009
4208 -1140.572970165732
4209 -1139.925991938548
4210 -1140.567349851763
4211 -1139.923556893195
4212 -1140.564115128001
4213 -1139.925771656357
4214 -1140.573440159488
4215 -1139.932129482943
4216 -1140.574532699245
4217 -1139.926087040729
4218 -1140.575771885201
4219 -1139.932525591337
4220 -1140.576051578834
4221 -1139.930982468385
4222 -1140.574121961102
4223 -1139.935209162709
4224 -1140.576205530035
4225 -1139.926377087932
4226 -1140.56579375526
4227 -1139.931415262798
4228 -1140.56781386207
4229 -1139.924740260822
4230 -1140.571935092603
4231 -1139.931228154396
4232 -1140.578777342592
4233 -1139.930221650375
4234 -1140.57644264392
4235 -1139.93543454465
4236 -1140.58029688062
4237 -1139.929489054545
4238 -1140.578576016398
4239 -1139.938277458686
4240 -1140.586079115088
4241 -1139.934495273795
4242 -1140.584100609468
4243 -1139.933644760729
4244 -1140.57602067856
4245 -1139.92199993172
4246 -1140.566403009081
4247 -1139.924472258636
4248 -1140.574895468362
4249 -1139.920067280152
4250 -1140.57082743555
4251 -1139.924307863814
4252 -1140.571296301892
4253 -1139.91409000479
4254 -1140.567875912463
4255 -1139.916531635722
4256 -1140.57472154377
4257 -1139.924455206516
4258 -1140.571865641638
4259 -1139.926240790831
4260 -1140.572707741637
4261 -1139.928759452976
4262 -1140.578737879109
4263 -1139.935987982337
4264 -1140.573671822081
4265 -1139.92645417951
4266 -1140.582526276293
4267 -1139.937396247267
4268 -1140.588647423936
4269 -1139.938631205169
4270 -1140.577998502087
4271 -1139.940875024115
4272 -1140.58643701413
4273 -1139.926536337442
4274 -1140.57741674375
4275 -1139.930369665387
4276 -1140.586785866951
4277 -1139.939966273553
4278 -1140.593322235309
4279 -1139.938712377483
4280 -1140.593498230626
4281 -1139.934275931747
4282 -1140.576561114019
4283 -1139.918748906248
4284 -1140.571338189696
4285 -1139.924498418451
4286 -1140.575569478375
4287 -1139.920630325595
4288 -1140.573247275146
4289 -1139.915815209825
4290 -1140.566870675827
4291 -1139.913357195384
4292 -1140.568822737037
4293 -1139.919397202338
4294 -1140.561117990764
4295 -1139.913739418954
4296 -1140.568251329346
4297 -1139.916780944194
4298 -1140.563520739765
4299 -1139.913893616164
4300 -1140.553786262866
4301 -1139.910041670312
4302 -1140.553697786374
4303 -1139.912329121765
4304 -1140.560714718215
4305 -1139.91183052064
4306 -1140.546494175406
4307 -1139.903617762967
4308 -1140.550321230454
4309 -1139.907337881773
4310 -1140.545604740679
4311 -1139.897131370951
4312 -1140.544722327328
4313 -1139.893073827675
4314 -1140.541067463247
4315 -1139.8878750054
4316 -1140.541620069911
4317 -1139.892421529872
4318 -1140.536412876364
4319 -1139.89141954345
4320 -1140.54155530748
4321 -1139.893908912794
4322 -1140.534445785609
4323 -1139.887475254345
4324 -1140.532270846207
4325 -1139.879885873631
4326 -1140.52694685187
4327 -1139.87116894588
4328 -1140.522039396714
4329 -1139.880939979497
4330 -1140.520786938173
4331 -1139.872087762625
4332 -1140.525862984395
4333 -1139.877156348766
4334 -1140.522480984343
4335 -1139.874566559807
4336 -1140.522141631911
4337 -1139.880139634229
4338 -1140.527115696662
4339 -1139.87156441545
4340 -1140.523230584679
4341 -1139.870448854463
4342 -1140.511092526883
4343 -1139.861135070909
4344 -1140.519419612544
4345 -1139.871550697467
4346 -1140.513256527633
4347 -1139.867774694009
4348 -1140.51413988242
4349 -1139.874527374498
4350 -1140.509242449997
4351 -1139.871208715633
4352 -1140.51140296902
4353 -1139.872742285298
4354 -1140.507511731819
4355 -1139.867697829085
4356 -1140.513154481781
4357 -1139.870261441623
4358 -1140.512389384104
4359 -1139.865987501096
4360 -1140.510633265048
4361 -1139.872484786786
4362 -1140.515460197781
4363 -1139.871742698254
4364 -1140.526587058663
4365 -1139.881084347897
4366 -1140.521873148989
4367 -1139.876674254846
4368 -1140.522390810951
4369 -1139.878219685469
4370 -1140.523500578079
4371 -1139.883314990072
4372 -1140.519268783991
4373 -1139.883350687355
4374 -1140.525286913103
4375 -1139.896397627643
4376 -1140.542031187303
4377 -1139.898240188075
4378 -1140.536629537332
4379 -1139.894364157053
4380 -1140.543923923006
4381 -1139.898703696418
4382 -1140.547103522104
4383 -1139.904098293462
4384 -1140.554053155328
4385 -1139.894881143094
4386 -1140.553431022611
4387 -1139.900493337062
4388 -1140.552382382913
4389 -1139.894547514786
4390 -1140.533812876413
4391 -1139.886956910881
4392 -1140.532735335766
4393 -1139.891517811813
4394 -1140.540670486615
4395 -1139.896110223998
4396 -1140.533739445464
4397 -1139.887812561673
4398 -1140.535767109621
4399 -1139.892160613414
4400 -1140.535046918887
4401 -1139.887014748072
4402 -1140.5328243799
4403 -1139.89452429931
4404 -1140.538973122567
4405 -1139.888051185296
4406 -1140.543280195521
4407 -1139.900169390851
4408 -1140.544178298979
4409 -1139.892124278856
4410 -1140.550454256203
4411 -1139.908383361387
4412 -1140.555127345616
4413 -1139.907840501939
4414 -1140.549758802877
4415 -1139.911891643278
4416 -1140.566348752538
4417 -1139.920091438825
4418 -1140.558493431022
4419 -1139.920125856505
4420 -1140.549085742662
4421 -1139.912604553379
4422 -1140.555674512872
4423 -1139.918282502243
4424 -1140.555774883917
4425 -1139.915959364124
4426 -1140.558246707133
4427 -1139.91208452162
4428 -1140.553170708789
4429 -1139.905875842511
4430 -1140.549736219871
4431 -1139.905731502258
4432 -1140.555215992879
4433 -1139.905547730441
4434 -1140.552835355812
4435 -1139.903372655744
4436 -1140.554109485751
4437 -1139.907746098881
4438 -1140.543718460387
4439 -1139.906602909296
4440 -1140.555584015702
4441 -1139.911668473945
4442 -1140.550084220317
4443 -1139.925706263177
4444 -1140.552406325803
4445 -1139.915998176427
4446 -1140.544970527334
4447 -1139.914924614677
4448 -1140.546143588294
4449 -1139.909547091699
4450 -1140.536715408574
4451 -1139.912130183332
4452 -1140.550488281312
4453 -1139.911880921611
4454 -1140.545854653126
4455 -1139.920265582955
4456 -1140.557214092956
4457 -1139.911566554863
4458 -1140.556022491624
4459 -1139.921400337536
4460 -1140.573738027317
4461 -1139.931363459022
4462 -1140.567949694068
4463 -1139.937555169146
4464 -1140.572108169497
4465 -1139.930594591583
4466 -1140.570613682783
4467 -1139.925324040538
4468 -1140.566762527128
4469 -1139.924955628139
4470 -1140.56246764201
4471 -1139.926866052926
4472 -1140.568499128384
4473 -1139.923955444394
4474 -1140.559895441768
4475 -1139.932189687486
4476 -1140.569521388691
4477 -1139.922423516507
4478 -1140.562463656137
4479 -1139.915174054179
4480 -1140.556320447832
4481 -1139.911387385015
4482 -1140.554752097605
4483 -1139.913842638463
4484 -1140.556979296915
4485 -1139.909824690621
4486 -1140.543171050826
4487 -1139.898612373694
4488 -1140.548092122444
4489 -1139.90321989039
4490 -1140.548011286943
4491 -1139.904472744384
4492 -1140.549298256986
4493 -1139.901866771658
4494 -1140.54443724192
4495 -1139.909354296354
4496 -1140.56210969237
4497 -1139.907850137216
4498 -1140.545889065913
4499 -1139.903599516128
4500 -1140.557689660249
4501 -1139.901020806364
4502 -1140.543566207548
4503 -1139.896882166511
4504 -1140.543150285353
4505 -1139.892645151987
4506 -1140.54133531492
4507 -1139.899601508507
4508 -1140.548667659443
4509 -1139.894706660998
4510 -1140.54069872602
4511 -1139.898890322652
4512 -1140.553635165053
4513 -1139.897345507185
4514 -1140.543970226004
4515 -1139.897771934939
4516 -1140.540202466694
4517 -1139.904206573883
4518 -1140.550322208038
4519 -1139.906569986291
4520 -1140.551465911648
4521 -1139.906904737676
4522 -1140.547884742792
4523 -1139.917766134942
4524 -1140.550954613256
4525 -1139.909449489209
4526 -1140.551590084989
4527 -1139.90994242854
4528 -1140.543568499632
4529 -1139.909465087202
4530 -1140.556910392759
4531 -1139.915154742933
4532 -1140.554591599477
4533 -1139.903769244715
4534 -1140.549587242332
4535 -1139.91574871072
4536 -1140.562612337561
4537 -1139.914746452196
4538 -1140.55642010536
4539 -1139.923314130414
4540 -1140.555413614868
4541 -1139.915594584331
4542 -1140.556327295185
4543 -1139.921608832779
4544 -1140.559025032552
4545 -1139.913437321669
4546 -1140.547940254448
4547 -1139.912468062545
4548 -1140.552643554713
4549 -1139.907909266325
4550 -1140.548061278943
4551 -1139.914349085913
4552 -1140.552951373729
4553 -1139.908142862262
4554 -1140.551833516716
4555 -1139.912930428636
4556 -1140.560169875865
4557 -1139.915710322005
4558 -1140.558947572976
4559 -1139.921376494907
4560 -1140.560320513696
4561 -1139.912144351995
4562 -1140.556457331663
4563 -1139.91937821584
4564 -1140.556989281774
4565 -1139.91348123454
4566 -1140.551379218541
4567 -1139.911819544511
4568 -1140.556954502556
4569 -1139.915023909529
4570 -1140.546529347246
4571 -1139.90711057796
4572 -1140.551616894832
4573 -1139.906802662313
4574 -1140.540352668283
4575 -1139.905063818749
4576 -1140.54514154061
4577 -1139.900317819971
4578 -1140.53939268564
4579 -1139.905345068731
4580 -1140.54848319097
4581 -1139.904326336064
4582 -1140.543944776171
4583 -1139.905296769836
4584 -1140.548091088501
4585 -1139.899866912529
4586 -1140.546968063532
4587 -1139.911084559572
4588 -1140.554408747078
4589 -1139.907886025665
4590 -1140.551312006986
4591 -1139.919238922428
4592 -1140.561120602744
4593 -1139.913494064628
4594 -1140.560655790374
4595 -1139.923743418065
4596 -1140.572756224335
4597 -1139.923229032339
4598 -1140.570680553241
4599 -1139.93613573963
4600 -1140.580017173939
4601 -1139.931277923707
4602 -1140.572956259535
4603 -1139.935362183341
4604 -1140.568052328941
4605 -1139.929573934287
4606 -1140.564155105102
4607 -1139.918114960256
4608 -1140.558370293964
4609 -1139.912182971735
4610 -1140.556227760149
4611 -1139.921056624529
4612 -1140.560963951633
4613 -1139.912682094684
4614 -1140.555273729467
4615 -1139.906247963763
4616 -1140.557354244044
4617 -1139.910467059652
4618 -1140.544693195636
4619 -1139.909247888301
4620 -1140.551940946109
4621 -1139.908691804145
4622 -1140.546509777198
4623 -1139.902786110356
4624 -1140.54949008386
4625 -1139.905507872907
4626 -1140.562031192119
4627 -1139.921003748702
4628 -1140.579805224028
4629 -1139.921388871675
4630 -1140.563642827951
4631 -1139.919379928616
4632 -1140.562429120937
4633 -1139.917148452726
4634 -1140.562736490408
4635 -1139.91860468356
4636 -1140.562565596126
4637 -1139.921478179396
4638 -1140.559699571025
4639 -1139.927288388704
4640 -1140.573996040552
4641 -1139.935425035281
4642 -1140.565318942109
4643 -1139.93282965989
4644 -1140.584533845432
4645 -1139.931311701076
4646 -1140.585349435564
4647 -1139.930483024368
4648 -1140.581812450294
4649 -1139.931402642467
4650 -1140.579194791452
4651 -1139.921265100279
4652 -1140.576356863835
4653 -1139.92863538313
4654 -1140.576020630191
4655 -1139.925954157315
4656 -1140.576522666396
4657 -1139.930818546194
4658 -1140.574401091586
4659 -1139.928280504223
4660 -1140.567830481762
4661 -1139.912837872093
4662 -1140.558560903203
4663 -1139.916904538347
4664 -1140.567903060851
4665 -1139.920590296218
4666 -1140.559797276081
4667 -1139.91494267463
4668 -1140.567189736985
4669 -1139.917795688148
4670 -1140.561785852978
4671 -1139.915884632635
4672 -1140.553280973441
4673 -1139.912241575186
4674 -1140.555582843532
4675 -1139.918704384985
4676 -1140.560718556795
4677 -1139.92141322865
4678 -1140.556998526621
4679 -1139.91809719522
4680 -1140.564367878926
4681 -1139.928627476337
4682 -1140.569980953038
4683 -1139.937015015014
4684 -1140.569748468295
4685 -1139.926400745124
4686 -1140.561825525288
4687 -1139.925331929123
4688 -1140.56348994065
4689 -1139.928648729672
4690 -1140.561229288249
4691 -1139.927883112279
4692 -1140.569761420455
4693 -1139.934988645464
4694 -1140.57537219503
4695 -1139.937658371526
4696 -1140.564022957508
4697 -1139.93145268173
4698 -1140.569322481669
4699 -1139.922718998984
4700 -1140.55985650576
4701 -1139.924201120182
4702 -1140.566315860257
4703 -1139.920497724355
4704 -1140.569437286116
4705 -1139.91768800377
4706 -1140.565377469247
4707 -1139.90881350226
4708 -1140.549053658302
4709 -1139.898906585221
4710 -1140.546730274971
4711 -1139.901344430521
4712 -1140.55142107338
4713 -1139.908687556536
4714 -1140.546891870857
4715 -1139.914793168172
4716 -1140.558150526621
4717 -1139.911154927816
4718 -1140.556420140238
4719 -1139.918523512934
4720 -1140.566289751139
4721 -1139.925742870161
4722 -1140.574067647762
4723 -1139.922699894682
4724 -1140.578474499807
4725 -1139.929932146562
4726 -1140.564581456762
4727 -1139.913185062858
4728 -1140.566094344336
4729 -1139.925907380204
4730 -1140.568399078409
4731 -1139.92303524967
4732 -1140.563489164527
4733 -1139.928168889307
4734 -1140.569215317892
4735 -1139.92642102835
4736 -1140.571978961208
4737 -1139.927311566992
4738 -1140.562762118793
4739 -1139.923348347545
4740 -1140.568358991841
4741 -1139.926093207916
4742 -1140.563691565475
4743 -1139.922162562747
4744 -1140.560841711183
4745 -1139.917386231406
4746 -1140.564856042085
4747 -1139.922607205794
4748 -1140.567032037354
4749 -1139.925971587948
4750 -1140.560042559264
4751 -1139.909982859385
4752 -1140.561115341527
4753 -1139.915097284988
4754 -1140.56074090943
4755 -1139.913694440931
4756 -1140.552731919183
4757 -1139.903925808138
4758 -1140.545182002816
4759 -1139.910818832604
4760 -1140.560190270328
4761 -1139.91863617729
4762 -1140.5521642397
4763 -1139.91257285527
4764 -1140.556246954566
4765 -1139.910739210486
4766 -1140.558606315944
4767 -1139.91531133624
4768 -1140.565649060089
4769 -1139.920928312865
4770 -1140.570733051219
4771 -1139.923242724809
4772 -1140.571685302887
4773 -1139.916874879239
4774 -1140.558536491991
4775 -1139.917330688637
4776 -1140.561647639272
4777 -1139.919534297687
4778 -1140.567060338137
4779 -1139.923770499034
4780 -1140.568507177308
4781 -1139.920780180241
4782 -1140.577573232569
4783 -1139.935751417723
4784 -1140.574863990803
4785 -1139.927760953536
4786 -1140.567897373922
4787 -1139.925913570755
4788 -1140.569461254172
4789 -1139.924166634788
4790 -1140.572389252256
4791 -1139.939726546627
4792 -1140.572420866203
4793 -1139.925503584763
4794 -1140.572817978003
4795 -1139.930319104193
4796 -1140.565285892179
4797 -1139.924905877612
4798 -1140.559713600016
4799 -1139.927784036174
4800 -1140.567118927591
4801 -1139.926266082041
4802 -1140.569179206645
4803 -1139.948706664711
4804 -1140.574197166167
4805 -1139.93337491836
4806 -1140.572241429975
4807 -1139.940164300888
4808 -1140.585052794844
4809 -1139.946260265212
4810 -1140.573062509485
4811 -1139.945374719194
4812 -1140.570894452465
4813 -1139.934412866395
4814 -1140.56062749903
4815 -1139.93401754073
4816 -1140.566164075818
4817 -1139.93519950466
4818 -1140.556771349204
4819 -1139.925142304844
4820 -1140.562487935039
4821 -1139.922202750441
4822 -1140.553504486377
4823 -1139.917986317116
4824 -1140.564134182199
4825 -1139.925433310167
4826 -1140.560900440124
4827 -1139.919243134149
4828 -1140.562375056733
4829 -1139.916887351089
4830 -1140.56094596027
4831 -1139.918588395196
4832 -1140.562720973049
4833 -1139.924360012473
4834 -1140.550498255237
4835 -1139.919333166201
4836 -1140.557048865187
4837 -1139.926264819848
4838 -1140.567045932313
4839 -1139.930636645521
4840 -1140.563985895396
4841 -1139.927677148873
4842 -1140.57232311833
4843 -1139.926171540112
4844 -1140.570899457836
4845 -1139.931406796882
4846 -1140.565789572282
4847 -1139.930644566556
4848 -1140.572553890442
4849 -1139.929092517068
4850 -1140.566660596946
4851 -1139.929741197839
4852 -1140.562872026823
4853 -1139.927358083356
4854 -1140.566203696733
4855 -1139.92852999076
4856 -1140.571606604514
4857 -1139.925869320556
4858 -1140.560674663352
4859 -1139.912384595793
4860 -1140.554788755405
4861 -1139.902938237257
4862 -1140.546061641184
4863 -1139.909368976832
4864 -1140.544813225244
4865 -1139.906187436388
4866 -1140.552784267145
4867 -1139.908803031196
4868 -1140.556873573016
4869 -1139.914319387528
4870 -1140.559059255215
4871 -1139.911722488719
4872 -1140.552409420672
4873 -1139.910480862567
4874 -1140.550146196299
4875 -1139.90884528362
4876 -1140.548673614968
4877 -1139.903049394351
4878 -1140.553895928563
4879 -1139.911691686627
4880 -1140.545315100778
4881 -1139.90791767491
4882 -1140.54931381757
4883 -1139.910702703574
4884 -1140.545504247566
4885 -1139.90213624313
4886 -1140.550650759079
4887 -1139.91439675948
4888 -1140.549963675396
4889 -1139.904746665773
4890 -1140.549622999019
4891 -1139.900024072066
4892 -1140.536711420876
4893 -1139.891969838706
4894 -1140.538252387265
4895 -1139.896762803143
4896 -1140.540221603952
4897 -1139.890912062951
4898 -1140.543315102586
4899 -1139.898775500827
4900 -1140.541620518765
4901 -1139.891801750155
4902 -1140.540282111056
4903 -1139.9012030811
4904 -1140.544525151828
4905 -1139.905956702461
4906 -1140.546031019231
4907 -1139.911058121015
4908 -1140.550768256019
4909 -1139.902068968453
4910 -1140.54365871341
4911 -1139.907152767307
4912 -1140.545538442982
4913 -1139.90265481522
4914 -1140.546480016658
4915 -1139.906258060162
4916 -1140.551471845511
4917 -1139.903623275431
4918 -1140.544647860236
4919 -1139.906328596315
4920 -1140.554617022444
4921 -1139.90906288756
4922 -1140.553118566914
4923 -1139.919682825373
4924 -1140.558663890203
4925 -1139.920967997367
4926 -1140.559340724802
4927 -1139.928686925062
4928 -1140.563818463241
4929 -1139.921763990717
4930 -1140.550296794989
4931 -1139.911096919722
4932 -1140.551471905792
4933 -1139.906285121879
4934 -1140.55413988074
4935 -1139.920187116911
4936 -1140.557196197786
4937 -1139.920173878428
4938 -1140.563586928801
4939 -1139.923635605755
4940 -1140.562576640632
4941 -1139.920380312237
4942 -1140.558631144957
4943 -1139.925252813901
4944 -1140.56117634176
4945 -1139.922562045415
4946 -1140.558112170961
4947 -1139.927460351772
4948 -1140.559774818983
4949 -1139.919512436154
4950 -1140.561725931315
4951 -1139.925604640197
4952 -1140.566302505874
4953 -1139.924831567318
4954 -1140.560319186144
4955 -1139.929687419798
4956 -1140.570960074729
4957 -1139.931889955812
4958 -1140.566227486555
4959 -1139.932435202767
4960 -1140.566646994499
4961 -1139.927754234013
4962 -1140.568333924648
4963 -1139.934153291261
4964 -1140.571872296848
4965 -1139.934533343305
4966 -1140.566507147681
4967 -1139.93328314157
4968 -1140.572336769197
4969 -1139.927180331018
4970 -1140.571110811343
4971 -1139.934800448977
4972 -1140.572132302707
4973 -1139.927848560093
4974 -1140.569851657722
4975 -1139.93395212159
4976 -1140.572457661733
4977 -1139.929868472982
4978 -1140.566465139759
4979 -1139.930810984235
4980 -1140.56796265649
4981 -1139.923554764323
4982 -1140.568019815227
4983 -1139.930737143001
4984 -1140.567693937457
4985 -1139.920810610911
4986 -1140.563503861853
4987 -1139.924156054652
4988 -1140.567727214161
4989 -1139.920426895496
4990 -1140.55839826006
4991 -1139.916667091602
4992 -1140.55938685308
4993 -1139.913112227856
4994 -1140.560668019418
4995 -1139.923234226823
4996 -1140.562055592627
4997 -1139.916001736065
4998 -1140.56502604269
4999 -1139.932607457488
5000 -1140.572791430483
5001 -1139.928656856578
5002 -1140.568013944604
5003 -1139.931371578191
5004 -1140.570713347758
5005 -1139.927661378086
5006 -1140.572991621142
5007 -1139.937118132872
5008 -1140.571558837466
5009 -1139.921642449608
5010 -1140.565147659319
5011 -1139.922758617157
5012 -1140.568330708981
5013 -1139.923127029992
5014 -1140.567521053357
5015 -1139.932458666451
5016 -1140.573071453599
5017 -1139.926522374542
5018 -1140.57111801004
5019 -1139.939300452271
5020 -1140.573630074588
5021 -1139.925780654008
5022 -1140.573296180915
5023 -1139.93281727718
5024 -1140.573738395548
5025 -1139.926011629896
5026 -1140.563862264303
5027 -1139.923712545008
5028 -1140.565819862338
5029 -1139.91689447253
5030 -1140.56201504117
5031 -1139.927326968098
5032 -1140.570768842718
5033 -1139.925358197005
5034 -1140.566259830416
5035 -1139.929515511399
5036 -1140.567698291294
5037 -1139.928996269122
5038 -1140.569380687627
5039 -1139.924634803353
5040 -1140.568095423345
5041 -1139.92144422719
5042 -1140.564678764034
5043 -1139.926027803279
5044 -1140.569856711741
5045 -1139.918149755325
5046 -1140.565530486831
5047 -1139.91928490826
5048 -1140.569777530666
5049 -1139.924922167455
5050 -1140.563982560841
5051 -1139.921023935201
5052 -1140.573053851121
5053 -1139.923710316486
5054 -1140.576329742537
5055 -1139.926265580631
5056 -1140.566447045401
5057 -1139.918658815756
5058 -1140.565254763326
5059 -1139.917155059653
5060 -1140.567163755125
5061 -1139.91856448561
5062 -1140.561183388938
5063 -1139.926638310954
5064 -1140.578042351032
5065 -1139.926153757066
5066 -1140.572954098443
5067 -1139.931567825548
