"mz-rfile"
"Iteration" "mz"
("Iteration" "mz")
1 22182.26658406575
2 21803.18902998646
3 19803.22947001185
4 17783.06414489666
5 15282.01932890252
6 13048.01126825881
7 10723.58071654906
8 8295.427835318231
9 5923.232791509796
10 4046.355453875832
11 2777.306272195083
12 1878.668069748568
13 1386.091986252367
14 1132.919406427558
15 1080.505845953483
16 1174.740454942272
17 1351.677394380948
18 1648.640021388666
19 1998.28580297142
20 2383.367715598402
21 2839.844534559615
22 3278.919662269767
23 3684.664103556861
24 4001.797245165951
25 4295.218016645126
26 4556.98975548733
27 4747.105489175433
28 4884.890212568354
29 5010.823263857883
30 5124.659666359617
31 5225.140196231447
32 5312.660335509496
33 5388.676007653064
34 5467.594828452264
35 5519.095927377349
36 5560.324906765915
37 5594.031000263381
38 5620.617095605834
39 5640.814384763125
40 5652.67131766574
41 5662.24869043234
42 5670.992574653402
43 5678.753878585083
44 5686.560191763618
45 5694.715790705416
46 5703.727293189596
47 5713.706289830786
48 5725.161984772985
49 5737.899849567102
50 5751.735290229277
51 5761.943330004361
52 5778.987762078047
53 5790.9991695921
54 5810.358257689787
55 5823.713655363814
56 5838.266172277007
57 5853.336386835818
58 5876.557697636928
59 5891.604859637991
60 5907.403931583021
61 5929.911597578141
62 5944.473602652443
63 5965.220521075237
64 5978.101147864943
65 5996.065911456284
66 6011.776269709755
67 6020.749756464322
68 6033.06374430723
69 6043.120549765575
70 6048.749447107492
71 6055.639493296025
72 6060.727506564539
73 6063.10042703818
74 6065.745880475392
75 6066.792897722724
76 6067.663661995588
77 6067.651066097699
78 6067.348357700461
79 6066.706335718082
80 6065.689254130198
81 6064.756682106824
82 6063.846889287832
83 6062.795333379124
84 6061.853708056183
85 6060.931861766116
86 6060.095878926242
87 6059.23507234782
88 6058.480338819181
89 6057.693714421866
90 6056.880499234783
91 6055.803499671619
92 6054.831269816462
93 6053.676253226085
94 6052.526737518933
95 6051.10981966405
96 6049.703905077474
97 6048.055530801386
98 6046.36859725216
99 6044.331946627986
100 6042.08539402081
101 6039.602482983624
102 6037.027075288534
103 6034.154321000662
104 6031.284951126037
105 6028.216819332526
106 6025.048146301249
107 6021.683094353175
108 6018.480009416084
109 6015.09414705211
110 6011.72277900721
111 6008.143638888229
112 6004.68192405389
113 6001.093341566514
114 5997.652504339599
115 5994.278651012953
116 5990.967692656885
117 5987.694567490008
118 5984.576693278963
119 5981.473048901562
120 5978.528666745659
121 5975.686528610064
122 5972.980475896668
123 5970.389538474647
124 5968.053555080067
125 5965.772552841499
126 5963.729963573331
127 5961.700421002347
128 5960.00528814628
129 5958.307310274801
130 5956.885185888561
131 5955.48161883275
132 5954.253852097304
133 5953.149324469121
134 5952.199113684425
135 5951.320014585594
136 5950.645348322532
137 5950.027304906092
138 5949.506180185232
139 5949.084957068209
140 5948.828217071172
141 5948.58241175781
142 5948.505211787729
143 5948.459375654354
144 5948.512976789135
145 5948.60993670689
146 5948.798967450887
147 5949.028464728522
148 5949.361434278924
149 5949.7365605825
150 5950.110812763494
151 5950.550285431086
152 5951.077057210407
153 5951.633004473019
154 5952.22120052171
155 5952.848499049835
156 5953.440588493864
157 5954.082803785503
158 5954.772573034238
159 5955.479524279291
160 5956.183204729517
161 5956.911247000889
162 5957.679324886343
163 5958.430277008389
164 5959.222866614031
165 5959.992027761075
166 5960.808264068297
167 5961.594831991817
168 5962.423372394064
169 5963.241394434926
170 5964.065357135269
171 5964.829001044405
172 5965.627395145347
173 5966.410943422619
174 5967.198797124125
175 5967.926405639658
176 5968.708224456037
177 5969.428563303624
178 5970.186237991446
179 5970.849882612803
180 5971.569306456377
181 5972.192764935149
182 5972.916489445769
183 5973.472774036197
184 5974.109979004751
185 5974.65198412203
186 5975.185594067191
187 5975.713124143937
188 5976.244070064571
189 5976.711719603806
190 5977.215167492846
191 5977.577637191222
192 5978.017543132025
193 5978.389359387832
194 5978.836619320535
195 5979.168597794394
196 5979.561537395207
197 5979.910780328238
198 5980.333448847909
199 5980.677099954436
200 5981.092357258267
201 5981.376745342133
202 5981.754188478652
203 5982.051454729863
204 5982.437666935196
205 5982.745862123631
206 5983.166619710782
207 5983.484741428762
208 5983.948350759541
209 5984.312993452708
210 5984.775170741838
211 5985.129651372165
212 5985.618575813596
213 5986.026288926074
214 5986.502371615729
215 5986.958466420961
216 5987.49714592363
217 5987.967668639134
218 5988.571433745436
219 5989.112213767552
220 5989.760371436148
221 5990.3821618644
222 5991.116209785449
223 5991.775558609752
224 5992.60984771408
225 5993.322521667693
226 5994.213808838151
227 5995.062222657388
228 5996.019338343175
229 5996.976912794241
230 5998.067486969278
231 5999.09151582918
232 6000.26741288417
233 6001.438261675943
234 6002.778904920616
235 6004.008336229265
236 6005.448212263926
237 6006.846438548109
238 6008.434359057792
239 6009.958469042972
240 6011.671886660271
241 6013.353055220802
242 6015.175805434657
243 6016.94344943651
244 6018.903229574558
245 6020.867373765524
246 6022.939786914803
247 6025.009677885091
248 6027.245561414574
249 6029.408717231685
250 6031.795860312475
251 6034.117395906638
252 6036.565657446044
253 6039.040537028371
254 6041.686434240214
255 6044.256898568792
256 6047.039061295814
257 6049.794163251201
258 6052.692787844723
259 6055.532052456991
260 6058.53416170883
261 6061.464665584263
262 6064.603195254101
263 6067.698348180103
264 6070.920291655719
265 6074.128961212643
266 6077.478030197248
267 6080.728910876453
268 6084.175710609651
269 6087.555032750641
270 6091.069899070822
271 6094.49528822892
272 6098.112562808153
273 6103.308230710387
274 6106.791486663404
275 6110.149598260996
276 6113.725762137466
277 6118.752618560266
278 6122.125289780477
279 6125.359551177879
280 6128.797295509836
281 6133.735861128801
282 6137.059608788821
283 6140.270054329047
284 6145.279520602548
285 6148.44705786647
286 6151.708242649785
287 6156.513764494905
288 6159.729754543927
289 6162.869915087622
290 6167.689010406049
291 6170.762531737458
292 6175.535126320535
293 6178.567434547394
294 6181.786753765708
295 6186.485329490165
296 6189.645331023506
297 6192.723206485255
298 6197.563999648632
299 6200.641137282069
300 6205.431558790825
301 6208.472827540018
302 6211.699149297683
303 6216.367243088138
304 6219.548027831008
305 6222.56839286508
306 6227.372215556897
307 6230.384898453893
308 6233.57250852804
309 6238.18624672163
310 6241.344404803857
311 6244.365619171973
312 6249.090857475391
313 6252.047212981101
314 6255.182595609289
315 6258.20444829387
316 6261.377322026427
317 6266.005000331468
318 6269.111214663001
319 6272.069497024823
320 6275.241456223843
321 6278.32260436463
322 6283.036675194264
323 6286.002885181865
324 6289.139309437826
325 6292.137971325715
326 6295.297491133527
327 6298.295618241241
328 6301.482742299683
329 6304.568278052993
330 6307.779127391691
331 6310.896175572267
332 6314.080331454638
333 6317.186628967122
334 6320.346676807193
335 6323.412819265484
336 6326.517816293996
337 6329.585557812294
338 6332.729790323368
339 6335.760795822261
340 6338.840362860538
341 6341.819507056019
342 6344.835838869057
343 6347.765660115436
344 6350.731648364673
345 6353.597971126691
346 6356.547039822384
347 6359.313270887097
348 6362.178026315833
349 6364.942454988617
350 6367.789024329756
351 6370.44497978738
352 6373.201679126787
353 6375.891021666872
354 6378.563467898841
355 6381.101435588951
356 6383.760811846107
357 6386.309580456666
358 6388.911403232538
359 6391.376195218114
360 6393.956854082016
361 6396.398579227101
362 6398.950241112099
363 6401.341584718557
364 6403.865869555237
365 6406.272017324733
366 6408.762559136793
367 6411.086469174079
368 6413.534502861884
369 6415.854551011554
370 6418.29021018974
371 6420.564261463092
372 6422.963725734832
373 6425.185501975086
374 6427.562238456329
375 6429.738165131533
376 6432.03168921398
377 6434.211030086201
378 6436.512644902619
379 6438.618228110256
380 6440.881659828606
381 6442.977031230035
382 6445.21055725823
383 6447.243646736655
384 6449.430649928667
385 6451.444158715416
386 6453.581717758516
387 6455.564537711603
388 6457.67510325186
389 6459.633229893972
390 6461.719457981278
391 6463.639591373676
392 6465.694825049992
393 6467.609213296834
394 6469.62355752404
395 6471.489753889054
396 6473.468266228794
397 6475.340083794688
398 6477.27951247024
399 6479.088787055922
400 6480.97949368661
401 6482.776720507835
402 6484.657222706283
403 6486.389379754437
404 6488.243446654444
405 6489.929680582018
406 6491.771357619435
407 6493.427000167981
408 6495.197620863455
409 6496.872392625998
410 6498.639161381076
411 6500.246819698017
412 6501.976108199102
413 6503.587310771883
414 6505.324888508928
415 6506.858336034737
416 6508.575436729214
417 6510.10978921279
418 6511.832640594596
419 6513.313852231085
420 6514.978574047283
421 6516.473992868654
422 6518.123648895743
423 6519.573224459843
424 6521.161878165877
425 6522.575244015283
426 6524.146743384305
427 6525.513105415291
428 6527.062264885748
429 6528.405827547122
430 6529.911175780599
431 6531.24753615118
432 6532.711369806121
433 6534.052331207581
434 6535.527437917483
435 6536.805889995193
436 6538.235811635369
437 6539.49755223896
438 6540.920620789383
439 6542.145264900047
440 6543.523370881828
441 6544.765511616923
442 6546.143386879991
443 6547.294553379684
444 6548.642926056163
445 6549.77913998826
446 6551.097149687586
447 6552.218086633303
448 6553.512330553353
449 6554.625425313773
450 6555.911317024023
451 6556.989284183113
452 6558.223187469903
453 6559.321733830735
454 6560.527617046316
455 6561.55181048058
456 6562.776202268602
457 6563.826569416278
458 6565.029343761699
459 6566.00483994819
460 6567.17037264847
461 6568.149006104718
462 6569.328583983277
463 6570.287862352096
464 6571.430211991493
465 6572.38159152436
466 6573.532027632363
467 6574.434772436681
468 6575.575807119485
469 6576.484823467146
470 6577.575387812698
471 6578.424415082056
472 6579.472591710984
473 6580.343373488848
474 6581.40555083952
475 6582.232542107132
476 6583.250044073118
477 6584.086630128622
478 6585.094983186633
479 6585.880220628723
480 6586.902327934728
481 6587.678564530509
482 6588.690031144942
483 6589.421599747252
484 6590.415477169532
485 6591.162852515209
486 6592.135001463255
487 6592.854743110115
488 6593.817440651003
489 6594.565679740783
490 6595.48721835266
491 6596.184220245512
492 6597.121172882526
493 6597.824507024724
494 6598.728890106083
495 6599.386666219162
496 6600.310150326869
497 6600.983722934142
498 6601.871358547976
499 6602.530770829065
500 6603.403580056774
501 6604.077216740675
502 6604.932441901617
503 6605.545066203956
504 6606.412172573025
505 6606.999232402428
506 6607.848247957335
507 6608.418536789605
508 6609.243389719652
509 6609.858562996054
510 6610.695142574675
511 6611.246247895231
512 6612.050991838226
513 6612.629170301053
514 6613.449324923795
515 6613.965861646189
516 6614.759065064734
517 6615.336378268531
518 6616.131467988468
519 6616.662658817979
520 6617.426800887269
521 6617.949821952646
522 6618.734076065065
523 6619.209516788595
524 6619.942587237017
525 6620.48071970267
526 6621.209953950261
527 6621.685407936382
528 6622.426725370349
529 6622.944046587178
530 6623.686465288202
531 6624.17382097511
532 6624.878257854059
533 6625.37799690478
534 6626.084135414278
535 6626.540634443455
536 6627.223425790721
537 6627.708553182913
538 6628.41447264283
539 6628.856733803597
540 6629.534096572281
541 6630.015822228002
542 6630.696361243446
543 6631.134929267016
544 6631.782537964865
545 6632.233930731305
546 6632.884628473959
547 6633.3031689304
548 6633.958504985074
549 6634.373824908191
550 6635.023180160975
551 6635.421044745355
552 6636.047327018705
553 6636.483477115878
554 6637.103351964153
555 6637.503265103128
556 6638.113350932394
557 6638.524357371237
558 6639.109414667512
559 6639.487681866866
560 6640.083313240785
561 6640.482524063249
562 6641.075686495875
563 6641.418297816641
564 6641.987341521821
565 6642.374312213523
566 6642.922931326973
567 6643.254121113168
568 6643.818113815054
569 6644.18528948346
570 6644.734760895313
571 6645.065052525367
572 6645.606409631581
573 6645.971051143892
574 6646.517829018182
575 6646.823241139959
576 6647.367098414586
577 6647.67237730318
578 6648.243623451423
579 6648.516792098322
580 6649.035645366558
581 6649.369220512088
582 6649.93414696481
583 6650.194602032277
584 6650.700822387646
585 6650.982985649848
586 6651.524341504625
587 6651.77232853518
588 6652.293472240883
589 6652.591314442513
590 6653.099163955244
591 6653.355626262331
592 6653.847080840256
593 6654.137700862664
594 6654.664712922649
595 6654.884586400394
596 6655.373163276347
597 6655.660383943681
598 6656.161799808316
599 6656.382843449775
600 6656.854424707467
601 6657.118206597016
602 6657.622150024307
603 6657.840772013499
604 6658.32686435697
605 6658.564821877759
606 6659.039398175122
607 6659.229688478245
608 6659.689967311627
609 6659.921469021233
610 6660.400266631659
611 6660.591757201635
612 6661.041195556907
613 6661.290485903938
614 6661.771004696758
615 6661.925043331599
616 6662.386728012541
617 6662.620573393377
618 6663.081071798575
619 6663.262574537419
620 6663.690751101824
621 6663.949609264893
622 6664.375106939055
623 6664.568042317973
624 6664.975883846633
625 6665.171314934358
626 6665.635321022909
627 6665.770868247771
628 6666.18591819586
629 6666.392472062143
630 6666.822074692474
631 6666.952881817361
632 6667.385639619249
633 6667.580846549153
634 6667.988249535065
635 6668.148227864377
636 6668.54070140273
637 6668.765139579656
638 6669.182648854401
639 6669.324001260291
640 6669.711049144442
641 6669.880154747321
642 6670.300130408041
643 6670.39901005778
644 6670.800396863609
645 6670.975748140262
646 6671.330719115614
647 6671.471737868491
648 6671.837010262177
649 6672.00719737137
650 6672.406461640624
651 6672.511948967221
652 6672.883733550671
653 6673.041243853836
654 6673.425017871664
655 6673.528971748688
656 6673.91647915749
657 6674.068093294637
658 6674.44650252649
659 6674.564160062194
660 6674.902222895702
661 6675.069678217992
662 6675.455883726062
663 6675.543378397261
664 6675.894853276864
665 6676.033768546327
666 6676.410940039266
667 6676.486389924756
668 6676.857169140664
669 6676.984459352421
670 6677.350252392936
671 6677.453974650421
672 6677.772380416937
673 6677.912083190776
674 6678.26821536215
675 6678.333370548026
676 6678.620163423363
677 6678.7647637821
678 6679.096873582821
679 6679.164923222019
680 6679.508586661911
681 6679.6037631335
682 6679.934116506681
683 6680.022436030655
684 6680.350170943593
685 6680.469070092963
686 6680.824945318876
687 6680.894617149101
688 6681.183845165753
689 6681.283469540785
690 6681.602501335731
691 6681.630789165427
692 6681.940987383866
693 6682.040852035278
694 6682.342314640469
695 6682.427890440582
696 6682.698783734754
697 6682.783004779461
698 6683.097108982032
699 6683.156513222576
700 6683.41298020217
701 6683.541111185666
702 6683.819969178579
703 6683.884227572904
704 6684.145524515558
705 6684.222495850187
706 6684.529943138008
707 6684.578684579683
708 6684.845290459706
709 6684.9467633873
710 6685.236631542702
711 6685.297723852448
712 6685.533808893382
713 6685.651910731715
714 6685.913266734369
715 6685.974436336362
716 6686.227256039665
717 6686.301148768601
718 6686.560654964902
719 6686.61995181458
720 6686.855670083683
721 6686.919064698574
722 6687.202916945674
723 6687.246422604966
724 6687.484838909179
725 6687.576024666735
726 6687.834614732297
727 6687.871974805689
728 6688.123657293986
729 6688.192235622082
730 6688.447857946647
731 6688.498817740235
732 6688.705246734383
733 6688.758968217169
734 6689.018979054402
735 6689.041163158478
736 6689.294433647007
737 6689.339962375345
738 6689.606020213222
739 6689.622945728451
740 6689.861995614029
741 6689.933329653726
742 6690.206863519076
743 6690.224762263527
744 6690.440805046233
745 6690.490246636632
746 6690.727308760701
747 6690.744802086651
748 6690.979513512497
749 6691.028882667362
750 6691.276776628151
751 6691.270195161466
752 6691.489343301823
753 6691.537629139979
754 6691.776902405073
755 6691.774584033538
756 6691.986628529921
757 6692.022131875301
758 6692.258675653851
759 6692.234640200716
760 6692.448957489441
761 6692.482794374553
762 6692.720843368968
763 6692.729755723815
764 6692.975101123996
765 6693.010873236193
766 6693.218983435507
767 6693.230363023381
768 6693.430312293161
769 6693.442864195905
770 6693.649840524136
771 6693.650053907338
772 6693.841066796143
773 6693.89565362464
774 6694.094691353546
775 6694.080161730015
776 6694.301389950289
777 6694.310590545629
778 6694.556060919149
779 6694.538626200751
780 6694.736884074224
781 6694.776838579579
782 6694.966227722532
783 6694.968825207528
784 6695.150067543231
785 6695.183219184031
786 6695.380266674721
787 6695.346142425713
788 6695.552374082043
789 6695.569372723205
790 6695.776234294879
791 6695.759708073488
792 6695.966850743382
793 6695.958300636805
794 6696.154930800864
795 6696.145962467821
796 6696.348956270349
797 6696.37235693301
798 6696.55579318867
799 6696.511902606608
800 6696.675804790538
801 6696.682175657615
802 6696.873031293614
803 6696.868443044206
804 6697.060775783613
805 6697.069042273828
806 6697.25505700272
807 6697.243775416889
808 6697.395165067126
809 6697.410465974836
810 6697.591017797712
811 6697.571624840347
812 6697.738707185445
813 6697.742400178411
814 6697.934922492087
815 6697.892273573908
816 6698.057924150648
817 6698.047651875466
818 6698.235154764189
819 6698.223731412872
820 6698.383133225541
821 6698.386469215819
822 6698.555221518364
823 6698.519202588004
824 6698.684396959063
825 6698.675222712516
826 6698.832196608493
827 6698.813404843479
828 6698.958411592673
829 6698.958453378383
830 6699.137498499486
831 6699.091346900085
832 6699.251520929286
833 6699.237207944918
834 6699.413576168698
835 6699.389604938374
836 6699.543716602332
837 6699.545942198304
838 6699.693425393552
839 6699.68011023504
840 6699.811606351153
841 6699.805720701526
842 6699.994301675495
843 6699.96935077116
844 6700.096354141338
845 6700.086557981483
846 6700.244060678611
847 6700.207191900868
848 6700.362185848502
849 6700.348989983636
850 6700.509773603823
851 6700.485837801773
852 6700.61635030577
853 6700.609106018739
854 6700.754198825072
855 6700.731510258647
856 6700.837729649746
857 6700.814041338391
858 6700.959526067613
859 6700.925221212767
860 6701.081337659409
861 6701.063005050038
862 6701.221831253582
863 6701.165054225775
864 6701.290834395
865 6701.265207134074
866 6701.429135955219
867 6701.394993880665
868 6701.514296131859
869 6701.519823862288
870 6701.674072549213
871 6701.636271666142
872 6701.757694307453
873 6701.743317965615
874 6701.907691231724
875 6701.856996134537
876 6701.985733732046
877 6701.96798281397
878 6702.114452063846
879 6702.062995795722
880 6702.177306135752
881 6702.141102500408
882 6702.284706230514
883 6702.236537192918
884 6702.367939535017
885 6702.349486978801
886 6702.476124867168
887 6702.426558095234
888 6702.552258583869
889 6702.518990825499
890 6702.664447742136
891 6702.600708886854
892 6702.748607520243
893 6702.735339105908
894 6702.870994254656
895 6702.813615427238
896 6702.951906552179
897 6702.904250493688
898 6703.03895959218
899 6702.972441780482
900 6703.088656375188
901 6703.085877636861
902 6703.224424884803
903 6703.175154536672
904 6703.297214039483
905 6703.272829304642
906 6703.41133079572
907 6703.347487670698
908 6703.462942673281
909 6703.424822554173
910 6703.571439778164
911 6703.505695122839
912 6703.624455634179
913 6703.57771993721
914 6703.7030432437
915 6703.629904935886
916 6703.741812741231
917 6703.717119095035
918 6703.838881360726
919 6703.777074556643
920 6703.885302516911
921 6703.840488339343
922 6703.967416521099
923 6703.878475894774
924 6703.995493794725
925 6703.964182431293
926 6704.09227032123
927 6704.025375359632
928 6704.137351820928
929 6704.10157652781
930 6704.244427730947
931 6704.173155662056
932 6704.299154895949
933 6704.268157775722
934 6704.370986191054
935 6704.305050032299
936 6704.409179507515
937 6704.380300353792
938 6704.516050196872
939 6704.430690062182
940 6704.548997919299
941 6704.534226572585
942 6704.642605954815
943 6704.582706660966
944 6704.694181717892
945 6704.658382978682
946 6704.781199292373
947 6704.704223342241
948 6704.827594815964
949 6704.783544910988
950 6704.897040943355
951 6704.810472288113
952 6704.920125412077
953 6704.8901609598
954 6704.990336980649
955 6704.905689858559
956 6705.029612002807
957 6704.983762629294
958 6705.113024964698
959 6705.041720974089
960 6705.153764049182
961 6705.097101505576
962 6705.223959797933
963 6705.136151556583
964 6705.235889228885
965 6705.200128029825
966 6705.326383898891
967 6705.222710255347
968 6705.314082890201
969 6705.259748041328
970 6705.380696350382
971 6705.288044126493
972 6705.405962979916
973 6705.379961654323
974 6705.489093920603
975 6705.416714214763
976 6705.509746494689
977 6705.465535792808
978 6705.586587021871
979 6705.483644009153
980 6705.608374195688
981 6705.546324972853
982 6705.665662833781
983 6705.577975023187
984 6705.678153778365
985 6705.616135017098
986 6705.750374124731
987 6705.659025821847
988 6705.779778261871
989 6705.729793423424
990 6705.860541630019
991 6705.768066668651
992 6705.85410462852
993 6705.809409330574
994 6705.936004488934
995 6705.825643927856
996 6705.928732811561
997 6705.878978378866
998 6705.97640534838
999 6705.89365361282
1000 6705.987700735938
1001 6705.948828530641
1002 6706.063341274129
1003 6705.98946818798
1004 6706.076251780699
1005 6706.051851306064
1006 6706.164727299883
1007 6706.081169813479
1008 6706.144945874748
1009 6706.089113609641
1010 6706.193143995172
1011 6706.112968585935
1012 6706.220778924641
1013 6706.192579333216
1014 6706.304018907513
1015 6706.225662902169
1016 6706.307761034588
1017 6706.27660327178
1018 6706.384688198426
1019 6706.2965287126
1020 6706.416521806675
1021 6706.350014224898
1022 6706.444177092841
1023 6706.352464927745
1024 6706.439188775031
1025 6706.376807111904
1026 6706.497600169123
1027 6706.39484178173
1028 6706.502536446155
1029 6706.464505367123
1030 6706.580062559123
1031 6706.481405112568
1032 6706.576779091924
1033 6706.50988040535
1034 6706.621766022956
1035 6706.523531213179
1036 6706.619099836619
1037 6706.562338608107
1038 6706.675514303302
1039 6706.582309861597
1040 6706.680596678235
1041 6706.614059601559
1042 6706.736929663004
1043 6706.655649385551
1044 6706.755552078879
1045 6706.703437587755
1046 6706.823819209229
1047 6706.73050644905
1048 6706.839947562215
1049 6706.773870403073
1050 6706.846024454556
1051 6706.753717238918
1052 6706.847342603585
1053 6706.77937779538
1054 6706.899539826886
1055 6706.814611505558
1056 6706.915083465193
1057 6706.845222032806
1058 6706.962050823357
1059 6706.869980031616
1060 6706.972801937431
1061 6706.918985323063
1062 6707.014419341699
1063 6706.937708725492
1064 6707.024716532107
1065 6706.962778177485
1066 6707.08872019618
1067 6706.990662803359
1068 6707.078232726358
1069 6707.011175167876
1070 6707.11894798217
1071 6707.031636571208
1072 6707.124698694908
1073 6707.058692026453
1074 6707.201807167757
1075 6707.082401149768
1076 6707.198688299631
1077 6707.137635527978
1078 6707.267462623746
1079 6707.164729570209
1080 6707.257215917772
1081 6707.173344989405
1082 6707.283728831464
1083 6707.171677341345
1084 6707.286664084166
1085 6707.220398885235
1086 6707.3487109934
1087 6707.213188826696
1088 6707.31069459692
1089 6707.222240316763
1090 6707.349860303309
1091 6707.226688177799
1092 6707.321793929263
1093 6707.25087858834
1094 6707.373449299721
1095 6707.257000065546
1096 6707.363587679439
1097 6707.272688128791
1098 6707.399722341172
1099 6707.291259939277
1100 6707.39735879365
1101 6707.339956943928
1102 6707.473274004613
1103 6707.355317806603
1104 6707.450991595282
1105 6707.372899875289
1106 6707.500258574034
1107 6707.397138801055
1108 6707.517165631498
1109 6707.445823405562
1110 6707.561889943938
1111 6707.470984115444
1112 6707.571238534675
1113 6707.488468165699
1114 6707.619748596128
1115 6707.496543614068
1116 6707.585046596759
1117 6707.511567314325
1118 6707.610437866934
1119 6707.499316103204
1120 6707.622606516189
1121 6707.535296939407
1122 6707.664540146588
1123 6707.550206446301
1124 6707.653529715865
1125 6707.595872614436
1126 6707.727709160805
1127 6707.615837461795
1128 6707.710645334534
1129 6707.634444136903
1130 6707.748071873132
1131 6707.611942069932
1132 6707.724919872167
1133 6707.638373800515
1134 6707.756843189051
1135 6707.645056943846
1136 6707.747834875645
1137 6707.678362564623
1138 6707.809346116952
1139 6707.679815067396
1140 6707.82154722729
1141 6707.73106652458
1142 6707.845556364901
1143 6707.728759970591
1144 6707.830878288181
1145 6707.745100666107
1146 6707.876129923933
1147 6707.747201000204
1148 6707.843599609229
1149 6707.784913958229
1150 6707.90026295067
1151 6707.786185657134
1152 6707.886901810353
1153 6707.813547173319
1154 6707.950167192312
1155 6707.817647653025
1156 6707.943213818877
1157 6707.882478323342
1158 6707.987707568217
1159 6707.856007772893
1160 6707.9546302562
1161 6707.886895011096
1162 6708.002463475533
1163 6707.893126623341
1164 6707.999743806968
1165 6707.937949776926
1166 6708.042277246458
1167 6707.928293112023
1168 6708.03849310949
1169 6707.946266645035
1170 6708.058010279192
1171 6707.917818128484
1172 6708.025273260519
1173 6707.960286657547
1174 6708.090188724592
1175 6707.974459920299
1176 6708.077282159544
1177 6707.990189392849
1178 6708.110718343239
1179 6707.989121789982
1180 6708.111673924081
1181 6708.044125606394
1182 6708.160470682148
1183 6708.047884389186
1184 6708.130824707507
1185 6708.057430469166
1186 6708.157991172339
1187 6708.046644311561
1188 6708.116427959117
1189 6708.061132139005
1190 6708.15071494286
1191 6708.039732128818
1192 6708.127727099745
1193 6708.059446262063
1194 6708.161870163854
1195 6708.04952058465
1196 6708.136539598067
1197 6708.087231511594
1198 6708.193997582599
1199 6708.089353292383
1200 6708.18237747886
1201 6708.101618574618
1202 6708.206023409073
1203 6708.095202192679
1204 6708.184943976538
1205 6708.128215534739
1206 6708.237649535521
1207 6708.136529456158
1208 6708.205979073578
1209 6708.141997457751
1210 6708.258203872499
1211 6708.14916842655
1212 6708.238125611402
1213 6708.162665243236
1214 6708.260398685242
1215 6708.138274626604
1216 6708.237117318386
1217 6708.15984681815
1218 6708.294248635646
1219 6708.181103323023
1220 6708.285042021667
1221 6708.216174496233
1222 6708.322071252603
1223 6708.218273585623
1224 6708.311188553343
1225 6708.241689289441
1226 6708.358239279219
1227 6708.239260200449
1228 6708.359164788416
1229 6708.262446988453
1230 6708.382329497275
1231 6708.265051310319
1232 6708.351491364855
1233 6708.271169752889
1234 6708.387717059127
1235 6708.26219877583
1236 6708.356356116674
1237 6708.286368280328
1238 6708.399244210777
1239 6708.263271933382
1240 6708.356193906226
1241 6708.279066310653
1242 6708.397807678092
1243 6708.276279834943
1244 6708.378069045631
1245 6708.308454151801
1246 6708.428993940437
1247 6708.320718545828
1248 6708.419199523257
1249 6708.345024435334
1250 6708.458477761479
1251 6708.343904201811
1252 6708.442038389724
1253 6708.37994128731
1254 6708.487861935407
1255 6708.364923884346
1256 6708.453950311264
1257 6708.380993332235
1258 6708.48061923265
1259 6708.385162217266
1260 6708.470859377624
1261 6708.409540923909
1262 6708.501813844489
1263 6708.402246895363
1264 6708.475233202294
1265 6708.40796720997
1266 6708.513111922979
1267 6708.389507372661
1268 6708.464938915527
1269 6708.393858990285
1270 6708.461535065713
1271 6708.376554542582
1272 6708.466035424407
1273 6708.388144671642
1274 6708.489190939034
1275 6708.398320404597
1276 6708.46239191696
1277 6708.414400355283
1278 6708.498969308843
1279 6708.406133993853
1280 6708.4862711141
1281 6708.42599997024
1282 6708.513768575819
1283 6708.421445928998
1284 6708.501277822108
1285 6708.437572364367
1286 6708.535661030999
1287 6708.437307200818
1288 6708.536945943924
1289 6708.460582915309
1290 6708.570564238945
1291 6708.492564556516
1292 6708.572749729658
1293 6708.49793366655
1294 6708.607985378743
1295 6708.508708883661
1296 6708.567430047844
1297 6708.508662754129
1298 6708.582417751353
1299 6708.487218880102
1300 6708.561299187891
1301 6708.489384355488
1302 6708.601880059336
1303 6708.508059961156
1304 6708.573054803893
1305 6708.496189667656
1306 6708.602967631095
1307 6708.516722210783
1308 6708.592080319562
1309 6708.547125460241
1310 6708.643483948651
1311 6708.542549732016
1312 6708.598537490385
1313 6708.512579420983
1314 6708.61625003572
1315 6708.517608668028
1316 6708.590762556344
1317 6708.538908792635
1318 6708.623392781056
1319 6708.537257088969
1320 6708.618603274793
1321 6708.546204364144
1322 6708.648096822093
1323 6708.557291647148
1324 6708.621128067343
1325 6708.547831589813
1326 6708.637409698638
1327 6708.543016972905
1328 6708.614392664929
1329 6708.537400277898
1330 6708.642388221139
1331 6708.557444415501
1332 6708.632764420688
1333 6708.569784592906
1334 6708.672435062174
1335 6708.58643995227
1336 6708.655804401737
1337 6708.590042237623
1338 6708.686159670602
1339 6708.576433219859
1340 6708.654153666227
1341 6708.579146754359
1342 6708.672006040159
1343 6708.574117182407
1344 6708.643750892857
1345 6708.556363734877
1346 6708.668797632027
1347 6708.563452886926
1348 6708.62454383648
1349 6708.56408769568
1350 6708.676827668561
1351 6708.568743591388
1352 6708.628513150071
1353 6708.554086686273
1354 6708.666304685773
1355 6708.563123931101
1356 6708.627235200808
1357 6708.574918330412
1358 6708.660523821543
1359 6708.57804711733
1360 6708.647567607728
1361 6708.57899545379
1362 6708.676187042155
1363 6708.591226123312
1364 6708.66680571931
1365 6708.610580849924
1366 6708.70850121579
1367 6708.60103565477
1368 6708.674030383149
1369 6708.591333662504
1370 6708.689754312821
1371 6708.601010310939
1372 6708.691238736459
1373 6708.6144568315
1374 6708.714156152236
1375 6708.602709333022
1376 6708.680961221045
1377 6708.598398707277
1378 6708.694620847004
1379 6708.590584631367
1380 6708.675231164457
1381 6708.606286011182
1382 6708.679610033661
1383 6708.572737399842
1384 6708.659646988955
1385 6708.586371244479
1386 6708.689778331012
1387 6708.591291537246
1388 6708.680305142537
1389 6708.608427850276
1390 6708.683254615929
1391 6708.590655433524
1392 6708.675517427519
1393 6708.604975640991
1394 6708.710699698468
1395 6708.585628402385
1396 6708.680253536019
1397 6708.586494915432
1398 6708.704207933746
1399 6708.581602983224
1400 6708.69020021807
1401 6708.612423509408
1402 6708.722562438506
1403 6708.598853422719
1404 6708.696192709715
1405 6708.609481183511
1406 6708.726627670564
1407 6708.604990797147
1408 6708.685348457897
1409 6708.592367260423
1410 6708.691468945245
1411 6708.568980496118
1412 6708.661581740466
1413 6708.594738560909
1414 6708.703432183386
1415 6708.588841067774
1416 6708.679626660004
1417 6708.588506778271
1418 6708.698592588164
1419 6708.586499076526
1420 6708.687427596363
1421 6708.613984815451
1422 6708.709221985353
1423 6708.589474479762
1424 6708.6812978696
1425 6708.609318275501
1426 6708.723802905294
1427 6708.616592432459
1428 6708.717211995822
1429 6708.654537794229
1430 6708.738288414782
1431 6708.652033054927
1432 6708.728790399735
1433 6708.647327028659
1434 6708.753112936824
1435 6708.641361663518
1436 6708.723736691734
1437 6708.654326352671
1438 6708.75516502768
1439 6708.620210052832
1440 6708.701078371842
1441 6708.632596666294
1442 6708.731607373714
1443 6708.634675747104
1444 6708.71102229286
1445 6708.642905742046
1446 6708.734959301334
1447 6708.626280769543
1448 6708.7043906984
1449 6708.64769740917
1450 6708.732113200452
1451 6708.627235211275
1452 6708.711313175817
1453 6708.629185941756
1454 6708.741744349465
1455 6708.633643810628
1456 6708.718494617725
1457 6708.657667317448
1458 6708.749089724636
1459 6708.650978037394
1460 6708.743187944305
1461 6708.673577319191
1462 6708.775965042991
1463 6708.662971691186
1464 6708.740396526675
1465 6708.665927812941
1466 6708.772738332756
1467 6708.658591021698
1468 6708.742244627761
1469 6708.685122847429
1470 6708.795645049967
1471 6708.690056575198
1472 6708.779105853407
1473 6708.707487660376
1474 6708.822861091167
1475 6708.699787573328
1476 6708.782026346615
1477 6708.721161500393
1478 6708.799687713953
1479 6708.693987761696
1480 6708.788465534595
1481 6708.694492808091
1482 6708.783325230211
1483 6708.675821382824
1484 6708.760978942562
1485 6708.703297145969
1486 6708.811895484652
1487 6708.695244467974
1488 6708.776043616685
1489 6708.703813544003
1490 6708.790464445131
1491 6708.705757235099
1492 6708.784923401635
1493 6708.709100884215
1494 6708.841810596544
1495 6708.704538080998
1496 6708.805613972794
1497 6708.723575947674
1498 6708.841902959236
1499 6708.716110537534
1500 6708.825839943198
1501 6708.73868499751
1502 6708.838860305613
1503 6708.718564822821
1504 6708.812143721083
1505 6708.705221187269
1506 6708.832876616924
1507 6708.711403844623
1508 6708.830477072029
1509 6708.746657872019
1510 6708.852907975397
1511 6708.733142734306
1512 6708.817749502896
1513 6708.731253476029
1514 6708.856082619708
1515 6708.720191991152
1516 6708.819307936687
1517 6708.723018602554
1518 6708.818376242964
1519 6708.68610730137
1520 6708.782810273504
1521 6708.7073360742
1522 6708.829761378459
1523 6708.713492272109
1524 6708.816565106674
1525 6708.744323214252
1526 6708.869678632687
1527 6708.730576210703
1528 6708.821065201558
1529 6708.732378336437
1530 6708.840941649566
1531 6708.709056544072
1532 6708.808006398519
1533 6708.72917472433
1534 6708.848956309719
1535 6708.731172985722
1536 6708.820953925873
1537 6708.744265610692
1538 6708.862621365904
1539 6708.728592630684
1540 6708.843538131535
1541 6708.750909976015
1542 6708.868327488453
1543 6708.746142964675
1544 6708.842031619381
1545 6708.738633902543
1546 6708.852293100122
1547 6708.714274535466
1548 6708.813408536996
1549 6708.72748919548
1550 6708.846438480054
1551 6708.735590127396
1552 6708.841654301271
1553 6708.741473854974
1554 6708.873005076436
1555 6708.751561565789
1556 6708.831037932587
1557 6708.737729550573
1558 6708.845146510022
1559 6708.722622270105
1560 6708.835067587344
1561 6708.734242568448
1562 6708.865846944575
1563 6708.75850463294
1564 6708.840750536036
1565 6708.763632603345
1566 6708.85363791352
1567 6708.735987188788
1568 6708.838059052941
1569 6708.754172858137
1570 6708.837965905392
1571 6708.722987500766
1572 6708.788341949656
1573 6708.724636453616
1574 6708.809911066533
1575 6708.708514471584
1576 6708.785034380551
1577 6708.727842740635
1578 6708.816316668557
1579 6708.707670749035
1580 6708.809477578632
1581 6708.733644848696
1582 6708.821703144262
1583 6708.727077228451
1584 6708.791495751158
1585 6708.710839458069
1586 6708.812302536995
1587 6708.700635957578
1588 6708.768400535505
1589 6708.693937905912
1590 6708.79253801538
1591 6708.67949103224
1592 6708.782700499017
1593 6708.717803731251
1594 6708.816211484892
1595 6708.709177541857
1596 6708.796983888714
1597 6708.750027510917
1598 6708.844904016757
1599 6708.738905325326
1600 6708.804097530052
1601 6708.729999892717
1602 6708.838437312418
1603 6708.721439871266
1604 6708.804693606044
1605 6708.746481247003
1606 6708.842822610228
1607 6708.741644796994
1608 6708.815124399845
1609 6708.731514281556
1610 6708.833002174664
1611 6708.713763994752
1612 6708.811805710661
1613 6708.753959318808
1614 6708.843998802143
1615 6708.746945131313
1616 6708.829065609819
1617 6708.756895051974
1618 6708.849413696654
1619 6708.747739918138
1620 6708.835788118297
1621 6708.758843571076
1622 6708.841878592544
1623 6708.745992400967
1624 6708.822662840733
1625 6708.729046030573
1626 6708.843784952311
1627 6708.730737650282
1628 6708.829640824474
1629 6708.749122608649
1630 6708.869805551148
1631 6708.73638698296
1632 6708.835038633041
1633 6708.736688685058
1634 6708.870546746171
1635 6708.735064288669
1636 6708.826973721861
1637 6708.714641230563
1638 6708.830929876781
1639 6708.711121173395
1640 6708.813685696576
1641 6708.724085755834
1642 6708.855871799083
1643 6708.744680524767
1644 6708.823816901472
1645 6708.768213730791
1646 6708.861691299142
1647 6708.762340234464
1648 6708.827658727716
1649 6708.746454492745
1650 6708.837608212588
1651 6708.741123373525
1652 6708.81418684196
1653 6708.746741756476
1654 6708.845558539336
1655 6708.722232549472
1656 6708.82111848784
1657 6708.72709920976
1658 6708.850720358493
1659 6708.730426704274
1660 6708.834623061007
1661 6708.747788466549
1662 6708.863356213527
1663 6708.73782428193
1664 6708.812774058954
1665 6708.709936159901
1666 6708.838335329524
1667 6708.718119179755
1668 6708.828160921234
1669 6708.749381126546
1670 6708.888486397504
1671 6708.771312397073
1672 6708.868575096676
1673 6708.773924713451
1674 6708.888604851355
1675 6708.772159120336
1676 6708.87902402945
1677 6708.79753914444
1678 6708.894430121474
1679 6708.775320244639
1680 6708.868293797522
1681 6708.766451024791
1682 6708.88252554848
1683 6708.762431034082
1684 6708.867910894061
1685 6708.789960702952
1686 6708.903445468794
1687 6708.772335005857
1688 6708.875096430961
1689 6708.799776347821
1690 6708.931669990056
1691 6708.800026105643
1692 6708.901137705106
1693 6708.820685932032
1694 6708.911615878996
1695 6708.785423059127
1696 6708.88742500139
1697 6708.789847380241
1698 6708.884014520194
1699 6708.755530303614
1700 6708.868943972821
1701 6708.802864520176
1702 6708.922720940553
1703 6708.794342699153
1704 6708.888332195206
1705 6708.789732919263
1706 6708.926700318418
1707 6708.793504271804
1708 6708.898472336636
1709 6708.812855128116
1710 6708.939558138502
1711 6708.808097994803
1712 6708.908117185849
1713 6708.801633913277
1714 6708.925494433142
1715 6708.797664239379
1716 6708.885492342734
1717 6708.815508501379
1718 6708.944768239703
1719 6708.837706162602
1720 6708.934190039727
1721 6708.839497527874
1722 6708.958795957227
1723 6708.827755508932
1724 6708.944949609058
1725 6708.850011164005
1726 6708.959997879789
1727 6708.825140228539
1728 6708.906976486226
1729 6708.80519522392
1730 6708.93823755384
1731 6708.817936323816
1732 6708.920283742673
1733 6708.830197985904
1734 6708.961029760791
1735 6708.817935267865
1736 6708.9100498179
1737 6708.816343803115
1738 6708.925465854893
1739 6708.797107296235
1740 6708.890196927432
1741 6708.774680447194
1742 6708.900375744615
1743 6708.774495219072
1744 6708.866386724483
1745 6708.763696995787
1746 6708.872541579119
