"y-rfile"
"Iteration" "y"
("Iteration" "y")
1 5356.488869041845
2 5427.030854028637
3 5257.947099823318
4 4938.966525676257
5 4515.065328084041
6 4150.0133568515
7 3673.658830074099
8 3236.609033336182
9 2798.033603507037
10 2355.606136532866
11 1992.117882146867
12 1688.116150024186
13 1469.063299055039
14 1297.313407209263
15 1188.312849625701
16 1117.394738660594
17 1083.493094736419
18 1077.359847282746
19 1093.640061422444
20 1135.637941708207
21 1205.434463357651
22 1286.222405364001
23 1375.648452817692
24 1467.698948846614
25 1560.485288820266
26 1652.547164953101
27 1727.822202944753
28 1800.360477961678
29 1858.469007337319
30 1912.059417120984
31 1951.728007246208
32 1990.230527796804
33 2034.199655062161
34 2073.520210142328
35 2107.549531740421
36 2141.2618731772
37 2167.731040853371
38 2185.225054337823
39 2200.413349756971
40 2208.693046683383
41 2212.810074006028
42 2215.562027342731
43 2217.004462329163
44 2217.632469896336
45 2218.038550299732
46 2218.300897414285
47 2218.905591781403
48 2219.808737730432
49 2221.289996498333
50 2223.66564801732
51 2225.71046273464
52 2229.093404968434
53 2231.866276718155
54 2235.321222986514
55 2239.239459696433
56 2243.593814767234
57 2248.324261026886
58 2253.343022350779
59 2258.463568915174
60 2262.11277580355
61 2267.899337920352
62 2271.930605787474
63 2278.064751232033
64 2283.996093098043
65 2287.886466513688
66 2293.771145597197
67 2299.160114819931
68 2302.6369252137
69 2307.680276698126
70 2310.87030472155
71 2315.404911900214
72 2318.278196766039
73 2322.312775975104
74 2324.73143183307
75 2327.059914124214
76 2329.313239446173
77 2331.381173738714
78 2333.367331940901
79 2335.252157097733
80 2337.009914639179
81 2338.649489680067
82 2340.204892453085
83 2341.502605951308
84 2342.762443573646
85 2343.855428876413
86 2344.848650683323
87 2345.672007383015
88 2346.445167655419
89 2347.048020208123
90 2347.608743780142
91 2348.083457620397
92 2348.444730674159
93 2348.714781333902
94 2348.970417597408
95 2349.15000500215
96 2349.299935898363
97 2349.393938402995
98 2349.540371707525
99 2349.617220399638
100 2349.706132292993
101 2349.794179049212
102 2349.911802806927
103 2350.004246883957
104 2350.151775283136
105 2350.275862640032
106 2350.476977761414
107 2350.674931165386
108 2350.909287196961
109 2351.146428679625
110 2351.414946112728
111 2351.70118119492
112 2352.010028495687
113 2352.329594896066
114 2352.696269993202
115 2353.036382679599
116 2353.442039956446
117 2353.835064814899
118 2354.273184417456
119 2354.692637358027
120 2355.152227234126
121 2355.596884943159
122 2356.076952900796
123 2356.537850207156
124 2357.029870055983
125 2357.467042522242
126 2357.946940863159
127 2358.389650573475
128 2358.875481398242
129 2359.319143766148
130 2359.799088118655
131 2360.237176308942
132 2360.721817710853
133 2361.167875756129
134 2361.650387875055
135 2362.108350190516
136 2362.592351484655
137 2363.043222232729
138 2363.541176874824
139 2364.007339360279
140 2364.513062723665
141 2364.998198992875
142 2365.526085217735
143 2366.019297830541
144 2366.567383944111
145 2367.074350813798
146 2367.653478697807
147 2368.189244755757
148 2368.788442778407
149 2369.359776347538
150 2369.986521397219
151 2370.580514262157
152 2371.2402821924
153 2371.87138654059
154 2372.556149059936
155 2373.221414455304
156 2373.952638167356
157 2374.666485234046
158 2375.433909193091
159 2376.185002082646
160 2376.991930039204
161 2377.78154888275
162 2378.617928971181
163 2379.434285874992
164 2380.307156835177
165 2381.172220962888
166 2382.086970112727
167 2382.97593596711
168 2383.906300883118
169 2384.836545057423
170 2385.815481050358
171 2386.7628001085
172 2387.78130782621
173 2388.77136304832
174 2389.808946225816
175 2390.836168289798
176 2391.925729337241
177 2392.983503328247
178 2394.07039288132
179 2395.146845465003
180 2396.282304592215
181 2397.939231154876
182 2399.056608910887
183 2400.155499385683
184 2401.266269930534
185 2402.886956533265
186 2403.959067622743
187 2405.018801004123
188 2406.596146592246
189 2407.610732806181
190 2408.654349830628
191 2410.176469898076
192 2411.200780164559
193 2412.684801811745
194 2413.672820833535
195 2415.104886889982
196 2416.074602191665
197 2417.482827235257
198 2418.428407113593
199 2419.818060294944
200 2420.753981344244
201 2422.107055554075
202 2423.026037066565
203 2424.39482259034
204 2425.315028388265
205 2426.649047415381
206 2427.572920791918
207 2428.927446771482
208 2429.850148807478
209 2431.195737302004
210 2432.11100453555
211 2433.454956921811
212 2434.364897148354
213 2435.692012796535
214 2436.588736816725
215 2437.890199099935
216 2438.781673383159
217 2440.060337297544
218 2440.93395374342
219 2442.201565604639
220 2443.070804412575
221 2443.910511417602
222 2445.199844652485
223 2445.995604933169
224 2447.238691926764
225 2448.019190356675
226 2448.849411568504
227 2450.020748376589
228 2450.821009401793
229 2451.583992498792
230 2452.734762992492
231 2453.460882377092
232 2454.213057185828
233 2454.934364287231
234 2455.685160017974
235 2456.764947387614
236 2457.470786860396
237 2458.160041855944
238 2458.885267458766
239 2459.563621068529
240 2460.273471068681
241 2460.951559701009
242 2461.663594136876
243 2462.336179505158
244 2463.026724787545
245 2463.694359392664
246 2464.374354807737
247 2465.017141172824
248 2465.681025065615
249 2466.317219380163
250 2466.960702512145
251 2467.567456325791
252 2468.180117935511
253 2468.761698951741
254 2469.355772310209
255 2469.915109514094
256 2470.461735968151
257 2470.987335341768
258 2471.512123250972
259 2472.000707260176
260 2472.497493340951
261 2472.950667634832
262 2473.41174728658
263 2473.83543601909
264 2474.268564906338
265 2474.671712034678
266 2475.088524219695
267 2475.465660554594
268 2475.858584846351
269 2476.217995503958
270 2476.596639026851
271 2476.948761055833
272 2477.317666540817
273 2477.654970859478
274 2478.012962343095
275 2478.348783127135
276 2478.707515577263
277 2479.038100646244
278 2479.39182365484
279 2479.721300554498
280 2480.071927644496
281 2480.399547616022
282 2480.748371567112
283 2481.07835762472
284 2481.428419644188
285 2481.754333329442
286 2482.10618376432
287 2482.437896369774
288 2482.78265366889
289 2483.099529716272
290 2483.434171476724
291 2483.752847800266
292 2484.091342941998
293 2484.406495613988
294 2484.740609891478
295 2485.054641857031
296 2485.386998053882
297 2485.693467679422
298 2486.016849976906
299 2486.319742612026
300 2486.647812116298
301 2486.946531439919
302 2487.271650935893
303 2487.568270693846
304 2487.895380691788
305 2488.199722505273
306 2488.52707578695
307 2488.833787801683
308 2489.168783681183
309 2489.4740903466
310 2489.806375237821
311 2490.114348548362
312 2490.444721427717
313 2490.741886663232
314 2491.073916158322
315 2491.37163819707
316 2491.703154858868
317 2492.006602848573
318 2492.338886256746
319 2492.643852415675
320 2492.969875927001
321 2493.278536735017
322 2493.614317735874
323 2493.921248050757
324 2494.251390265961
325 2494.549660620525
326 2494.878392159082
327 2495.178994704753
328 2495.497406163744
329 2495.790084660496
330 2496.106401432608
331 2496.393059159297
332 2496.704330494801
333 2496.978568751411
334 2497.281766576323
335 2497.557944095615
336 2497.859423780537
337 2498.133430730024
338 2498.436846824379
339 2498.711315340221
340 2499.012948581802
341 2499.292698419491
342 2499.59854198644
343 2499.874234801718
344 2500.171988110931
345 2500.442269217279
346 2500.737550491142
347 2501.008197718623
348 2501.303025943601
349 2501.575482718118
350 2501.869416829477
351 2502.141014792367
352 2502.436017156311
353 2502.711385589741
354 2503.002188304762
355 2503.272504204732
356 2503.564508971137
357 2503.842939087574
358 2504.130395031103
359 2504.393359066766
360 2504.677882334322
361 2504.937334229918
362 2505.218911603692
363 2505.470214785969
364 2505.74565064905
365 2505.990152022513
366 2506.254325167316
367 2506.491190795036
368 2506.74406375785
369 2506.980962281344
370 2507.23488880496
371 2507.465143859022
372 2507.717460127596
373 2507.955459498042
374 2508.213728903626
375 2508.448169842033
376 2508.703447586905
377 2508.943191399579
378 2509.199266704008
379 2509.433557509974
380 2509.686796176194
381 2509.923305061975
382 2510.1796269662
383 2510.417386037925
384 2510.675324974341
385 2510.915277141456
386 2511.173453292693
387 2511.408564417935
388 2511.657758982109
389 2511.886779499621
390 2512.129490721415
391 2512.348971381665
392 2512.58769933319
393 2512.806368027118
394 2513.043339735933
395 2513.257577497081
396 2513.49080144842
397 2513.699827718135
398 2513.927973423307
399 2514.135598030775
400 2514.353055631321
401 2514.552150587517
402 2514.768177802849
403 2514.959655425781
404 2515.170732948885
405 2515.3619783674
406 2515.574208743709
407 2515.764449202508
408 2515.979087536056
409 2516.172647452776
410 2516.389282759267
411 2516.581271611166
412 2516.793389986614
413 2516.982951561732
414 2517.203056798888
415 2517.396244558267
416 2517.610673545434
417 2517.804014054245
418 2518.02050169807
419 2518.215247034178
420 2518.432309201629
421 2518.618854407331
422 2518.831243732457
423 2519.018373858681
424 2519.221493509377
425 2519.401978723314
426 2519.603136718808
427 2519.780431084464
428 2519.972023162031
429 2520.14880157221
430 2520.340649994218
431 2520.514309624167
432 2520.704384456586
433 2520.873356143298
434 2521.057408523618
435 2521.219918232674
436 2521.399301709801
437 2521.560527487247
438 2521.742035171479
439 2521.897617203572
440 2522.067711426468
441 2522.218409560601
442 2522.386802023241
443 2522.540848863761
444 2522.712211399735
445 2522.867686396556
446 2523.047891259267
447 2523.209380035358
448 2523.389068367452
449 2523.550911254446
450 2523.73106642247
451 2523.890729447586
452 2524.065726109031
453 2524.22296243413
454 2524.396235972405
455 2524.553630223941
456 2524.725385209462
457 2524.878446585112
458 2525.049083529091
459 2525.193244219669
460 2525.358703779124
461 2525.501039464083
462 2525.663562972546
463 2525.809077678414
464 2525.969283751985
465 2526.10451989688
466 2526.258447810084
467 2526.389402583873
468 2526.538933012389
469 2526.66617947733
470 2526.8164294706
471 2526.942440771176
472 2527.089139598633
473 2527.209487062905
474 2527.34873030266
475 2527.466070541717
476 2527.602468101822
477 2527.717124194307
478 2527.85270902811
479 2527.97239066785
480 2528.117084676908
481 2528.242259999965
482 2528.385264634386
483 2528.512399225336
484 2528.654245156133
485 2528.785227452189
486 2528.927818699871
487 2529.057725269527
488 2529.195293742616
489 2529.326172265559
490 2529.460312199851
491 2529.590100870046
492 2529.724620725298
493 2529.847585235421
494 2529.978168630967
495 2530.098529947688
496 2530.22647752348
497 2530.341609887054
498 2530.463560260415
499 2530.573846163893
500 2530.694421925807
501 2530.801770620041
502 2530.918533907527
503 2531.02549853093
504 2531.139776772498
505 2531.243709211471
506 2531.354472226932
507 2531.457151113819
508 2531.563943474188
509 2531.654036387522
510 2531.762144578888
511 2531.85483778551
512 2531.963360944727
513 2532.054863140089
514 2532.162899416882
515 2532.258324301289
516 2532.372279168074
517 2532.468193129651
518 2532.584083299545
519 2532.682382694782
520 2532.793101540836
521 2532.887225036258
522 2533.003213894042
523 2533.097197010089
524 2533.213237971804
525 2533.30767941966
526 2533.421414542581
527 2533.513456317051
528 2533.623917225696
529 2533.712697500969
530 2533.820083126693
531 2533.902467970462
532 2534.001240814929
533 2534.081169090078
534 2534.187684564177
535 2534.269954320768
536 2534.364989375865
537 2534.436426316469
538 2534.527010256946
539 2534.594478696495
540 2534.680647007175
541 2534.745651068937
542 2534.83472067541
543 2534.898321167048
544 2534.985681225887
545 2535.052226254717
546 2535.138685904312
547 2535.200851704704
548 2535.28723244936
549 2535.354518848334
550 2535.442600399667
551 2535.509494162337
552 2535.597131983841
553 2535.668500969863
554 2535.76219763386
555 2535.833936934231
556 2535.924389926255
557 2535.993296212892
558 2536.086155087874
559 2536.151657439597
560 2536.240053900671
561 2536.308669033381
562 2536.395140534493
563 2536.461154459805
564 2536.542379889557
565 2536.605480868084
566 2536.68957931171
567 2536.753678575044
568 2536.831716011609
569 2536.893471543375
570 2536.977943453887
571 2537.037673227646
572 2537.109117577465
573 2537.164027654275
574 2537.232761482262
575 2537.28692137598
576 2537.353849871989
577 2537.408290079777
578 2537.4777395121
579 2537.53173815355
580 2537.593078989867
581 2537.643202981777
582 2537.704666248891
583 2537.749871281324
584 2537.805157770692
585 2537.85592685669
586 2537.918037533612
587 2537.966397861129
588 2538.031464401056
589 2538.084711429273
590 2538.155004743859
591 2538.207136776527
592 2538.273220140492
593 2538.32343827947
594 2538.392758121749
595 2538.436093591279
596 2538.503785178485
597 2538.554982560862
598 2538.625636589151
599 2538.674014633982
600 2538.741094535316
601 2538.790084567006
602 2538.857812488193
603 2538.904037656866
604 2538.96728049999
605 2539.007847112782
606 2539.06451205224
607 2539.100334571975
608 2539.153722250308
609 2539.193878244292
610 2539.250740837974
611 2539.291306577506
612 2539.345932685596
613 2539.380268550375
614 2539.434589454381
615 2539.46208485504
616 2539.50740100454
617 2539.533921896945
618 2539.580318091518
619 2539.609063054544
620 2539.654542264671
621 2539.68722786505
622 2539.739900723423
623 2539.781974650631
624 2539.833866411387
625 2539.872478895363
626 2539.92490523665
627 2539.971425934884
628 2540.023882991459
629 2540.068178434552
630 2540.121277877547
631 2540.166883735007
632 2540.222554212607
633 2540.268036590902
634 2540.316749190914
635 2540.354093249524
636 2540.403309881617
637 2540.436555405194
638 2540.481656526669
639 2540.512929302463
640 2540.554052654626
641 2540.578408912769
642 2540.620644547952
643 2540.648371759854
644 2540.690736443527
645 2540.717114093645
646 2540.759338162693
647 2540.783844156089
648 2540.828213613881
649 2540.84621784351
650 2540.882044795711
651 2540.903708362816
652 2540.940350775254
653 2540.961891835208
654 2540.997068471674
655 2541.023894320403
656 2541.057460002801
657 2541.086798007093
658 2541.122318015196
659 2541.155458726944
660 2541.199000686505
661 2541.224345354605
662 2541.268143223351
663 2541.296314168236
664 2541.340267528209
665 2541.370061495224
666 2541.41117791375
667 2541.441657000787
668 2541.47969673539
669 2541.507572155738
670 2541.544439121209
671 2541.571320550197
672 2541.610851615394
673 2541.632807038852
674 2541.668223273064
675 2541.689002328262
676 2541.723572876608
677 2541.746494256417
678 2541.777527242495
679 2541.793822706809
680 2541.8255254175
681 2541.838158722823
682 2541.869831523389
683 2541.887798365666
684 2541.922462919038
685 2541.940392616419
686 2541.974293453099
687 2541.990082062989
688 2542.01847965417
689 2542.034090503888
690 2542.061825038435
691 2542.078448352398
692 2542.11036058732
693 2542.126893480204
694 2542.162857605954
695 2542.184487307039
696 2542.220526509075
697 2542.236788660127
698 2542.274199656799
699 2542.29738125197
700 2542.330724450065
701 2542.351813655976
702 2542.389493217794
703 2542.411607663071
704 2542.443911187467
705 2542.462750087201
706 2542.492438947936
707 2542.506788279404
708 2542.539022382447
709 2542.553207514869
710 2542.582040550654
711 2542.594610545249
712 2542.621522362433
713 2542.632895089673
714 2542.658858749844
715 2542.674813733498
716 2542.700292393698
717 2542.711951741679
718 2542.737658949938
719 2542.746465290609
720 2542.771225384207
721 2542.777701844944
722 2542.797369426
723 2542.804039648377
724 2542.83039541767
725 2542.83831124831
726 2542.864114870288
727 2542.871828593703
728 2542.892822497931
729 2542.913988178368
730 2542.942320794109
731 2542.959793366818
732 2542.991568703072
733 2543.015134692211
734 2543.050484162919
735 2543.073210122851
736 2543.100547671284
737 2543.122186597321
738 2543.145036876219
739 2543.159729229752
740 2543.181384504743
741 2543.190353258723
742 2543.212947822845
743 2543.221266192462
744 2543.246073294704
745 2543.255109910526
746 2543.279364452796
747 2543.297749136672
748 2543.315201738355
749 2543.322984509124
750 2543.339753988424
751 2543.344424812474
752 2543.360051483955
753 2543.369445883319
754 2543.390822249323
755 2543.400980844077
756 2543.424386362241
757 2543.438057211662
758 2543.456735698035
759 2543.464562255775
760 2543.475645961227
761 2543.480046061115
762 2543.493947663827
763 2543.501084933189
764 2543.5177671935
765 2543.537189978078
766 2543.558700951188
767 2543.574559696436
768 2543.600189529946
769 2543.618426957462
770 2543.644170472145
771 2543.659152837828
772 2543.680987447408
773 2543.688745884085
774 2543.710972250818
775 2543.721257216201
776 2543.738358478166
777 2543.750749092392
778 2543.766051657063
779 2543.772917487329
780 2543.793262349547
781 2543.796222658139
782 2543.817737610954
783 2543.822953950657
784 2543.835701603346
785 2543.840665776627
786 2543.854533326004
787 2543.858336200431
788 2543.87875508402
789 2543.886236705496
790 2543.902778659283
791 2543.912776750558
792 2543.927913254175
793 2543.932430643309
794 2543.941213269642
795 2543.944715316809
796 2543.951208142079
797 2543.956453960743
798 2543.972835858865
799 2543.978388008464
800 2543.995945707257
801 2544.006910771345
802 2544.026502607295
803 2544.039643597041
804 2544.060298939873
805 2544.06885716328
806 2544.088418687513
807 2544.095956228759
808 2544.110856406014
809 2544.116566713607
810 2544.133834541223
811 2544.144949593524
812 2544.158479412824
813 2544.164115869839
814 2544.185486200992
815 2544.19081179038
816 2544.204435337763
817 2544.21149362384
818 2544.225287330346
819 2544.237215649958
820 2544.251698360524
821 2544.262608868868
822 2544.275728357336
823 2544.28225240193
824 2544.291718892547
825 2544.299057358817
826 2544.30453305004
827 2544.30644256458
828 2544.309226810728
829 2544.309733117593
830 2544.315361756091
831 2544.318327728742
832 2544.321600478239
833 2544.3289938261
834 2544.336546346918
835 2544.348053313585
836 2544.358810893845
837 2544.371543379734
838 2544.385236869577
839 2544.3942677021
840 2544.405659732488
841 2544.41571863446
842 2544.430051890889
843 2544.440660641555
844 2544.452706241742
845 2544.462685696055
846 2544.473183902336
847 2544.478134398809
848 2544.49087286439
849 2544.492140590771
850 2544.504907956373
851 2544.50666142895
852 2544.519046713021
853 2544.526085664387
854 2544.544400878041
855 2544.546640578186
856 2544.561419582494
857 2544.556286280326
858 2544.568936771193
859 2544.569803649931
860 2544.579361387408
861 2544.577374519235
862 2544.586346969839
863 2544.590247103963
864 2544.597514778835
865 2544.596064783126
866 2544.605643142687
867 2544.608551780057
868 2544.619370141881
869 2544.620649801031
870 2544.633358569654
871 2544.638217850194
872 2544.646318076092
873 2544.653750808649
874 2544.6615323395
875 2544.665035755429
876 2544.674325883927
877 2544.677746937224
878 2544.695489090771
879 2544.703169235903
880 2544.719206777282
881 2544.719605039031
882 2544.734660547845
883 2544.73572407148
884 2544.744691724023
885 2544.749283014514
886 2544.762016464011
887 2544.762618414079
888 2544.772983656675
889 2544.772145313757
890 2544.780977295529
891 2544.785717365213
892 2544.793866762849
893 2544.800701886785
894 2544.811547427721
895 2544.814562422918
896 2544.819865154432
897 2544.820585693182
898 2544.828202564129
899 2544.825262957932
900 2544.827325911255
901 2544.826916760864
902 2544.834136259019
903 2544.828636850198
904 2544.829720808815
905 2544.828737375079
906 2544.833279363213
907 2544.83652944578
908 2544.844572952881
909 2544.848303582229
910 2544.861036406623
911 2544.868249817146
912 2544.880885965862
913 2544.883660092702
914 2544.896347720333
915 2544.901182043782
916 2544.913850089914
917 2544.9149305606
918 2544.924962433799
919 2544.924917916194
920 2544.929865110681
921 2544.930300604745
922 2544.938254573348
923 2544.939244486388
924 2544.948427929978
925 2544.952453345743
926 2544.964642139567
927 2544.969630751699
928 2544.976264065172
929 2544.978121741887
930 2544.986559195854
931 2544.989076913827
932 2544.992817152625
933 2544.997845651624
934 2545.003037709992
935 2545.001777840122
936 2545.001751044478
937 2545.00039929409
938 2545.004215602697
939 2544.999570460721
940 2544.999757303756
941 2544.996505835209
942 2545.000471772901
943 2544.997426217445
944 2545.001693312466
945 2545.005463420925
946 2545.007472604842
947 2545.015080651941
948 2545.026936526544
949 2545.030555130597
950 2545.041134519056
951 2545.043315917844
952 2545.047849226223
953 2545.053885898038
954 2545.061462357714
955 2545.068128397699
956 2545.073676115354
957 2545.082183209308
958 2545.086170597847
959 2545.093563355932
960 2545.0980363121
961 2545.098813043276
962 2545.100252285588
963 2545.104422568444
964 2545.110012951311
965 2545.111163510091
966 2545.121043911189
967 2545.119839112443
968 2545.126758894371
969 2545.12763021404
970 2545.127884522923
971 2545.125244521637
972 2545.128131594035
973 2545.118352787422
974 2545.114208367334
975 2545.108736422862
976 2545.11066640421
977 2545.10742616445
978 2545.114095564044
979 2545.113787741203
980 2545.124591113432
981 2545.126984185438
982 2545.142512044817
983 2545.14563894401
984 2545.156050475799
985 2545.163157945959
986 2545.169798702216
987 2545.176099498904
988 2545.180825094257
989 2545.183403759149
990 2545.19037357691
991 2545.191770001172
992 2545.195497370853
993 2545.197356717174
994 2545.200317736807
995 2545.198597957992
996 2545.202682918001
997 2545.201054945408
998 2545.202699307955
999 2545.203143444147
1000 2545.20750479446
1001 2545.2090935165
1002 2545.212626455892
1003 2545.212632313061
1004 2545.217984788352
1005 2545.213081969917
1006 2545.212789301093
1007 2545.208616097843
1008 2545.210631400088
1009 2545.206787724699
1010 2545.207672405299
1011 2545.202736443977
1012 2545.212715939473
1013 2545.20840580622
1014 2545.219599204245
1015 2545.219065288331
1016 2545.225512028981
1017 2545.225652107474
1018 2545.229163599076
1019 2545.228736679425
1020 2545.232237418008
1021 2545.232648604742
1022 2545.242215287008
1023 2545.247091351361
1024 2545.25066754532
1025 2545.256306794284
1026 2545.263193607646
1027 2545.263334773721
1028 2545.270257878537
1029 2545.272112285402
1030 2545.285692453122
1031 2545.291615244568
1032 2545.29981770329
1033 2545.302076577013
1034 2545.311028415385
1035 2545.306704087537
1036 2545.313579620568
1037 2545.309596790733
1038 2545.320660492866
1039 2545.311814011605
1040 2545.317967015302
1041 2545.305675026229
1042 2545.304485039105
1043 2545.286995923514
1044 2545.290689047633
1045 2545.273970779309
1046 2545.276234914585
1047 2545.266090410283
1048 2545.270783057204
1049 2545.26753609221
1050 2545.275392446289
1051 2545.275253977239
1052 2545.283346497557
1053 2545.287581134942
1054 2545.294692768115
1055 2545.30463300051
1056 2545.310723300391
1057 2545.317464670274
1058 2545.32871461226
1059 2545.330773943642
1060 2545.337152280895
1061 2545.33924679952
1062 2545.344405167724
1063 2545.341854428973
1064 2545.344137671502
1065 2545.348249982927
1066 2545.349088460244
1067 2545.346340937728
1068 2545.350297663244
1069 2545.351130931117
1070 2545.356539419402
1071 2545.355325551674
1072 2545.36310181007
1073 2545.357585035106
1074 2545.360328576342
1075 2545.350951466497
1076 2545.350585542922
1077 2545.34107188053
1078 2545.342572128627
1079 2545.334359361116
1080 2545.344294151687
1081 2545.334542787538
1082 2545.341411221797
1083 2545.338304087878
1084 2545.344776954226
1085 2545.337623249735
1086 2545.348101697207
1087 2545.346351667791
1088 2545.35839131382
1089 2545.354763743603
1090 2545.367525976022
1091 2545.36501161817
1092 2545.372555542335
1093 2545.368467338641
1094 2545.381125457315
1095 2545.374139975766
1096 2545.379488902893
1097 2545.376189578633
1098 2545.388336923559
1099 2545.380871515816
1100 2545.38946875473
1101 2545.3947918406
1102 2545.405545807211
1103 2545.406261420289
1104 2545.414311859489
1105 2545.412349524366
1106 2545.423624845658
1107 2545.414172197676
1108 2545.418299936717
1109 2545.414486788037
1110 2545.420607715426
1111 2545.414396388182
1112 2545.413972974618
1113 2545.403604693923
1114 2545.403764082548
1115 2545.390905721408
1116 2545.390969152572
1117 2545.377206991614
1118 2545.374947514852
1119 2545.372035620469
1120 2545.374055806377
1121 2545.373286958911
1122 2545.37875884461
1123 2545.381488951988
1124 2545.389820742
1125 2545.392761305973
1126 2545.395255743871
1127 2545.399583539914
1128 2545.404978560614
1129 2545.401322350605
1130 2545.410103389438
1131 2545.407095338986
1132 2545.413500214383
1133 2545.414709461215
1134 2545.425321921193
1135 2545.430688837903
1136 2545.441519859559
1137 2545.448094493525
1138 2545.45528402938
1139 2545.456048149936
1140 2545.460174150707
1141 2545.454957669339
1142 2545.456162013325
1143 2545.449974038464
1144 2545.450486566102
1145 2545.444580203093
1146 2545.444908544417
1147 2545.436180419757
1148 2545.430926962315
1149 2545.424361392289
1150 2545.423776810892
1151 2545.414593487505
1152 2545.40702760539
1153 2545.398646680141
1154 2545.392140433738
1155 2545.39162063142
1156 2545.394320818643
1157 2545.395230284978
1158 2545.403294362381
1159 2545.403345220504
1160 2545.406720106404
1161 2545.412145783146
1162 2545.42011968163
1163 2545.420970713924
1164 2545.429007189364
1165 2545.430184123655
1166 2545.44276031879
1167 2545.440965375498
1168 2545.454968163644
1169 2545.457468116933
1170 2545.468502864134
1171 2545.475718520123
1172 2545.488735970061
1173 2545.491029137877
1174 2545.498588497838
1175 2545.501636828159
1176 2545.505223466369
1177 2545.50252668331
1178 2545.502328541161
1179 2545.499570727407
1180 2545.500739096877
1181 2545.488790389067
1182 2545.488089543023
1183 2545.473876581805
1184 2545.466320429912
1185 2545.453771401125
1186 2545.442069107153
1187 2545.427473624887
1188 2545.419925675039
1189 2545.411414884451
1190 2545.413244101558
1191 2545.408629273871
1192 2545.417403866417
1193 2545.416511355548
1194 2545.424083744888
1195 2545.426451620455
1196 2545.433025710782
1197 2545.436084709156
1198 2545.44550655369
1199 2545.444816216444
1200 2545.455708332379
1201 2545.456341696864
1202 2545.466054986766
1203 2545.466949823386
1204 2545.476543058886
1205 2545.482701173759
1206 2545.492361779515
1207 2545.499806169274
1208 2545.501372199146
1209 2545.505512582974
1210 2545.508357063981
1211 2545.510392285028
1212 2545.514358818117
1213 2545.507292829839
1214 2545.508096833777
1215 2545.501746997496
1216 2545.497473538234
1217 2545.487543113966
1218 2545.478829346102
1219 2545.467087106387
1220 2545.45765004425
1221 2545.447950926566
1222 2545.443885150215
1223 2545.441376729137
1224 2545.444061711616
1225 2545.446952307805
1226 2545.446495332507
1227 2545.44998594783
1228 2545.455471926102
1229 2545.458765575082
1230 2545.472481817149
1231 2545.473345802431
1232 2545.481126929821
1233 2545.487361229866
1234 2545.495814157125
1235 2545.499612696708
1236 2545.507517931425
1237 2545.507491470707
1238 2545.514251717077
1239 2545.514261863827
1240 2545.514604501458
1241 2545.514300756076
1242 2545.521086219626
1243 2545.515784760699
1244 2545.517681437109
1245 2545.513112141467
1246 2545.516107818068
1247 2545.511525423757
1248 2545.514679574484
1249 2545.504819015687
1250 2545.506621314311
1251 2545.493375821685
1252 2545.489842230729
1253 2545.476351508289
1254 2545.475348045949
1255 2545.461000222921
1256 2545.453962226028
1257 2545.446183541391
1258 2545.444997641531
1259 2545.44491211361
1260 2545.455126971265
1261 2545.45272025582
1262 2545.457597981814
1263 2545.463372493779
1264 2545.466734644708
1265 2545.471836613754
1266 2545.481127932192
1267 2545.486698978421
1268 2545.494169836557
1269 2545.500336795191
1270 2545.507602618675
1271 2545.512449958077
1272 2545.518444062118
1273 2545.516399195255
1274 2545.52287490385
1275 2545.520510131285
1276 2545.525725386009
1277 2545.525835056032
1278 2545.534866543429
1279 2545.535071768668
1280 2545.539545627689
1281 2545.535428247562
1282 2545.536111190937
1283 2545.531671579397
1284 2545.53249393447
1285 2545.519018589334
1286 2545.51697856212
1287 2545.505660668848
1288 2545.49604764229
1289 2545.484698844964
1290 2545.474742529766
1291 2545.467776690148
1292 2545.463272827385
1293 2545.459233661658
1294 2545.4561896035
1295 2545.457289466713
1296 2545.458264711013
1297 2545.462438578424
1298 2545.467985962568
1299 2545.47380689759
1300 2545.47975201858
1301 2545.487518773783
1302 2545.495763433079
1303 2545.506819211851
1304 2545.516010920481
1305 2545.526313345292
1306 2545.527850245473
1307 2545.532261965507
1308 2545.536570142041
1309 2545.537514755938
1310 2545.544769431096
1311 2545.550765170119
1312 2545.55406746256
1313 2545.553700133771
1314 2545.555563426334
1315 2545.552001716368
1316 2545.551860174456
1317 2545.545047350411
1318 2545.540655715188
1319 2545.531228109036
1320 2545.52451014949
1321 2545.515180348702
1322 2545.512004325503
1323 2545.497158270872
1324 2545.491243331967
1325 2545.480224624048
1326 2545.473267274795
1327 2545.463657215123
1328 2545.461520190266
1329 2545.458232626335
1330 2545.458377447223
1331 2545.457343535547
1332 2545.472521337462
1333 2545.472160601465
1334 2545.485832138056
1335 2545.488293638458
1336 2545.503394470462
1337 2545.50579009698
1338 2545.516246190467
1339 2545.521894394614
1340 2545.529694310591
1341 2545.53144719989
1342 2545.538336581009
1343 2545.535687932934
1344 2545.541115622674
1345 2545.538816687972
1346 2545.549094179775
1347 2545.543643666345
1348 2545.558896398821
1349 2545.554261431184
1350 2545.562550993858
1351 2545.554859609103
1352 2545.553133261368
1353 2545.54305463075
1354 2545.541688058004
1355 2545.527612586287
1356 2545.52646044811
1357 2545.51862500444
1358 2545.516310310803
1359 2545.510142683229
1360 2545.504580940086
1361 2545.498702159952
1362 2545.492639353312
1363 2545.483612612801
1364 2545.477873988156
1365 2545.474394946832
1366 2545.477684297292
1367 2545.4804087449
1368 2545.487967645336
1369 2545.487569508942
1370 2545.493895834729
1371 2545.49531835807
1372 2545.507695958126
1373 2545.509074955671
1374 2545.519423985544
1375 2545.520997467095
1376 2545.529731573326
1377 2545.528765858407
1378 2545.540662501054
1379 2545.535864102555
1380 2545.545639683492
1381 2545.544999340924
1382 2545.554365663098
1383 2545.55756682723
1384 2545.567144425504
1385 2545.565366055456
1386 2545.565765430867
1387 2545.564851811301
1388 2545.558359858427
1389 2545.551465198186
1390 2545.546276845944
1391 2545.541242999366
1392 2545.535237261749
1393 2545.524146692628
1394 2545.520295478423
1395 2545.508707643404
1396 2545.499148584245
1397 2545.488721937829
1398 2545.483228308194
1399 2545.471724160666
1400 2545.470372270721
1401 2545.472189856436
1402 2545.474350999201
1403 2545.477470809839
1404 2545.486428898962
1405 2545.49522922844
1406 2545.501509718558
1407 2545.510974985932
1408 2545.517473394162
1409 2545.524656522668
1410 2545.531709670925
1411 2545.5380948335
1412 2545.541309016661
1413 2545.546476032766
1414 2545.551345275618
1415 2545.552628862014
1416 2545.562493848901
1417 2545.561157678732
1418 2545.56580545701
1419 2545.565084512879
1420 2545.563515398821
1421 2545.559384161024
1422 2545.555386338628
1423 2545.549343828384
1424 2545.541100923511
1425 2545.536914911223
1426 2545.531802254689
1427 2545.525173385068
1428 2545.523786905812
1429 2545.51444763693
1430 2545.51607724062
1431 2545.499677672275
1432 2545.49665497213
1433 2545.484579014353
1434 2545.483432621176
1435 2545.481143356126
1436 2545.488440298991
1437 2545.490980941407
1438 2545.50341407622
1439 2545.508371100433
1440 2545.52149305843
1441 2545.52537560987
1442 2545.538541318641
1443 2545.535193913551
1444 2545.543876771605
1445 2545.539106740684
1446 2545.550252573841
1447 2545.547703918102
1448 2545.556663646012
1449 2545.554816757168
1450 2545.556219960163
1451 2545.553237654143
1452 2545.554186405378
1453 2545.550830709743
1454 2545.554092898352
1455 2545.552155375764
1456 2545.545396409335
1457 2545.542030300575
1458 2545.538514956213
1459 2545.534337448367
1460 2545.534398230008
1461 2545.529203669286
1462 2545.529178489152
1463 2545.522393413726
1464 2545.515229994599
1465 2545.511619982878
1466 2545.508058067876
1467 2545.504638468869
1468 2545.49999009465
1469 2545.494144783513
1470 2545.500268465461
1471 2545.495792752752
1472 2545.506350360907
1473 2545.511860125211
1474 2545.518345929927
1475 2545.515084070696
1476 2545.52626739759
1477 2545.526742544149
1478 2545.538688013746
1479 2545.538004168601
1480 2545.55134934312
1481 2545.555325630367
1482 2545.56402270429
1483 2545.564669315706
1484 2545.568724486336
1485 2545.568796185058
1486 2545.572550812027
1487 2545.569175340551
1488 2545.569719451459
1489 2545.5675697644
1490 2545.567047973461
1491 2545.555805700713
1492 2545.552593157693
1493 2545.543857466042
1494 2545.538552409653
1495 2545.530613858342
1496 2545.526940984077
1497 2545.519701021048
1498 2545.51317141636
1499 2545.504814535839
1500 2545.502180608788
1501 2545.488980629289
1502 2545.494383574081
1503 2545.488103884939
1504 2545.494107553029
1505 2545.488365854215
1506 2545.495794011462
1507 2545.494715785461
1508 2545.507309285521
1509 2545.506457375712
1510 2545.519374072417
1511 2545.522172091804
1512 2545.536225162139
1513 2545.541475088765
1514 2545.555486609515
1515 2545.563942489343
1516 2545.577002405344
1517 2545.577970433434
1518 2545.588588992995
1519 2545.585798941015
1520 2545.588701444053
1521 2545.582606230887
1522 2545.581033053016
1523 2545.570456468339
1524 2545.570576565006
1525 2545.560251611472
1526 2545.55767128768
1527 2545.546526717997
1528 2545.539417430418
1529 2545.528437175985
1530 2545.522320529195
1531 2545.512855762861
1532 2545.508085522285
1533 2545.500987133668
1534 2545.498383880826
1535 2545.490529689951
1536 2545.493820725481
1537 2545.490571337803
1538 2545.492941142284
1539 2545.489281309094
1540 2545.492608030293
1541 2545.494798643314
1542 2545.502217980819
1543 2545.51080185623
1544 2545.51914228812
1545 2545.530907020006
1546 2545.545237262308
1547 2545.558822284505
1548 2545.572612775589
1549 2545.580543496873
1550 2545.591655715276
1551 2545.591887958647
1552 2545.590401943606
1553 2545.585151346231
1554 2545.586124885967
1555 2545.575101163886
1556 2545.56586621785
1557 2545.552725217753
1558 2545.543337797547
1559 2545.536141607964
1560 2545.535746520699
1561 2545.53068437052
1562 2545.53051894809
1563 2545.526304859738
1564 2545.531240688528
1565 2545.523121357296
1566 2545.527510364569
1567 2545.523932878304
1568 2545.527618394176
1569 2545.526269996505
1570 2545.532147826798
1571 2545.525798945939
1572 2545.533817006332
1573 2545.529847829436
1574 2545.52878955521
1575 2545.519828026745
1576 2545.517803376923
1577 2545.519183488419
1578 2545.526742724659
1579 2545.536653552262
1580 2545.545406325869
1581 2545.552174914171
1582 2545.562210878156
1583 2545.568677662678
1584 2545.577891045579
1585 2545.573564754627
1586 2545.571400859514
1587 2545.565872970244
1588 2545.561881494793
1589 2545.551855747096
1590 2545.546589187787
1591 2545.535915871887
1592 2545.52937129437
1593 2545.523408642604
1594 2545.518527171976
1595 2545.512203733248
1596 2545.513665701713
1597 2545.513412276493
1598 2545.514610464522
1599 2545.516900397733
1600 2545.520646106205
1601 2545.526459038049
1602 2545.533186444626
1603 2545.53835192638
1604 2545.540986783527
1605 2545.543770005172
1606 2545.544311590174
1607 2545.542401083029
1608 2545.541875647821
1609 2545.538583867863
1610 2545.538035146255
1611 2545.538491023253
1612 2545.537906898232
1613 2545.539055993853
1614 2545.542869416202
1615 2545.546992701548
1616 2545.554759107513
1617 2545.559408535037
1618 2545.561077462259
1619 2545.561587419498
1620 2545.565502011353
1621 2545.562126120065
1622 2545.565139303922
1623 2545.560269392449
1624 2545.55794338766
1625 2545.548232630131
1626 2545.543252247673
1627 2545.531809136335
1628 2545.527138654732
1629 2545.518973612966
1630 2545.518930606538
1631 2545.528259786129
1632 2545.53403211764
1633 2545.528126909005
1634 2545.528020787031
1635 2545.524850956411
1636 2545.528985424387
1637 2545.526022789719
1638 2545.53244579482
1639 2545.528104648683
1640 2545.528368077953
1641 2545.530971886776
1642 2545.528233189359
1643 2545.523880489747
1644 2545.529550021566
1645 2545.530985571673
1646 2545.542350766107
1647 2545.539081543396
1648 2545.547073378759
1649 2545.548466443257
1650 2545.559449996576
1651 2545.561191079185
1652 2545.564461181555
1653 2545.562645949427
1654 2545.567434445735
1655 2545.562733375896
1656 2545.562322140139
1657 2545.553190033031
1658 2545.557194435913
1659 2545.550945214232
1660 2545.547807899617
1661 2545.535348000356
1662 2545.533637185504
1663 2545.523252566752
1664 2545.524422026454
1665 2545.518263316074
1666 2545.517736636845
1667 2545.5119364128
1668 2545.516957431763
1669 2545.518345891277
1670 2545.524721883801
1671 2545.528780094233
1672 2545.536363663096
1673 2545.53893520136
1674 2545.543587086513
1675 2545.543221782418
1676 2545.547818065264
1677 2545.545083505105
1678 2545.549775720171
1679 2545.552171212721
1680 2545.552360189628
1681 2545.554368000564
1682 2545.556016347571
1683 2545.556029931645
1684 2545.555977298519
1685 2545.555765057642
1686 2545.556138340896
1687 2545.552980489616
1688 2545.552695699826
1689 2545.550775506234
1690 2545.546257037207
1691 2545.543145352834
1692 2545.539832595462
1693 2545.533426179983
1694 2545.533364647667
1695 2545.520609262567
1696 2545.511631463727
1697 2545.508559713343
1698 2545.508021999937
1699 2545.503023071035
1700 2545.501532403335
1701 2545.505868741946
1702 2545.512435173886
1703 2545.519714619913
1704 2545.52921768505
1705 2545.53955913756
1706 2545.546118050338
1707 2545.547654307912
1708 2545.554816782734
1709 2545.555333198578
1710 2545.563004857499
1711 2545.564916919915
1712 2545.565569782042
1713 2545.567485002013
1714 2545.570533248935
1715 2545.570712013384
1716 2545.572049448375
1717 2545.565534177128
1718 2545.567548168693
1719 2545.56377433971
1720 2545.564881495407
1721 2545.553829079071
1722 2545.550813098203
1723 2545.541977960422
1724 2545.541017068561
1725 2545.531694479391
1726 2545.531649534725
1727 2545.522232003132
1728 2545.520948682515
1729 2545.514406261843
1730 2545.507107330784
1731 2545.501552931342
1732 2545.503113735051
1733 2545.502064449314
1734 2545.510410816719
1735 2545.516605233641
1736 2545.525041773763
1737 2545.530899078956
1738 2545.540947337306
1739 2545.546659190232
1740 2545.553296934722
1741 2545.555639212907
1742 2545.562552670313
1743 2545.563680734056
1744 2545.568024948939
1745 2545.568735933203
1746 2545.575524709846
1747 2545.579155990943
1748 2545.578657673766
1749 2545.575516642816
1750 2545.574496371676
1751 2545.567034760458
1752 2545.56157728268
1753 2545.550010279732
1754 2545.54338831433
1755 2545.536155671135
1756 2545.537654483073
1757 2545.528336369187
1758 2545.529014259847
1759 2545.525826486088
1760 2545.523839397486
1761 2545.519874439498
1762 2545.517476570857
1763 2545.517254670442
1764 2545.518455810368
1765 2545.515449455607
1766 2545.51656721377
1767 2545.515994110253
1768 2545.51944354178
1769 2545.516484269738
1770 2545.528401147377
1771 2545.526357758667
1772 2545.537035628012
1773 2545.539254883044
1774 2545.54122388473
1775 2545.541852997766
1776 2545.552653448134
1777 2545.558974913019
1778 2545.569894199253
1779 2545.574688848639
1780 2545.58448349444
1781 2545.584559075935
1782 2545.593936161903
1783 2545.585507017548
1784 2545.58153473613
1785 2545.575912902575
1786 2545.56965467207
1787 2545.560422696072
1788 2545.560577048937
1789 2545.549805339288
1790 2545.54612498275
1791 2545.539874037203
1792 2545.532133182721
1793 2545.520587820291
1794 2545.515623016714
1795 2545.5079720799
1796 2545.501668988173
1797 2545.499041196801
1798 2545.498612732377
1799 2545.494672244834
1800 2545.495913461229
1801 2545.49889194972
1802 2545.501631151091
1803 2545.499694865299
1804 2545.504352968038
1805 2545.506016374124
1806 2545.515554028894
1807 2545.518421525673
1808 2545.527203883037
1809 2545.535931406512
1810 2545.550946343523
1811 2545.558248361662
1812 2545.570061371785
1813 2545.577363098493
1814 2545.59143233494
1815 2545.593320183832
1816 2545.600695241649
1817 2545.600825875872
1818 2545.601871874191
1819 2545.595076042195
1820 2545.587769153025
1821 2545.573330273973
1822 2545.570487914933
1823 2545.558440180968
1824 2545.553781186046
1825 2545.543258882341
1826 2545.53954917482
1827 2545.524637252096
1828 2545.515614807489
1829 2545.496368144679
1830 2545.493217798502
1831 2545.483891815142
1832 2545.489200366118
1833 2545.483727124898
1834 2545.490882541511
1835 2545.487737335002
1836 2545.498683569613
1837 2545.499113849472
1838 2545.512304395846
1839 2545.509738439236
1840 2545.522850032007
1841 2545.521636471919
1842 2545.532106691443
1843 2545.531627046602
1844 2545.547388293748
1845 2545.554551743138
1846 2545.573858303825
1847 2545.583658714033
1848 2545.598027036488
1849 2545.601699479482
1850 2545.615459125886
1851 2545.609189574669
1852 2545.613285369549
1853 2545.599506402039
1854 2545.597458186607
1855 2545.583865331249
1856 2545.575255900481
1857 2545.564758139225
1858 2545.556620380918
1859 2545.539207474606
1860 2545.533027537674
1861 2545.517934627836
1862 2545.509584828677
1863 2545.49817537278
1864 2545.493024806708
1865 2545.491802025351
1866 2545.489746511734
1867 2545.48826686827
1868 2545.488431969317
1869 2545.488451498288
1870 2545.496970801127
1871 2545.499033034272
1872 2545.510374889901
1873 2545.510397305887
1874 2545.516219978816
1875 2545.517147290236
1876 2545.52799960847
1877 2545.534200464278
1878 2545.545940728864
1879 2545.554046620532
1880 2545.573940841593
1881 2545.581861949052
1882 2545.59822816315
1883 2545.605594309575
1884 2545.614222409384
1885 2545.62047705979
1886 2545.620232837374
1887 2545.619421635012
1888 2545.613528829228
1889 2545.604519384717
1890 2545.596606732877
1891 2545.582655435837
1892 2545.566411949281
1893 2545.554726555588
1894 2545.540633066551
1895 2545.520673648295
1896 2545.508593254947
1897 2545.495367951899
1898 2545.482605405938
1899 2545.471988498703
1900 2545.467733062149
1901 2545.464475958901
1902 2545.473123532103
1903 2545.470458937828
1904 2545.482898699071
1905 2545.486841835836
1906 2545.497153338108
1907 2545.499950004324
1908 2545.511066915802
1909 2545.512098438543
1910 2545.526866653429
1911 2545.53095597931
1912 2545.549149254068
1913 2545.562676147367
1914 2545.584303884154
1915 2545.59297948939
1916 2545.602466425875
1917 2545.609826249024
1918 2545.616153817982
1919 2545.616907367688
1920 2545.620060790598
1921 2545.616926811116
1922 2545.614632229338
1923 2545.607360917137
1924 2545.601553700965
1925 2545.583798566121
1926 2545.570651882862
1927 2545.546118353955
1928 2545.53008233682
1929 2545.511473712497
1930 2545.495296564259
1931 2545.479924342097
1932 2545.475314696537
1933 2545.472572685227
1934 2545.471911054521
1935 2545.46429527692
1936 2545.469755154042
1937 2545.470703939255
1938 2545.482797562119
1939 2545.488415080665
1940 2545.497151631691
1941 2545.504040021581
1942 2545.51672924889
1943 2545.52494801856
1944 2545.539068373618
1945 2545.550222406812
1946 2545.562869947793
1947 2545.570601236064
1948 2545.584740898484
1949 2545.592758061284
1950 2545.604548235612
1951 2545.609288224972
1952 2545.610478495957
1953 2545.614007815983
1954 2545.613240303754
1955 2545.61209179529
1956 2545.612828991445
1957 2545.606830814709
1958 2545.603669681556
1959 2545.588625894349
1960 2545.574321327105
1961 2545.558120697329
1962 2545.541872329844
1963 2545.522474373089
1964 2545.505559221855
1965 2545.48753146801
1966 2545.480224314683
1967 2545.466844642287
1968 2545.465362481556
1969 2545.466108908627
1970 2545.469625835362
1971 2545.471281470448
1972 2545.478704855644
1973 2545.488166594177
1974 2545.498427310629
1975 2545.50589632272
1976 2545.515330742855
1977 2545.52019674559
1978 2545.530563567186
1979 2545.539150613817
1980 2545.552968796751
1981 2545.561077269403
1982 2545.574689961918
1983 2545.585265929058
1984 2545.593534954937
1985 2545.600548583353
1986 2545.608691829299
1987 2545.610307580759
1988 2545.61644926763
1989 2545.614658417782
1990 2545.61133051462
1991 2545.599728876301
1992 2545.595544484137
1993 2545.577674129966
1994 2545.568132804009
1995 2545.54453492909
1996 2545.527265496133
1997 2545.506914727363
1998 2545.496827723252
1999 2545.4752314175
2000 2545.465369048656
2001 2545.456021702114
2002 2545.456618792487
2003 2545.458082631917
2004 2545.471372701637
2005 2545.471072784523
2006 2545.483759082773
2007 2545.487320890218
2008 2545.500405847105
2009 2545.509065205591
2010 2545.524440191318
2011 2545.535606519238
2012 2545.554717512476
2013 2545.572024435967
2014 2545.590825963744
2015 2545.596883699398
2016 2545.607793396646
2017 2545.616841394636
2018 2545.623490418108
2019 2545.623464757346
2020 2545.625097558796
2021 2545.620542373922
2022 2545.617416149716
2023 2545.609195367614
2024 2545.605222175154
2025 2545.59361540824
2026 2545.587728846223
2027 2545.5702081105
2028 2545.558890909326
2029 2545.538719547863
2030 2545.527059142881
2031 2545.503465791833
2032 2545.492694158661
2033 2545.478478149489
2034 2545.472171356821
2035 2545.458620583181
2036 2545.459395095065
2037 2545.457335699769
2038 2545.461213333422
2039 2545.468048064534
2040 2545.477512253161
2041 2545.483153859322
2042 2545.499480663092
2043 2545.508718428709
2044 2545.523265650424
2045 2545.537825538827
2046 2545.555933426265
2047 2545.561621737907
2048 2545.574471543232
2049 2545.580330200695
2050 2545.588883326861
2051 2545.591275133277
2052 2545.598437742612
2053 2545.597263576536
2054 2545.605253021085
2055 2545.604102235214
2056 2545.609057299948
2057 2545.602080549177
2058 2545.608181469164
2059 2545.59784758343
2060 2545.593342047855
2061 2545.578214727928
2062 2545.567484381218
2063 2545.550877963734
2064 2545.540461151378
2065 2545.520599991331
2066 2545.512832963156
2067 2545.495837794034
2068 2545.48986819573
2069 2545.481267311515
2070 2545.478479995551
2071 2545.475285360113
2072 2545.476413309429
2073 2545.477882941564
2074 2545.483376999043
2075 2545.483925084852
2076 2545.490319743252
2077 2545.496224735933
2078 2545.510582205042
2079 2545.52047642344
2080 2545.53435333352
2081 2545.546165623791
2082 2545.56170813323
2083 2545.570334361716
2084 2545.57661520284
2085 2545.579008755683
2086 2545.584983479609
2087 2545.589012042065
2088 2545.594721319726
2089 2545.591946718302
2090 2545.604240791915
2091 2545.595026912532
2092 2545.597891236324
2093 2545.595735911264
2094 2545.594833856373
2095 2545.581379864436
2096 2545.571236929251
2097 2545.558488039583
2098 2545.54952711341
2099 2545.533140550917
2100 2545.520777708961
2101 2545.508151257244
2102 2545.498113675876
2103 2545.488676174064
2104 2545.479692805932
2105 2545.47773373865
2106 2545.476397186564
2107 2545.473592064378
2108 2545.477595374719
2109 2545.481822995801
2110 2545.493081513963
2111 2545.499849066108
2112 2545.513496381795
2113 2545.523333272922
2114 2545.539589146557
2115 2545.547886692658
2116 2545.562418130704
2117 2545.575895642186
2118 2545.590454346688
2119 2545.596068455477
2120 2545.603719524309
2121 2545.606514486855
2122 2545.608276010293
2123 2545.599758022126
2124 2545.600594455852
2125 2545.589743677082
2126 2545.589165565078
2127 2545.579220299474
2128 2545.572371974054
2129 2545.557920763919
2130 2545.54846552791
2131 2545.535494501848
2132 2545.522351422209
2133 2545.510964345317
2134 2545.501966801195
2135 2545.491432458765
2136 2545.489825517694
2137 2545.48019278245
2138 2545.483605007311
2139 2545.476100836129
2140 2545.480183300335
2141 2545.475281381436
2142 2545.485108800697
2143 2545.483062552747
2144 2545.49710994561
2145 2545.507171420261
2146 2545.522089065186
2147 2545.530948056168
2148 2545.550169345942
2149 2545.559301934007
2150 2545.576527560033
2151 2545.582973065712
2152 2545.594041997113
2153 2545.597774940662
2154 2545.607917187342
2155 2545.601332735353
2156 2545.606520464461
2157 2545.596500308576
2158 2545.595971609806
2159 2545.588183554845
2160 2545.589391819338
2161 2545.574276772328
2162 2545.56275594145
2163 2545.551602791541
2164 2545.544541093202
2165 2545.534759747191
2166 2545.533747740127
2167 2545.52951822938
2168 2545.527872581757
2169 2545.52440534449
2170 2545.521416734139
2171 2545.5153355856
2172 2545.515429002365
2173 2545.507643162467
2174 2545.510918951175
2175 2545.503277057953
2176 2545.506955858588
2177 2545.507211106484
2178 2545.515373536978
2179 2545.515802805578
2180 2545.523619431277
2181 2545.529761222788
2182 2545.546857421799
2183 2545.552700334924
2184 2545.563852621327
2185 2545.564429243628
2186 2545.573789645628
2187 2545.571752473281
2188 2545.576787274113
2189 2545.574285163317
2190 2545.581554102774
2191 2545.573299432077
2192 2545.575375412992
2193 2545.568650152908
2194 2545.568570559814
2195 2545.558329382838
2196 2545.557421530624
2197 2545.554297164385
2198 2545.549898900851
2199 2545.540614007819
2200 2545.532542907023
2201 2545.524848135487
2202 2545.525391830573
2203 2545.516060730385
2204 2545.516801885689
2205 2545.508114537625
2206 2545.509712362428
2207 2545.503671848973
2208 2545.498465947975
2209 2545.489604937512
2210 2545.491425181916
2211 2545.488837341622
2212 2545.495162708297
2213 2545.495571707817
2214 2545.511750274419
2215 2545.521971244607
2216 2545.538514701718
2217 2545.556526882626
2218 2545.569663737367
2219 2545.580526499649
2220 2545.592084381974
2221 2545.595409625129
2222 2545.604686394512
2223 2545.601806445186
2224 2545.603702597448
2225 2545.59995106841
2226 2545.595259941479
2227 2545.585473661101
2228 2545.580550268924
2229 2545.570336893362
2230 2545.557987228949
2231 2545.547265646078
2232 2545.543633291035
2233 2545.536379654115
2234 2545.528952114405
2235 2545.523226727648
2236 2545.521919476877
2237 2545.515715847908
2238 2545.514848687476
2239 2545.511932397449
2240 2545.509870074056
2241 2545.506719132204
2242 2545.506448050811
2243 2545.504124648381
2244 2545.509944089322
2245 2545.512634328165
2246 2545.524246808977
2247 2545.52896376163
2248 2545.531810638365
2249 2545.53682157889
2250 2545.542789632145
2251 2545.547277753353
2252 2545.555092947162
2253 2545.558583783836
2254 2545.568820689131
2255 2545.572814372003
2256 2545.579174796624
2257 2545.574639666417
2258 2545.575112712396
2259 2545.567438392488
2260 2545.568223831049
2261 2545.556180374183
2262 2545.551056453234
2263 2545.540027764983
2264 2545.534189720388
2265 2545.527133607497
2266 2545.523747504777
2267 2545.51846443327
2268 2545.522248398177
2269 2545.522929847771
2270 2545.527034998834
2271 2545.523156244523
2272 2545.526432545534
2273 2545.522508689646
2274 2545.527668729895
2275 2545.531349476356
2276 2545.534779818955
2277 2545.538671584327
2278 2545.545379650579
2279 2545.548163132504
2280 2545.551160578339
2281 2545.550290748798
2282 2545.555146992923
2283 2545.548706611622
2284 2545.55514411742
2285 2545.553491900441
2286 2545.560042141511
2287 2545.563078709947
2288 2545.563015346802
2289 2545.562445590992
2290 2545.564522892977
2291 2545.559374196009
2292 2545.562591707303
2293 2545.556814102784
2294 2545.558657346967
2295 2545.549538460164
2296 2545.546731801573
2297 2545.539158331155
2298 2545.538193103386
2299 2545.527526953736
2300 2545.527929593726
2301 2545.522680477176
2302 2545.524480048023
2303 2545.527541511049
2304 2545.530854810813
2305 2545.532964472324
2306 2545.539500885506
2307 2545.533515780504
2308 2545.540078771911
2309 2545.539236600091
2310 2545.54878025322
2311 2545.546808905565
2312 2545.557453082365
2313 2545.556815293981
2314 2545.563139506612
2315 2545.558008969431
2316 2545.563106000733
2317 2545.557466355731
2318 2545.560165211833
2319 2545.553478990019
2320 2545.556041595564
2321 2545.557378174079
2322 2545.563749888378
2323 2545.561497540836
2324 2545.561522190161
2325 2545.556357663134
2326 2545.554218846823
2327 2545.545240569534
2328 2545.545964846889
2329 2545.538011005987
2330 2545.53714787505
2331 2545.528857834528
2332 2545.52591343114
2333 2545.517911109361
2334 2545.519432130936
2335 2545.512737938169
2336 2545.511209121913
2337 2545.512403357319
2338 2545.511927111167
2339 2545.50872499736
2340 2545.51407812141
2341 2545.513682561322
2342 2545.522404953056
2343 2545.524292892673
2344 2545.533279777591
2345 2545.537312949352
2346 2545.548153789288
2347 2545.552776443385
2348 2545.562867243711
2349 2545.566308033392
2350 2545.570998955631
2351 2545.573007365141
2352 2545.573766364679
2353 2545.572038056301
2354 2545.574299734969
2355 2545.574235914229
2356 2545.578687024743
2357 2545.57532664168
2358 2545.574317029435
2359 2545.567793673134
2360 2545.565305022479
2361 2545.55675211067
2362 2545.549651655178
2363 2545.539065557682
2364 2545.534560040383
2365 2545.528735440971
2366 2545.521955946898
2367 2545.516428367059
2368 2545.510786767675
2369 2545.506061759487
2370 2545.501852414807
2371 2545.497054441159
2372 2545.502752265643
2373 2545.50001940109
2374 2545.506084029228
2375 2545.513939377029
2376 2545.523975529406
2377 2545.531395869885
2378 2545.55210816459
2379 2545.558892910501
2380 2545.577266690212
2381 2545.583925562769
2382 2545.593680657582
2383 2545.594738715839
2384 2545.597819863449
2385 2545.59443173006
2386 2545.588614407356
2387 2545.580856794923
2388 2545.578920474543
2389 2545.566469476352
2390 2545.565392108149
2391 2545.556707067771
2392 2545.55607186369
2393 2545.543077966369
2394 2545.542934578691
2395 2545.529021337455
2396 2545.524553784665
2397 2545.51408589742
2398 2545.512038160822
2399 2545.502412944958
2400 2545.501822838537
2401 2545.496170689776
2402 2545.496998259512
2403 2545.492084419768
2404 2545.496962310666
2405 2545.492753282035
2406 2545.498491477247
2407 2545.500818215975
2408 2545.512140209062
2409 2545.525172022421
2410 2545.540707005953
2411 2545.552158014001
2412 2545.565040729861
2413 2545.574568575246
2414 2545.589332694556
2415 2545.594021362654
2416 2545.600484737256
2417 2545.602759166045
2418 2545.607526145381
2419 2545.606674461082
2420 2545.602971201007
2421 2545.596386618683
2422 2545.588050420724
2423 2545.581714989723
2424 2545.576193382602
2425 2545.560842766558
2426 2545.556015636266
2427 2545.541383049107
2428 2545.536856464675
2429 2545.519731184094
2430 2545.515603135412
2431 2545.505279857282
2432 2545.502639476872
2433 2545.495926055394
2434 2545.495120172289
2435 2545.487983183696
2436 2545.490365824277
2437 2545.485474190022
2438 2545.490483973774
2439 2545.48922768153
2440 2545.493503604606
2441 2545.501419849931
2442 2545.513987987728
2443 2545.524841668494
2444 2545.538010594331
2445 2545.556532610191
2446 2545.569482070139
2447 2545.579874454624
2448 2545.589498336965
2449 2545.59687811732
2450 2545.603229486933
2451 2545.606941320119
2452 2545.604261522349
2453 2545.603709394158
2454 2545.598582694541
2455 2545.592674713847
2456 2545.586274687757
2457 2545.578690583866
2458 2545.566713867488
2459 2545.552455100344
2460 2545.54271205853
2461 2545.531314844903
2462 2545.526824915587
2463 2545.515113543487
2464 2545.510902280884
2465 2545.504436634004
2466 2545.50653236771
2467 2545.498514356424
2468 2545.501182497605
2469 2545.496039030332
2470 2545.501006795788
2471 2545.493153364775
2472 2545.503188363728
2473 2545.501609027476
2474 2545.513643840573
2475 2545.514293544727
2476 2545.53001693959
2477 2545.531089730752
2478 2545.542183215939
2479 2545.546538686797
2480 2545.560151380018
2481 2545.564593636436
2482 2545.573073334381
2483 2545.576733888852
2484 2545.582866474367
2485 2545.584671548388
2486 2545.589285822726
2487 2545.589182475048
2488 2545.592970266463
2489 2545.586113947407
2490 2545.582071424074
2491 2545.567524910124
2492 2545.559185916733
2493 2545.55078088871
2494 2545.544152995734
2495 2545.534670490931
2496 2545.526687406426
2497 2545.519732382352
2498 2545.516930824765
2499 2545.508692506805
2500 2545.507837260536
2501 2545.500018500432
2502 2545.503867521834
2503 2545.498450157125
2504 2545.498402364396
2505 2545.496532039713
2506 2545.503349211323
2507 2545.506063341479
2508 2545.51288515778
2509 2545.5162155791
2510 2545.528974128867
2511 2545.535214285957
2512 2545.5500046277
2513 2545.558124903177
2514 2545.574064689997
2515 2545.578450098868
2516 2545.586797608207
2517 2545.593625744573
2518 2545.603970816241
2519 2545.608362260825
2520 2545.614258739725
2521 2545.616589519976
2522 2545.621385618193
2523 2545.614514084713
2524 2545.612389228772
2525 2545.597406152517
2526 2545.583521387
2527 2545.565287476822
2528 2545.548583348426
2529 2545.531236962084
2530 2545.514785422486
2531 2545.494547382968
2532 2545.487810438357
2533 2545.474065865949
2534 2545.4741807495
2535 2545.464253041269
2536 2545.464757000428
2537 2545.455371909162
2538 2545.460038629137
2539 2545.461218340872
2540 2545.466985850938
2541 2545.474478038192
2542 2545.487791716112
2543 2545.506809220334
2544 2545.518970466677
2545 2545.531990686328
2546 2545.550414715788
2547 2545.564483375693
2548 2545.573884518148
2549 2545.588318834403
2550 2545.603216544575
2551 2545.612277587123
2552 2545.614553462393
2553 2545.623157969819
2554 2545.624372201915
2555 2545.62461450061
2556 2545.627288113775
2557 2545.620471598097
2558 2545.617987280446
2559 2545.608510832176
2560 2545.600726586273
2561 2545.58023004066
2562 2545.566673486089
2563 2545.547738023079
2564 2545.5345722932
2565 2545.519200588933
2566 2545.511105100786
2567 2545.492846641847
2568 2545.486061759502
2569 2545.475888372078
2570 2545.473649853256
2571 2545.465231856352
2572 2545.467282036317
2573 2545.463770750566
2574 2545.473712733386
2575 2545.479562224974
2576 2545.490969255618
2577 2545.505127598615
2578 2545.517318129279
2579 2545.527677233635
2580 2545.543692069999
2581 2545.552719932632
2582 2545.567379989421
2583 2545.570802724271
2584 2545.580463424649
2585 2545.583454299475
2586 2545.593965419389
2587 2545.594369082657
2588 2545.601894005087
2589 2545.601446690693
2590 2545.605634228424
2591 2545.601303635101
2592 2545.602275389422
2593 2545.597406947996
2594 2545.597954936765
2595 2545.583874451658
2596 2545.579126211873
2597 2545.566079725942
2598 2545.560179080343
2599 2545.543770082535
2600 2545.533692562779
2601 2545.522111145965
2602 2545.513228119825
2603 2545.496691081677
2604 2545.493587660024
2605 2545.486004952882
2606 2545.488718181129
2607 2545.484480230754
2608 2545.489997247305
2609 2545.496368220025
2610 2545.505173017563
2611 2545.508738376678
2612 2545.520529350393
2613 2545.531459257447
2614 2545.540564263705
2615 2545.546532777395
2616 2545.556066281606
2617 2545.556828858212
2618 2545.564550231449
2619 2545.566343744127
2620 2545.575789860177
2621 2545.574838947653
2622 2545.584915899363
2623 2545.579588767961
2624 2545.581831636935
2625 2545.583856898033
2626 2545.580660664018
2627 2545.574972363055
2628 2545.575219875456
2629 2545.562006583207
2630 2545.564049872581
2631 2545.549448748438
2632 2545.5470397066
2633 2545.531470121265
2634 2545.530645436892
2635 2545.509445199472
2636 2545.50483903203
2637 2545.489439979471
2638 2545.48693676749
2639 2545.48151320697
2640 2545.482920366418
2641 2545.481497428385
2642 2545.489451663887
2643 2545.495610157002
2644 2545.506983099488
2645 2545.513990908667
2646 2545.529076589371
2647 2545.537719076335
2648 2545.549236089058
2649 2545.562500498669
2650 2545.569910691606
2651 2545.575511923995
2652 2545.587753355872
2653 2545.589934865126
2654 2545.597579066796
2655 2545.601419953146
2656 2545.605660397926
2657 2545.598222669196
2658 2545.600870460209
2659 2545.592026212576
2660 2545.589756463429
2661 2545.581916603585
2662 2545.582607267673
2663 2545.573285982046
2664 2545.567185394861
2665 2545.559074656758
2666 2545.555576616796
2667 2545.538896971966
2668 2545.532184997377
2669 2545.514204436202
2670 2545.500372420641
2671 2545.483994649805
2672 2545.477223508551
2673 2545.464813554816
2674 2545.464204889014
2675 2545.462850013208
2676 2545.477205963956
2677 2545.481481013134
2678 2545.495915047144
2679 2545.50477720445
2680 2545.521826965909
2681 2545.530876075201
2682 2545.547952159357
2683 2545.556783694015
2684 2545.566372623753
2685 2545.574197370202
2686 2545.580776789861
2687 2545.582931609883
2688 2545.591225960171
2689 2545.586234766094
2690 2545.593773464044
2691 2545.587756250984
2692 2545.582040239037
2693 2545.574771888294
2694 2545.572096282811
2695 2545.568150121029
2696 2545.563855411464
2697 2545.560699912164
2698 2545.560981862257
2699 2545.552795491741
2700 2545.556568154819
2701 2545.551834123999
2702 2545.543213699039
2703 2545.534028051854
2704 2545.524074443381
2705 2545.515055119526
2706 2545.510558181728
2707 2545.507407922705
2708 2545.5009598601
2709 2545.500285633764
2710 2545.505958836155
2711 2545.506513079732
2712 2545.514939456893
2713 2545.518791607014
2714 2545.530922891415
2715 2545.536884507765
2716 2545.544413006681
2717 2545.547976485073
2718 2545.55683453883
2719 2545.556946421736
2720 2545.560165532929
2721 2545.560930164546
2722 2545.568245882995
2723 2545.566013862394
2724 2545.572514191507
2725 2545.56819337617
2726 2545.572829564716
2727 2545.569788057931
2728 2545.570075470223
2729 2545.567319410647
2730 2545.569578926033
2731 2545.567015069794
2732 2545.564781145515
2733 2545.562969502819
2734 2545.562605871856
2735 2545.55588881155
2736 2545.547171519154
2737 2545.537058592666
2738 2545.527668046654
2739 2545.511623221497
2740 2545.504716926953
2741 2545.49489867567
2742 2545.490763951242
2743 2545.485028419019
2744 2545.492140893617
2745 2545.494452471355
2746 2545.505349665419
2747 2545.510006785403
2748 2545.519966110883
2749 2545.521690185223
2750 2545.534648242544
2751 2545.537908648248
2752 2545.546973475888
2753 2545.550068739249
2754 2545.559448103781
2755 2545.56299757035
2756 2545.568506969404
2757 2545.570211630635
2758 2545.572438076381
2759 2545.571763753822
2760 2545.571224749207
2761 2545.572621947919
2762 2545.575835119721
2763 2545.567605563351
2764 2545.569305146852
2765 2545.560994637559
2766 2545.560268503667
2767 2545.553735109278
2768 2545.549612478984
2769 2545.544295598505
2770 2545.532784431017
2771 2545.52576643821
2772 2545.524163072046
2773 2545.513402142061
2774 2545.510993577191
2775 2545.503141116821
2776 2545.501354240018
2777 2545.498714735246
2778 2545.501823334623
2779 2545.50126557874
2780 2545.506818403745
2781 2545.511429924553
2782 2545.524919776889
2783 2545.532515797442
2784 2545.546660284285
2785 2545.548526222545
2786 2545.562887104364
2787 2545.566000838811
2788 2545.572881626051
2789 2545.575905769178
2790 2545.587601102123
2791 2545.584747797988
2792 2545.58929123183
2793 2545.584060375391
2794 2545.585443971419
2795 2545.57947172666
2796 2545.579293495073
2797 2545.572046531627
2798 2545.570304596984
2799 2545.569967239377
2800 2545.569116566615
2801 2545.564398785008
2802 2545.557883816577
2803 2545.548207369026
2804 2545.539151663213
2805 2545.531989106746
2806 2545.527133234901
2807 2545.514659648621
2808 2545.514867121872
2809 2545.506043280181
2810 2545.505486047311
2811 2545.497981935404
2812 2545.499975824799
2813 2545.49344624535
2814 2545.500481683096
2815 2545.497024305277
2816 2545.503734900204
2817 2545.507643418454
2818 2545.520743834152
2819 2545.52417444098
2820 2545.537830836119
2821 2545.541104404717
2822 2545.555831080102
2823 2545.557445625578
2824 2545.563641665675
2825 2545.566295567697
2826 2545.566415423426
2827 2545.569032086935
2828 2545.566280902615
2829 2545.563256405225
2830 2545.56408155393
2831 2545.559820386628
2832 2545.562956918264
2833 2545.559419138266
2834 2545.563501572031
2835 2545.556257423139
2836 2545.555504730723
2837 2545.549665055962
2838 2545.549260944726
2839 2545.544589148897
2840 2545.542460314832
2841 2545.546465839619
2842 2545.548774217005
2843 2545.552407775519
2844 2545.557122880109
2845 2545.555786684339
2846 2545.552895245536
2847 2545.545363602802
2848 2545.539062621364
2849 2545.536668386375
2850 2545.533093145795
2851 2545.531993270745
2852 2545.530737167806
2853 2545.53380194004
2854 2545.54085871062
2855 2545.540215325555
2856 2545.543382010575
2857 2545.544278668031
2858 2545.54461776503
2859 2545.540041210495
2860 2545.544540833483
2861 2545.542111512453
2862 2545.54691384866
2863 2545.543057702369
2864 2545.544340318636
2865 2545.540619783566
2866 2545.543796801439
2867 2545.541587989339
2868 2545.547416333574
2869 2545.5441101702
2870 2545.55098044585
2871 2545.548433040392
2872 2545.550678255701
2873 2545.548728519836
2874 2545.551933924674
2875 2545.55245674876
2876 2545.553463336517
2877 2545.550179605517
2878 2545.554269608401
2879 2545.549400053906
2880 2545.550733236014
2881 2545.544281652178
2882 2545.541767126313
2883 2545.533868126428
2884 2545.531629307576
2885 2545.525490876508
2886 2545.527875862121
2887 2545.525625568737
2888 2545.529288676924
2889 2545.528918466675
2890 2545.530781699132
2891 2545.530300520704
2892 2545.536350247321
2893 2545.540059408524
2894 2545.547656555836
2895 2545.55292681091
2896 2545.558341209034
2897 2545.559044683434
2898 2545.566616400214
2899 2545.56433429359
2900 2545.570419209507
2901 2545.56298652892
2902 2545.564265260634
2903 2545.547829805372
2904 2545.547407401132
2905 2545.537079631313
2906 2545.543129278937
2907 2545.535466590166
2908 2545.538400460055
2909 2545.534437271931
2910 2545.54244632651
2911 2545.53889242656
2912 2545.543271582595
2913 2545.541416808333
2914 2545.544174297969
2915 2545.53937661392
2916 2545.545583301809
2917 2545.536903943683
2918 2545.537443846008
2919 2545.530141515349
2920 2545.530689964125
2921 2545.526618334284
2922 2545.531651907562
2923 2545.530035846676
2924 2545.536025819174
2925 2545.539931097763
2926 2545.545299285406
2927 2545.54891809828
2928 2545.556796502618
2929 2545.56171777498
2930 2545.565616845514
2931 2545.562074740412
2932 2545.563426352793
2933 2545.557125714845
2934 2545.556538549421
2935 2545.543995669115
2936 2545.538902700962
2937 2545.529844686135
2938 2545.523595069608
2939 2545.520044369506
2940 2545.524925542428
2941 2545.524539285272
2942 2545.535848578917
2943 2545.533671282358
2944 2545.539314534582
2945 2545.542521738885
2946 2545.55076679824
2947 2545.548227546753
2948 2545.557884093686
2949 2545.558881241976
2950 2545.562726041716
2951 2545.554301782316
2952 2545.555461062839
2953 2545.54931010257
2954 2545.550581070509
2955 2545.541287501834
2956 2545.54256102295
2957 2545.538022853951
2958 2545.539845001701
2959 2545.537040880344
2960 2545.54168702728
2961 2545.540330673177
2962 2545.546031390485
2963 2545.54295149977
2964 2545.545785067608
2965 2545.542669871787
2966 2545.54747864719
2967 2545.541444390744
2968 2545.541617367723
2969 2545.539306610139
2970 2545.535243087979
2971 2545.530439375678
2972 2545.530393139465
2973 2545.526331349442
2974 2545.527848574786
2975 2545.528860947979
2976 2545.532904676281
2977 2545.542234670619
2978 2545.553641760228
2979 2545.553290121397
2980 2545.555798624188
2981 2545.560649834953
2982 2545.568559502043
2983 2545.569624657338
2984 2545.572575671671
2985 2545.571990756872
2986 2545.568920059314
2987 2545.562849838476
2988 2545.560114546073
2989 2545.548091485772
2990 2545.542573160511
2991 2545.532070446323
2992 2545.530063152662
2993 2545.52506239435
2994 2545.531951810161
2995 2545.527933780064
2996 2545.528854860815
2997 2545.529316459769
2998 2545.534556301615
2999 2545.532917099966
3000 2545.538757815492
3001 2545.532346595237
3002 2545.535923300845
3003 2545.528282688696
3004 2545.528560038818
3005 2545.523215228729
3006 2545.527683741062
3007 2545.528742833998
3008 2545.53848257291
3009 2545.537949684101
3010 2545.553912989499
3011 2545.557517546709
3012 2545.568914765056
3013 2545.567808201248
3014 2545.573528324719
3015 2545.56962744803
3016 2545.573644906653
3017 2545.574303084307
3018 2545.579423593762
3019 2545.577218778042
3020 2545.577195546588
3021 2545.569689144247
3022 2545.564339272135
3023 2545.548870344538
3024 2545.545144941271
3025 2545.530280185057
3026 2545.526938232194
3027 2545.5132315614
3028 2545.514716958502
3029 2545.513941406789
3030 2545.522212613518
3031 2545.519217205401
3032 2545.521770474239
3033 2545.518831498338
3034 2545.525617288805
3035 2545.52172453017
3036 2545.523311473215
3037 2545.519438954133
3038 2545.525086203954
3039 2545.521154714435
3040 2545.528372296894
3041 2545.522528346581
3042 2545.527740868295
3043 2545.528432520328
3044 2545.535036643794
3045 2545.543891172314
3046 2545.553785321075
3047 2545.557760683307
3048 2545.564467397497
3049 2545.569229597373
3050 2545.576988735085
3051 2545.574227372287
3052 2545.579565153348
3053 2545.575260002842
3054 2545.583219192655
3055 2545.57215798422
3056 2545.571115349961
3057 2545.561288866966
3058 2545.555574640347
3059 2545.545642470887
3060 2545.542229372093
3061 2545.529682372752
3062 2545.532763481892
3063 2545.523611626301
3064 2545.528902033706
3065 2545.525507548375
3066 2545.531245135253
3067 2545.524840487775
3068 2545.52554917811
3069 2545.522697939014
3070 2545.525055746289
3071 2545.521907672833
3072 2545.531431831586
3073 2545.534428814479
3074 2545.539790737082
3075 2545.542716852959
3076 2545.542199103355
3077 2545.548660757567
3078 2545.554828410516
3079 2545.558162494789
3080 2545.55449370213
3081 2545.559076583304
3082 2545.555611357079
3083 2545.558317376274
3084 2545.567519152508
3085 2545.572460964928
3086 2545.57901763685
3087 2545.576736312885
3088 2545.572826618502
3089 2545.569690507948
3090 2545.564360449036
3091 2545.561013299257
3092 2545.553312307529
3093 2545.54662451404
3094 2545.53894052334
3095 2545.526631377758
3096 2545.53124038035
3097 2545.524932392887
3098 2545.522287288331
3099 2545.518112291857
3100 2545.51956322161
3101 2545.513110145968
3102 2545.518215569115
3103 2545.514334069587
3104 2545.518586016554
3105 2545.519476024907
3106 2545.523898249512
3107 2545.518807650608
3108 2545.525521995085
3109 2545.523617362269
3110 2545.531491432458
3111 2545.533766195974
3112 2545.543321206372
3113 2545.549286735112
3114 2545.555359194041
3115 2545.559919919612
3116 2545.562118527315
3117 2545.567635897376
3118 2545.576195141695
3119 2545.577117957414
3120 2545.576648358055
3121 2545.576451118822
3122 2545.579658616076
3123 2545.580521508016
3124 2545.571988760778
3125 2545.566359893588
3126 2545.559693715975
3127 2545.554452183784
3128 2545.548095616368
3129 2545.544095501344
3130 2545.539538731527
3131 2545.530801998952
3132 2545.528656266349
3133 2545.518162519151
3134 2545.520595618581
3135 2545.514250680507
3136 2545.5156866959
3137 2545.509682261721
3138 2545.513266277522
3139 2545.511241504747
3140 2545.519210117297
3141 2545.520911576418
3142 2545.527639012485
3143 2545.530622087307
3144 2545.540026006878
3145 2545.540520721303
3146 2545.546571218448
3147 2545.546522974349
3148 2545.554427377508
3149 2545.552377548843
3150 2545.565323424699
3151 2545.562560318636
3152 2545.572275993167
3153 2545.572766825062
3154 2545.576981089197
3155 2545.576368873332
3156 2545.580330914635
3157 2545.574679708292
3158 2545.576771710464
3159 2545.572156398599
3160 2545.56641202183
3161 2545.560713529307
3162 2545.560916764315
3163 2545.551675835976
3164 2545.549584690601
3165 2545.537943311816
3166 2545.538293232183
3167 2545.530698782937
3168 2545.52645561253
3169 2545.514457882226
3170 2545.510742933725
3171 2545.508733485489
3172 2545.508777907096
3173 2545.506300104608
3174 2545.514193515601
3175 2545.515444675618
3176 2545.519469149687
3177 2545.520225028622
3178 2545.531927634842
3179 2545.53005301001
3180 2545.536580389605
3181 2545.535550497094
3182 2545.540509525499
3183 2545.540476334513
3184 2545.550177214505
3185 2545.547095703687
3186 2545.55535915458
3187 2545.552287690452
3188 2545.563231400474
3189 2545.565513533513
3190 2545.570508398199
3191 2545.570550336281
3192 2545.578153905069
3193 2545.576104784127
3194 2545.578725800972
3195 2545.574873227533
3196 2545.582025046243
3197 2545.571824428146
3198 2545.573148422254
3199 2545.563622057029
3200 2545.557940065195
3201 2545.55024502892
3202 2545.545257279322
3203 2545.530280718816
3204 2545.523523013103
3205 2545.520399584282
3206 2545.52309865817
3207 2545.518554720625
3208 2545.521941970242
3209 2545.518838767852
3210 2545.524698059264
3211 2545.520495528069
3212 2545.519800358943
3213 2545.519293547717
3214 2545.524273464641
3215 2545.524088465263
3216 2545.530804305616
3217 2545.533985796234
3218 2545.543725620144
3219 2545.539392386035
3220 2545.548612990126
3221 2545.550766108696
3222 2545.557831864584
3223 2545.560046330089
3224 2545.565379697781
3225 2545.567704475406
3226 2545.575529273742
3227 2545.573646162226
3228 2545.577865023504
3229 2545.579765498136
3230 2545.585764989137
3231 2545.584043245018
3232 2545.58222440226
3233 2545.575879375718
3234 2545.571151965115
3235 2545.556229294428
3236 2545.542723547475
3237 2545.528412990954
3238 2545.516290385798
3239 2545.504501714552
3240 2545.504340395792
3241 2545.496279724076
3242 2545.502242519091
3243 2545.49607418711
3244 2545.500526989313
3245 2545.497527054307
3246 2545.507650875675
3247 2545.508545061232
3248 2545.512659622902
3249 2545.517761798248
3250 2545.52881292532
3251 2545.534697906683
3252 2545.548736689853
3253 2545.551194219645
3254 2545.562481440192
3255 2545.560476220805
3256 2545.568038441928
3257 2545.56868498603
3258 2545.577356935073
3259 2545.577595617709
3260 2545.577357542733
3261 2545.579438531043
3262 2545.58183930948
3263 2545.576851944377
3264 2545.576695456512
3265 2545.569909358837
3266 2545.574886303677
3267 2545.566891684398
3268 2545.567084899804
3269 2545.552795041928
3270 2545.550396862868
3271 2545.533381282056
3272 2545.530118775205
3273 2545.516544993578
3274 2545.516110963569
3275 2545.506923691869
3276 2545.50960592488
3277 2545.504099905131
3278 2545.50728763662
3279 2545.506677602893
3280 2545.507193537649
3281 2545.509272134398
3282 2545.516304748271
3283 2545.52047825974
3284 2545.523510554569
3285 2545.528209163163
3286 2545.535857176476
3287 2545.542595459837
3288 2545.547145264953
3289 2545.551080492064
3290 2545.555697360533
3291 2545.556745213432
3292 2545.55622615143
3293 2545.557447458245
3294 2545.557239801914
3295 2545.55791341683
3296 2545.559953787567
3297 2545.55955926555
3298 2545.5627655242
3299 2545.560460857064
3300 2545.562218971851
3301 2545.561463297441
3302 2545.567085009439
3303 2545.560604134874
3304 2545.558597118171
3305 2545.547196440196
3306 2545.545586463683
3307 2545.537605317515
3308 2545.533985618641
3309 2545.523508848978
3310 2545.521429259242
3311 2545.512046912156
3312 2545.518505978822
3313 2545.510309583212
3314 2545.514181696021
3315 2545.511260502574
3316 2545.516373839497
3317 2545.514308863951
3318 2545.5248753428
3319 2545.526056592846
3320 2545.535960769555
3321 2545.536690031316
3322 2545.541578986131
3323 2545.540417362278
3324 2545.544777096405
3325 2545.545667955575
3326 2545.555010987364
3327 2545.554889495005
3328 2545.563425983485
3329 2545.566855568891
3330 2545.579975696923
3331 2545.582236593286
3332 2545.584175547594
3333 2545.586571814918
3334 2545.589623029047
3335 2545.580524766767
3336 2545.578194323297
3337 2545.570043726626
3338 2545.575306665839
3339 2545.562142568091
3340 2545.560703965222
3341 2545.545247663085
3342 2545.539019350558
3343 2545.524021416568
3344 2545.52030081821
3345 2545.504049997036
3346 2545.4999372115
3347 2545.488911837127
3348 2545.495665028037
3349 2545.493119694836
3350 2545.508217401408
3351 2545.501760738578
3352 2545.51360535278
3353 2545.515925807918
3354 2545.525577040413
3355 2545.528188424317
3356 2545.537834597828
3357 2545.542586883893
3358 2545.549103952585
3359 2545.552153979207
3360 2545.557088822539
3361 2545.556465117292
3362 2545.564830221318
3363 2545.566399619607
3364 2545.570686733746
3365 2545.575408280554
3366 2545.58311181334
3367 2545.579039221138
3368 2545.576015924114
3369 2545.576205199617
3370 2545.572398095292
3371 2545.568810958867
3372 2545.569449315443
3373 2545.561557165526
3374 2545.562292564045
3375 2545.550693462014
3376 2545.545629358649
3377 2545.536909044467
3378 2545.526385073313
3379 2545.510804656364
3380 2545.503733636988
3381 2545.499445065989
3382 2545.503633318408
3383 2545.504285041087
3384 2545.510380834591
3385 2545.512349835081
3386 2545.519246799975
3387 2545.521279429216
3388 2545.526482951712
3389 2545.531134342656
3390 2545.537985768839
3391 2545.540640334333
3392 2545.543512478154
3393 2545.544919047468
3394 2545.549111197979
3395 2545.550464243068
3396 2545.557066420007
3397 2545.558088894736
3398 2545.567514818837
3399 2545.564397354934
3400 2545.567863601271
3401 2545.562181786021
3402 2545.563390786579
3403 2545.559213428027
3404 2545.561145602229
3405 2545.56185756731
3406 2545.564931690327
3407 2545.557418497703
3408 2545.560487223048
3409 2545.557118652518
3410 2545.555942851622
3411 2545.550261419489
3412 2545.547412098009
3413 2545.535718936111
3414 2545.5277368147
3415 2545.518014882952
3416 2545.511372391552
3417 2545.506249397657
3418 2545.505852043806
3419 2545.508935830703
3420 2545.513824689585
3421 2545.512396242647
3422 2545.521987826305
3423 2545.524925128151
3424 2545.532152991304
3425 2545.534726449254
3426 2545.544053204129
3427 2545.545789465929
3428 2545.554654269042
3429 2545.559109168818
3430 2545.563378925824
3431 2545.565270468993
3432 2545.567325988903
3433 2545.568227692771
3434 2545.569114773166
3435 2545.566843151184
3436 2545.569203983772
3437 2545.566061295812
3438 2545.571770180768
3439 2545.570172907306
3440 2545.56946440218
3441 2545.567338991353
3442 2545.564765092079
3443 2545.560798638473
3444 2545.561681962504
3445 2545.554598602579
3446 2545.544554266368
3447 2545.538717304009
3448 2545.526082013054
3449 2545.515652699969
3450 2545.509986055837
3451 2545.501742096614
3452 2545.498439641863
3453 2545.496684468619
3454 2545.499683489097
3455 2545.500274145094
3456 2545.503813250712
3457 2545.50485555341
3458 2545.511534035939
3459 2545.516738050722
3460 2545.525120209775
3461 2545.526471016459
3462 2545.540777734796
3463 2545.544735106543
3464 2545.553693805596
3465 2545.558327401545
3466 2545.566214224785
3467 2545.563409365994
3468 2545.578374684781
3469 2545.567755969719
3470 2545.580039233788
3471 2545.574773627596
3472 2545.58386667703
3473 2545.580228045327
3474 2545.59045268033
3475 2545.579978475061
3476 2545.57919462338
3477 2545.572042638731
3478 2545.574947056838
3479 2545.559953660841
3480 2545.562323856063
3481 2545.548084845188
3482 2545.543516590555
3483 2545.526796596535
3484 2545.523778328144
3485 2545.510002894227
3486 2545.512635088185
3487 2545.503715590971
3488 2545.507071548731
3489 2545.503257078666
3490 2545.51072126278
3491 2545.507341684918
3492 2545.51337261814
3493 2545.512084382377
3494 2545.525876840768
3495 2545.530584822487
3496 2545.537882230767
3497 2545.540063441444
3498 2545.549343454061
3499 2545.54984452903
3500 2545.552227760072
3501 2545.551204384364
3502 2545.556079265872
3503 2545.55493824788
3504 2545.557880975889
3505 2545.561070704313
3506 2545.570109800185
3507 2545.575515489707
3508 2545.577858805517
3509 2545.577225072008
3510 2545.57186653717
3511 2545.571568779255
3512 2545.568103109857
3513 2545.56862849547
3514 2545.559514812398
3515 2545.553591850561
3516 2545.548050335679
3517 2545.539952228884
3518 2545.53560397884
3519 2545.522249900599
3520 2545.515675156519
3521 2545.509292087059
3522 2545.505926823608
3523 2545.497882981325
3524 2545.498336138737
3525 2545.5015179172
3526 2545.505626518469
3527 2545.507797652165
3528 2545.519067789127
3529 2545.522704081343
3530 2545.534178379196
3531 2545.534863630649
3532 2545.542028312153
3533 2545.545988630942
3534 2545.553751051964
3535 2545.549006666208
3536 2545.552658651158
3537 2545.549213355792
3538 2545.549265209522
3539 2545.54680435673
3540 2545.554205880888
3541 2545.555367466541
3542 2545.565592134661
3543 2545.564972403333
3544 2545.571071335203
3545 2545.573499061851
3546 2545.575172264246
3547 2545.570401353151
3548 2545.563696712986
3549 2545.561206380837
3550 2545.556051221941
3551 2545.552885820819
3552 2545.547178448693
3553 2545.541862821566
3554 2545.536437819727
3555 2545.531126892392
3556 2545.528759292051
3557 2545.517824071506
3558 2545.516584296953
3559 2545.505621851941
3560 2545.507333793324
3561 2545.505718343066
3562 2545.506035783461
3563 2545.509106486733
3564 2545.521924854689
3565 2545.52582054773
3566 2545.536474077106
3567 2545.539406056268
3568 2545.549686433403
3569 2545.552873736201
3570 2545.553634418748
3571 2545.553528436254
3572 2545.55343058904
3573 2545.549969937554
3574 2545.55719886497
3575 2545.558090704958
3576 2545.566914808381
3577 2545.564551265381
3578 2545.573808237949
3579 2545.569581753987
3580 2545.572402614956
3581 2545.559262946833
3582 2545.562146471275
3583 2545.552115460229
3584 2545.550260386067
3585 2545.541666557183
3586 2545.53864363784
3587 2545.530500246778
3588 2545.528274569183
3589 2545.51487635593
3590 2545.517405649742
3591 2545.505520122622
3592 2545.505254917552
3593 2545.500719554983
3594 2545.5022589437
3595 2545.503099141738
3596 2545.510318051153
3597 2545.515778874161
3598 2545.524230082522
3599 2545.531191536832
3600 2545.541291269017
3601 2545.548455650448
3602 2545.556336314052
3603 2545.558866346908
3604 2545.562936157918
3605 2545.56091149585
3606 2545.564316869408
3607 2545.565326608888
3608 2545.561492154849
3609 2545.564933269341
3610 2545.562127076322
3611 2545.559817547132
3612 2545.564955375541
3613 2545.571472425136
3614 2545.574828834791
3615 2545.568700571446
3616 2545.564474709175
3617 2545.560277957
3618 2545.556760757863
3619 2545.55206301199
3620 2545.55008102281
3621 2545.547173181152
3622 2545.544682484461
3623 2545.536729692435
3624 2545.536322708426
3625 2545.529121400874
3626 2545.526856016103
3627 2545.515931252145
3628 2545.518461088053
3629 2545.509703528901
3630 2545.521700326718
3631 2545.527257243787
3632 2545.535466455949
3633 2545.538032326033
3634 2545.544357918548
3635 2545.547792744692
3636 2545.554201559824
3637 2545.554525499682
3638 2545.554536706108
3639 2545.549282126612
3640 2545.551951783639
3641 2545.548937404206
3642 2545.549067302546
3643 2545.543956765458
3644 2545.544100100912
3645 2545.542205693311
3646 2545.544097609483
3647 2545.541933852948
3648 2545.542241438779
3649 2545.541252243082
3650 2545.544474450736
3651 2545.54336850242
3652 2545.544698184723
3653 2545.539148467472
3654 2545.539587244236
3655 2545.535448631483
3656 2545.535560986763
3657 2545.532263538022
3658 2545.533056421787
3659 2545.523804472865
3660 2545.524346000704
3661 2545.522606914661
3662 2545.524187190214
3663 2545.519833911975
3664 2545.524990926153
3665 2545.525396169382
3666 2545.536228234748
3667 2545.53515427204
3668 2545.544897828158
3669 2545.545129462691
3670 2545.555395737734
3671 2545.559511844174
3672 2545.566854835994
3673 2545.565845033999
3674 2545.574715107254
3675 2545.573113352608
3676 2545.578958815645
3677 2545.572581219223
3678 2545.580748616611
3679 2545.574561877587
3680 2545.575821118439
3681 2545.571929216325
3682 2545.569201689214
3683 2545.561676233044
3684 2545.559108986889
3685 2545.55353354066
3686 2545.550892968225
3687 2545.543787997889
3688 2545.541965566212
3689 2545.541143100114
3690 2545.537230318737
3691 2545.530717524573
3692 2545.533549834821
3693 2545.529007023893
3694 2545.522084709629
3695 2545.518794520883
3696 2545.516264192761
3697 2545.512198402475
3698 2545.513283319267
3699 2545.511594095783
3700 2545.511743669708
3701 2545.516326374313
3702 2545.522561903212
3703 2545.526972897764
3704 2545.530390955856
3705 2545.534547632069
3706 2545.541163148716
3707 2545.54552457818
3708 2545.55118350719
3709 2545.551812208877
3710 2545.557261848303
3711 2545.558352182858
3712 2545.560442075039
3713 2545.557416066466
3714 2545.560500543253
3715 2545.552090810569
3716 2545.550584023263
3717 2545.545732725375
3718 2545.545657014658
3719 2545.546690428202
3720 2545.546608026353
3721 2545.548317771088
3722 2545.552490514258
3723 2545.548562897702
3724 2545.550276971366
3725 2545.549278187673
3726 2545.552786644203
3727 2545.54717448268
3728 2545.550462976515
3729 2545.546863662227
3730 2545.547102703181
3731 2545.540145733827
3732 2545.541769517659
3733 2545.535389806166
3734 2545.53798601223
3735 2545.528099545257
3736 2545.529079243903
3737 2545.523419384897
3738 2545.529826800992
3739 2545.52605766617
3740 2545.531404764063
3741 2545.533058187886
3742 2545.543021199182
3743 2545.544637745
3744 2545.553804523477
3745 2545.546930889395
3746 2545.557338508911
3747 2545.550551133385
3748 2545.552077655991
3749 2545.545329236365
3750 2545.544057729594
3751 2545.541181453257
3752 2545.542544071791
3753 2545.54157719291
3754 2545.545852611149
3755 2545.548890250995
3756 2545.552585619334
3757 2545.550344112738
3758 2545.552430640672
3759 2545.550082813498
3760 2545.548482917045
3761 2545.546040462397
3762 2545.547064307475
3763 2545.540432452963
3764 2545.539222276344
3765 2545.532147018107
3766 2545.533607871439
3767 2545.529570848179
3768 2545.529460357676
3769 2545.522611945235
3770 2545.521195195313
3771 2545.515465974862
3772 2545.515970004677
3773 2545.519162450198
3774 2545.525611088829
3775 2545.527155347771
3776 2545.534554285714
3777 2545.539303753597
3778 2545.548644206957
3779 2545.5471388898
3780 2545.553414308763
3781 2545.555147472589
3782 2545.558494531861
3783 2545.556880180478
3784 2545.560422252363
3785 2545.556268637858
3786 2545.555422179125
3787 2545.552274805094
3788 2545.551498984844
3789 2545.548177107483
3790 2545.55045683978
3791 2545.548073249688
3792 2545.551040036429
3793 2545.550211206612
3794 2545.554894830149
3795 2545.552272790021
3796 2545.554294296166
3797 2545.552538415221
3798 2545.561718929964
3799 2545.550835107158
3800 2545.552206726415
3801 2545.54170949262
3802 2545.543809549396
3803 2545.535927156813
3804 2545.532881003438
3805 2545.5215758268
3806 2545.526435325789
3807 2545.521245176849
3808 2545.529599558164
3809 2545.533485582476
3810 2545.544145627782
3811 2545.538152389134
3812 2545.543949069987
3813 2545.541641373773
3814 2545.549085337366
3815 2545.543481285504
3816 2545.548878857056
3817 2545.54499179077
3818 2545.547539302907
3819 2545.539824856876
3820 2545.544565813654
3821 2545.534367008626
3822 2545.538390770779
3823 2545.531238668218
3824 2545.538462600286
3825 2545.534465800203
3826 2545.53683023739
3827 2545.53277119244
3828 2545.541544523018
3829 2545.536149017194
3830 2545.544455920873
3831 2545.540280058461
3832 2545.546953048282
3833 2545.545827579967
3834 2545.55283587075
3835 2545.553635240804
3836 2545.552210022713
3837 2545.548748290497
3838 2545.54760899229
3839 2545.542997082523
3840 2545.545449389693
3841 2545.53850020968
3842 2545.543631337473
3843 2545.540866550416
3844 2545.545700428087
3845 2545.543917539883
3846 2545.549923468236
3847 2545.54992027532
3848 2545.54928755714
3849 2545.554564993349
3850 2545.548563281065
3851 2545.546321655104
3852 2545.544937884395
3853 2545.546549809575
3854 2545.541978608894
3855 2545.541342148928
3856 2545.533990100582
3857 2545.538369272243
3858 2545.534291508194
3859 2545.533681939571
3860 2545.53452843907
3861 2545.535750295968
3862 2545.538178847016
3863 2545.539569544023
3864 2545.546544714649
3865 2545.544619769838
3866 2545.554032643102
3867 2545.55354939565
3868 2545.557351616713
3869 2545.551654014456
3870 2545.556680312652
3871 2545.551805765313
3872 2545.553808689642
3873 2545.547176445715
3874 2545.549656633652
3875 2545.547481547401
3876 2545.549969732197
3877 2545.545648968866
3878 2545.556755250353
3879 2545.55274282148
3880 2545.553455328036
3881 2545.545961374258
3882 2545.542164667459
3883 2545.539435976914
3884 2545.535509953082
3885 2545.53021179502
3886 2545.527258781275
3887 2545.526079307233
3888 2545.523153984082
3889 2545.518502895682
3890 2545.52035622953
3891 2545.516600001563
3892 2545.522408668977
3893 2545.52148262485
3894 2545.53084321508
3895 2545.532212181754
3896 2545.54180254228
3897 2545.542763536744
3898 2545.550473724581
3899 2545.548994486046
3900 2545.562818237871
3901 2545.558302609543
3902 2545.565144670893
3903 2545.562997166629
3904 2545.568017410473
3905 2545.561098986403
3906 2545.562124857375
3907 2545.552749834702
3908 2545.561264849746
3909 2545.558992674604
3910 2545.564970369735
3911 2545.556564271655
3912 2545.561137731799
3913 2545.555447025048
3914 2545.55901004137
3915 2545.552867959352
3916 2545.549123846897
3917 2545.548083534739
3918 2545.548152319667
3919 2545.544767060728
3920 2545.544700343807
3921 2545.545515128305
3922 2545.539325783046
3923 2545.532555985821
3924 2545.529387184354
3925 2545.523154918342
3926 2545.520390465049
3927 2545.516509628289
3928 2545.517772435289
3929 2545.518518491388
3930 2545.525097581191
3931 2545.522775373225
3932 2545.527134858994
3933 2545.533337380667
3934 2545.53947798223
3935 2545.542863952094
3936 2545.552249417041
3937 2545.55328418355
3938 2545.552146717943
3939 2545.551502548325
3940 2545.554930161752
3941 2545.552882115231
3942 2545.560730988812
3943 2545.555004293171
3944 2545.558176340761
3945 2545.552514575239
3946 2545.55242150303
3947 2545.546091900124
3948 2545.548778617292
3949 2545.546216861788
3950 2545.548818019563
3951 2545.543648629796
3952 2545.5466183879
3953 2545.541516978068
3954 2545.544386481083
3955 2545.533281902478
3956 2545.532604359276
3957 2545.525159984106
3958 2545.527609602553
3959 2545.522428371743
3960 2545.526629857175
3961 2545.519456315896
3962 2545.523313775787
3963 2545.518190774168
3964 2545.527294094948
3965 2545.524259677368
3966 2545.535357410755
3967 2545.533804578811
3968 2545.548469332928
3969 2545.551498306084
3970 2545.555004701981
3971 2545.558578381195
3972 2545.569724356951
3973 2545.573842749535
3974 2545.583792812333
3975 2545.586869071045
3976 2545.591336834106
3977 2545.591355916628
3978 2545.592615946492
3979 2545.590462030363
3980 2545.583633751169
3981 2545.577885786144
3982 2545.569114438969
3983 2545.561528701857
3984 2545.554997373496
3985 2545.549281245835
3986 2545.542483923114
3987 2545.530765576977
3988 2545.518505691039
3989 2545.512245086481
3990 2545.507161113659
3991 2545.499134241392
3992 2545.494641336305
3993 2545.490151377448
3994 2545.49357543424
3995 2545.492618375683
3996 2545.499099997331
3997 2545.502067772258
3998 2545.511978755677
3999 2545.5177764368
4000 2545.529458347082
4001 2545.54302546336
4002 2545.558630886017
4003 2545.565245851711
4004 2545.570705017953
4005 2545.580058044928
4006 2545.588930957726
4007 2545.597308623529
4008 2545.607713553336
4009 2545.61440843762
4010 2545.618677979334
4011 2545.611946181667
4012 2545.607158662686
4013 2545.594272160895
4014 2545.586671225714
4015 2545.569202296009
4016 2545.560389752628
4017 2545.53920870499
4018 2545.527906199116
4019 2545.513096930441
4020 2545.506646460401
4021 2545.494410987088
4022 2545.490710869116
4023 2545.486191516475
4024 2545.487873321372
4025 2545.483258284991
4026 2545.486738298523
4027 2545.488179460196
4028 2545.496301843695
4029 2545.49899567312
4030 2545.51237886994
4031 2545.517515563384
4032 2545.531537543775
4033 2545.53754810697
4034 2545.549424947725
4035 2545.552814102447
4036 2545.563572929251
4037 2545.570839464257
4038 2545.582819035698
4039 2545.594023749968
4040 2545.602787630162
4041 2545.611461710711
4042 2545.616075709047
4043 2545.613486384576
4044 2545.613332472615
4045 2545.605286619963
4046 2545.605023414979
4047 2545.593105917884
4048 2545.582835237715
4049 2545.570408826406
4050 2545.560070395683
4051 2545.540842466681
4052 2545.528836022243
4053 2545.513324905273
4054 2545.506632109542
4055 2545.49224566949
4056 2545.494551721712
4057 2545.483561512137
4058 2545.488242342884
4059 2545.480535017317
4060 2545.48910086315
4061 2545.488440581231
4062 2545.49817570808
4063 2545.498583184808
4064 2545.515088303021
4065 2545.516812722099
4066 2545.531644974443
4067 2545.535629844001
4068 2545.545152700509
4069 2545.548512244936
4070 2545.558804758637
4071 2545.561255342101
4072 2545.577141946843
4073 2545.587698302941
4074 2545.598964951138
4075 2545.599575217022
4076 2545.605420934842
4077 2545.605118481664
4078 2545.607337144966
4079 2545.607482510195
4080 2545.609671344195
4081 2545.603077440975
4082 2545.597046232237
4083 2545.58728893852
4084 2545.579340359118
4085 2545.565327385016
4086 2545.553675223988
4087 2545.533516612132
4088 2545.515644190848
4089 2545.500561538148
4090 2545.491036214193
4091 2545.479233506748
4092 2545.478509718722
4093 2545.473834959493
4094 2545.474685799117
4095 2545.47562808205
4096 2545.485563289641
4097 2545.490741812912
4098 2545.503866865204
4099 2545.510923102504
4100 2545.519618783037
4101 2545.522694477567
4102 2545.530604559939
4103 2545.538815455862
4104 2545.550054179053
4105 2545.558198294581
4106 2545.572741202517
4107 2545.580846968663
4108 2545.596476502825
4109 2545.605696089304
4110 2545.620189834278
4111 2545.622936774886
4112 2545.628573382165
4113 2545.62750957309
4114 2545.62520426556
4115 2545.617128172678
4116 2545.608623527927
4117 2545.592713594267
4118 2545.581545563132
4119 2545.560554715813
4120 2545.542240055585
4121 2545.526454109727
4122 2545.511300206867
4123 2545.491187414089
4124 2545.476616712878
4125 2545.470701174264
4126 2545.459900808657
4127 2545.45579232663
4128 2545.456457798761
4129 2545.458359633365
4130 2545.46729859567
4131 2545.475688547593
4132 2545.48699503062
4133 2545.499548526233
4134 2545.512801352748
4135 2545.523666398253
4136 2545.535006934759
4137 2545.544817745823
4138 2545.558859977145
4139 2545.56651791167
4140 2545.586862332248
4141 2545.601463064356
4142 2545.618307543669
4143 2545.617571764698
4144 2545.63147560559
4145 2545.626327586003
4146 2545.635126672586
4147 2545.625327543597
4148 2545.62602740211
4149 2545.615812491104
4150 2545.611820758087
4151 2545.591757162275
4152 2545.584296676703
4153 2545.566008090936
4154 2545.552165035545
4155 2545.525618488138
4156 2545.509292105351
4157 2545.488623575459
4158 2545.479571511412
4159 2545.466151278485
4160 2545.46341593008
4161 2545.460518559394
4162 2545.467227896992
4163 2545.47107550838
4164 2545.480328853952
4165 2545.486433529887
4166 2545.501550713906
4167 2545.507652069652
4168 2545.517781051468
4169 2545.526499926393
4170 2545.538202669587
4171 2545.551500664177
4172 2545.562794530398
4173 2545.571174177561
4174 2545.575668006491
4175 2545.580992844665
4176 2545.593296825565
4177 2545.594950552512
4178 2545.596436505934
4179 2545.597581201452
4180 2545.59715693516
4181 2545.597611627948
4182 2545.598850467542
4183 2545.593721208702
4184 2545.590312839527
4185 2545.579093341949
4186 2545.57582483126
4187 2545.561358090857
4188 2545.548349628807
4189 2545.528253191339
4190 2545.522988540324
4191 2545.504572380236
4192 2545.497615355766
4193 2545.481684081661
4194 2545.485972332184
4195 2545.474908119654
4196 2545.478565907277
4197 2545.47933267655
4198 2545.484489101302
4199 2545.489962664087
4200 2545.502275768865
4201 2545.508816161114
4202 2545.523732694217
4203 2545.529466377729
4204 2545.542230365841
4205 2545.54818602661
4206 2545.562558076681
4207 2545.567395586716
4208 2545.579278312735
4209 2545.58170820276
4210 2545.591510823196
4211 2545.594953988148
4212 2545.601103935561
4213 2545.597633714817
4214 2545.604798399343
4215 2545.60235867749
4216 2545.602055733639
4217 2545.594221851181
4218 2545.601120381417
4219 2545.588342276727
4220 2545.582474184866
4221 2545.565136485475
4222 2545.557433783705
4223 2545.537240331039
4224 2545.526416995563
4225 2545.509844441098
4226 2545.499678343092
4227 2545.48080803678
4228 2545.47661110974
4229 2545.467947618309
4230 2545.4671009194
4231 2545.463423470918
4232 2545.469429374321
4233 2545.472624681222
4234 2545.476549223481
4235 2545.485130901474
4236 2545.496968757323
4237 2545.505256139205
4238 2545.520174921012
4239 2545.532727442886
4240 2545.54862036805
4241 2545.563353365264
4242 2545.575443083592
4243 2545.587879594523
4244 2545.594557323127
4245 2545.605618466666
4246 2545.612779293216
4247 2545.622248874859
4248 2545.623120167834
4249 2545.622830292984
4250 2545.62328419947
4251 2545.618115488543
4252 2545.613279640112
4253 2545.601932138934
4254 2545.593758408673
4255 2545.58020535178
4256 2545.567219475724
4257 2545.550265481998
4258 2545.531307951183
4259 2545.507802426127
4260 2545.493055940928
4261 2545.480233760147
4262 2545.472728459732
4263 2545.465496659949
4264 2545.463939889788
4265 2545.459692198979
4266 2545.460935562909
4267 2545.466118409107
4268 2545.474338785494
4269 2545.48219864158
4270 2545.493109926174
4271 2545.505159353806
4272 2545.52304036973
4273 2545.539184304745
4274 2545.561303882243
4275 2545.574406289237
4276 2545.587547610834
4277 2545.594602036222
4278 2545.604864090913
4279 2545.607873552298
4280 2545.612927434893
4281 2545.612639296756
4282 2545.611970666254
4283 2545.605873215128
4284 2545.603620534754
4285 2545.595666706584
4286 2545.593952423224
4287 2545.583195571252
4288 2545.578167347033
4289 2545.560652391723
4290 2545.554818612971
4291 2545.536706247946
4292 2545.530912773712
4293 2545.51413595398
4294 2545.504385212924
4295 2545.494126691583
4296 2545.49120253771
4297 2545.481207906915
4298 2545.477289672915
4299 2545.471145418943
4300 2545.476927927864
4301 2545.473482636618
4302 2545.48566980523
4303 2545.485891234794
4304 2545.49741173339
4305 2545.506266098962
4306 2545.520343926941
4307 2545.5316535748
4308 2545.549224391223
4309 2545.562032627897
4310 2545.578015755239
4311 2545.582279485514
4312 2545.589845314283
4313 2545.596649898843
4314 2545.602261112164
4315 2545.596716655343
4316 2545.598945069039
4317 2545.596102523124
4318 2545.601563899882
4319 2545.591830277769
4320 2545.59391871085
4321 2545.58547385387
4322 2545.580397815714
4323 2545.567030313936
4324 2545.560178139624
4325 2545.549433880861
4326 2545.537818952431
4327 2545.529357658163
4328 2545.518707815555
4329 2545.512729953168
4330 2545.501522725694
4331 2545.496988333286
4332 2545.493087668196
4333 2545.493971780895
4334 2545.492338236345
4335 2545.490524780506
4336 2545.493986972112
4337 2545.493482459948
4338 2545.503115876838
4339 2545.505277841555
4340 2545.517960102576
4341 2545.526685920604
4342 2545.542520207352
4343 2545.55110002099
4344 2545.567882309673
4345 2545.574572389786
4346 2545.586643506962
4347 2545.58813146168
4348 2545.597701815833
4349 2545.594008176047
4350 2545.59421430708
4351 2545.587008171331
4352 2545.591134353986
4353 2545.583911322149
4354 2545.582181898552
4355 2545.570576367291
4356 2545.568671597371
4357 2545.553569530731
4358 2545.546350924262
4359 2545.539945243514
4360 2545.535058258886
4361 2545.529458657531
4362 2545.527700431803
4363 2545.520164313274
4364 2545.517823286314
4365 2545.513693783014
4366 2545.510174123142
4367 2545.503076909913
4368 2545.503614825753
4369 2545.496532081238
4370 2545.498154742431
4371 2545.490167142564
4372 2545.491692833227
4373 2545.492169360333
4374 2545.505756180063
4375 2545.51426542497
4376 2545.52991436658
4377 2545.539933012815
4378 2545.557924974028
4379 2545.565885928419
4380 2545.581250179297
4381 2545.585123863148
4382 2545.598029944052
4383 2545.598407741336
4384 2545.604288188219
4385 2545.598779250999
4386 2545.600899604789
4387 2545.588285497611
4388 2545.585131287216
4389 2545.574479591276
4390 2545.570053861543
4391 2545.558348261094
4392 2545.5559276181
4393 2545.542549918793
4394 2545.537598408117
4395 2545.530398173682
4396 2545.530291509557
4397 2545.519722046984
4398 2545.521540444801
4399 2545.517671219419
4400 2545.519146846736
4401 2545.51095756344
4402 2545.508099454814
4403 2545.501329232919
4404 2545.500409242681
4405 2545.49828498207
4406 2545.509107033074
4407 2545.517030148843
4408 2545.534681635752
4409 2545.5413240779
4410 2545.555289794995
4411 2545.560498140585
4412 2545.577358863851
4413 2545.584243364392
4414 2545.59061651059
4415 2545.591009482537
4416 2545.596206255692
4417 2545.596522358119
4418 2545.602791530967
4419 2545.590060787318
4420 2545.587217354218
4421 2545.574761167027
4422 2545.572408836691
4423 2545.556708779624
4424 2545.550244049539
4425 2545.53992587128
4426 2545.530723158745
4427 2545.519972643806
4428 2545.514916170459
4429 2545.508086147184
4430 2545.509120646238
4431 2545.504985210577
4432 2545.508095872648
4433 2545.511611595216
4434 2545.511909726013
4435 2545.51472516345
4436 2545.515689256132
4437 2545.51344132469
4438 2545.509773967184
4439 2545.51267164854
4440 2545.518416240272
4441 2545.519110657074
4442 2545.525638926916
4443 2545.530631546602
4444 2545.54278038225
4445 2545.548941670352
4446 2545.559518244073
4447 2545.564381473177
4448 2545.574178783874
4449 2545.580689289273
4450 2545.586525913775
4451 2545.589818468593
4452 2545.592872471981
4453 2545.591644684375
4454 2545.591725702749
4455 2545.58744224411
4456 2545.57750356619
4457 2545.565636673872
4458 2545.559439567338
4459 2545.550241974128
4460 2545.543005597553
4461 2545.534700607957
4462 2545.532590041692
4463 2545.527725426179
4464 2545.527799877354
4465 2545.5218136882
4466 2545.519270941088
4467 2545.514116396172
4468 2545.513121715639
4469 2545.509163519138
4470 2545.515276518403
4471 2545.506534817426
4472 2545.504523138947
4473 2545.502394247369
4474 2545.508914213433
4475 2545.508351793221
4476 2545.518257587645
4477 2545.517972226879
4478 2545.531823716723
4479 2545.536910145958
4480 2545.551662484137
4481 2545.559154089781
4482 2545.5683854023
4483 2545.574512531436
4484 2545.578440057844
4485 2545.583590328602
4486 2545.587402828286
4487 2545.588724050475
4488 2545.592899972526
4489 2545.591302068467
4490 2545.587729462216
4491 2545.572048556498
4492 2545.563659546728
4493 2545.546450992032
4494 2545.542542563354
4495 2545.531376502045
4496 2545.526384875126
4497 2545.516461256847
4498 2545.514154848179
4499 2545.510721476865
4500 2545.511414106031
4501 2545.504741978172
4502 2545.50583583419
4503 2545.504547002135
4504 2545.509717717813
4505 2545.508212363409
4506 2545.512339022891
4507 2545.514612303792
4508 2545.521491537009
4509 2545.529298652546
4510 2545.540140649798
4511 2545.543472129125
4512 2545.556554837116
4513 2545.568557850271
4514 2545.57931757191
4515 2545.586492134277
4516 2545.59184655917
4517 2545.592934104546
4518 2545.595920502891
4519 2545.593300438813
4520 2545.594852863832
4521 2545.589811153871
4522 2545.589000405773
4523 2545.576114863494
4524 2545.572421490272
4525 2545.556478085658
4526 2545.546670531299
4527 2545.529142125279
4528 2545.51650297443
4529 2545.502546746761
4530 2545.495366332291
4531 2545.488781430825
4532 2545.493351519694
4533 2545.48777629906
4534 2545.495152730618
4535 2545.493741181564
4536 2545.503493665678
4537 2545.506696113138
4538 2545.518106378482
4539 2545.519131957503
4540 2545.5294105168
4541 2545.532704154947
4542 2545.551320023177
4543 2545.548614376803
4544 2545.559016018596
4545 2545.55726725858
4546 2545.569345287798
4547 2545.569046546034
4548 2545.575560347947
4549 2545.573441527431
4550 2545.579403989968
4551 2545.57633514478
4552 2545.580639799838
4553 2545.573497649511
4554 2545.576636023139
4555 2545.569732970406
4556 2545.568699475942
4557 2545.559453752787
4558 2545.553770039036
4559 2545.544205212379
4560 2545.535947034342
4561 2545.526055944378
4562 2545.515109883477
4563 2545.506945849801
4564 2545.50341726548
4565 2545.49622188538
4566 2545.49439253699
4567 2545.503121678114
4568 2545.506477559748
4569 2545.514693666817
4570 2545.519536617988
4571 2545.524142760514
4572 2545.533206724951
4573 2545.54345435469
4574 2545.556653562054
4575 2545.559714613936
4576 2545.566079016779
4577 2545.571723647703
4578 2545.575677915378
4579 2545.573877635493
4580 2545.576555248238
4581 2545.576682877639
4582 2545.575952221701
4583 2545.573358823636
4584 2545.576958799441
4585 2545.574698322596
4586 2545.581887520474
4587 2545.570023695355
4588 2545.576789074235
4589 2545.565505326568
4590 2545.565298229011
4591 2545.547203991747
4592 2545.544540037489
4593 2545.532548502038
4594 2545.527717704831
4595 2545.513541374271
4596 2545.514032768527
4597 2545.497032384199
4598 2545.499262722938
4599 2545.495748280907
4600 2545.497642623243
4601 2545.495383139858
4602 2545.499440629422
4603 2545.501158000439
4604 2545.511669293423
4605 2545.52300963903
4606 2545.528238248973
4607 2545.532210407692
4608 2545.544825921555
4609 2545.547904202711
4610 2545.559525796826
4611 2545.561933152257
4612 2545.56815511354
4613 2545.56579701589
4614 2545.570757829879
4615 2545.573287488265
4616 2545.572378719934
4617 2545.572152300992
4618 2545.573707353616
4619 2545.571762980114
4620 2545.574553820769
4621 2545.566784802738
4622 2545.566549997232
4623 2545.559706752887
4624 2545.556673151654
4625 2545.547539511797
4626 2545.545442668963
4627 2545.533197438283
4628 2545.52570178552
4629 2545.51905826861
4630 2545.516478037386
4631 2545.509399595889
4632 2545.510570102907
4633 2545.506389774301
4634 2545.512572325766
4635 2545.504561628164
4636 2545.51318220142
4637 2545.514164627743
4638 2545.519869123081
4639 2545.520803778824
4640 2545.52790064143
4641 2545.531084046026
4642 2545.54307639914
4643 2545.550339621387
4644 2545.563892858383
4645 2545.568210018716
4646 2545.576053664371
4647 2545.582185947933
4648 2545.587469195718
4649 2545.586015343981
4650 2545.587246079787
4651 2545.581797211095
4652 2545.581519231253
4653 2545.573495705164
4654 2545.569290225053
4655 2545.562662792664
4656 2545.563651161804
4657 2545.554893773863
4658 2545.555178220915
4659 2545.543445422982
4660 2545.53644226014
4661 2545.526114386934
4662 2545.521682009743
4663 2545.504795864672
4664 2545.498193728193
4665 2545.487527886734
4666 2545.486373795306
4667 2545.482086666009
4668 2545.484418540734
4669 2545.485297316493
4670 2545.493205844577
4671 2545.49933223842
4672 2545.504260188119
4673 2545.518797814918
4674 2545.531425398704
4675 2545.538917244096
4676 2545.552764589444
4677 2545.564474300268
4678 2545.58407217396
4679 2545.594046315588
4680 2545.610473681602
4681 2545.615234147286
4682 2545.621919379525
4683 2545.617317494078
4684 2545.614996061357
4685 2545.604415667929
4686 2545.603614220202
4687 2545.587951004442
4688 2545.582167587594
4689 2545.568537761533
4690 2545.557962494669
4691 2545.543555390059
4692 2545.536605213586
4693 2545.519857675561
4694 2545.511589914654
4695 2545.503673122069
4696 2545.5006013944
4697 2545.49052404847
4698 2545.492132585669
4699 2545.486345159383
4700 2545.488166431975
4701 2545.486483799645
4702 2545.491379208507
4703 2545.494192109059
4704 2545.5021853969
4705 2545.506104134856
4706 2545.518281409157
4707 2545.521633815898
4708 2545.535976883172
4709 2545.540124246671
4710 2545.559105937405
4711 2545.566445901453
4712 2545.584552884477
4713 2545.590053871494
4714 2545.599427374383
4715 2545.60699225293
4716 2545.612940418106
4717 2545.610931411178
4718 2545.607577725789
4719 2545.602414152664
4720 2545.597558901677
4721 2545.585032365215
4722 2545.582084298688
4723 2545.568649526358
4724 2545.558333051745
4725 2545.543227455687
4726 2545.534974227667
4727 2545.523382171716
4728 2545.518342778044
4729 2545.508008485915
4730 2545.507649234356
4731 2545.495012379177
4732 2545.49445246191
4733 2545.487711278928
4734 2545.490693722513
4735 2545.490298875162
4736 2545.496509039865
4737 2545.500088712826
4738 2545.502877827914
4739 2545.504387823071
4740 2545.516911012296
4741 2545.525988690965
4742 2545.544241416089
4743 2545.551816425754
4744 2545.564284757408
4745 2545.569345005712
4746 2545.581178623614
4747 2545.587946438179
4748 2545.596366823861
4749 2545.600186860216
4750 2545.603338091241
4751 2545.603597379684
4752 2545.607242615757
4753 2545.600894389455
4754 2545.597828815432
4755 2545.589222762508
4756 2545.578537224457
4757 2545.565631546861
4758 2545.555638380875
4759 2545.536192205329
4760 2545.524832098355
4761 2545.516884984958
4762 2545.508094757919
4763 2545.50221175475
4764 2545.500244897479
4765 2545.494638184635
4766 2545.498047717869
4767 2545.494621214856
4768 2545.493086149415
4769 2545.491319506671
4770 2545.493190463033
4771 2545.495166343764
4772 2545.501385014836
4773 2545.505158812627
4774 2545.510177424363
4775 2545.515827656784
4776 2545.527672419049
4777 2545.536190744329
4778 2545.546656408836
4779 2545.555263023135
4780 2545.565446963878
4781 2545.575485855285
4782 2545.591172346322
4783 2545.593417314863
4784 2545.603349684722
4785 2545.605770061929
4786 2545.608299248453
4787 2545.607345257386
4788 2545.605702845837
4789 2545.599675053522
4790 2545.593261264803
4791 2545.578239566842
4792 2545.565798807772
4793 2545.550468917327
4794 2545.540885288463
4795 2545.522208857653
4796 2545.514520725231
4797 2545.502578714676
4798 2545.500435578779
4799 2545.491369100048
4800 2545.488496733804
4801 2545.483736955337
4802 2545.485861710301
4803 2545.47966484747
4804 2545.484010345914
4805 2545.481381130051
4806 2545.491364145458
4807 2545.498593494881
4808 2545.5117428815
4809 2545.521524982867
4810 2545.540836019066
4811 2545.549797336634
4812 2545.573302539812
4813 2545.581007759176
4814 2545.599893576334
4815 2545.612985583999
4816 2545.622975260461
4817 2545.630014042797
4818 2545.635972320521
4819 2545.633318847118
4820 2545.63835849402
4821 2545.629427204154
4822 2545.626189938955
4823 2545.6137023388
4824 2545.601792935989
4825 2545.582527438644
4826 2545.559861498073
4827 2545.537026673089
4828 2545.522604540077
4829 2545.500746080177
4830 2545.485855165165
4831 2545.469930080691
4832 2545.462614362905
4833 2545.453912844556
4834 2545.457879265534
4835 2545.449247254639
4836 2545.456064635727
4837 2545.455814514116
4838 2545.4657429645
4839 2545.469508217735
4840 2545.485187338013
4841 2545.497414947814
4842 2545.514251853544
4843 2545.526618708049
4844 2545.54459688005
4845 2545.553679208727
4846 2545.571045565016
4847 2545.583114040089
4848 2545.598582705128
4849 2545.604846047574
4850 2545.614596343764
4851 2545.61514094379
4852 2545.623098928552
4853 2545.617111411692
4854 2545.618358372142
4855 2545.612237277286
4856 2545.608506929971
4857 2545.595364063246
4858 2545.592359661684
4859 2545.584782684574
4860 2545.575510374584
4861 2545.557749078308
4862 2545.550490815941
4863 2545.531511768463
4864 2545.524261098349
4865 2545.508405187606
4866 2545.501963961262
4867 2545.487829846744
4868 2545.482580556341
4869 2545.474754319774
4870 2545.46998705563
4871 2545.471496499612
4872 2545.478606960416
4873 2545.475247276537
4874 2545.487525817031
4875 2545.495776341792
4876 2545.515109552349
4877 2545.52415243044
4878 2545.542440781323
4879 2545.552432207099
4880 2545.567491400824
4881 2545.572658054015
4882 2545.584571878702
4883 2545.586755613334
4884 2545.594986684694
4885 2545.59741289547
4886 2545.605697791625
4887 2545.607376725774
4888 2545.611419938002
4889 2545.610879824339
4890 2545.611695214295
4891 2545.609129532897
4892 2545.602606648106
4893 2545.593252877733
4894 2545.58289922123
4895 2545.566639682513
4896 2545.557028711276
4897 2545.537687057677
4898 2545.526291389172
4899 2545.508893915632
4900 2545.492305070671
4901 2545.480886970457
4902 2545.472372469707
4903 2545.466319488211
4904 2545.461362212316
4905 2545.458443736509
4906 2545.460282990082
4907 2545.464475990637
4908 2545.478269173934
4909 2545.484226710068
4910 2545.507645263274
4911 2545.515210527788
4912 2545.535268957536
4913 2545.548674198873
4914 2545.572720333373
4915 2545.580434128271
4916 2545.593498268402
4917 2545.60243894027
4918 2545.612783621314
4919 2545.618617920907
4920 2545.628122783489
4921 2545.627052689466
4922 2545.633077803892
4923 2545.621419618268
4924 2545.616584826485
4925 2545.601500602236
4926 2545.595995917634
4927 2545.577189980066
4928 2545.570246425145
4929 2545.551592213582
4930 2545.542890276967
4931 2545.524290263948
4932 2545.512638626601
4933 2545.496189936104
4934 2545.484314183683
4935 2545.467615375931
4936 2545.46216997496
4937 2545.448367831274
4938 2545.451930491438
4939 2545.448471453781
4940 2545.460041812203
4941 2545.467392033968
4942 2545.482750791123
4943 2545.498405872717
4944 2545.518809938171
4945 2545.529256432641
4946 2545.548836082174
4947 2545.562877350567
4948 2545.580559785831
4949 2545.589629436435
4950 2545.600601079476
4951 2545.604000275209
4952 2545.609781663074
4953 2545.615931317895
4954 2545.622340823741
4955 2545.621017669712
4956 2545.620032770514
4957 2545.613000243569
4958 2545.614017731905
4959 2545.603338784636
4960 2545.597273557262
4961 2545.580577752171
4962 2545.569981299066
4963 2545.555071321257
4964 2545.544225481725
4965 2545.530642863368
4966 2545.519065584735
4967 2545.499636793889
4968 2545.489815581187
4969 2545.47387927945
4970 2545.466199794104
4971 2545.456673940589
4972 2545.457899040727
4973 2545.459975329613
4974 2545.470428464725
4975 2545.479034256824
4976 2545.494540348835
4977 2545.507298275847
4978 2545.519037130427
4979 2545.530249654555
4980 2545.545594675599
4981 2545.555819283672
4982 2545.571016599361
4983 2545.576880493157
4984 2545.586603308155
4985 2545.59025683065
4986 2545.600875160599
4987 2545.609170848637
4988 2545.611892184878
4989 2545.609308230203
4990 2545.609484304947
4991 2545.604113175852
4992 2545.602200482978
4993 2545.590687455227
4994 2545.587196481865
4995 2545.573878028238
4996 2545.568361308031
4997 2545.555962657969
4998 2545.547898502726
4999 2545.536385607138
5000 2545.532746465909
5001 2545.520148894765
5002 2545.507419117705
5003 2545.495480363994
5004 2545.485829050069
5005 2545.476839382351
5006 2545.477427522022
5007 2545.475940228092
5008 2545.48667931527
5009 2545.493886088541
5010 2545.507371358762
5011 2545.511952912775
5012 2545.5207707821
5013 2545.52634485012
5014 2545.538295414365
5015 2545.547439428464
5016 2545.555230031059
5017 2545.563460987388
5018 2545.576767250679
5019 2545.581252776957
5020 2545.592218445752
5021 2545.592927213326
5022 2545.602928690345
5023 2545.599740235056
5024 2545.603687266152
5025 2545.595897402934
5026 2545.598547308847
5027 2545.586258053228
5028 2545.584913725346
5029 2545.571026929061
5030 2545.570106206734
5031 2545.558469031129
5032 2545.55265028988
5033 2545.540553645603
5034 2545.53209010131
5035 2545.521676323162
5036 2545.510564674569
5037 2545.50030160643
5038 2545.496487857807
5039 2545.487481305966
5040 2545.482721184484
5041 2545.476734584779
5042 2545.482564781246
5043 2545.486907680265
5044 2545.494615122567
5045 2545.503067821993
5046 2545.512355260392
5047 2545.519644882665
5048 2545.534704937521
5049 2545.543171680999
5050 2545.553546264536
5051 2545.559813756653
5052 2545.572680368597
5053 2545.575664181932
5054 2545.582000200828
5055 2545.589064066815
5056 2545.591754805741
5057 2545.590910302535
5058 2545.585589509946
5059 2545.579850204246
5060 2545.576032500314
5061 2545.569174932595
5062 2545.563797542184
5063 2545.557048705913
5064 2545.556117193988
5065 2545.551571455439
5066 2545.547799005978
5067 2545.540957175329
5068 2545.53734347198
5069 2545.521889819678
5070 2545.518276713984
5071 2545.505891022493
5072 2545.495840057043
5073 2545.492976731171
5074 2545.492785053977
5075 2545.497133770475
5076 2545.502152917644
5077 2545.50595348185
5078 2545.516823166242
5079 2545.524540870426
5080 2545.534389415172
5081 2545.542866638735
5082 2545.551523090572
5083 2545.560109514682
5084 2545.569781392098
5085 2545.576534188358
5086 2545.583073524317
5087 2545.588169911175
5088 2545.59359859603
5089 2545.594464649932
5090 2545.596302983747
5091 2545.590472699123
5092 2545.58764443014
5093 2545.582685093688
5094 2545.58192317664
5095 2545.575454327136
5096 2545.567486430154
5097 2545.557356070682
5098 2545.550331920225
5099 2545.536989432298
5100 2545.53721370911
5101 2545.527207738699
5102 2545.525231586084
5103 2545.513225008359
5104 2545.515173494504
5105 2545.507918672577
5106 2545.503085217829
5107 2545.498867379652
5108 2545.50105913455
5109 2545.50069002964
5110 2545.501715899263
5111 2545.503625815868
5112 2545.512815910984
5113 2545.515932704681
5114 2545.531627320684
5115 2545.535816574221
5116 2545.544375741669
5117 2545.552666898359
5118 2545.568439949604
5119 2545.573861282267
5120 2545.583002845641
5121 2545.58479625131
5122 2545.587773972376
5123 2545.581903233916
5124 2545.583855969924
5125 2545.577015633666
5126 2545.57648566573
5127 2545.567998316355
5128 2545.566341613148
5129 2545.553936471449
5130 2545.555206827152
5131 2545.548010210998
5132 2545.548020561519
5133 2545.541422890299
5134 2545.536288591782
5135 2545.526193113515
5136 2545.523261910012
5137 2545.515666326008
5138 2545.513400295113
5139 2545.505885271969
5140 2545.505383773233
5141 2545.502269018073
5142 2545.504780187156
5143 2545.511809394955
5144 2545.515992529812
5145 2545.518474343393
5146 2545.521413994785
5147 2545.526039765863
5148 2545.538999204749
5149 2545.541211601177
5150 2545.551677254833
5151 2545.555142644867
5152 2545.562717365111
5153 2545.565372884329
5154 2545.57414317228
5155 2545.576868748878
5156 2545.582351738938
5157 2545.58070080479
5158 2545.58381718224
5159 2545.582638170265
5160 2545.582418911783
5161 2545.572426555879
5162 2545.573999839479
5163 2545.568976335473
5164 2545.566405981032
5165 2545.553322395477
5166 2545.551919372608
5167 2545.53953884501
5168 2545.538222631038
5169 2545.530577497971
5170 2545.529202182629
5171 2545.521592896439
5172 2545.51648412837
5173 2545.50871098042
5174 2545.507990758107
5175 2545.503949312647
5176 2545.507737215367
5177 2545.506869294323
5178 2545.510918350546
5179 2545.511094988143
5180 2545.511704050668
5181 2545.514751750774
5182 2545.519465953517
5183 2545.522985662557
5184 2545.528637207641
5185 2545.535297298351
5186 2545.544437358546
5187 2545.547516705281
5188 2545.550192221951
5189 2545.559035799982
5190 2545.56842365753
5191 2545.575474880042
5192 2545.582443560385
5193 2545.589973093224
5194 2545.586941117179
5195 2545.582401467089
5196 2545.579408608911
5197 2545.568151354765
5198 2545.567793965032
5199 2545.563030298132
5200 2545.55920003759
5201 2545.548939758964
5202 2545.546378474216
5203 2545.534934569748
5204 2545.526886231084
5205 2545.516582311245
5206 2545.513940276898
5207 2545.507638785446
5208 2545.510490771699
5209 2545.510897134119
5210 2545.518871200351
5211 2545.517790058615
5212 2545.525431870227
5213 2545.524443896108
5214 2545.530760221055
5215 2545.529282869206
5216 2545.535008944336
5217 2545.535614161096
5218 2545.542631064595
5219 2545.545536903692
5220 2545.557052781375
5221 2545.561684121928
5222 2545.566219335817
5223 2545.566341164142
5224 2545.573211529143
5225 2545.573621611914
5226 2545.576362901145
5227 2545.571306890726
5228 2545.568504274514
5229 2545.564523034606
5230 2545.560539522541
5231 2545.551628782574
5232 2545.544380819331
5233 2545.535737937631
5234 2545.532546443342
5235 2545.524432992932
5236 2545.517916640329
5237 2545.508824363002
5238 2545.514721445069
5239 2545.51159061083
5240 2545.513372303053
5241 2545.52082380092
5242 2545.53133981177
5243 2545.538750974741
5244 2545.548827474566
5245 2545.549085862232
5246 2545.563925049109
5247 2545.56497954267
5248 2545.568462410707
5249 2545.563225281717
5250 2545.56400717794
5251 2545.561220301832
5252 2545.559565574361
5253 2545.554620327714
5254 2545.558531191238
5255 2545.556693072191
5256 2545.558695632779
5257 2545.554215528672
5258 2545.553817985744
5259 2545.549813169729
5260 2545.550039490302
5261 2545.545581080914
5262 2545.548132551737
5263 2545.544989849223
5264 2545.548456070572
5265 2545.540075579612
5266 2545.53867214729
5267 2545.528356493546
5268 2545.527849082743
5269 2545.518337075085
5270 2545.522010297718
5271 2545.511260899167
5272 2545.509562844562
5273 2545.506727438256
5274 2545.513530920476
5275 2545.512944314997
5276 2545.523501159168
5277 2545.52745604222
5278 2545.541794445434
5279 2545.546308194826
5280 2545.5566288513
5281 2545.558688355553
5282 2545.568987260243
5283 2545.560502455035
5284 2545.560456308954
5285 2545.549703558087
5286 2545.557217509502
5287 2545.551118143838
5288 2545.55485162761
5289 2545.55352312621
5290 2545.560257211544
