"mx-rfile"
"Iteration" "mx"
("Iteration" "mx")
4398 11434.02145839288
4399 11478.42959742175
4400 11524.89024158893
4401 11632.69356270738
4402 11756.68454459704
4403 11877.26863916825
4404 11967.82500381131
4405 12088.92364740808
4406 12210.25741835216
4407 12327.55681572053
4408 12421.55583569973
4409 12505.98974632528
4410 12610.86134946695
4411 12688.63806447259
4412 12749.65588550221
4413 12784.95295855643
4414 12801.73586959763
4415 12806.45494285353
4416 12807.10000151267
4417 12805.99435348804
4418 12810.41215034039
4419 12821.64099361104
4420 12840.41211079627
4421 12869.40605411199
4422 12902.61743017566
4423 12945.64389460621
4424 12988.57310406685
4425 13041.50790970144
4426 13102.84884244462
4427 13171.54796488626
4428 13245.7581506028
4429 13323.49264509005
4430 13403.19899962784
4431 13483.26316156335
4432 13542.41019633459
4433 13621.79767391973
4434 13678.80758947403
4435 13735.54861874436
4436 13791.00199740961
4437 13827.06005309034
4438 13881.34277746348
4439 13916.1833878142
4440 13968.5786907062
4441 14000.56577510447
4442 14047.16946424169
4443 14074.7205491577
4444 14114.10110868364
4445 14137.35639155332
4446 14170.45097060217
4447 14189.67625353513
4448 14217.40094713786
4449 14233.91665314406
4450 14258.22651964145
4451 14272.56268655917
4452 14295.02628929142
4453 14308.99379973883
4454 14323.82980124842
4455 14338.89615559788
4456 14355.71576738871
4457 14372.75477013699
4458 14391.42134257115
4459 14410.75543361055
4460 14431.78086009476
4461 14452.9751521071
4462 14475.87223336564
4463 14499.01850604017
4464 14522.53250229692
4465 14545.80853368493
4466 14579.96188074117
4467 14600.39506161654
4468 14629.05711622926
4469 14645.66615665068
4470 14667.53952785959
4471 14679.17945455154
4472 14694.12258821769
4473 14701.19131340817
4474 14709.03571601551
4475 14711.92621103113
4476 14711.98290240628
4477 14709.03863001972
4478 14703.20826849152
4479 14697.29531978662
4480 14686.79656633454
4481 14678.22198661887
4482 14664.61950076924
4483 14654.34587095688
4484 14643.8386180728
4485 14632.59039084853
4486 14621.09995767459
4487 14608.72638398358
4488 14596.99149100521
4489 14584.88695182143
4490 14573.05992056915
4491 14561.28107823202
4492 14550.27351451762
4493 14539.12396700401
4494 14529.10758044635
4495 14519.23204989609
4496 14510.49347100726
4497 14502.11088224638
4498 14494.99017089597
4499 14488.16363192087
4500 14482.7031179847
4501 14477.81950835329
4502 14474.04167698982
4503 14470.74219548404
4504 14468.76380282537
4505 14466.81311942864
4506 14466.11715669035
4507 14465.41422364469
4508 14465.82325534484
4509 14465.96482647245
4510 14467.0964408325
4511 14467.92714935052
4512 14469.45527620687
4513 14470.67108091703
4514 14472.31772847528
4515 14473.39228820222
4516 14474.90613644629
4517 14475.79036468186
4518 14477.08256581266
4519 14477.58826941435
4520 14478.42356420214
4521 14478.35526732626
4522 14478.88562215135
4523 14478.50460020723
4524 14478.56792696238
4525 14477.67265204994
4526 14477.30328047668
4527 14476.16005441335
4528 14475.27858452009
4529 14473.66541514067
4530 14472.67745341541
4531 14470.97941286381
4532 14469.8712897509
4533 14467.85467254082
4534 14466.45691112445
4535 14464.37498190354
4536 14462.91153594873
4537 14460.70663173065
4538 14459.38843784435
4539 14457.31589529639
4540 14455.94470833479
4541 14453.94183612001
4542 14452.60262167886
4543 14450.77239105948
4544 14449.48540474862
4545 14447.74303950564
4546 14446.71904074713
4547 14445.15062329124
4548 14444.19016488763
4549 14442.56941404747
4550 14441.67577539262
4551 14440.21611256955
4552 14439.33427644276
4553 14437.94957963484
4554 14437.42465533357
4555 14436.0692540808
4556 14435.31819875854
4557 14434.35755777961
4558 14433.90828801601
4559 14432.97570574903
4560 14432.53957868136
4561 14431.6367294139
4562 14431.37840374956
4563 14430.49149990045
4564 14430.43022635351
4565 14429.68632377068
4566 14429.84224027596
4567 14429.28645595086
4568 14429.33907107544
4569 14429.01903580284
4570 14429.28809639481
4571 14429.08085825386
4572 14429.53068665057
4573 14429.51862215419
4574 14430.06774253566
4575 14429.8929013069
4576 14430.72307744046
4577 14430.80037553383
4578 14431.82766262308
4579 14432.01494292302
4580 14433.81565814094
4581 14434.51610784973
4582 14435.63279144254
4583 14436.48225100795
4584 14437.71138280334
4585 14438.16244655024
4586 14440.01510838452
4587 14440.51065957532
4588 14441.7865565184
4589 14443.14761057323
4590 14444.39528957675
4591 14445.51226191194
4592 14446.73380663233
4593 14447.1607820374
4594 14448.32310781637
4595 14448.13667498288
4596 14448.60290584834
4597 14447.95894966255
4598 14447.99010566488
4599 14446.55217533622
4600 14445.81817499808
4601 14443.38856488582
4602 14442.28725700173
4603 14438.91297871098
4604 14437.03534230591
4605 14432.91637123649
4606 14430.50858429449
4607 14425.20887563851
4608 14421.76020042979
4609 14415.1860892931
4610 14411.22406188211
4611 14403.84443421636
4612 14399.09995647771
4613 14390.41916311064
4614 14382.13873129987
4615 14375.54642883595
4616 14366.23379053334
4617 14359.06023598757
4618 14348.65924198486
4619 14337.20319624556
4620 14326.35034918061
4621 14318.15247341457
4622 14306.46797996162
4623 14293.88461639159
4624 14281.94288852398
4625 14269.01509649273
4626 14257.05128880503
4627 14244.25224284546
4628 14232.43613780583
4629 14219.93317591878
4630 14208.1167623854
4631 14195.52682623894
4632 14183.98740807537
4633 14171.46135984591
4634 14159.9466312592
4635 14147.62421313308
4636 14136.33561544411
4637 14124.31389197797
4638 14113.13025136364
4639 14101.11384634831
4640 14090.3196595093
4641 14078.66387132349
4642 14067.97584111919
4643 14056.31369634797
4644 14045.92331636151
4645 14034.61445599643
4646 14024.16444272494
4647 14012.92128643
4648 14002.7397043511
4649 13991.70993068718
4650 13981.90802110372
4651 13971.09319331978
4652 13961.43630213555
4653 13950.98520372027
4654 13941.440083439
4655 13931.24015349262
4656 13921.97119658766
4657 13911.80616636534
4658 13902.66145339957
4659 13892.73896629488
4660 13883.82156486809
4661 13874.27913190134
4662 13868.43234252246
4663 13858.21270755331
4664 13848.928265535
4665 13842.11496147892
4666 13832.31147368093
4667 13825.20061396776
4668 13815.07538818851
4669 13807.57013344765
4670 13797.14894739487
4671 13789.54288543812
4672 13778.73279727052
4673 13770.73893934212
4674 13759.6666113479
4675 13751.80344825862
4676 13740.58621078344
4677 13732.55146839498
4678 13721.05177410953
4679 13712.86027867029
4680 13705.09676643764
4681 13692.47088894327
4682 13684.63289791351
4683 13675.66253907412
4684 13662.78878703364
4685 13653.58299384729
4686 13644.85093334199
4687 13630.3770371023
4688 13621.4104422529
4689 13606.71606982204
4690 13597.69349085131
4691 13582.78481248932
4692 13573.52062841546
4693 13558.53343568608
4694 13549.09024604627
4695 13534.0407194855
4696 13524.34145245289
4697 13509.00958019854
4698 13494.63359394606
4699 13479.61455299837
4700 13465.78147351032
4701 13455.81964065394
4702 13441.79223666469
4703 13427.40615482407
4704 13413.9145053616
4705 13400.28101606664
4706 13387.56266600081
4707 13374.43994855599
4708 13362.21228833646
4709 13349.84154110539
4710 13338.46174577951
4711 13326.77294604944
4712 13315.89016475935
4713 13304.74154849514
4714 13294.5420710315
4715 13284.28131256536
4716 13275.14499256932
4717 13265.6027770155
4718 13260.13580461968
4719 13250.91439932007
4720 13242.71971014297
4721 13236.9687794539
4722 13229.19474810896
4723 13221.22732789731
4724 13216.62262455111
4725 13209.03996861491
4726 13204.72210904693
4727 13197.35263415895
4728 13193.16094052432
4729 13186.06436921884
4730 13182.18993289966
4731 13177.41315253823
4732 13171.31568066271
4733 13166.88324761744
4734 13163.04691199446
4735 13158.6196822084
4736 13154.59581530406
4737 13149.9182219658
4738 13145.66476329098
4739 13140.80594873924
4740 13136.28925955462
4741 13131.2138227929
4742 13126.65195673318
4743 13121.4660712866
4744 13116.54924311317
4745 13111.1336469284
4746 13106.10058589042
4747 13100.34022217874
4748 13095.15159189553
4749 13089.18990971256
4750 13083.78194404174
4751 13077.59216184198
4752 13072.04546097594
4753 13065.71959924365
4754 13060.00761850817
4755 13053.44950489756
4756 13047.41746366951
4757 13040.6998586407
4758 13034.31827268329
4759 13027.29519658566
4760 13020.76291164828
4761 13013.62998137283
4762 13003.74578989715
4763 12996.84218965168
4764 12990.47413382098
4765 12980.37659301616
4766 12974.31160461663
4767 12964.63179602572
4768 12958.96346078631
4769 12949.87181635218
4770 12944.59880985283
4771 12936.23643951646
4772 12931.57618567699
4773 12923.97386743992
4774 12919.80544805571
4775 12912.93823577298
4776 12909.20544764023
4777 12903.21847213886
4778 12900.0658830341
4779 12894.8861094475
4780 12892.26304826616
4781 12889.21453606535
4782 12885.85397298393
4783 12883.36959903924
4784 12880.87647122443
4785 12879.03228303133
4786 12877.94981113753
4787 12876.07326845586
4788 12875.50073774749
4789 12874.5215909651
4790 12874.36973854699
4791 12873.58059500663
4792 12873.81003854721
4793 12873.52403380812
4794 12873.98812067137
4795 12873.94303331761
4796 12874.3821976806
4797 12874.66978292869
4798 12875.50595518962
4799 12875.62273127876
4800 12876.31031748854
4801 12876.77752250813
4802 12877.58348683013
4803 12877.68064744649
4804 12878.32122813097
4805 12878.45163473758
4806 12878.99016307753
4807 12878.63601112484
4808 12878.76028062128
4809 12878.06044561152
4810 12877.6155657779
4811 12876.60604573524
4812 12875.8110078986
4813 12874.225333512
4814 12872.9861531259
4815 12870.85339703537
4816 12868.98819635815
4817 12866.31631072514
4818 12864.02053908087
4819 12860.97359064328
4820 12858.20660272564
4821 12854.69633393183
4822 12851.50958338777
4823 12847.52257219086
4824 12844.08555625249
4825 12839.95779561106
4826 12836.23935782495
4827 12831.79266150369
4828 12826.14366249628
4829 12821.96591707141
4830 12818.46405479599
4831 12812.5887422652
4832 12809.33000772819
4833 12805.61289386231
4834 12800.98438035237
4835 12797.61515154048
4836 12793.70705861026
4837 12790.93610727531
4838 12787.91701975951
4839 12785.74386035774
4840 12784.42861187983
4841 12782.22967492222
4842 12781.63059663038
4843 12780.34190326933
4844 12780.42924965088
4845 12780.10324795572
4846 12780.86534993783
4847 12781.25047843263
4848 12782.46085398341
4849 12784.03993184558
4850 12785.84526710374
4851 12787.27905536881
4852 12789.49708003398
4853 12792.57133396395
4854 12795.21457467624
4855 12797.53362921088
4856 12801.81458060886
4857 12804.29863532013
4858 12807.31744217199
4859 12811.26693078838
4860 12814.41782752037
4861 12818.34993702894
4862 12821.32872390383
4863 12824.98878773171
4864 12827.82111165339
4865 12831.22258538992
4866 12833.7656358408
4867 12836.58152586814
4868 12838.69490775102
4869 12840.88189983277
4870 12842.52474813994
4871 12843.92648065339
4872 12845.01875738448
4873 12845.63124886089
4874 12846.15340628403
4875 12845.97893870555
4876 12845.99865819178
4877 12845.19721192134
4878 12844.16003284377
4879 12842.79884494018
4880 12841.65806078906
4881 12839.7517485984
4882 12838.17065008932
4883 12835.74194581352
4884 12833.75524305042
4885 12831.04694465715
4886 12828.60325436772
4887 12825.54853469654
4888 12821.5580936369
4889 12818.40014705891
4890 12815.6611581855
4891 12810.94499711332
4892 12808.26646336666
4893 12805.09153715504
4894 12801.0748661073
4895 12798.09127430358
4896 12794.45552416058
4897 12791.77349616289
4898 12788.78711941106
4899 12786.46690695356
4900 12784.08813054916
4901 12782.36774274881
4902 12780.81086070139
4903 12779.59716410623
4904 12778.98290670603
4905 12778.36535061948
4906 12778.61462201575
4907 12778.72589722954
4908 12779.54076267584
4909 12779.96634699867
4910 12781.8941602374
4911 12782.93312767051
4912 12784.73618964219
4913 12786.3002125704
4914 12788.53881410592
4915 12791.34397866095
4916 12793.94224759869
4917 12796.08188902184
4918 12800.24089751235
4919 12802.60683686037
4920 12806.94429341296
4921 12809.32571378621
4922 12813.53193837364
4923 12815.79927593955
4924 12819.72460786149
4925 12821.83699449253
4926 12825.37021393421
4927 12828.08351981966
4928 12830.09440382461
4929 12832.04678764071
4930 12833.58284011139
4931 12834.74136800069
4932 12835.56579857483
4933 12835.80407646418
4934 12836.05371662545
4935 12835.37647447689
4936 12835.05884553243
4937 12833.46641042708
4938 12832.52136716158
4939 12830.81163551445
4940 12828.4136273448
4941 12826.07794962239
4942 12824.05220070335
4943 12821.27339762115
4944 12818.74988098566
4945 12815.5254448006
4946 12812.52725455778
4947 12808.87750744493
4948 12804.11349341463
4949 12800.48040456276
4950 12797.26330382533
4951 12791.7881527923
4952 12788.75103144088
4953 12783.57414551367
4954 12780.83647968275
4955 12776.25506990968
4956 12773.89074557126
4957 12769.94215466124
4958 12768.07720442375
4959 12764.99127471535
4960 12763.68896584215
4961 12761.47358539325
4962 12760.80485235137
4963 12759.58517242586
4964 12759.6789581408
4965 12759.43342265522
4966 12760.28510015127
4967 12760.71681935218
4968 12762.00978171594
4969 12763.74953800285
4970 12765.66604030446
4971 12767.29587285583
4972 12769.62566988383
4973 12771.76481509112
4974 12775.94589055674
4975 12778.37482971602
4976 12781.35344588445
4977 12785.36315196681
4978 12788.65335858603
4979 12792.79567812073
4980 12796.07594670637
4981 12800.09853568889
4982 12803.15334060899
4983 12806.97059853252
4984 12810.98636677717
4985 12812.9207832718
4986 12816.18316880391
4987 12817.65692128368
4988 12820.11625273411
4989 12821.55454019029
4990 12822.61081313938
4991 12822.88216098276
4992 12823.15598615412
4993 12822.41320159118
4994 12821.98860364997
4995 12820.1274063556
4996 12818.88595132941
4997 12816.09896553318
4998 12814.34332251672
4999 12811.66813626362
5000 12807.85136897612
5001 12804.63051263079
5002 12801.55540965772
5003 12797.8335091702
5004 12794.26729677234
5005 12790.10090079062
5006 12784.33766326229
5007 12780.03309621352
5008 12774.13979814396
5009 12769.93803028865
5010 12764.32714666803
5011 12760.36329652792
5012 12755.13288669581
5013 12751.52839618052
5014 12746.9498983652
5015 12742.42113045955
5016 12740.0765015748
5017 12736.51905769436
5018 12734.82012056263
5019 12732.28377966504
5020 12730.7905391498
5021 12729.80212386397
5022 12729.41457199837
5023 12729.20245851583
5024 12729.99657979874
5025 12730.56411137765
5026 12732.48475568181
5027 12733.85396696424
5028 12735.8562200507
5029 12738.63640232945
5030 12741.24301134934
5031 12743.55822956422
5032 12747.98049589254
5033 12750.64994227853
5034 12753.97494140563
5035 12758.41150786779
5036 12761.88827725063
5037 12766.28049161874
5038 12769.78416036737
5039 12774.05432990906
5040 12777.40048909821
5041 12781.28272384731
5042 12785.42072709325
5043 12787.42574513414
5044 12790.77956064782
5045 12793.09884089229
5046 12794.90705131067
5047 12796.31126983162
5048 12797.65747930893
5049 12797.70375237913
5050 12798.0059145122
5051 12797.24896704522
5052 12796.26644505865
5053 12794.78413528138
5054 12792.47010559447
5055 12790.05268023554
5056 12786.53135725858
5057 12783.54084871523
5058 12780.51158968273
5059 12774.88962209265
5060 12771.28455195419
5061 12766.99099261539
5062 12762.68185674387
5063 12755.60699857445
5064 12751.19734355615
5065 12746.26768806872
5066 12739.3815893123
5067 12734.21164314968
5068 12727.21800491268
5069 12722.44919381001
5070 12715.8895795244
5071 12709.39697579375
5072 12703.88682768778
5073 12700.18644056865
5074 12695.58922815204
5075 12691.23535268223
5076 12687.81615737015
5077 12685.67888064977
5078 12683.45543279428
5079 12681.62475590562
5080 12681.1451865808
5081 12680.5618964897
5082 12680.87891139225
5083 12681.09643637955
5084 12682.63673696576
5085 12683.74221935427
5086 12686.36762673546
5087 12688.00586543201
5088 12691.53538720558
5089 12693.91281330842
5090 12698.23040090514
5091 12701.17692377201
5092 12704.75906254897
5093 12709.43914010573
5094 12713.09307537169
5095 12718.18974482327
5096 12721.97769078333
5097 12726.94962067969
5098 12730.59560157083
5099 12735.28277589567
5100 12740.20778558845
5101 12742.86552956661
5102 12747.22740516131
5103 12750.55079881108
5104 12753.80573759206
5105 12756.2765597498
5106 12758.68741909493
5107 12759.96785578644
5108 12760.74071556954
5109 12760.68821434426
5110 12760.3618279463
5111 12758.92916002908
5112 12757.96158241491
5113 12755.21472620902
5114 12753.44537136285
5115 12749.45674317377
5116 12746.73654360241
5117 12741.52999096222
5118 12738.16436064138
5119 12732.09159040736
5120 12728.27081936352
5121 12723.53971066137
5122 12716.44532170076
5123 12711.13320801012
5124 12704.14234261424
5125 12699.00240782848
5126 12691.68235356858
5127 12686.64617484933
5128 12679.77365706181
5129 12674.97252439178
5130 12668.67753787245
5131 12662.12234219635
5132 12656.59036014277
5133 12652.68339825765
5134 12647.94907797247
5135 12643.35012660859
5136 12639.77890538769
5137 12636.47105204446
5138 12635.19589359544
5139 12633.09714861874
5140 12632.08344376796
5141 12631.13076944853
5142 12631.46043847718
5143 12631.90306434651
5144 12632.94346922245
5145 12634.66338854805
5146 12636.68662964467
5147 12639.26891989109
5148 12642.13668745195
5149 12645.96832072062
5150 12649.25385547051
5151 12653.50443139857
5152 12657.13448617378
5153 12660.37780121288
5154 12666.45865904797
5155 12669.85599841097
5156 12675.99193784432
5157 12679.64466539679
5158 12685.78887139084
5159 12689.25784187055
5160 12695.08692703887
5161 12699.91277749052
5162 12703.40953401256
5163 12707.62783783967
5164 12712.03510912695
5165 12715.27778646587
5166 12718.4742566498
5167 12720.64342104963
5168 12722.62837129133
5169 12723.34445431603
5170 12723.88129538961
5171 12723.02707798047
5172 12722.10581419485
5173 12720.3160099467
5174 12717.82912866907
5175 12714.40591481934
5176 12712.06563748453
5177 12707.52802463579
5178 12704.39132544668
5179 12698.57663320835
5180 12694.62996984616
5181 12687.87735972252
5182 12683.54540263278
5183 12675.84956551595
5184 12671.2127350858
5185 12663.19160340412
5186 12658.36159493734
5187 12650.03721623874
5188 12645.30285120282
5189 12637.63517183974
5190 12630.72303916877
5191 12623.55048790761
5192 12619.49636121578
5193 12613.40130165787
5194 12608.1749719425
5195 12603.10439831602
5196 12600.50581616117
5197 12596.84397838496
5198 12593.93219063296
5199 12591.23550216445
5200 12590.36263366728
5201 12589.20779266912
5202 12588.9997058789
5203 12588.83141159729
5204 12590.05033770337
5205 12590.93050734328
5206 12593.52517814922
5207 12595.20714887713
5208 12598.74353680924
5209 12601.36311046682
5210 12606.12463354353
5211 12609.14075217077
5212 12614.75407468441
5213 12618.31705050578
5214 12622.5931729614
5215 12628.95774146443
5216 12633.4670154601
5217 12639.91881136366
5218 12644.68756238664
5219 12651.1646580558
5220 12655.81639135765
5221 12661.98163632277
5222 12666.45243176552
5223 12672.29339393311
5224 12678.36119174697
5225 12683.16146803366
5226 12686.64128960013
5227 12690.72958816663
5228 12694.69784300536
5229 12697.62554811591
5230 12699.93743782393
5231 12701.1603176187
5232 12702.05062394501
5233 12701.68702319897
5234 12700.90723431153
5235 12698.91897526961
5236 12696.7471954435
5237 12694.19579282612
5238 12689.99905417573
5239 12684.80977343221
5240 12681.38512074034
5241 12675.04361663145
5242 12670.90900059274
5243 12663.3269799373
5244 12658.4798014217
5245 12650.44598901585
5246 12645.25159327422
5247 12636.32182919177
5248 12630.77500218154
5249 12621.76164259656
5250 12613.97546815832
5251 12605.74449469396
5252 12598.20950293408
5253 12593.08370541643
5254 12586.36766122741
5255 12579.57354713146
5256 12574.1401767919
5257 12568.93242742358
5258 12564.80330075453
5259 12560.89378661893
5260 12558.22601885064
5261 12556.44922750687
5262 12555.29221924707
5263 12554.45142304182
5264 12554.74895270873
5265 12555.05229124323
5266 12556.64936927841
5267 12558.38958606354
5268 12560.53459280892
5269 12563.50352579739
5270 12566.4562758225
5271 12570.86401196778
5272 12574.6718062494
5273 12579.9806669778
5274 12584.27303766578
5275 12590.6545522766
5276 12595.60468526795
5277 12602.68099971666
5278 12607.8026855303
5279 12615.1263047452
5280 12620.73678696439
5281 12628.39458174124
5282 12633.8721484272
5283 12641.1252146812
5284 12648.67354228318
5285 12654.79937155265
5286 12661.36975825539
5287 12664.92672338559
5288 12670.65639630081
5289 12674.94731274499
5290 12679.29855112632
5291 12682.28648714699
5292 12684.91420265879
5293 12686.05916071208
5294 12687.09106550016
5295 12686.87358329756
5296 12686.25951201339
5297 12684.14099854208
5298 12681.83922571068
5299 12677.90134668789
5300 12673.88193310898
5301 12669.89610253489
5302 12664.42228473644
5303 12657.76100927792
5304 12653.18706638298
5305 12645.31569222511
5306 12637.9166587352
5307 12632.05076483697
5308 12623.92298495066
5309 12615.12120248734
5310 12609.7443016434
5311 12600.85495287996
5312 12592.89546540094
5313 12584.34782542962
5314 12577.19955977125
5315 12569.83721021165
5316 12563.5249101638
5317 12557.33492855384
5318 12552.06500698545
5319 12546.67810234611
5320 12542.66918384065
5321 12538.65683934557
5322 12536.15976547857
5323 12534.15630168271
5324 12533.45214801071
5325 12532.5829072583
5326 12533.16786954317
5327 12533.94944243088
5328 12535.76357289038
5329 12536.98840223263
5330 12540.32894683113
5331 12543.68317927901
5332 12546.78605620119
5333 12551.46900783761
5334 12555.21945364963
5335 12560.70951483201
5336 12565.04498922785
5337 12571.50226427346
5338 12576.08804975609
5339 12582.92544518117
5340 12588.01122347868
5341 12595.11025578939
5342 12602.77459960337
5343 12607.5464897909
5344 12615.38809564663
5345 12622.50989258404
5346 12629.43029457798
5347 12635.65779197975
5348 12641.85892924759
5349 12647.15851388039
5350 12652.61027156459
5351 12656.68686037625
5352 12660.64412090714
5353 12663.16019552375
5354 12665.50941026396
5355 12666.36594412555
5356 12666.56646161394
5357 12665.61224154844
5358 12664.51923598192
5359 12661.96560384301
5360 12659.28188790175
5361 12655.16862181733
5362 12650.91677435405
5363 12647.2256616114
5364 12641.20774558061
5365 12634.54268052745
5366 12627.21204134351
5367 12621.85493773183
5368 12614.03144356733
5369 12605.24983958553
5370 12599.91384192534
5371 12590.87098020823
5372 12582.45152739331
5373 12573.81880737134
5374 12565.74698188589
5375 12557.69486029079
5376 12550.4882009938
5377 12543.02775932558
5378 12536.88317213214
5379 12530.72293935877
5380 12525.76763627837
5381 12521.24070965948
5382 12517.64181941844
5383 12514.24670894854
5384 12512.31792839882
5385 12510.47487210685
5386 12510.1136818844
5387 12510.32615603365
5388 12511.67924608578
5389 12513.16290101056
5390 12515.00574818833
5391 12517.92583351467
5392 12522.03623701877
5393 12524.80724383175
5394 12529.9243425643
5395 12533.41974514266
5396 12539.80076790311
5397 12544.09134813648
5398 12551.25630092825
5399 12555.99638900526
5400 12563.81133090866
5401 12568.76872532536
5402 12576.80833951945
5403 12584.32383593015
5404 12592.39249609937
5405 12599.72624300656
5406 12607.1332876624
5407 12613.58938852196
5408 12620.29799226174
5409 12626.03518800168
5410 12631.40690439705
5411 12635.51146078057
5412 12639.57752519264
5413 12642.3984947728
5414 12645.1147425977
5415 12646.25520946005
5416 12647.34046510926
5417 12647.03147033454
5418 12646.51024264946
5419 12644.51518410293
5420 12642.1616027384
5421 12638.80251383742
5422 12636.33905670623
5423 12631.33091776611
5424 12626.11263293826
5425 12621.73306544798
5426 12615.17903226866
5427 12607.8380884848
5428 12602.93643321034
5429 12594.3131770606
5430 12585.92311788786
5431 12577.3381543747
5432 12569.05258887972
5433 12560.42935170475
5434 12552.34267962852
5435 12544.23997979834
5436 12536.56178184947
5437 12529.03876865419
5438 12522.2995576916
5439 12515.93326645072
5440 12510.52324692878
5441 12505.36535315696
5442 12501.5122219048
5443 12497.58282006766
5444 12495.2146601804
5445 12493.21154874073
5446 12492.33061973618
5447 12491.80157626356
5448 12492.63373843547
5449 12494.12931377036
5450 12495.72781983857
5451 12498.43936266602
5452 12502.28431243571
5453 12504.85101094314
5454 12510.03760105521
5455 12515.20820070516
5456 12519.52299816543
5457 12525.52240850297
5458 12530.35996886161
5459 12537.41576274696
5460 12545.110810232
5461 12549.80864335441
5462 12557.40449686488
5463 12564.79885191681
5464 12572.23769082174
5465 12579.24730074729
5466 12586.32069202512
5467 12592.56808968127
5468 12598.47561816485
5469 12603.68838380516
5470 12608.77372368125
5471 12612.61295177483
5472 12616.14493424419
5473 12618.85572900378
5474 12621.07613188806
5475 12622.15329010168
5476 12623.17727330285
5477 12622.75282733991
5478 12622.14341669765
5479 12620.42890152592
5480 12618.91939164193
5481 12615.70768475453
5482 12612.1704762389
5483 12609.01795611322
5484 12604.25239076988
5485 12600.20650115618
5486 12594.12524080185
5487 12589.6034619001
5488 12582.8479318376
5489 12575.19042982227
5490 12570.26686987957
5491 12562.63457812491
5492 12555.10714856583
5493 12547.47391214043
5494 12540.46156415887
5495 12532.94799308031
5496 12526.22545134765
5497 12519.21369047703
5498 12513.23066085604
5499 12507.09402720453
5500 12502.45673843061
5501 12497.76193354382
5502 12494.09441659437
5503 12490.53983222052
5504 12488.29130259898
5505 12486.98919315177
5506 12486.20261090774
5507 12485.89916463116
5508 12486.67007538727
5509 12487.89394145571
5510 12490.24770175461
5511 12491.82865789336
5512 12495.33787562079
5513 12497.8882989447
5514 12502.74099189816
5515 12505.77285409374
5516 12511.69762103381
5517 12515.51162426378
5518 12522.14727735413
5519 12528.40071343075
5520 12533.14125377664
5521 12539.74070158127
5522 12546.67134924393
5523 12553.09865967103
5524 12559.66619183766
5525 12565.5061904925
5526 12571.63519440923
5527 12576.92354398465
5528 12582.35097077768
5529 12586.67059164709
5530 12590.89998523567
5531 12594.06594729755
5532 12596.874426951
5533 12598.60703390241
5534 12600.06187820018
5535 12600.11618087136
5536 12600.00378323523
5537 12598.81246359401
5538 12597.94634314496
5539 12595.54516223626
5540 12592.8947649009
5541 12590.5651102624
5542 12586.62176806823
5543 12583.5136484812
5544 12578.80885184744
5545 12574.96245230423
5546 12569.19748538228
5547 12564.80549178116
5548 12558.7330662516
5549 12553.83893008792
5550 12547.10850460756
5551 12542.49982196367
5552 12535.83954723636
5553 12528.65781096211
5554 12522.25484956683
5555 12515.66707663091
5556 12509.7733777585
5557 12504.00152763876
5558 12498.94065113752
5559 12493.90131297519
5560 12491.19751196985
5561 12487.17305188948
5562 12483.98963826096
5563 12481.12130190854
5564 12480.15726062926
5565 12478.78232700731
5566 12478.67080770642
5567 12478.55605175663
5568 12479.23513442176
5569 12480.41786468464
5570 12482.06707522114
5571 12484.52899665778
5572 12486.90683714064
5573 12490.61799225979
5574 12493.87482744013
5575 12498.39162153664
5576 12502.04386467758
5577 12507.38669389024
5578 12511.52778243044
5579 12517.24913307962
5580 12521.44850732469
5581 12527.28992790178
5582 12533.55049183971
5583 12538.97023828626
5584 12544.7678888573
5585 12549.65206766546
5586 12554.67427006024
5587 12559.0910419741
5588 12563.12336544295
5589 12566.37034327781
5590 12569.37207801148
5591 12570.69844687508
5592 12572.58886145908
5593 12573.16103840377
5594 12573.7656266084
5595 12573.37106487095
5596 12572.60692211884
5597 12571.31393496345
5598 12569.47548802928
5599 12567.47153723939
5600 12564.46940046997
5601 12561.6723865386
5602 12557.58967517488
5603 12554.20168654224
5604 12549.4127811083
5605 12545.47615522752
5606 12540.01374046962
5607 12535.80389103745
5608 12530.02746452636
5609 12525.72127261913
5610 12519.95773305456
5611 12515.79389097819
5612 12509.97214060817
5613 12503.67800318523
5614 12497.98035712798
5615 12492.21229956396
5616 12487.22004605281
5617 12484.0374019845
5618 12479.75584087456
5619 12476.01561197856
5620 12474.13507834916
5621 12471.41470796159
5622 12469.66029722029
5623 12468.51471903174
5624 12467.86097989874
5625 12467.39837860778
5626 12467.85639940372
5627 12468.26805301756
5628 12470.07346550557
5629 12471.35071745516
5630 12473.35165248155
5631 12476.26464303481
5632 12478.83645773627
5633 12482.5870996726
5634 12485.64925630056
5635 12489.85715998291
5636 12493.42999407206
5637 12498.2434948902
5638 12502.0644721907
5639 12507.14733359402
5640 12510.821345552
5641 12515.72366307054
5642 12521.08844332046
5643 12525.8346826047
5644 12530.57982700572
5645 12534.66786510338
5646 12538.72420800504
5647 12541.91876959633
5648 12544.20756054051
5649 12546.49196511438
5650 12548.68447445336
5651 12549.95633163964
5652 12550.78729766459
5653 12550.87809705686
5654 12551.04942000993
5655 12550.37885259377
5656 12549.26102285895
5657 12547.81713410884
5658 12545.53606303082
5659 12543.3188323188
5660 12540.20763854032
5661 12537.51327581693
5662 12533.32824683377
5663 12530.06872197574
5664 12526.74794982973
5665 12521.57232666135
5666 12518.3076521507
5667 12512.77086430755
5668 12509.2834064513
5669 12503.38444751323
5670 12499.98892003382
5671 12494.122738443
5672 12489.07205262583
5673 12485.52181180387
5674 12480.77777832367
5675 12476.03970161862
5676 12472.12199954232
5677 12469.41666252519
5678 12466.25663453486
5679 12463.39998986435
5680 12462.16937257126
5681 12460.20398879031
5682 12459.70031755871
5683 12458.83981486408
5684 12459.18317973423
5685 12459.31773828487
5686 12460.26899018846
5687 12461.65801763764
5688 12463.40889928546
5689 12465.01249161156
5690 12468.19619330834
5691 12470.24805089814
5692 12473.00693852992
5693 12477.22540659334
5694 12480.45897451042
5695 12484.93462449475
5696 12488.41636846979
5697 12493.16624965209
5698 12496.77530446495
5699 12501.62725741721
5700 12506.97221306112
5701 12509.91425841856
5702 12514.82638280219
5703 12518.8586674216
5704 12523.0061992753
5705 12526.11531727865
5706 12529.28382122125
5707 12531.5940875512
5708 12533.14611701363
5709 12534.29198692053
5710 12535.31467342555
5711 12535.28778731458
5712 12535.32605403056
5713 12534.11057516898
5714 12533.29485975503
5715 12531.0389372197
5716 12529.50196455839
5717 12526.18847602602
5718 12524.09301048881
5719 12519.8341159393
5720 12517.05942256142
5721 12512.0177700402
5722 12508.97019441226
5723 12503.46311537061
5724 12500.2256435166
5725 12494.43109976289
5726 12490.84912052609
5727 12484.79919115148
5728 12481.38515314705
5729 12475.54548902372
5730 12470.42169128861
5731 12464.98543131601
5732 12460.41161997777
5733 12457.36725792048
5734 12453.55764165092
5735 12449.55781960753
5736 12446.5434682352
5737 12444.60303379762
5738 12442.74060589456
5739 12441.12742677197
5740 12440.80941245096
5741 12440.29393524023
5742 12440.74107689554
5743 12441.4449854992
5744 12442.64374793771
5745 12444.30246840917
5746 12446.10928369656
5747 12449.10719474088
5748 12451.71749832778
5749 12454.13810494667
5750 12458.69226965929
5751 12461.5359127494
5752 12466.54703872909
5753 12469.71400504111
5754 12475.03156674404
5755 12478.39866329032
5756 12483.80018163617
5757 12488.56550440482
5758 12493.83717812496
5759 12498.33665997993
5760 12503.0562594668
5761 12507.22249687372
5762 12511.41085088461
5763 12514.57448259989
5764 12517.55643043663
5765 12519.75431218197
5766 12521.76694551248
5767 12522.60211711554
5768 12523.3204975834
5769 12523.04939511519
5770 12522.47408333527
5771 12520.98038697031
5772 12519.96786959166
5773 12517.27559261742
5774 12515.55084946539
5775 12511.9702655635
5776 12509.48993874737
5777 12504.82408905217
5778 12501.81739259334
5779 12496.34189030309
5780 12492.9548831011
5781 12487.07931124299
5782 12483.32881464625
5783 12477.04874675014
5784 12473.13137881823
5785 12466.79393979894
5786 12460.8230235206
5787 12454.62616513979
5788 12449.34256713382
5789 12443.90142642643
5790 12439.15601601507
5791 12434.41486458913
5792 12430.63567763975
5793 12426.90585575105
5794 12424.15162608419
5795 12421.60989732614
5796 12420.61342162665
5797 12419.18269867274
5798 12418.79066418154
5799 12418.64768679868
5800 12419.47614633089
5801 12420.63836253496
5802 12422.0711362151
5803 12424.25506313312
5804 12426.4422505544
5805 12429.6632533879
5806 12432.52821543466
5807 12436.71978508607
5808 12440.07453378939
5809 12444.83183275826
5810 12448.8027003034
5811 12454.35524028959
5812 12458.49071602236
5813 12464.28522535721
5814 12470.2948139428
5815 12475.88260694303
5816 12481.4872250849
5817 12486.54140427483
5818 12491.77833873485
5819 12496.22821982499
5820 12500.64802117727
5821 12503.88174145342
5822 12507.36234457216
5823 12509.66171377124
5824 12511.89231696116
5825 12512.84572291354
5826 12513.74248788775
5827 12513.4977092702
5828 12513.11097774113
5829 12511.52789370458
5830 12510.53192290414
5831 12507.63761194432
5832 12504.60051595462
5833 12501.93957107873
5834 12497.88361940542
5835 12494.43365919368
5836 12489.30749127176
5837 12485.04260436446
5838 12479.33262990214
5839 12474.64790017616
5840 12468.26450265761
5841 12461.36365503155
5842 12454.67539650368
5843 12447.6488766051
5844 12441.31416552091
5845 12434.73907438484
5846 12428.64887906472
5847 12422.53561067826
5848 12417.25412471422
5849 12411.94918316156
5850 12407.24269683482
5851 12402.73970208083
5852 12399.20439972174
5853 12395.80984314924
5854 12393.71502145113
5855 12391.64818584218
5856 12390.82700276632
5857 12390.18289432546
5858 12390.63843670523
5859 12391.11305744244
5860 12393.06206223945
5861 12395.00964745782
5862 12397.25669194682
5863 12400.62769390609
5864 12403.5654884041
5865 12407.72512474897
5866 12412.87138603427
5867 12416.17090953615
5868 12422.04271136596
5869 12427.70535322007
5870 12432.13244633559
5871 12438.12118943398
5872 12444.81049636474
5873 12450.83177450792
5874 12457.29883644778
5875 12463.20974176389
5876 12469.03521693596
5877 12474.142195224
5878 12479.05034431453
5879 12483.08177365275
5880 12487.18427364019
5881 12490.08736857716
5882 12492.92722810867
5883 12494.54116991946
5884 12496.0231973785
5885 12496.22648704908
5886 12496.20670587431
5887 12495.00942697501
5888 12493.46242603245
5889 12490.78175054973
5890 12487.78209198492
5891 12483.97799747565
5892 12479.91359004489
5893 12476.3413041525
5894 12470.69700629173
5895 12464.20076249387
5896 12460.04428696255
5897 12452.73261556075
5898 12445.47404914773
5899 12437.90704332382
5900 12430.54605866883
5901 12422.55638014602
5902 12415.34532285461
5903 12407.45440746817
5904 12400.46679375745
5905 12393.22034732972
5906 12387.06744035424
5907 12380.73399512607
5908 12375.19833401732
5909 12369.82625780834
5910 12365.66053418205
5911 12361.55349370001
5912 12358.8089468823
5913 12356.17302804371
5914 12354.98443237454
5915 12354.07648177387
5916 12354.35498657801
5917 12354.82788909913
5918 12356.63564113433
5919 12358.77112158864
5920 12361.04289905089
5921 12364.60496654797
5922 12369.21908843499
5923 12373.9431125474
5924 12377.83511135936
5925 12383.53090496558
5926 12390.19543965493
5927 12396.64406375609
5928 12403.84041400353
5929 12410.53608272968
5930 12418.00650589261
5931 12424.90854264984
5932 12432.42629552424
5933 12438.98036962129
5934 12445.91866159341
5935 12451.84991750929
5936 12457.95894217883
5937 12462.95350492264
5938 12467.83920278367
5939 12471.70476559243
5940 12475.25385983087
5941 12477.69920171669
5942 12479.69991194245
5943 12480.47654447716
5944 12481.07251470522
5945 12480.36814593452
5946 12479.30426185412
5947 12476.90515913758
5948 12474.14415011374
5949 12470.13375298452
5950 12466.00078879188
5951 12460.57924086784
5952 12455.06288315425
5953 12450.62321533794
5954 12444.02841889945
5955 12436.41798578424
5956 12429.35696962497
5957 12421.19791437047
5958 12413.5565684222
5959 12405.49009099576
5960 12397.77941984874
5961 12389.7248631605
5962 12382.22674507881
5963 12374.56995691818
5964 12367.92521846242
5965 12361.10652695646
5966 12355.22658988889
5967 12349.4743123109
5968 12345.04449222396
5969 12340.78258127086
5970 12337.65600252964
5971 12334.76095984819
5972 12333.13951666782
5973 12331.95802227146
5974 12332.03427039765
5975 12332.51579557496
5976 12334.4147483741
5977 12336.62739623229
5978 12339.91822572563
5979 12342.38537709896
5980 12347.178875896
5981 12352.34051724177
5982 12358.89703620584
5983 12362.91376040249
5984 12369.89922503722
5985 12377.04209006963
5986 12384.74493563294
5987 12392.10516994526
5988 12400.09580993872
5989 12407.58611619222
5990 12415.38469517738
5991 12422.4574114811
5992 12429.70158028852
5993 12436.34130610667
5994 12442.87498728711
5995 12448.35769877255
5996 12453.82216433663
5997 12458.07746017293
5998 12462.10833146996
5999 12465.05182052578
6000 12467.4882479136
6001 12468.69484094954
6002 12469.3885173272
6003 12468.88149721918
6004 12467.99271592555
6005 12465.91217107801
6006 12463.36202115717
6007 12459.64635690741
6008 12455.68899309862
6009 12450.25575981951
6010 12444.89075521328
6011 12440.36331691529
6012 12433.56271646409
6013 12425.61433144355
6014 12417.89324595553
6015 12409.30539796436
6016 12401.46569135751
6017 12392.87164394883
6018 12384.74824772723
6019 12376.20178800064
6020 12368.47694288786
6021 12360.5891350637
6022 12353.59034707989
6023 12346.40153002585
6024 12340.03652111361
6025 12334.03437975489
6026 12329.08132565509
6027 12324.49439573262
6028 12321.08702294492
6029 12318.04607305443
6030 12316.26877695336
6031 12314.96282079346
6032 12314.98552439251
6033 12315.48001520169
6034 12317.28868800198
6035 12319.38597903244
6036 12322.69782694151
6037 12324.95841094297
6038 12330.01202418323
6039 12335.25053982751
6040 12341.50310362302
6041 12345.76904855428
6042 12353.38752615256
6043 12360.38483847485
6044 12368.55639107502
6045 12376.06850320488
6046 12384.06630964269
6047 12391.76281275709
6048 12399.81941720825
6049 12407.20361401775
6050 12414.88980185894
6051 12421.78652232215
6052 12428.9046771475
6053 12434.89973426173
6054 12440.79921109457
6055 12445.55795507612
6056 12449.77024196932
6057 12452.60728509095
6058 12455.24993321562
6059 12456.7658957423
6060 12457.97465103722
6061 12457.53918603113
6062 12456.86700813589
6063 12454.80431981249
6064 12452.2163221676
6065 12448.57065699292
6066 12444.46380785279
6067 12439.1604642151
6068 12433.77899260881
6069 12427.109863757
6070 12422.58590088242
6071 12414.7195324836
6072 12407.04161869045
6073 12398.58051220486
6074 12390.12003151005
6075 12381.0976466338
6076 12372.49614363267
6077 12363.48146433744
6078 12355.48653764395
6079 12346.83648598108
6080 12339.19134642001
6081 12331.62270887117
6082 12324.94456587324
6083 12318.25093586204
6084 12312.64302987855
6085 12307.58425941837
6086 12303.77828809346
6087 12300.26391015487
6088 12297.77405557785
6089 12295.84888988849
6090 12295.59792775531
6091 12295.65508061639
6092 12296.86910266072
6093 12298.57536605874
6094 12301.65444483136
6095 12305.05740539573
6096 12308.27842251004
6097 12313.5656954023
6098 12319.77823201356
6099 12326.13039908697
6100 12331.02209749799
6101 12338.41601124193
6102 12346.59292245097
6103 12354.73471740695
6104 12363.18267110551
6105 12371.17091596875
6106 12379.70259791433
6107 12387.48289659323
6108 12395.54037967333
6109 12402.7248644298
6110 12409.88404765991
6111 12416.01553682917
6112 12422.31629140524
6113 12427.20179751659
6114 12431.9402552338
6115 12435.37374328231
6116 12438.4171502426
6117 12440.24995923798
6118 12441.82668292869
6119 12441.86536489739
6120 12441.4455388895
6121 12439.85288189482
6122 12437.65176807324
6123 12434.32078975023
6124 12430.5943301481
6125 12425.60496431154
6126 12420.14111812045
6127 12413.7138749213
6128 12409.38815314098
6129 12401.56793764322
6130 12393.78063420451
6131 12385.22325305288
6132 12377.0463439805
6133 12368.21201293223
6134 12359.72237432421
6135 12350.8041690953
6136 12342.36742817279
6137 12333.61481357982
6138 12326.01106854449
6139 12318.05693854264
6140 12311.08465849493
6141 12304.34889244632
6142 12298.48932364218
6143 12293.01411034186
6144 12288.91645904502
6145 12285.07925790325
6146 12282.54027983616
6147 12280.5764859114
6148 12279.96395533131
6149 12279.72319847907
6150 12280.93175421435
6151 12282.60243163124
6152 12285.48813176324
6153 12288.74419133326
6154 12291.85777640612
6155 12296.66670962232
6156 12302.944498158
6157 12309.29246922387
6158 12314.23648680578
6159 12321.7595192299
6160 12330.0783782712
6161 12337.99157713827
6162 12346.73822487426
6163 12355.03899325943
6164 12363.51549761097
6165 12371.64273571032
6166 12379.8163390919
6167 12387.23508180068
6168 12394.80241455217
6169 12401.29184541628
6170 12407.66340687855
6171 12412.84730675101
6172 12418.01168102391
6173 12421.72091769729
6174 12425.16972798545
6175 12427.36558140506
6176 12428.95848102413
6177 12429.38113748713
6178 12429.21122820961
6179 12427.87349988536
6180 12425.99147720311
6181 12422.75737593428
6182 12419.30357098298
6183 12414.41110347063
6184 12409.42070918074
6185 12403.25063118297
6186 12399.06530318847
6187 12391.69061174692
6188 12384.3438943601
6189 12375.79920786214
6190 12367.73137910304
6191 12359.05315716658
6192 12350.80480458408
6193 12341.95949022024
6194 12333.62442658757
6195 12325.5063720604
6196 12318.01472356151
6197 12310.33110293232
6198 12303.53676034894
6199 12296.99610834058
6200 12291.39774322333
6201 12286.25075687444
6202 12282.23926919087
6203 12278.63666680176
6204 12276.27699070559
6205 12274.23201251487
6206 12273.71194765195
6207 12273.67983389656
6208 12274.93570857887
6209 12276.5173500611
6210 12279.54343031878
6211 12281.77116838633
6212 12286.61344885718
6213 12291.60301350243
6214 12297.86961461698
6215 12301.9704691522
6216 12309.41210567426
6217 12316.93903099194
6218 12325.1468371448
6219 12333.1277788628
6220 12342.01806223338
6221 12350.10831481883
6222 12358.53506067878
6223 12366.46958956773
6224 12375.01298785992
6225 12382.66496306246
6226 12390.50509641415
6227 12397.16486922269
6228 12403.7444487073
6229 12409.15564934796
6230 12414.3471815752
6231 12418.46671022376
6232 12422.22342125207
6233 12424.4873667407
6234 12426.46119064753
6235 12426.92876961439
6236 12427.10783382472
6237 12425.65685544666
6238 12424.12652306685
6239 12421.103238855
6240 12417.7227054846
6241 12413.09264360245
6242 12408.52062737254
6243 12404.47004153327
6244 12398.32018691612
6245 12391.02868240987
6246 12383.86818958607
6247 12375.69000762911
6248 12368.07884403908
6249 12359.76831239464
6250 12351.7347867827
6251 12343.26431883788
6252 12335.33490954176
6253 12326.80658519123
6254 12319.52453389017
6255 12312.11912656861
6256 12305.58019702866
6257 12299.02058810986
6258 12293.61763686088
6259 12288.2681345227
6260 12284.19752252844
6261 12280.66897968195
6262 12278.44433964082
6263 12276.48742266456
6264 12276.16976379798
6265 12276.04222468471
6266 12277.43180636089
6267 12279.21704419758
6268 12282.19327015449
6269 12285.63997536619
6270 12288.92476051293
6271 12294.00111088174
6272 12300.39443066345
6273 12306.63867469938
6274 12311.71136353495
6275 12319.12225333629
6276 12327.58863627514
6277 12335.62650769191
6278 12344.56466810708
6279 12352.92778553267
6280 12361.6232784448
6281 12369.8291171722
6282 12378.48479256054
6283 12386.15062547629
6284 12394.13533388019
6285 12401.13915346265
6286 12408.28582249863
6287 12413.79979697039
6288 12419.1287802552
6289 12423.31996720547
6290 12427.14396881552
6291 12429.70818540705
6292 12431.92640300941
6293 12432.69626502109
6294 12433.05326867977
6295 12432.07595116386
6296 12430.56332368759
6297 12427.71189237442
6298 12424.39622312825
6299 12419.98281892113
6300 12415.09399798785
6301 12409.00750393719
6302 12405.01687391121
6303 12397.82721518855
6304 12390.69220603614
6305 12382.59775671215
6306 12374.82252362329
6307 12366.14050602263
6308 12358.070234552
6309 12349.35232457271
6310 12341.38238338545
6311 12333.10474015427
6312 12325.6312293658
6313 12317.94744802864
6314 12311.30044439309
6315 12304.68586220201
6316 12299.06045173901
6317 12293.7853453306
6318 12289.78377686077
6319 12286.02915618277
6320 12283.77800702964
6321 12281.75252523558
6322 12281.38019671379
6323 12281.37766616373
6324 12282.65087362279
6325 12284.36840095155
6326 12287.70400526502
6327 12291.26560419365
6328 12296.38019332548
6329 12299.79335084458
6330 12306.45468959933
6331 12313.24614051228
6332 12320.92967437419
6333 12328.48677452969
6334 12336.8601595955
6335 12344.95820703099
6336 12354.08611486312
6337 12362.46983921348
6338 12371.4498674887
6339 12379.89160037656
6340 12388.73769142324
6341 12396.54299143411
6342 12404.66003864724
6343 12411.57967265118
6344 12418.58837542514
6345 12424.39907433339
6346 12429.90448839064
6347 12434.02344505968
6348 12437.96929691107
6349 12440.41721515134
6350 12442.4861746385
6351 12442.91670749473
6352 12443.25153479255
6353 12442.18532459822
6354 12440.56806726318
6355 12437.54221406642
6356 12434.28920450805
6357 12429.54674425033
6358 12424.68116304196
6359 12418.3688755437
6360 12412.32934113899
6361 12404.99307133453
6362 12397.84241960508
6363 12389.76146725713
6364 12382.04907312172
6365 12373.33251309318
6366 12365.21828272682
6367 12356.37236170438
6368 12348.3890420698
6369 12340.0605529088
6370 12332.63058810816
6371 12324.90335203318
6372 12318.41840722747
6373 12311.64877162686
6374 12306.19639981601
6375 12301.18814944697
6376 12297.34275377562
6377 12293.85277923645
6378 12291.83307692431
6379 12290.00361432998
6380 12289.74165294539
6381 12289.83494164462
6382 12291.2072094618
6383 12293.05276305055
6384 12296.66136650387
6385 12300.43944893467
6386 12305.50848696599
6387 12310.89857915443
6388 12315.32945803493
6389 12322.12690878175
6390 12329.83068731678
6391 12337.65307785953
6392 12346.16320620533
6393 12354.54461874698
6394 12363.72485739322
6395 12372.60743336723
6396 12382.04351320721
6397 12390.79710398624
6398 12399.87923759145
6399 12408.04603815824
6400 12416.23179244728
6401 12423.42410220839
6402 12430.40212638371
6403 12436.19203756132
6404 12441.90885334049
6405 12446.235419844
6406 12450.17994917477
6407 12452.73058023322
6408 12454.78767417299
6409 12455.4264532404
6410 12455.46130268899
6411 12454.12254951504
6412 12452.68016484889
6413 12449.57284193109
6414 12446.14448828081
6415 12441.28704949625
6416 12436.20009496518
6417 12430.05962259216
6418 12423.5467778117
6419 12416.18618740762
6420 12408.50709748857
6421 12400.03437776717
6422 12391.71382809667
6423 12382.97501864024
6424 12374.60994258784
6425 12365.78722923135
6426 12357.50693756175
6427 12348.83894643052
6428 12341.0842136448
6429 12333.24694501724
6430 12326.63092437715
6431 12319.89458483007
6432 12314.22391432779
6433 12308.98290668237
6434 12305.26439716594
6435 12301.5705358324
6436 12299.47662352477
6437 12297.71878481934
6438 12297.52549478598
6439 12297.74449542188
6440 12299.43014755471
6441 12301.38607383331
6442 12305.07146316578
6443 12308.91969243542
6444 12314.22317910118
6445 12319.94948309551
6446 12326.81066714825
6447 12331.4675377193
6448 12339.52932520385
6449 12347.46537635853
6450 12356.79504529949
6451 12365.49304256282
6452 12375.08237615459
6453 12384.23782747775
6454 12393.87023333743
6455 12402.78843045129
6456 12412.05173836484
6457 12420.61282192793
6458 12429.08262696964
6459 12436.3695011794
6460 12443.3866633847
6461 12449.09622185368
6462 12454.7054094149
6463 12459.02177760428
6464 12463.01735511607
6465 12465.49343736949
6466 12467.25736509997
6467 12467.66091057467
6468 12467.51392236095
6469 12466.03234011436
6470 12464.10689393453
6471 12460.61379592203
6472 12456.85746372748
6473 12451.83948885414
6474 12446.30126047656
6475 12439.89403654872
6476 12433.25577058887
6477 12425.16987032696
6478 12417.15710115586
6479 12408.49750268296
6480 12399.8038960729
6481 12390.8820553024
6482 12382.2945340864
6483 12373.14118312452
6484 12364.88418953143
6485 12356.23691333161
6486 12348.55945638098
6487 12340.85275321138
6488 12333.91844393397
6489 12327.09277229839
6490 12321.54372553271
6491 12316.49831568201
6492 12312.62728228467
6493 12309.22181826709
6494 12307.16431172866
6495 12305.63077134009
6496 12305.41914354743
6497 12305.8889397673
6498 12307.8333364454
6499 12310.11128530842
6500 12313.72315123518
6501 12318.02221799466
6502 12323.42186078362
6503 12329.01949432298
6504 12335.97006417348
6505 12343.09192301217
6506 12351.47412792647
6507 12359.55710061818
6508 12368.67804911811
6509 12377.25946856231
6510 12386.42130780949
6511 12395.37435303413
6512 12404.8458675462
6513 12413.6983091819
6514 12422.97603994775
6515 12431.31334342953
6516 12439.61927088216
6517 12446.78437863777
6518 12453.812648248
6519 12459.31640333139
6520 12464.69974585549
6521 12468.87014995512
6522 12472.65557308639
6523 12474.82846489431
6524 12476.66728698795
6525 12477.02037905562
6526 12477.08972987264
6527 12475.60853845196
6528 12473.59974271293
6529 12470.03942139554
6530 12466.10365094327
6531 12460.97578895797
6532 12455.60040431396
6533 12449.1625204201
6534 12442.44091310741
6535 12434.61553696494
6536 12426.94593508048
6537 12418.35334281285
6538 12409.87408253161
6539 12400.57852741656
6540 12392.33903284456
6541 12383.38673765022
6542 12375.02570534566
6543 12366.32340325822
6544 12358.87159739447
6545 12351.20435457074
6546 12344.67934371153
6547 12338.15525678067
6548 12332.84777045702
6549 12327.55220847425
6550 12323.85837926573
6551 12320.34185303427
6552 12318.38272518145
6553 12316.6816038374
6554 12316.41264906197
6555 12317.04518845522
6556 12318.91705884193
6557 12320.98229469991
6558 12324.48473244435
6559 12328.39295143668
6560 12333.65942607419
6561 12339.17693612922
6562 12345.98221517721
6563 12352.7334423394
6564 12360.70624793166
6565 12368.89860045409
6566 12377.81583842304
6567 12386.45443638518
6568 12395.66564720489
6569 12404.41333830074
6570 12413.80768531771
6571 12422.47404264039
6572 12431.63583453735
6573 12439.96768303475
6574 12448.1568003268
6575 12455.08395309594
6576 12462.06705252033
6577 12467.73699433652
6578 12473.25956493466
6579 12477.45349441432
6580 12481.33030028007
6581 12483.75257207887
6582 12485.81051776475
6583 12486.43617210599
6584 12486.63823747613
6585 12485.19877170532
6586 12483.48783043452
6587 12480.33656521385
6588 12476.71870845311
6589 12472.08764800579
6590 12467.31662966978
6591 12461.08402706943
6592 12454.92902952941
6593 12447.49091474493
6594 12439.97852901378
6595 12431.63598503976
6596 12423.35013373851
6597 12414.37587910043
6598 12405.77261495079
6599 12396.65900520213
6600 12388.09157807118
6601 12379.21345912899
6602 12371.21554203373
6603 12363.45627594705
6604 12356.49436336523
6605 12349.58101882639
6606 12343.78851782284
6607 12338.29612569001
6608 12333.91648785833
6609 12330.0917336637
6610 12327.63092558148
6611 12325.4343340302
6612 12324.76819041037
6613 12324.57392022819
6614 12325.87496872452
6615 12327.50268875202
6616 12330.77717318719
6617 12334.46899247459
6618 12339.40259847998
6619 12344.80304348717
6620 12351.48354170987
6621 12358.1018115408
6622 12366.21360263158
6623 12373.8408479567
6624 12382.87152512884
6625 12391.45459268739
6626 12401.15827933139
6627 12410.23037028127
6628 12419.70962069583
6629 12428.50911345822
6630 12437.73409851099
6631 12446.27397381404
6632 12454.67895065861
6633 12462.1220202968
6634 12469.76612075637
6635 12475.92848615549
6636 12481.83253100205
6637 12486.52292048037
6638 12490.72646912714
6639 12493.60806459639
6640 12496.06825541308
6641 12497.01948371961
6642 12497.38942543363
6643 12496.29696896513
6644 12494.88622565012
6645 12492.0289877431
6646 12488.79915839569
6647 12484.14858347248
6648 12479.25772839252
6649 12473.01261927001
6650 12466.54640768622
6651 12458.60387137078
6652 12450.84791545391
6653 12442.11575316317
6654 12433.42248411696
6655 12423.65846234696
6656 12414.32988473242
6657 12404.58404892615
6658 12395.48192458215
6659 12386.16468047539
6660 12377.95125062163
6661 12369.47046182822
6662 12361.93049975233
6663 12354.58497525308
6664 12348.4060427894
6665 12342.43758113951
6666 12337.91235416703
6667 12333.72590072055
6668 12330.95325984266
6669 12328.66951409372
6670 12327.85961084158
6671 12327.5515722296
6672 12328.8339196995
6673 12330.6960510545
6674 12334.01926954684
6675 12337.91179704237
6676 12343.21824985284
6677 12348.715949021
6678 12355.89856692182
6679 12363.08544790247
6680 12371.57649244906
6681 12379.88837029749
6682 12389.17355196738
6683 12398.16756161767
6684 12407.92504709128
6685 12417.59227993367
6686 12427.70247178452
6687 12437.06803115419
6688 12446.56186363845
6689 12455.12463976091
6690 12464.15181756309
6691 12471.86413214322
6692 12479.54627034364
6693 12485.75085306981
6694 12492.16842664624
6695 12496.94838379723
6696 12501.48114104697
6697 12504.43261019573
6698 12506.97025438724
6699 12507.86318422971
6700 12508.27714248613
6701 12507.07022023293
6702 12505.4907120849
6703 12502.5917141821
6704 12499.10443050807
6705 12494.2643655477
6706 12489.06187745121
6707 12482.29849920155
6708 12475.544274257
6709 12467.40096373041
6710 12459.48004851135
6711 12450.37500121257
6712 12441.57873530471
6713 12432.04842004686
6714 12422.6005519315
6715 12412.83759139357
6716 12403.76519085084
6717 12394.24239882351
6718 12385.71867052273
6719 12377.20348616012
6720 12369.68595940754
6721 12362.11018475314
6722 12355.65189934723
6723 12349.65894170791
6724 12345.15318228303
6725 12340.97746963263
6726 12338.35183915487
6727 12336.22119702055
6728 12335.75642008391
6729 12335.76848690215
6730 12337.25083561218
6731 12339.09136686751
6732 12342.60736773192
6733 12346.64069152809
6734 12352.09328762759
6735 12357.86346185216
6736 12365.18335304184
6737 12372.53834459671
6738 12381.29643517542
6739 12390.2706894714
6740 12399.96066101306
6741 12409.49459631063
6742 12419.90214528491
6743 12429.38419932763
6744 12439.35545049183
6745 12448.85276442616
6746 12458.64634302833
6747 12467.68611193709
6748 12476.6146263359
6749 12484.46949039948
6750 12492.23309998053
6751 12498.6417840823
6752 12504.59888846377
6753 12509.19111595736
6754 12513.57706311316
6755 12516.34288382133
6756 12518.56729914255
6757 12519.32577447762
6758 12519.48877936757
6759 12518.25466283179
6760 12516.39494192096
6761 12513.18172471226
6762 12509.44132310285
6763 12504.06402025773
6764 12498.44604947356
6765 12491.61632800257
6766 12484.79634714262
6767 12476.53304556859
6768 12468.30170267587
6769 12459.05058447832
6770 12450.12569895738
6771 12440.42857481787
6772 12431.04456190094
6773 12421.08475372679
6774 12411.79389752838
6775 12402.0667139697
6776 12393.75532398808
6777 12384.95589015344
6778 12377.33881962707
6779 12369.92944305568
6780 12363.83000365607
6781 12357.85134788979
6782 12353.59840897268
6783 12349.66881950736
6784 12347.11786935401
6785 12344.95616368714
6786 12344.5316517168
6787 12344.46698715911
6788 12346.19154093742
6789 12348.38366551789
6790 12352.17096284839
6791 12356.33690609719
6792 12361.84767660592
6793 12367.66244654173
6794 12375.16668769934
6795 12382.43061718931
6796 12390.85452378196
6797 12399.2340534212
6798 12408.64324543726
6799 12417.93588617697
6800 12428.14654929565
6801 12437.69090751747
6802 12447.4567802764
6803 12456.85998289361
6804 12466.20496112911
6805 12474.76490141718
6806 12483.91306458864
6807 12491.50727101324
6808 12499.02284124844
6809 12505.09696415505
6810 12511.06181804052
6811 12515.44542419875
6812 12519.56812929158
6813 12522.24730146514
6814 12524.51570683192
6815 12525.11514532554
6816 12525.38036692595
6817 12523.96005322871
6818 12522.06968438325
6819 12518.87384863855
6820 12515.11831537527
6821 12509.68809948838
6822 12504.33028013914
6823 12497.58282103927
6824 12490.83044664457
6825 12482.75067568624
6826 12475.20186854251
6827 12466.48548090059
6828 12457.90925645734
6829 12448.59495381775
6830 12439.67387175552
6831 12430.14867719089
6832 12421.44513210126
6833 12412.64036654734
6834 12404.92882415744
6835 12397.00224844569
6836 12390.1125201988
6837 12383.14134277016
6838 12377.47574114981
6839 12371.99907580611
6840 12368.12067795887
6841 12364.46822221853
6842 12362.42852994504
6843 12360.60843334334
6844 12360.28348718084
6845 12360.46344253832
6846 12361.91294684229
6847 12364.09228016439
6848 12367.66309066285
6849 12371.6660343096
6850 12376.85721524263
6851 12382.41052570667
6852 12389.47460554416
6853 12396.34018107277
6854 12404.30313215542
6855 12411.80580452942
6856 12420.44889476592
6857 12428.84256849738
6858 12438.23705198174
6859 12447.12415130677
6860 12456.04905490193
6861 12464.49126866986
6862 12473.38178921567
6863 12481.27252877486
6864 12489.41486349893
6865 12496.61384433451
6866 12503.87284728477
6867 12509.50016044486
6868 12515.25657460361
6869 12519.59404422391
6870 12523.62696633535
6871 12526.22516401434
6872 12528.35061834323
6873 12529.21537639879
6874 12529.72030406626
6875 12528.58729908459
6876 12527.22490047309
6877 12524.600000572
6878 12521.49089145534
6879 12517.1305240132
6880 12512.51934353594
6881 12506.73799538298
6882 12500.98779779331
6883 12493.99960525565
6884 12486.63766178907
6885 12478.27961991564
6886 12470.57711266807
6887 12462.02387816656
6888 12453.80176592786
6889 12444.99471044861
6890 12436.60851037415
6891 12427.97876442613
6892 12420.05704368287
6893 12412.30831009746
6894 12405.40039195263
6895 12398.40275581104
6896 12392.71370297975
6897 12386.975984573
6898 12382.62439671828
6899 12378.56490436016
6900 12375.81758017971
6901 12373.34147128733
6902 12372.58732964837
6903 12371.90109020076
6904 12372.58847411444
6905 12374.01764650985
6906 12376.88992651764
6907 12380.01065088678
6908 12384.56094195796
6909 12389.42092370933
6910 12395.44852533732
6911 12401.71978485877
6912 12409.2549746277
6913 12416.75700049625
6914 12425.05111522721
6915 12433.21438914139
6916 12442.32192496015
6917 12450.95194809568
6918 12459.90647722083
6919 12468.45884542019
6920 12477.32042712414
6921 12485.46088972193
6922 12493.63771646686
6923 12500.89079781215
6924 12508.40351926049
6925 12514.27432217475
6926 12520.22157905517
6927 12525.08103102566
6928 12529.52644110554
6929 12532.46301429401
6930 12535.13282354839
6931 12536.60573164467
6932 12537.45253982622
6933 12536.57272136943
6934 12535.68945521952
6935 12533.25221032659
6936 12530.38335930259
6937 12526.01553095853
6938 12521.58594294681
6939 12515.91560319039
6940 12510.06181054068
6941 12503.16784442717
6942 12496.12489802606
6943 12487.89288323582
6944 12480.05119497573
6945 12471.2446765779
6946 12462.66873321308
6947 12453.63459921131
6948 12445.35123932471
6949 12436.69658926933
6950 12428.58052061393
6951 12420.28031524217
6952 12413.30975197107
6953 12406.15925763028
6954 12400.16514197078
6955 12394.27309793309
6956 12389.59988856437
6957 12385.18599681141
6958 12382.21758859256
6959 12379.28743200025
6960 12378.08207096944
6961 12377.17762061084
6962 12377.99115716359
6963 12379.01556008803
6964 12381.48663403131
6965 12384.44325124776
6966 12388.80414377412
6967 12393.46347638206
6968 12399.66645209715
6969 12405.70103287254
6970 12413.12395887902
6971 12420.2180871464
6972 12428.54536075922
6973 12436.87469565177
6974 12446.06520796803
6975 12454.77933232981
6976 12464.02731599836
6977 12472.67332664862
6978 12481.92256337496
6979 12490.42794787385
6980 12499.1798163448
6981 12507.16802588104
6982 12515.01532549277
6983 12521.47210392979
6984 12527.76741536741
6985 12532.71749048736
6986 12537.32011320513
6987 12540.51335723813
6988 12543.18870974966
6989 12544.41247691742
6990 12545.43152177806
6991 12544.95583271505
6992 12544.03005599838
6993 12541.71534579473
6994 12538.81485675938
6995 12534.50963965177
6996 12529.99418505495
6997 12524.33733382019
6998 12518.66420003641
6999 12511.57648617156
7000 12504.42624895975
7001 12496.40892248478
7002 12488.55686617506
7003 12479.74773645801
7004 12471.28029440663
7005 12461.9822896491
7006 12453.44766787045
7007 12444.49567775217
7008 12436.30588746523
7009 12427.89760212426
7010 12420.42894245325
7011 12412.73078017322
7012 12406.34223150049
7013 12400.00897008284
7014 12394.92355528773
7015 12390.33391658026
7016 12386.94624293622
7017 12383.98180089271
7018 12382.43008569491
7019 12381.44590748668
7020 12381.84826288951
7021 12382.81614394879
7022 12385.37657111967
7023 12388.28707042878
7024 12392.69676155819
7025 12397.25259540987
7026 12403.26842257919
7027 12409.53213008439
7028 12417.09696168421
7029 12424.78730232673
7030 12433.49008709367
7031 12442.01150470435
7032 12451.45773448027
7033 12460.43574008405
7034 12469.73741024243
7035 12478.55924306766
7036 12487.76732321756
7037 12496.29897301435
7038 12505.05213199637
7039 12512.80312624372
7040 12520.42936271027
7041 12526.82123222606
7042 12533.11889364786
7043 12538.23718128207
7044 12543.1865731896
7045 12546.7103171387
7046 12549.39296861371
7047 12550.75232334063
7048 12551.84002880971
7049 12551.43785947563
7050 12550.57021417274
7051 12548.23398914629
7052 12545.52205423382
7053 12541.36199531039
7054 12536.88371180449
7055 12530.98747565915
7056 12525.07110590509
7057 12517.83637204718
7058 12510.59883644334
7059 12502.43496945223
7060 12494.23869074739
7061 12485.29093129162
7062 12477.14992263524
7063 12467.92989293157
7064 12459.2920404489
7065 12450.18522761359
7066 12442.06672719975
7067 12433.45629153461
7068 12425.82071026869
7069 12418.30335168414
7070 12411.7753261305
7071 12405.58133148653
7072 12400.58005645796
7073 12395.80638963291
7074 12392.38972127007
7075 12389.33064282888
7076 12387.91683952789
7077 12386.82899644416
7078 12387.19666409774
7079 12388.22814019404
7080 12390.57981824718
7081 12393.57727543139
7082 12397.90310595923
7083 12402.46557619929
7084 12408.21127988078
7085 12414.38621381029
7086 12421.76911873012
7087 12429.24445151849
7088 12437.69371827107
7089 12446.05795542392
7090 12455.14819469243
7091 12464.0081047738
7092 12473.82858933157
7093 12482.76377611493
7094 12492.38094770733
7095 12501.12603104714
7096 12509.60650407118
7097 12517.29879432908
7098 12524.91466393172
7099 12531.49036513058
7100 12537.70257057975
7101 12542.8911548312
7102 12547.6639853564
7103 12551.10546682362
7104 12554.0004146493
7105 12555.55521870092
7106 12556.59406891881
7107 12556.0715119
7108 12555.19085678442
7109 12552.96877119679
7110 12550.3513055288
7111 12546.18568446805
7112 12541.72163896972
7113 12535.80765004778
7114 12530.0231936382
7115 12522.86966824227
7116 12515.90577541442
7117 12507.71596913889
7118 12499.69711733727
7119 12490.86789315455
7120 12482.26474174977
7121 12473.23109963317
7122 12464.79905286684
7123 12455.87974026129
7124 12447.77397272361
7125 12439.38858190428
7126 12432.00701947608
7127 12424.25597660117
7128 12417.44430467187
7129 12410.84949427422
7130 12405.55123170794
7131 12400.68148598065
7132 12397.07770186274
7133 12394.02469199138
7134 12392.3065324227
7135 12391.06224913731
7136 12391.10779085005
7137 12391.85988870757
7138 12394.02035835516
7139 12396.87467322627
7140 12400.61368011016
7141 12405.12293587411
7142 12410.75981770853
7143 12416.86837433492
7144 12424.30200544928
7145 12431.4375013665
7146 12439.82077836255
7147 12448.24376650218
7148 12457.13191020119
7149 12465.90955405738
7150 12475.31393588776
7151 12483.8908052965
7152 12493.14171132231
7153 12501.760530857
7154 12510.07742942624
7155 12517.79373217825
7156 12525.29092460122
7157 12531.94691996199
7158 12538.42197531008
7159 12543.81796795695
7160 12548.85602231539
7161 12552.52776869259
7162 12555.56508646773
7163 12557.08306047742
7164 12558.17018817148
7165 12558.05635954552
7166 12557.38348559721
7167 12555.44031404163
7168 12552.86390485418
7169 12548.89475873296
7170 12544.64547092353
7171 12538.7519997586
7172 12532.96163544321
7173 12525.92300752692
7174 12518.57926132116
7175 12510.46045634506
7176 12502.33038409648
7177 12493.45716380059
7178 12484.68298168195
7179 12475.44896396316
7180 12466.65735898222
7181 12457.33984766564
7182 12449.09107227793
7183 12440.43200875468
7184 12432.69960037308
7185 12425.13080071345
7186 12418.55728142741
7187 12412.04385851207
7188 12406.79868786755
7189 12401.82826562516
7190 12398.04903270609
7191 12394.88559427542
7192 12393.27056023042
7193 12391.74629805296
7194 12391.82921868061
7195 12392.32192959435
7196 12394.31306566299
7197 12396.8748639604
7198 12400.92528990973
7199 12405.09439791622
7200 12410.80503148227
7201 12416.48825136701
7202 12423.69061228507
7203 12430.90021386366
7204 12439.30220807854
7205 12447.4826841569
7206 12456.68129922582
7207 12465.12955974587
7208 12474.29072956427
7209 12483.30220681491
7210 12492.53615824821
7211 12500.89828197245
7212 12509.45221029306
7213 12517.21768622527
7214 12525.01784434049
7215 12531.97585944272
7216 12538.48266217636
7217 12543.70144664813
7218 12548.68597450822
7219 12552.33114543696
7220 12555.57059235527
7221 12557.29924281587
7222 12558.38709808351
7223 12558.20972259903
7224 12557.64275765685
7225 12555.51894766544
7226 12553.18768741471
7227 12549.20246101469
7228 12545.04409667046
7229 12539.41196960907
7230 12533.71509474118
7231 12526.65741212792
7232 12519.43891552647
7233 12511.36030615706
7234 12503.31013761367
7235 12494.09595783617
7236 12485.46946894698
7237 12476.26144241132
7238 12467.34075404539
7239 12458.13737825027
7240 12449.57882031988
7241 12440.85133914226
7242 12433.05307732348
7243 12425.16907723978
7244 12418.54673641323
7245 12412.02546354336
7246 12406.63827930323
7247 12401.53776361609
7248 12397.49647454751
7249 12394.15017307082
7250 12392.08105585353
7251 12390.51899884308
7252 12390.61797579796
7253 12391.04790433752
7254 12392.91797122779
7255 12395.25692618613
7256 12399.09055207924
7257 12403.2972737319
7258 12408.76713882774
7259 12414.69621412403
7260 12421.73326466254
7261 12429.02584036992
7262 12437.06733000619
7263 12445.16429078206
7264 12454.25006108064
7265 12463.15002170873
7266 12472.43438419908
7267 12481.48447897765
7268 12490.60397341483
7269 12499.10370308172
7270 12507.7290836486
7271 12515.40076465617
7272 12523.14239871866
7273 12529.89364844861
7274 12536.35293179554
7275 12541.37261143023
7276 12546.46708085449
7277 12550.17987724358
7278 12553.35145328388
7279 12555.14102686721
7280 12556.55362119564
7281 12556.4742238706
7282 12555.67275618968
7283 12553.53307831357
7284 12551.21117070864
7285 12547.52276321416
7286 12543.44396764201
7287 12537.79596979778
7288 12531.8214371287
7289 12524.71068143769
7290 12517.73612768007
7291 12509.81491019294
7292 12501.68893063744
7293 12492.45579139565
7294 12483.98270773546
7295 12474.79323331486
7296 12466.13168536535
7297 12456.68440438611
7298 12447.9795436443
7299 12439.2620343509
7300 12431.41979172725
7301 12423.4705003635
7302 12416.8420876547
7303 12410.02768018253
7304 12404.49637558915
7305 12399.33688138482
7306 12395.3571148389
7307 12391.74008771268
7308 12389.50154327442
7309 12387.94166136704
7310 12387.69692175292
7311 12388.04232992557
7312 12389.78642804052
7313 12392.10943620091
7314 12396.03244944261
7315 12399.94915576936
7316 12405.18141716633
7317 12411.0396382211
7318 12417.62723783681
7319 12424.69784454576
7320 12432.66401872177
7321 12440.73423553094
7322 12449.36135464797
7323 12457.63960085183
7324 12466.86189562133
7325 12475.7777542361
7326 12484.76216147561
7327 12493.11264766455
7328 12501.7054315031
7329 12509.45829728696
7330 12517.42752927759
7331 12524.39272337371
7332 12530.92350778429
7333 12536.33674850791
7334 12541.54389059487
7335 12545.26758341849
7336 12548.5874931952
7337 12550.33403925328
7338 12551.83508843467
7339 12551.96664535436
7340 12551.65550355926
7341 12549.82482730897
7342 12547.50626721479
7343 12543.69563325884
7344 12539.85944330504
7345 12534.55230623096
7346 12528.92573652627
7347 12522.19004517697
7348 12515.50303570572
7349 12507.37254599889
7350 12499.58605635645
7351 12490.53167959694
7352 12481.97914439427
7353 12472.78391183036
7354 12463.93250942577
7355 12454.46768724574
7356 12445.71770376365
7357 12437.11692590367
7358 12429.07594790097
7359 12421.060672514
7360 12414.08054819173
7361 12407.27916357294
7362 12401.51202469256
7363 12396.13906338277
7364 12392.11076682341
7365 12388.36592668342
7366 12386.19678391582
7367 12384.27505601183
7368 12383.84810660756
7369 12383.95846444939
7370 12385.45048017927
7371 12387.42597717541
7372 12391.05072969398
7373 12394.86507617417
7374 12399.97815232988
7375 12405.43196586261
7376 12412.36100052014
7377 12419.54369654569
7378 12427.63363627227
7379 12435.29831659921
7380 12443.89242866707
7381 12452.34121794128
7382 12461.26234974504
7383 12469.93364793769
7384 12479.16525339075
7385 12487.45667691058
7386 12496.03793502883
7387 12503.90413025575
7388 12511.85955735779
7389 12518.70253485256
7390 12525.54117630041
7391 12531.04997415132
7392 12536.37419421799
7393 12540.10850238753
7394 12543.70236007395
7395 12545.72151061532
7396 12547.37809005854
7397 12547.61861111929
7398 12547.53593459072
7399 12545.90246142586
7400 12543.99431478792
7401 12540.3005662795
7402 12536.49523239022
7403 12531.11245616892
7404 12525.55900182288
7405 12518.8696863137
7406 12512.13317402874
7407 12504.34769275726
7408 12496.60215988558
7409 12487.63951682941
7410 12478.99740362197
7411 12469.79053349999
7412 12460.69267405918
7413 12451.14281893862
7414 12442.38388898916
7415 12433.57653901705
7416 12425.74902788387
7417 12417.68377439233
7418 12410.64525008479
7419 12403.67634128314
7420 12397.97835828952
7421 12392.55304856288
7422 12388.28269345729
7423 12384.30473082981
7424 12381.8024782532
7425 12379.69021449118
7426 12379.39515153188
7427 12379.23656538114
7428 12380.91490489921
7429 12382.82552510378
7430 12386.25907793244
7431 12389.76414012398
7432 12394.83840122989
7433 12400.15105468914
7434 12406.82211624883
7435 12413.67659943002
7436 12421.54565497669
7437 12429.35537384263
7438 12437.98361450734
7439 12446.29229834082
7440 12455.19213809365
7441 12463.80640563984
7442 12472.93588790776
7443 12481.41896327752
7444 12490.31409682741
7445 12498.17520502037
7446 12506.4240498226
7447 12513.34940548495
7448 12519.9404379238
7449 12525.57123359936
7450 12531.03913974481
7451 12534.92163404206
7452 12538.61528658376
7453 12540.7106848847
7454 12542.52604541024
7455 12542.79023597464
7456 12542.60958888143
7457 12541.14281460855
7458 12539.20037843406
7459 12535.66016541916
7460 12531.63947196322
7461 12526.41543971416
7462 12520.77151600156
7463 12514.3167665847
7464 12507.56977199042
7465 12499.50867633475
7466 12491.83629837747
7467 12482.89623424634
7468 12474.19385056318
7469 12464.91738479334
7470 12456.02806962585
7471 12446.84711266328
7472 12438.17111177137
7473 12429.21490240307
7474 12421.14572925974
7475 12413.0598922079
7476 12405.96390508359
7477 12398.75726132948
7478 12392.98559422297
7479 12387.5295632404
7480 12383.33025279165
7481 12379.47207694777
7482 12376.96274765428
7483 12374.92664260555
7484 12374.08698565564
7485 12373.92939508318
7486 12375.40630970155
7487 12377.25879992683
7488 12380.57447084622
7489 12384.11087805883
7490 12389.31971265325
7491 12394.64752127556
7492 12401.30008785798
7493 12408.26061145424
7494 12416.44731435083
7495 12424.06351562318
7496 12432.60529651045
7497 12441.09301471085
7498 12449.9908196858
7499 12458.65563351637
7500 12467.76047933579
7501 12476.29447574876
7502 12484.95705256099
7503 12492.97844573473
7504 12501.26525586187
7505 12508.08655372387
7506 12514.90769458971
7507 12520.70482391592
7508 12526.08498194669
7509 12530.00048770274
7510 12533.91854659074
7511 12536.08200092937
7512 12537.9379975535
7513 12538.3599902244
7514 12538.23506921534
7515 12536.64695391999
7516 12534.86191835857
7517 12531.28604679979
7518 12527.66520211094
7519 12522.41041888363
7520 12516.76034215107
7521 12510.0309643923
7522 12503.22700922145
7523 12495.47586934699
7524 12487.65967126142
7525 12478.75208126164
7526 12470.21360647278
7527 12460.98802417965
7528 12452.03208601666
7529 12442.79252016449
7530 12434.01408205187
7531 12425.10744611449
7532 12416.84544273957
7533 12408.72026581011
7534 12401.64472698644
7535 12394.34552621558
7536 12388.44318551591
7537 12382.9761618237
7538 12378.61396260788
7539 12374.50418896593
7540 12371.80546612017
7541 12369.66302842164
7542 12369.05172586203
7543 12368.95242246204
7544 12370.38012909147
7545 12372.3613867872
7546 12375.77169272333
7547 12379.37150656303
7548 12384.59547930319
7549 12389.94402075327
7550 12396.47117066142
7551 12402.97865989428
7552 12410.84450271762
7553 12418.54833730417
7554 12427.24376124474
7555 12436.17026234194
7556 12445.19686325391
7557 12453.80872862115
7558 12462.92941830125
7559 12471.73774409836
7560 12480.52673591121
7561 12488.67409268368
7562 12496.62605693101
7563 12503.47066692633
7564 12510.13195574677
7565 12515.71341856847
7566 12521.43783813277
7567 12525.56210235987
7568 12529.51541112603
7569 12531.7556260238
7570 12533.66044151838
7571 12534.06485690424
7572 12533.92380892522
7573 12532.40121403901
7574 12530.64333263473
7575 12527.00267391705
7576 12523.34312130852
7577 12518.10684383963
7578 12512.68181875054
7579 12505.74673304614
7580 12499.25212828215
7581 12491.60979927774
7582 12484.04724236576
7583 12475.46174035412
7584 12467.0507253598
7585 12457.86196149961
7586 12448.90717988109
7587 12439.61168416868
7588 12430.84851078989
7589 12421.87453751502
7590 12413.75321086743
