"mz-rfile"
"Iteration" "mz"
("Iteration" "mz")
4398 5162.766362482372
4399 5191.116408250264
4400 5220.476963307023
4401 5287.621891108819
4402 5362.442698290762
4403 5435.004137912577
4404 5488.134791158795
4405 5558.618249413857
4406 5627.972546525395
4407 5694.148556948917
4408 5745.977318782388
4409 5790.871635183281
4410 5845.050537541868
4411 5882.996396034007
4412 5909.754589022488
4413 5921.19786247605
4414 5921.191115382057
4415 5914.996680807873
4416 5904.488399378982
4417 5895.078022453462
4418 5886.545247832612
4419 5883.389872476556
4420 5883.84558500219
4421 5890.193164506976
4422 5900.186639676355
4423 5915.549936589417
4424 5932.372816283341
4425 5954.215912970483
4426 5980.243206385823
4427 6010.313479488666
4428 6043.206212056985
4429 6078.19898130239
4430 6114.261723912884
4431 6150.754608268226
4432 6177.617694390672
4433 6213.649024161674
4434 6239.285140793381
4435 6264.488266606148
4436 6288.72421447084
4437 6304.191932172064
4438 6327.199006074002
4439 6341.753523953457
4440 6363.282434536369
4441 6376.265452611103
4442 6394.873725056203
4443 6405.72916785803
4444 6421.05671313238
4445 6430.014045265259
4446 6442.620733267403
4447 6449.920298867645
4448 6460.374073327936
4449 6466.670454954628
4450 6475.985112730771
4451 6481.53050063628
4452 6490.381287555502
4453 6495.994674784371
4454 6501.915096880949
4455 6508.095973929752
4456 6515.019741675404
4457 6522.13411613734
4458 6529.955777626414
4459 6538.157955490599
4460 6547.118900824235
4461 6556.224161241124
4462 6566.084975468697
4463 6576.152001518858
4464 6586.379053598971
4465 6596.563844936946
4466 6611.542402699483
4467 6620.628450933993
4468 6633.315932906063
4469 6640.775706357995
4470 6650.531951967353
4471 6655.79857075547
4472 6662.449971677819
4473 6665.660850954539
4474 6669.17298825758
4475 6670.4517217336
4476 6670.47121727403
4477 6669.115827854732
4478 6666.503941929112
4479 6663.853772447746
4480 6659.133951455068
4481 6655.290690068061
4482 6649.220719217144
4483 6644.679398682514
4484 6639.981051972985
4485 6635.054795330108
4486 6629.988981230045
4487 6624.554551914137
4488 6619.433621483419
4489 6614.195971118605
4490 6609.034291145248
4491 6603.920039815424
4492 6599.110148543557
4493 6594.250382050817
4494 6589.835992103814
4495 6585.441351466505
4496 6581.474275591701
4497 6577.595102965527
4498 6574.204278282838
4499 6570.860288514926
4500 6567.999607596103
4501 6565.342084834476
4502 6563.051197496772
4503 6560.890329123569
4504 6559.210194623682
4505 6557.484060873108
4506 6556.228186251186
4507 6554.954875373595
4508 6554.096837722243
4509 6553.18128310997
4510 6552.645315703626
4511 6552.001647878362
4512 6551.650331426449
4513 6551.191401577588
4514 6550.963387294997
4515 6550.544384796794
4516 6550.372386894314
4517 6550.021654079633
4518 6549.880326667437
4519 6549.489802763562
4520 6549.282250679403
4521 6548.784582749844
4522 6548.594534935452
4523 6548.120153865185
4524 6547.860282768436
4525 6547.30213819047
4526 6546.977578456344
4527 6546.437240959861
4528 6545.975335891552
4529 6545.294570704493
4530 6544.894306606976
4531 6544.277208678905
4532 6543.900626329691
4533 6543.189587571593
4534 6542.710861286058
4535 6541.99985804249
4536 6541.522263039246
4537 6540.779044846032
4538 6540.399480262308
4539 6539.730618510786
4540 6539.322018332215
4541 6538.718060841718
4542 6538.345836422486
4543 6537.83474340722
4544 6537.506298891189
4545 6537.032667746509
4546 6536.865187510087
4547 6536.543164394674
4548 6536.428902262722
4549 6536.098895079003
4550 6536.092215412389
4551 6535.907637000872
4552 6535.980069432186
4553 6535.883148636473
4554 6536.224120778405
4555 6536.242798718827
4556 6536.547135832243
4557 6536.873521752696
4558 6537.455914158872
4559 6537.89641551263
4560 6538.604197283008
4561 6539.162017328301
4562 6540.04588361647
4563 6540.762809366758
4564 6541.870121352811
4565 6542.742551306264
4566 6544.15782423085
4567 6545.30805088843
4568 6546.715378438868
4569 6548.132968067817
4570 6549.754578927206
4571 6551.319665196878
4572 6553.140259497431
4573 6554.844075320439
4574 6556.769062643974
4575 6558.485982149065
4576 6561.579771447165
4577 6563.427954810662
4578 6565.7178665173
4579 6567.70408415597
4580 6571.390068835605
4581 6573.619626177498
4582 6575.952727218832
4583 6579.193224491123
4584 6581.546134439841
4585 6583.613997709534
4586 6587.202163448505
4587 6589.221615136536
4588 6591.523180603644
4589 6594.886558802476
4590 6597.152127681268
4591 6600.24879264214
4592 6602.400543123526
4593 6604.969465932018
4594 6607.015867679195
4595 6609.118511257956
4596 6610.663785246164
4597 6612.417436535989
4598 6613.616735318609
4599 6614.721731942375
4600 6615.378299567502
4601 6615.809124910216
4602 6616.18154351318
4603 6615.904541072036
4604 6615.71988824896
4605 6614.913192595805
4606 6614.324349492826
4607 6612.658851581448
4608 6611.346058749136
4609 6608.787137450797
4610 6607.119718303626
4611 6603.992277915762
4612 6601.784550037643
4613 6597.719406069979
4614 6593.673370970305
4615 6590.474986469533
4616 6585.699642777831
4617 6582.060739437696
4618 6576.55202025249
4619 6570.548376733266
4620 6564.634133807155
4621 6560.27608020547
4622 6553.808645203982
4623 6546.981884272753
4624 6540.314892968302
4625 6533.236722924522
4626 6526.526701837578
4627 6519.534741474785
4628 6512.862947559381
4629 6506.02050379585
4630 6499.378565149219
4631 6492.479197448625
4632 6486.005443979271
4633 6479.195425551444
4634 6472.768773333658
4635 6466.143067633154
4636 6459.91838608115
4637 6453.468735954933
4638 6447.322085527897
4639 6440.922079159775
4640 6435.071150034284
4641 6428.962888871386
4642 6423.240685171036
4643 6417.215573106328
4644 6411.768117712384
4645 6406.047685177188
4646 6400.650560530204
4647 6395.030531878984
4648 6389.844084883705
4649 6384.466708176958
4650 6379.651460385449
4651 6374.497201931579
4652 6369.839099651062
4653 6364.98666478159
4654 6360.496256042596
4655 6355.882607702245
4656 6351.655398248796
4657 6347.102440864589
4658 6342.982161697301
4659 6338.608835561755
4660 6334.663668195811
4661 6330.538635643912
4662 6327.978260891126
4663 6323.536957768078
4664 6319.44484936599
4665 6316.514167602179
4666 6312.162422840917
4667 6309.025631332811
4668 6304.429420542478
4669 6301.046602840632
4670 6296.185758574138
4671 6292.646610445038
4672 6287.426442268488
4673 6283.576618354084
4674 6278.018194200941
4675 6274.116082533596
4676 6268.274497490125
4677 6264.124487530926
4678 6257.883165107292
4679 6253.473051771784
4680 6249.09029000295
4681 6242.024246415196
4682 6237.416246746133
4683 6232.267846366932
4684 6224.543090653643
4685 6219.113620007024
4686 6213.719495940802
4687 6204.925930514286
4688 6199.252244529508
4689 6190.126660960113
4690 6184.317790150971
4691 6174.961918277063
4692 6168.934988430833
4693 6159.449754629009
4694 6153.28913971829
4695 6143.711451636741
4696 6137.397128342607
4697 6127.735959463452
4698 6118.493668606399
4699 6109.088354380082
4700 6100.318548994542
4701 6094.224657809646
4702 6085.524241632585
4703 6076.851601367342
4704 6068.651550736266
4705 6060.6891461339
4706 6053.225054793566
4707 6045.819506276006
4708 6038.918010443653
4709 6032.252197421716
4710 6026.162764385143
4711 6020.18717302099
4712 6014.64881360109
4713 6009.290170602423
4714 6004.41230055168
4715 5999.774575513641
4716 5995.743220720418
4717 5991.746166891475
4718 5989.561829327813
4719 5986.028305367872
4720 5982.974188464834
4721 5980.97979573366
4722 5978.386025718786
4723 5975.829844382235
4724 5974.435853908646
4725 5972.223457236018
4726 5971.029190719419
4727 5968.939459348317
4728 5967.811904380722
4729 5965.832173350977
4730 5964.819619624816
4731 5963.443080375089
4732 5961.758814716944
4733 5960.469933346827
4734 5959.373653914306
4735 5958.014481844973
4736 5956.704745812181
4737 5955.080930667649
4738 5953.517464591541
4739 5951.648852806154
4740 5949.757631724387
4741 5947.584288382125
4742 5945.486305951425
4743 5943.037033659903
4744 5940.481579164475
4745 5937.66933148235
4746 5934.821878900671
4747 5931.58333346707
4748 5928.409733674427
4749 5924.811830706449
4750 5921.287142029539
4751 5917.329929462641
4752 5913.51347811798
4753 5909.277231781117
4754 5905.192928628818
4755 5900.692019809881
4756 5896.294998011554
4757 5891.587079457455
4758 5886.915228385153
4759 5881.940400390917
4760 5877.103749232619
4761 5872.071584372149
4762 5864.855017533609
4763 5860.019089609667
4764 5855.420850843741
4765 5848.450068417943
4766 5844.147774482996
4767 5837.668904832567
4768 5833.787527367203
4769 5827.958223479216
4770 5824.54082171526
4771 5819.522322243918
4772 5816.724018528327
4773 5812.530344846977
4774 5810.282612635981
4775 5806.934336211099
4776 5805.230561607624
4777 5802.777848855718
4778 5801.654763731157
4779 5800.046326589263
4780 5799.469752736106
4781 5798.919949420098
4782 5798.792272506398
4783 5798.743102525622
4784 5799.377500622592
4785 5799.84636992617
4786 5800.753194397792
4787 5802.193129777696
4788 5803.471869625769
4789 5804.664010846805
4790 5806.305149932464
4791 5808.563945623599
4792 5810.366628352412
4793 5811.964931055512
4794 5813.89971397861
4795 5815.63483654001
4796 5817.487527613127
4797 5820.123017794134
4798 5822.021693099555
4799 5823.561728577992
4800 5825.207018771818
4801 5827.308885572886
4802 5828.723304414798
4803 5829.758526791991
4804 5830.830503009361
4805 5831.95316858476
4806 5832.669564438116
4807 5832.849133635221
4808 5833.021987890186
4809 5832.718252793125
4810 5832.270522667081
4811 5831.515593817473
4812 5830.590089157767
4813 5829.227430509659
4814 5827.799682684216
4815 5825.846874869992
4816 5823.789449695528
4817 5821.30891218716
4818 5818.851177370556
4819 5816.010582836335
4820 5813.138835595229
4821 5809.908666936387
4822 5806.714549711392
4823 5803.131977895637
4824 5799.795315310716
4825 5796.20971580709
4826 5792.732317534286
4827 5789.000202440496
4828 5783.979704900585
4829 5780.612429692626
4830 5777.626907062033
4831 5773.097604030731
4832 5770.491924843186
4833 5767.879923490356
4834 5764.573427496267
4835 5762.43950437181
4836 5760.023920781519
4837 5758.590826535168
4838 5757.175846820073
4839 5756.410818153115
4840 5756.187984352275
4841 5756.143502384919
4842 5756.618072236913
4843 5757.493158314742
4844 5758.651377395156
4845 5759.851630630059
4846 5762.345580742483
4847 5764.141225595982
4848 5766.434972860327
4849 5770.005141472355
4850 5772.735062422158
4851 5775.458350070745
4852 5778.578362580713
4853 5783.307669898089
4854 5786.652057897063
4855 5789.975165605165
4856 5795.159760547173
4857 5798.427655233081
4858 5801.843471390398
4859 5806.679277061801
4860 5809.993964484373
4861 5814.45234154232
4862 5817.373909367034
4863 5821.254707602664
4864 5823.838660768967
4865 5827.134646382425
4866 5829.227469034578
4867 5831.677191923705
4868 5833.16797406752
4869 5834.777879764978
4870 5835.696682468643
4871 5836.368635066166
4872 5836.652838385088
4873 5836.416454220876
4874 5836.07115824129
4875 5834.984826199893
4876 5834.113715922302
4877 5832.744052927324
4878 5830.505720933181
4879 5828.651099847848
4880 5826.708778988544
4881 5824.377337997033
4882 5822.060318685966
4883 5819.284353632564
4884 5816.687581683467
4885 5813.763843974193
4886 5810.861025729085
4887 5807.751450293581
4888 5803.404776091249
4889 5800.378188170724
4890 5797.566316208762
4891 5793.293334909977
4892 5790.739344043863
4893 5788.145617255323
4894 5784.768126452493
4895 5782.572716737198
4896 5779.873305336148
4897 5778.184329249504
4898 5776.370182194009
4899 5775.218482595303
4900 5774.243106295025
4901 5773.789388796172
4902 5773.808961573551
4903 5773.967466377623
4904 5775.00291652125
4905 5775.785639865417
4906 5777.129517852975
4907 5779.326582376704
4908 5781.199009691828
4909 5783.096130437235
4910 5786.647697002534
4911 5789.039969554206
4912 5791.822238513891
4913 5794.686648918206
4914 5797.851699360452
4915 5802.389586795677
4916 5805.730470532645
4917 5808.902590827707
4918 5814.015827566674
4919 5817.175371615481
4920 5822.140410337895
4921 5825.084757250069
4922 5829.575520014198
4923 5832.203035554732
4924 5836.092024010562
4925 5838.30140509374
4926 5841.471803215217
4927 5844.014275284649
4928 5845.543265863384
4929 5847.104059324443
4930 5848.029779282718
4931 5848.597019531117
4932 5848.722060921006
4933 5848.269644680377
4934 5847.770522465165
4935 5846.352872893221
4936 5845.254869447427
4937 5842.968651187444
4938 5841.297571460728
4939 5839.202169084644
4940 5835.895711768426
4941 5833.284750816139
4942 5830.692175059846
4943 5827.724697812317
4944 5824.721115396062
4945 5821.452230696361
4946 5818.165587383824
4947 5814.671099959864
4948 5809.772748521328
4949 5806.444535209856
4950 5803.323433495631
4951 5798.563268059984
4952 5795.814101375711
4953 5791.665607241028
4954 5789.379880395682
4955 5786.060988962853
4956 5784.326440875318
4957 5781.879470546375
4958 5780.787446251616
4959 5779.355624704286
4960 5778.939917309515
4961 5778.536414457516
4962 5778.820214218321
4963 5779.477851585152
4964 5780.527324166259
4965 5781.662152701007
4966 5784.140837767009
4967 5785.905202341565
4968 5788.202979994161
4969 5791.825390299798
4970 5794.623299297966
4971 5797.48051891489
4972 5800.68019946798
4973 5803.982972994014
4974 5809.366509023055
4975 5812.799953103127
4976 5816.404282365396
4977 5821.650799134883
4978 5825.338049089054
4979 5830.406587772212
4980 5833.869367022024
4981 5838.536139608667
4982 5841.592461151867
4983 5845.728533683788
4984 5849.537726247234
4985 5851.589094473126
4986 5854.419860567934
4987 5855.806079531791
4988 5857.603251128648
4989 5858.711771509601
4990 5859.18411541565
4991 5859.02532414214
4992 5858.67129260764
4993 5857.442830742238
4994 5856.406817504483
4995 5854.082616684967
4996 5852.289809234901
4997 5849.092395614967
4998 5846.805006453887
4999 5843.972622458988
5000 5839.599898745917
5001 5836.339891862546
5002 5832.987265925834
5003 5829.328297148947
5004 5825.643622226058
5005 5821.675477269821
5006 5815.974250057278
5007 5812.086906782049
5008 5806.52310893799
5009 5802.87970124557
5010 5797.85091672089
5011 5794.595678846598
5012 5790.22240972816
5013 5787.500820462098
5014 5784.018663776796
5015 5780.948357493756
5016 5779.392537552504
5017 5777.442502064389
5018 5776.633498916034
5019 5775.858261661234
5020 5775.799183032157
5021 5776.056138209773
5022 5777.19131486441
5023 5778.236229625795
5024 5780.544422919614
5025 5782.35400551021
5026 5785.749947837135
5027 5788.255145259212
5028 5791.160818880436
5029 5795.617554579955
5030 5798.993235907757
5031 5802.431891670382
5032 5808.048849607962
5033 5811.663696002834
5034 5815.65279913115
5035 5821.337324280107
5036 5825.311399220622
5037 5830.805972699647
5038 5834.613998205225
5039 5839.74119149862
5040 5843.268349873038
5041 5847.758125036783
5042 5852.00851383074
5043 5854.316457262996
5044 5857.592401351872
5045 5860.068398641309
5046 5861.629905471902
5047 5863.002847124121
5048 5863.895927801983
5049 5863.933456566733
5050 5863.727180234717
5051 5862.867848764794
5052 5861.325516037749
5053 5859.729093870618
5054 5856.894868495549
5055 5854.409903274575
5056 5850.384049835811
5057 5847.33223125567
5058 5844.027318052776
5059 5838.412963412658
5060 5834.606601580477
5061 5830.426176624003
5062 5826.042673295873
5063 5819.231072567125
5064 5814.833174627291
5065 5810.254938069911
5066 5803.667034944018
5067 5799.037568171328
5068 5792.542308014209
5069 5788.421096774069
5070 5782.576443185279
5071 5777.196495661815
5072 5772.57996869041
5073 5769.778409347264
5074 5766.299032177293
5075 5763.336731898099
5076 5761.114855798646
5077 5760.033212370757
5078 5759.149130335171
5079 5758.918994056657
5080 5759.297523859182
5081 5760.396478209986
5082 5762.107977969133
5083 5763.512710871084
5084 5766.469377852866
5085 5768.762314791073
5086 5772.826559786885
5087 5775.640494869422
5088 5780.531809746562
5089 5784.006284049152
5090 5789.603843758777
5091 5793.585360756509
5092 5797.879360846405
5093 5804.027133822688
5094 5808.336905613463
5095 5814.708159595417
5096 5819.033114086531
5097 5825.169298764489
5098 5829.241042187101
5099 5834.87464588815
5100 5840.286383469397
5101 5843.423450010086
5102 5848.063980214701
5103 5851.803557759819
5104 5855.081099817264
5105 5857.679940420907
5106 5859.81651274608
5107 5861.058362737292
5108 5861.505857945212
5109 5861.288347182328
5110 5860.473576713971
5111 5858.834651269407
5112 5857.433599310002
5113 5854.442599644279
5114 5852.201744904149
5115 5847.953796159545
5116 5844.824347759542
5117 5839.435658419545
5118 5835.663907889799
5119 5829.449021423944
5120 5825.270565548598
5121 5820.555058045178
5122 5813.254553187313
5123 5808.140358861477
5124 5800.926259091138
5125 5795.997320708086
5126 5788.696726388749
5127 5783.956652266614
5128 5777.245357171195
5129 5772.911268946244
5130 5766.96486695819
5131 5761.214365997806
5132 5756.273008496703
5133 5753.102195057806
5134 5749.199908471755
5135 5745.819623106954
5136 5743.241166236454
5137 5741.269956499005
5138 5740.640252706221
5139 5740.080199543027
5140 5740.314283473427
5141 5740.96129576883
5142 5742.120994308873
5143 5744.325953741228
5144 5746.286836255445
5145 5749.793340102217
5146 5752.720845763476
5147 5757.186155376103
5148 5760.956091645443
5149 5766.579467807628
5150 5770.737870449279
5151 5776.816505303528
5152 5781.333023510759
5153 5785.796187666981
5154 5793.162444725757
5155 5797.73817072596
5156 5805.047579400994
5157 5809.687350789319
5158 5816.813112527628
5159 5821.185475046645
5160 5827.731065980683
5161 5833.517677376972
5162 5837.238871145028
5163 5842.112781641533
5164 5846.651207433814
5165 5850.244596594185
5166 5853.273562599226
5167 5855.500920421448
5168 5857.052293051607
5169 5857.592988271615
5170 5857.483660748884
5171 5856.333384672735
5172 5854.654537978882
5173 5852.645137261332
5174 5849.307007025152
5175 5845.294217145943
5176 5842.269086041737
5177 5837.06485696419
5178 5833.229198772327
5179 5826.798336592605
5180 5822.172818830387
5181 5814.833185128232
5182 5809.89585304104
5183 5801.799841503973
5184 5796.629045554896
5185 5788.316147142008
5186 5783.079924841706
5187 5774.685652183963
5188 5769.66514576878
5189 5762.125208719193
5190 5755.183692162649
5191 5748.445565017745
5192 5744.473972139403
5193 5739.02857114093
5194 5734.301288405112
5195 5730.137564211588
5196 5727.998112822623
5197 5725.402959454304
5198 5723.435462578149
5199 5722.097513223224
5200 5721.946370025964
5201 5722.276643781501
5202 5723.350934284568
5203 5724.378605934021
5204 5727.062400901988
5205 5729.16446294467
5206 5733.331168140567
5207 5736.318278428007
5208 5741.498216362265
5209 5745.376020456286
5210 5751.739803311999
5211 5756.04355839786
5212 5763.230265611283
5213 5768.027904140747
5214 5773.280172923192
5215 5781.322322359242
5216 5786.734494035071
5217 5794.796590294013
5218 5800.320391584622
5219 5808.161667050795
5220 5813.356609693913
5221 5820.574411190616
5222 5825.363467750442
5223 5831.867410774776
5224 5838.11932965608
5225 5843.276208267474
5226 5846.577649384525
5227 5850.606815329778
5228 5854.027228568521
5229 5856.524279286193
5230 5858.010280412188
5231 5858.605686438871
5232 5858.400650275355
5233 5857.167646154317
5234 5855.155523729301
5235 5852.206054196781
5236 5848.644231773588
5237 5845.450539429619
5238 5839.827613642568
5239 5833.623344532093
5240 5829.232937049441
5241 5821.820028376538
5242 5816.705293001161
5243 5808.217234930728
5244 5802.553461322858
5245 5793.670209263403
5246 5787.778350862613
5247 5778.370965754614
5248 5772.316001273667
5249 5763.120749954027
5250 5754.936654822961
5251 5746.832618936847
5252 5739.344803503223
5253 5734.61257597964
5254 5728.304636060166
5255 5722.473885843093
5256 5717.804172446296
5257 5713.806329670708
5258 5710.730286448256
5259 5708.312714998277
5260 5706.91303648607
5261 5706.352645243254
5262 5706.728422188718
5263 5707.782780855845
5264 5709.695119859362
5265 5711.363815057973
5266 5714.753262564534
5267 5718.587243528202
5268 5721.799706593636
5269 5726.924361708912
5270 5730.985414882784
5271 5737.447981614066
5272 5742.276965577204
5273 5749.560472150829
5274 5754.863083376145
5275 5763.065078354684
5276 5768.866043038818
5277 5777.469051327485
5278 5783.278600434905
5279 5791.880518005664
5280 5797.82950503013
5281 5806.303399049246
5282 5811.952341934732
5283 5819.717622444659
5284 5827.181508557474
5285 5833.490311197032
5286 5839.594055506165
5287 5842.980354435693
5288 5847.785213436398
5289 5851.386298099796
5290 5854.508921395498
5291 5856.453006702251
5292 5857.601227951518
5293 5857.524510561939
5294 5856.877840333598
5295 5855.26757655295
5296 5852.87213319681
5297 5849.297188193026
5298 5845.173506461535
5299 5839.847172433479
5300 5834.134724313543
5301 5829.361121869338
5302 5822.255060825621
5303 5814.374556607888
5304 5808.852579943358
5305 5799.997735829977
5306 5791.397954324883
5307 5785.165267824913
5308 5776.166405262949
5309 5767.051181756266
5310 5761.300911266327
5311 5752.441332511897
5312 5744.422530493643
5313 5736.458896497369
5314 5729.632674100867
5315 5723.167177005748
5316 5717.653976266774
5317 5712.730042528085
5318 5708.622804449801
5319 5704.973203102979
5320 5702.4581486629
5321 5700.432627154419
5322 5699.676370201086
5323 5699.730841150606
5324 5700.822030710548
5325 5702.226650661131
5326 5704.040450221959
5327 5707.13526700208
5328 5710.995851635234
5329 5713.869410085607
5330 5719.215876537733
5331 5724.802867733151
5332 5729.12628091956
5333 5735.90534478065
5334 5740.777221855401
5335 5748.227901408737
5336 5753.54454925529
5337 5761.635080522765
5338 5766.993147458894
5339 5775.194764764646
5340 5780.782369892465
5341 5788.925456450252
5342 5797.044951495148
5343 5802.197834836188
5344 5809.984518633175
5345 5817.007468115373
5346 5823.403343864838
5347 5829.105592291031
5348 5834.232713251648
5349 5838.522676583421
5350 5842.351095685198
5351 5845.048000011345
5352 5847.103289946313
5353 5847.981237963594
5354 5848.214020166723
5355 5847.204995630726
5356 5845.262488222087
5357 5842.446140894537
5358 5839.151556607091
5359 5834.763443944111
5360 5829.962483701111
5361 5824.157888363154
5362 5817.997693548265
5363 5813.35488571952
5364 5805.716702794496
5365 5797.79264158036
5366 5789.32955647655
5367 5783.519284386834
5368 5774.812755954913
5369 5765.813788771074
5370 5760.171360193478
5371 5751.313311386421
5372 5742.991870710405
5373 5735.033841262027
5374 5727.598634988176
5375 5720.68388049954
5376 5714.52342264983
5377 5708.734539598223
5378 5704.010985086888
5379 5699.863546354334
5380 5696.684755765865
5381 5694.35826714225
5382 5692.854429033798
5383 5691.928222530656
5384 5692.114283319904
5385 5692.868231211038
5386 5694.685771331271
5387 5697.376730868795
5388 5700.84680690893
5389 5704.744694275586
5390 5707.922712941073
5391 5713.152725001899
5392 5719.084158707141
5393 5723.266927909097
5394 5730.084665462042
5395 5734.807322110184
5396 5742.579815365235
5397 5747.872177399442
5398 5756.046204852043
5399 5761.534130938692
5400 5769.913548030951
5401 5775.346823625691
5402 5783.505314156804
5403 5791.15429269627
5404 5798.761070222527
5405 5805.680880679636
5406 5812.065940954552
5407 5817.610638395197
5408 5822.808329634752
5409 5827.114800091616
5410 5830.574847075846
5411 5832.99847399839
5412 5834.888223964258
5413 5835.771236015588
5414 5836.103601393439
5415 5835.199044323412
5416 5833.835320185323
5417 5831.453343790326
5418 5828.565390044841
5419 5824.590870731879
5420 5820.079622013479
5421 5814.912229044681
5422 5811.075498340673
5423 5804.504259914632
5424 5797.583981016296
5425 5792.510251811086
5426 5784.701345343587
5427 5776.628234227798
5428 5771.192294227259
5429 5762.421779126435
5430 5753.839751659453
5431 5745.554963710721
5432 5737.58565734706
5433 5729.844998820535
5434 5722.672638407567
5435 5716.0233984317
5436 5709.826079753206
5437 5704.255500858636
5438 5699.404662049302
5439 5695.301044585226
5440 5692.067255718967
5441 5689.489999903465
5442 5687.946715922827
5443 5686.75764693841
5444 5686.855676819079
5445 5687.577142140383
5446 5689.163301219803
5447 5691.300574818712
5448 5694.35692851995
5449 5698.21004818963
5450 5701.147960016545
5451 5706.120817520654
5452 5711.737450879466
5453 5715.629485984869
5454 5722.246031859022
5455 5728.953763103214
5456 5733.912097312043
5457 5741.070057703733
5458 5746.255624894253
5459 5753.989254318177
5460 5761.772359201704
5461 5766.643503846542
5462 5773.967670410134
5463 5781.003940994935
5464 5787.611797305698
5465 5793.732647222709
5466 5799.407435971449
5467 5804.344575092865
5468 5808.496668215466
5469 5811.989559677121
5470 5814.919634484886
5471 5816.806406570345
5472 5818.034511219978
5473 5818.572087253683
5474 5818.355392467811
5475 5817.267088632223
5476 5815.843560828785
5477 5813.335562104257
5478 5810.453080284132
5479 5806.757488995297
5480 5803.82846335322
5481 5798.86581939227
5482 5793.502542899276
5483 5789.480648733736
5484 5783.23416869397
5485 5778.55821121616
5486 5771.429544743484
5487 5766.505296834091
5488 5759.10157469866
5489 5751.420890523689
5490 5746.423536102411
5491 5739.104274098154
5492 5732.036812067552
5493 5725.349822463881
5494 5719.24482741279
5495 5713.246133272242
5496 5707.996717123566
5497 5703.01558818479
5498 5698.927126937947
5499 5695.268476882669
5500 5692.800302375035
5501 5690.690128105042
5502 5689.393219266559
5503 5688.620743223123
5504 5688.841478792186
5505 5689.421492180408
5506 5691.107823053948
5507 5693.469995395338
5508 5695.707104614312
5509 5699.426030574728
5510 5703.825529979632
5511 5706.947469654571
5512 5712.274824430732
5513 5716.082317101458
5514 5722.327927883312
5515 5726.428902480481
5516 5733.306643382435
5517 5737.816806809606
5518 5744.961872158458
5519 5751.718428299007
5520 5756.351396347791
5521 5762.930820567782
5522 5769.274532170084
5523 5775.12074512052
5524 5780.57416633833
5525 5785.296981699904
5526 5789.796649081969
5527 5793.541441284033
5528 5796.912786173394
5529 5799.386401025746
5530 5801.330890899464
5531 5802.424229680662
5532 5802.866510845669
5533 5802.46038482451
5534 5801.575564401242
5535 5800.304143274449
5536 5797.89303245849
5537 5794.756825445877
5538 5792.414957362884
5539 5788.178946154499
5540 5783.634637583483
5541 5780.300257798397
5542 5774.806269341916
5543 5770.945613548847
5544 5765.044309918431
5545 5760.733540698482
5546 5754.217719644205
5547 5749.724875076628
5548 5743.314199872828
5549 5738.678717546327
5550 5732.170662140006
5551 5728.024262825174
5552 5722.050689570221
5553 5716.12371653831
5554 5710.917815748788
5555 5706.018262581133
5556 5701.81093630133
5557 5698.149482077322
5558 5695.081080834149
5559 5692.473834550717
5560 5691.264841571074
5561 5689.936996149751
5562 5689.265498315976
5563 5689.17465274898
5564 5689.825904110464
5565 5691.181016234796
5566 5692.687493573253
5567 5695.256341926529
5568 5697.469480941226
5569 5701.08401334177
5570 5704.048603603716
5571 5708.694553389102
5572 5712.156252322594
5573 5717.633050909365
5574 5721.633119221795
5575 5727.535031651149
5576 5731.671660308239
5577 5737.840949676046
5578 5742.055088529981
5579 5748.097095046308
5580 5752.091985647582
5581 5757.723097759044
5582 5763.199276545543
5583 5767.870428337069
5584 5772.365876661394
5585 5776.001852745152
5586 5779.322102113338
5587 5782.057464367052
5588 5784.047335044464
5589 5785.407457197025
5590 5786.174569910696
5591 5786.145699102179
5592 5785.644124470836
5593 5784.174115718664
5594 5782.454489357647
5595 5780.74431187041
5596 5777.718919874446
5597 5775.225112039971
5598 5771.294900160499
5599 5768.272861663055
5600 5763.500244694535
5601 5759.922892924855
5602 5754.472068414985
5603 5750.573992261939
5604 5744.801213805737
5605 5740.649664993763
5606 5734.714447085938
5607 5730.60603212531
5608 5724.811967398477
5609 5720.916089567801
5610 5715.593899856477
5611 5712.119005441026
5612 5707.263882319177
5613 5702.517344049603
5614 5698.301904380829
5615 5694.502967054697
5616 5691.349238882731
5617 5689.687322993087
5618 5687.612092835613
5619 5686.288212295934
5620 5685.886686431421
5621 5685.767256862369
5622 5686.373225868569
5623 5687.053211083374
5624 5688.80134134194
5625 5690.132992894434
5626 5692.911092772617
5627 5695.021157264109
5628 5698.885103291615
5629 5701.669377098498
5630 5704.854883083744
5631 5709.69035731571
5632 5713.187838083823
5633 5718.488918064666
5634 5722.204021126288
5635 5727.550436686834
5636 5731.430894979571
5637 5736.818953007027
5638 5740.570088536422
5639 5745.710362060096
5640 5749.00925914647
5641 5753.471957040002
5642 5757.796747002977
5643 5761.531346369486
5644 5764.800020532736
5645 5767.452562542001
5646 5769.67805786491
5647 5771.16059434467
5648 5771.918624027654
5649 5772.195122274832
5650 5772.030626042751
5651 5771.217916667534
5652 5770.392355357238
5653 5768.34739708803
5654 5766.134359295954
5655 5764.134740526355
5656 5760.789480084864
5657 5758.152959323428
5658 5753.946022847645
5659 5750.765331537516
5660 5746.014221830498
5661 5742.586266172105
5662 5737.272469577993
5663 5733.56442922761
5664 5729.746882839594
5665 5724.248921319961
5666 5720.708202771864
5667 5715.360139792823
5668 5711.97735415395
5669 5706.861409213212
5670 5703.884367055811
5671 5699.338341548916
5672 5695.521264402054
5673 5693.17463234056
5674 5690.11457783816
5675 5687.479670505651
5676 5685.530174922763
5677 5684.501622919774
5678 5683.63281109958
5679 5683.392372664654
5680 5683.720249289279
5681 5684.520002020072
5682 5685.61939726468
5683 5687.514952161153
5684 5689.426864778362
5685 5692.278116163629
5686 5694.699236322397
5687 5698.532573638084
5688 5701.581406744797
5689 5704.701919396977
5690 5709.666002619537
5691 5712.968976925473
5692 5716.608155314474
5693 5722.206527481845
5694 5725.964480505426
5695 5731.372424244793
5696 5735.017720374644
5697 5740.140995074416
5698 5743.554612510934
5699 5748.182820740826
5700 5752.664718267325
5701 5755.145684847997
5702 5758.706384890851
5703 5761.513988790981
5704 5763.904974610066
5705 5765.450017020383
5706 5766.580836404817
5707 5767.033233799871
5708 5767.016584516342
5709 5766.093011853393
5710 5764.741185488921
5711 5762.695233724621
5712 5761.12595527965
5713 5757.90363892495
5714 5755.547723779066
5715 5751.473705729491
5716 5748.530658013994
5717 5743.670703682626
5718 5740.398257006768
5719 5734.982298367076
5720 5731.257828539725
5721 5725.489157441167
5722 5721.7841412548
5723 5716.024790807877
5724 5712.453031016889
5725 5706.910959527324
5726 5703.398364042936
5727 5698.164263917701
5728 5695.160148170633
5729 5690.622433967879
5730 5686.729347701556
5731 5683.056143505624
5732 5680.148057312363
5733 5678.535547154437
5734 5676.742408831203
5735 5675.217586531963
5736 5674.480320947398
5737 5674.377639229261
5738 5674.985253330769
5739 5676.08393346514
5740 5677.30970662844
5741 5679.53766011351
5742 5681.498249173508
5743 5684.845085929885
5744 5687.504457976785
5745 5691.646337559699
5746 5694.752195101309
5747 5699.888366810132
5748 5703.531420911756
5749 5707.227272919399
5750 5713.104670493067
5751 5716.907831573821
5752 5722.779265633828
5753 5726.55414696927
5754 5732.228362026424
5755 5735.853826589501
5756 5741.064760930999
5757 5745.648558136687
5758 5750.135310288957
5759 5753.938027231538
5760 5757.38700815443
5761 5760.294833091311
5762 5762.706130070823
5763 5764.272957501854
5764 5765.248357370884
5765 5765.56668201174
5766 5765.329333586649
5767 5764.215484032982
5768 5762.662360360448
5769 5761.102619940379
5770 5758.264490316613
5771 5754.86216621609
5772 5752.364013177501
5773 5747.89090323312
5774 5744.818991297039
5775 5739.691700293157
5776 5736.120189397242
5777 5730.300384824342
5778 5726.419249119971
5779 5720.246350570733
5780 5716.284124352139
5781 5710.111433498444
5782 5706.135705777862
5783 5700.072805767446
5784 5696.277431200688
5785 5690.71818084713
5786 5685.562056583506
5787 5680.712391947838
5788 5676.692742227915
5789 5673.013855117941
5790 5669.989503407072
5791 5667.437302766186
5792 5665.719887988626
5793 5664.423473113204
5794 5663.916637509597
5795 5663.947526734876
5796 5664.532223623898
5797 5665.846092265469
5798 5667.862248619827
5799 5669.572514095788
5800 5672.878975957139
5801 5676.578164654216
5802 5679.45210793839
5803 5684.044407640431
5804 5687.501659107861
5805 5692.815474968964
5806 5696.724388719686
5807 5702.662558053875
5808 5706.804657547089
5809 5712.911750847061
5810 5717.325105893335
5811 5723.629024398124
5812 5727.874976858636
5813 5733.898288542189
5814 5739.637354516455
5815 5744.90446549158
5816 5749.718661808741
5817 5753.927302844064
5818 5757.805941034992
5819 5760.955834479515
5820 5763.608556215624
5821 5765.217829282746
5822 5766.539445496188
5823 5766.925889932595
5824 5766.838148642033
5825 5765.80326598668
5826 5764.307384210084
5827 5762.058229282575
5828 5759.355712697708
5829 5755.887615029941
5830 5753.368059053784
5831 5748.724341965925
5832 5743.734453957065
5833 5740.142441681375
5834 5734.489895554939
5835 5730.34939479838
5836 5723.9727932763
5837 5719.403306172469
5838 5712.89354522477
5839 5708.198251198324
5840 5701.579363285844
5841 5695.069367286211
5842 5688.765651827243
5843 5682.706428160016
5844 5677.29432611713
5845 5672.188927871653
5846 5667.590525258727
5847 5663.492359892649
5848 5660.104104207755
5849 5657.180573909994
5850 5654.766586000491
5851 5653.032714279829
5852 5652.036048814282
5853 5651.598452636374
5854 5652.08008893205
5855 5652.968125993641
5856 5654.713265895612
5857 5656.88222433436
5858 5659.783696608794
5859 5662.096744965607
5860 5666.330442834513
5861 5670.744028567086
5862 5674.291182316002
5863 5679.836396813118
5864 5683.867298294096
5865 5689.872246061218
5866 5696.27345868153
5867 5700.525280668333
5868 5707.227599680492
5869 5713.697817133961
5870 5718.165399093022
5871 5724.426034078488
5872 5730.730080495975
5873 5736.39787751134
5874 5741.897649739618
5875 5746.828388156852
5876 5751.177585238261
5877 5754.851854667804
5878 5757.89093568375
5879 5760.079191388952
5880 5761.883869593745
5881 5762.694900013703
5882 5763.067774307379
5883 5762.452350152983
5884 5761.361353078554
5885 5759.336553673287
5886 5756.831760661996
5887 5753.571810629037
5888 5749.749368418269
5889 5745.248684103894
5890 5740.316927213496
5891 5735.046363536031
5892 5729.466295483597
5893 5725.259867396448
5894 5718.598069630834
5895 5711.641191184909
5896 5707.074083963583
5897 5699.797976844749
5898 5692.578462530198
5899 5685.618750279257
5900 5678.877183268891
5901 5672.175607342659
5902 5666.132673705652
5903 5660.093220875049
5904 5654.850923661259
5905 5649.921463932613
5906 5645.89459649218
5907 5642.222632257191
5908 5639.212024236704
5909 5636.857592043344
5910 5635.398133146606
5911 5634.442409372925
5912 5634.523805999097
5913 5635.032865641674
5914 5636.594820167353
5915 5638.683978111237
5916 5641.558675072795
5917 5644.813775886144
5918 5648.948756615786
5919 5653.525854161067
5920 5657.049970536881
5921 5662.666984073638
5922 5668.846569112135
5923 5675.144366915742
5924 5679.70472907675
5925 5686.582265809104
5926 5693.739798754225
5927 5700.709830954738
5928 5707.833798746025
5929 5714.451572771804
5930 5721.218248371275
5931 5727.411829589148
5932 5733.538204410585
5933 5738.834417578259
5934 5743.947327047131
5935 5748.136362571008
5936 5751.993066270744
5937 5754.886616383954
5938 5757.216079899007
5939 5758.699248142554
5940 5759.527340465952
5941 5759.456691669665
5942 5758.64899039252
5943 5757.004409845244
5944 5754.889504121852
5945 5751.886970581115
5946 5748.371928368649
5947 5743.999469217852
5948 5739.121173628706
5949 5733.570369699526
5950 5727.757355186965
5951 5721.311390125755
5952 5714.704009007882
5953 5709.971439207555
5954 5702.842296244105
5955 5695.304478545992
5956 5688.173922079792
5957 5680.699645062119
5958 5673.664816297936
5959 5666.830621888588
5960 5660.374215931673
5961 5654.147549544705
5962 5648.452215743591
5963 5643.166436173469
5964 5638.743883806971
5965 5634.697030482464
5966 5631.393130542033
5967 5628.685228179302
5968 5627.013385578906
5969 5625.888354474256
5970 5625.625878505114
5971 5625.912536996802
5972 5627.091231981827
5973 5628.951603136423
5974 5631.662087510367
5975 5635.000646909374
5976 5639.252422672736
5977 5643.915224372577
5978 5649.16060221567
5979 5652.98990158567
5980 5659.334273721387
5981 5666.030225616078
5982 5673.438250329447
5983 5678.160615025798
5984 5685.670429424391
5985 5693.210705698587
5986 5700.756647302159
5987 5707.926836520231
5988 5715.110995921302
5989 5721.775163507916
5990 5728.194965927242
5991 5733.946361116171
5992 5739.272621462127
5993 5744.043487229201
5994 5748.219177005214
5995 5751.469746531478
5996 5754.227998488227
5997 5755.964338263327
5998 5757.113397086898
5999 5757.411127022577
6000 5756.937027408158
6001 5755.535107717072
6002 5753.422059204466
6003 5750.474935618882
6004 5747.037362360459
6005 5742.858217357822
6006 5738.084397181495
6007 5732.67217467202
6008 5726.995222744543
6009 5720.457112539385
6010 5713.874922366975
6011 5709.053873875031
6012 5701.621864305379
6013 5693.730585344276
6014 5686.035259785969
6015 5678.172963706786
6016 5670.948896770641
6017 5663.640783923434
6018 5656.751713445054
6019 5650.105083872844
6020 5644.19448061089
6021 5638.668334810018
6022 5633.921261440041
6023 5629.536352861514
6024 5625.861045250086
6025 5622.90214602482
6026 5620.844126941342
6027 5619.437175374715
6028 5618.929378536111
6029 5619.115346595229
6030 5620.180811886177
6031 5621.940464345498
6032 5624.592063917567
6033 5627.894233870211
6034 5632.004958012619
6035 5636.560257659164
6036 5641.792494128526
6037 5645.466342905424
6038 5651.983644730925
6039 5658.75424600615
6040 5665.918175130336
6041 5670.829638349934
6042 5678.751956619452
6043 5686.192716918042
6044 5694.095452008311
6045 5701.436266862511
6046 5708.643369089709
6047 5715.48649456592
6048 5722.096066791316
6049 5728.085380417814
6050 5733.759825440979
6051 5738.721702323675
6052 5743.314434279912
6053 5746.968012523489
6054 5750.081032482772
6055 5752.222583181895
6056 5753.537956593937
6057 5753.775141389617
6058 5753.481774404928
6059 5752.305953304632
6060 5750.616186433492
6061 5747.782260276931
6062 5744.486999599642
6063 5740.261235083432
6064 5735.450859582101
6065 5730.077140930165
6066 5724.250215519377
6067 5717.746152356823
6068 5711.174701164449
6069 5703.937647175122
6070 5698.981653486409
6071 5691.099902211132
6072 5683.423008540137
6073 5675.606918615263
6074 5667.872147399625
6075 5660.158347279161
6076 5652.893136459397
6077 5645.80783484027
6078 5639.576142270188
6079 5633.363044330083
6080 5628.021057707572
6081 5623.254186270117
6082 5619.272701512592
6083 5615.770908261049
6084 5613.105844271109
6085 5611.358074112925
6086 5610.539994546672
6087 5610.328670416528
6088 5610.842194859612
6089 5612.147711024232
6090 5614.603227749372
6091 5617.574781864308
6092 5621.261108021542
6093 5625.569483986133
6094 5630.645344025917
6095 5636.115126924346
6096 5640.322466181105
6097 5647.153713717129
6098 5654.36523168275
6099 5661.70893776348
6100 5666.825042644609
6101 5674.590212908157
6102 5682.512423057943
6103 5690.315544823122
6104 5697.886148431041
6105 5705.048847539833
6106 5712.03734583981
6107 5718.346405056102
6108 5724.32128916582
6109 5729.572823686775
6110 5734.253340155887
6111 5738.040033981
6112 5741.447603738247
6113 5743.736029120194
6114 5745.423457325397
6115 5746.099634522468
6116 5746.061649454981
6117 5745.147454233415
6118 5743.694019637865
6119 5741.201164893723
6120 5738.046600760389
6121 5734.164440992715
6122 5729.575182895236
6123 5724.387020507127
6124 5718.754300779825
6125 5712.440593497223
6126 5705.714619721005
6127 5698.607387696121
6128 5693.745066860999
6129 5685.837973083368
6130 5677.95958537708
6131 5669.918720663114
6132 5662.282434250767
6133 5654.634605668172
6134 5647.350363745649
6135 5640.251316828467
6136 5633.647623028312
6137 5627.343925000391
6138 5621.944023120417
6139 5616.842308276802
6140 5612.579349545894
6141 5608.954087666565
6142 5606.032108764705
6143 5603.872056163261
6144 5602.729091368181
6145 5602.24446565612
6146 5602.639184521478
6147 5603.889093131411
6148 5606.042524708216
6149 5608.743524513157
6150 5612.376610508672
6151 5616.604261646739
6152 5621.49056268704
6153 5626.840366143558
6154 5630.896633592671
6155 5637.360287188527
6156 5644.585880678194
6157 5651.919770629464
6158 5657.038439038706
6159 5664.934455288457
6160 5672.968094960771
6161 5680.643525551583
6162 5688.478630488999
6163 5695.847895671964
6164 5702.841104551672
6165 5709.434985863162
6166 5715.558490368096
6167 5720.95286624102
6168 5725.964025612964
6169 5730.009726687901
6170 5733.478975764009
6171 5735.977795078626
6172 5738.015226486446
6173 5738.919013255308
6174 5739.231367982268
6175 5738.569457768018
6176 5737.094034761539
6177 5734.782250613237
6178 5731.763084334603
6179 5728.063773641225
6180 5723.695608377455
6181 5718.534719780851
6182 5713.06322971557
6183 5706.760082560609
6184 5700.29236292868
6185 5693.295848964419
6186 5688.518551065699
6187 5680.877466413201
6188 5673.248398440696
6189 5665.185959963879
6190 5657.51131647342
6191 5649.879060090819
6192 5642.658227066228
6193 5635.490943713497
6194 5628.841923713214
6195 5622.852134651763
6196 5617.433664628673
6197 5612.388182499224
6198 5608.145679930222
6199 5604.53790793811
6200 5601.670421019018
6201 5599.631958247512
6202 5598.490266604324
6203 5598.08248351081
6204 5598.584363083805
6205 5599.63543882979
6206 5601.768562345738
6207 5604.549596650992
6208 5608.14938999069
6209 5612.267442673167
6210 5617.248328710947
6211 5620.882481257133
6212 5627.22790870896
6213 5633.800934348965
6214 5640.990203034386
6215 5645.821807882262
6216 5653.67748607886
6217 5661.536463067891
6218 5669.435065292096
6219 5677.154523365901
6220 5685.022593308389
6221 5692.192565880076
6222 5699.156180493428
6223 5705.590115533426
6224 5711.94441547958
6225 5717.507604599009
6226 5722.728252784689
6227 5726.907096467818
6228 5730.556416298606
6229 5733.228123006113
6230 5735.292803777327
6231 5736.48081430449
6232 5736.977483738819
6233 5736.361571524209
6234 5735.174803464478
6235 5732.897456871515
6236 5730.113312985642
6237 5726.26851361471
6238 5722.139689081659
6239 5717.11743688262
6240 5711.631812965855
6241 5705.508366571351
6242 5699.279508489759
6243 5694.617954237718
6244 5687.421913964794
6245 5679.78888719729
6246 5672.239812922345
6247 5664.345963839663
6248 5656.916524814167
6249 5649.476184739731
6250 5642.310151064883
6251 5635.353130300546
6252 5628.884569140882
6253 5622.525612327598
6254 5617.194586661651
6255 5612.254657300577
6256 5608.107522271394
6257 5604.445871241094
6258 5601.692024420601
6259 5599.457141395517
6260 5598.215001362014
6261 5597.769842531091
6262 5598.296878522041
6263 5599.378785450925
6264 5601.644844088712
6265 5604.311984132927
6266 5607.962757376907
6267 5612.156812693196
6268 5617.043386835928
6269 5622.443944458455
6270 5626.634245668865
6271 5633.280617812855
6272 5640.586324387698
6273 5647.795449157642
6274 5653.016420102892
6275 5660.851677702482
6276 5669.034686064729
6277 5676.797492206884
6278 5684.734981151137
6279 5692.153162253248
6280 5699.346961052684
6281 5706.043927162339
6282 5712.541210200434
6283 5718.148881056059
6284 5723.469831688409
6285 5727.958005883338
6286 5732.009564559767
6287 5734.753484652543
6288 5736.929951875813
6289 5738.163626250685
6290 5738.718085039521
6291 5738.291625617505
6292 5737.26491987292
6293 5735.179758223391
6294 5732.529592305053
6295 5728.958783169686
6296 5724.810340471354
6297 5719.8203306211
6298 5714.373140129028
6299 5708.317283013731
6300 5701.840243364111
6301 5694.779254489019
6302 5690.060345819835
6303 5682.386151700895
6304 5674.782318946399
6305 5666.860139035271
6306 5659.279022499501
6307 5651.46660791763
6308 5644.235839860374
6309 5636.965106961496
6310 5630.379488976798
6311 5624.110470689395
6312 5618.563075315506
6313 5613.378159307237
6314 5609.107916662256
6315 5605.314362925534
6316 5602.36299856911
6317 5600.121224393256
6318 5598.915606869114
6319 5598.283661305053
6320 5598.848946887466
6321 5599.869947064948
6322 5602.068050142548
6323 5604.831512893865
6324 5608.397834960942
6325 5612.571152250541
6326 5617.773171456797
6327 5623.316942315129
6328 5629.738117563764
6329 5634.1825949071
6330 5641.706389792036
6331 5649.369899738387
6332 5657.290090084882
6333 5665.127705779002
6334 5673.147107025944
6335 5680.897174339899
6336 5688.937232928401
6337 5696.316361174245
6338 5703.643465081391
6339 5710.457886027178
6340 5717.041569270617
6341 5722.723468828907
6342 5728.127858354368
6343 5732.53146512806
6344 5736.500811963924
6345 5739.485954929736
6346 5741.752086617856
6347 5742.922844807475
6348 5743.547053517907
6349 5743.05082052767
6350 5741.837192063294
6351 5739.502823001144
6352 5736.789567195332
6353 5733.171330868558
6354 5728.871915470587
6355 5723.789126539403
6356 5718.342437145895
6357 5712.022896148388
6358 5705.504992997412
6359 5698.27104061333
6360 5691.171490714726
6361 5683.494385320614
6362 5675.952734669414
6363 5668.156140538071
6364 5660.678305254986
6365 5652.940418146913
6366 5645.743896913576
6367 5638.476770685831
6368 5631.936233958267
6369 5625.655374130667
6370 5620.148301286059
6371 5614.92222746936
6372 5610.725231086051
6373 5606.781002874515
6374 5603.927916837365
6375 5601.83252750663
6376 5600.708082833344
6377 5600.257710843838
6378 5600.884229124363
6379 5602.022991601867
6380 5604.286315353653
6381 5607.103722363046
6382 5610.726515537144
6383 5614.947356172404
6384 5620.387773339694
6385 5626.070119021349
6386 5632.465556050775
6387 5639.19818207069
6388 5644.106239584724
6389 5651.770863813602
6390 5659.744112064869
6391 5667.800428718478
6392 5675.973540641714
6393 5684.000362899303
6394 5692.131426683173
6395 5699.917796594455
6396 5707.649395298102
6397 5714.737515710461
6398 5721.569698473648
6399 5727.578989791577
6400 5733.093904063779
6401 5737.729643031066
6402 5741.678807907861
6403 5744.630520384159
6404 5747.068752928839
6405 5748.396163723512
6406 5749.03332619693
6407 5748.63163513429
6408 5747.400848675713
6409 5745.227811558238
6410 5742.273058061659
6411 5738.450152413204
6412 5734.299041310095
6413 5729.107563424564
6414 5723.485148664532
6415 5717.070670955274
6416 5710.286188177276
6417 5703.102752503362
6418 5695.625511896174
6419 5687.882775495947
6420 5679.888136483101
6421 5671.726038673707
6422 5663.72858798752
6423 5655.942997275455
6424 5648.493057895114
6425 5641.253622835226
6426 5634.48056375741
6427 5627.976875834855
6428 5622.253816851682
6429 5616.944154473879
6430 5612.637507102981
6431 5608.734043150221
6432 5605.702452379016
6433 5603.485748877438
6434 5602.435062675925
6435 5601.84045923173
6436 5602.461467240985
6437 5603.691340705578
6438 5606.025612139159
6439 5608.983366935762
6440 5612.888819881467
6441 5617.22212939548
6442 5622.659954462626
6443 5628.435280756227
6444 5635.021140636528
6445 5642.009081288703
6446 5649.546404610722
6447 5654.775850695922
6448 5663.075395975956
6449 5671.232883543781
6450 5680.013457265793
6451 5688.26269579888
6452 5696.745318347215
6453 5704.775676229314
6454 5712.662047340163
6455 5719.888382524418
6456 5726.867670891168
6457 5733.207850839319
6458 5738.918894373918
6459 5743.648930557723
6460 5747.641438565897
6461 5750.585493255002
6462 5752.943377709312
6463 5754.279267264435
6464 5754.948440367391
6465 5754.487135853316
6466 5753.093757115008
6467 5750.693797335814
6468 5747.649176204175
6469 5743.667785148883
6470 5739.145930517505
6471 5733.60396979366
6472 5727.73675876751
6473 5721.130984281775
6474 5714.055232871997
6475 5706.61476862542
6476 5699.031120080536
6477 5690.722032177635
6478 5682.477770144
6479 5674.161981960139
6480 5665.906844165916
6481 5657.945164751036
6482 5650.348755477004
6483 5642.780797579281
6484 5635.9909445402
6485 5629.394305580246
6486 5623.694522302529
6487 5618.478290386321
6488 5613.941023154561
6489 5609.957504128392
6490 5607.031544455101
6491 5604.966822533826
6492 5603.824555554234
6493 5603.414328387648
6494 5604.040782311161
6495 5605.429513915354
6496 5607.767422202151
6497 5610.857678618142
6498 5614.974268795445
6499 5619.534249697887
6500 5624.969734664042
6501 5631.053780742652
6502 5637.731797785646
6503 5644.651030767461
6504 5652.289517873416
6505 5660.102884626736
6506 5668.538252459735
6507 5676.711253549376
6508 5685.233298355928
6509 5693.329988377754
6510 5701.385310902363
6511 5709.191176058017
6512 5716.886797281411
6513 5724.062405727161
6514 5731.033673873211
6515 5737.193239748752
6516 5742.801996046785
6517 5747.5023001407
6518 5751.559175270895
6519 5754.400159793466
6520 5756.670724538436
6521 5757.972425666847
6522 5758.508663820754
6523 5757.869604812954
6524 5756.581103844937
6525 5754.200945064928
6526 5751.296946467559
6527 5747.375527954018
6528 5742.807525441157
6529 5737.27909188686
6530 5731.265899138085
6531 5724.610856489842
6532 5717.619791349461
6533 5710.175446146276
6534 5702.42830676125
6535 5694.260170302366
6536 5686.214639237268
6537 5677.908195395496
6538 5669.731757760333
6539 5661.479171132399
6540 5654.000567414377
6541 5646.483620245874
6542 5639.51199045491
6543 5632.846386028342
6544 5627.227302018877
6545 5621.977816485228
6546 5617.660491913496
6547 5613.864420518553
6548 5611.041479993813
6549 5608.715308256003
6550 5607.612161542826
6551 5607.142280546882
6552 5607.795410139521
6553 5609.035249556156
6554 5611.25441996268
6555 5614.506560088409
6556 5618.549264582691
6557 5622.996998813913
6558 5628.333617336717
6559 5634.191866402831
6560 5640.786667694795
6561 5647.7157480705
6562 5655.310699163563
6563 5662.919417099911
6564 5671.077821653205
6565 5679.393369938472
6566 5687.824690221519
6567 5696.016710691044
6568 5704.225996331028
6569 5711.985416741221
6570 5719.756816546161
6571 5726.859111786094
6572 5733.845204583152
6573 5740.052370271735
6574 5745.6602767627
6575 5750.24636268865
6576 5754.346755886818
6577 5757.355404597317
6578 5759.750820560808
6579 5761.079667073715
6580 5761.736371381352
6581 5761.299814572485
6582 5760.177207061156
6583 5758.006197631142
6584 5755.157185416032
6585 5751.235564926645
6586 5746.84022504958
6587 5741.547841274078
6588 5735.731623430472
6589 5729.368091839939
6590 5722.755612386804
6591 5715.370241400321
6592 5707.981751840412
6593 5699.999143287731
6594 5691.990405059627
6595 5683.778232706425
6596 5675.631901804837
6597 5667.458645184824
6598 5659.660716323277
6599 5651.944372925578
6600 5644.800620976351
6601 5637.96340381192
6602 5631.932219657398
6603 5626.543695773915
6604 5621.895490230982
6605 5617.741005628636
6606 5614.557710041994
6607 5612.110554484424
6608 5610.526264001714
6609 5609.78991403037
6610 5610.100529079762
6611 5610.979408022109
6612 5612.992500065068
6613 5615.67846251325
6614 5619.366172720626
6615 5623.628835537584
6616 5628.865271255739
6617 5634.719431230102
6618 5641.157235343646
6619 5648.07749297939
6620 5655.68796097345
6621 5663.285460155558
6622 5671.670668027555
6623 5679.684961857336
6624 5688.282674013117
6625 5696.576613677234
6626 5705.174740265878
6627 5713.263076733622
6628 5721.132980517951
6629 5728.367160489506
6630 5735.371146721524
6631 5741.759856688991
6632 5747.564198575278
6633 5752.499382141666
6634 5757.104381503395
6635 5760.466977069467
6636 5763.149812240586
6637 5764.8443750108
6638 5765.710452985213
6639 5765.560995193056
6640 5764.678066043152
6641 5762.7312610454
6642 5759.948651335555
6643 5756.220178203374
6644 5751.967314406938
6645 5746.849975588389
6646 5741.261759672152
6647 5734.848229089755
6648 5728.101852108708
6649 5720.714860998419
6650 5713.04585412144
6651 5704.653819823983
6652 5696.442739041328
6653 5687.925730345929
6654 5679.474760748712
6655 5670.7517799309
6656 5662.392453596322
6657 5654.216014964222
6658 5646.647559718536
6659 5639.49506079958
6660 5633.267963424994
6661 5627.381257122285
6662 5622.316789729599
6663 5617.921038686017
6664 5614.465383092139
6665 5611.633506005069
6666 5609.966716139552
6667 5609.007533643622
6668 5609.107632779353
6669 5609.976841936495
6670 5611.886244435729
6671 5614.497377972174
6672 5618.216570932495
6673 5622.644864894673
6674 5628.005153108707
6675 5634.002372783431
6676 5640.744888607355
6677 5647.76835268659
6678 5655.710781975165
6679 5663.728436168375
6680 5672.366544275507
6681 5680.881179090306
6682 5689.691718276189
6683 5698.24776545534
6684 5706.890593370895
6685 5715.384326670276
6686 5723.66374895307
6687 5731.35149645319
6688 5738.543307940227
6689 5744.988896243604
6690 5751.193076294972
6691 5756.332986225202
6692 5760.937939921972
6693 5764.354523472881
6694 5767.388308648292
6695 5769.187036765499
6696 5770.277255220498
6697 5770.152469879026
6698 5769.359470431547
6699 5767.357243814403
6700 5764.659744436149
6701 5760.859257798564
6702 5756.484158350319
6703 5751.342105870121
6704 5745.536383618231
6705 5738.976110670804
6706 5731.997654896025
6707 5724.225363773292
6708 5716.383444485201
6709 5707.811922696287
6710 5699.440044957572
6711 5690.626001204943
6712 5682.101314175052
6713 5673.511942926192
6714 5665.066756692496
6715 5656.865783144855
6716 5649.351698116763
6717 5641.959051278783
6718 5635.489687426894
6719 5629.542054996175
6720 5624.474638845768
6721 5619.87095064797
6722 5616.181683734172
6723 5613.31123453353
6724 5611.616181234908
6725 5610.631375557359
6726 5610.877686289122
6727 5611.844500353764
6728 5613.998572778334
6729 5616.837617783146
6730 5620.670487330809
6731 5625.008416362542
6732 5630.491134239826
6733 5636.533138822605
6734 5643.402977988173
6735 5650.627466370447
6736 5658.584118384138
6737 5666.737116827343
6738 5675.565908533392
6739 5684.56931702861
6740 5693.647834728372
6741 5702.60723199871
6742 5711.673325829228
6743 5720.050719651897
6744 5728.263353701088
6745 5736.028804720037
6746 5743.508714674116
6747 5750.31989492242
6748 5756.516400454154
6749 5761.804889727752
6750 5766.50907221641
6751 5770.095635910632
6752 5772.821241431899
6753 5774.482638603274
6754 5775.540390137758
6755 5775.3555404879
6756 5774.390112371837
6757 5772.326723093524
6758 5769.463587828242
6759 5765.680753361025
6760 5761.151249179192
6761 5755.806519441249
6762 5749.800225300926
6763 5742.889714965125
6764 5735.654432655162
6765 5727.817182049607
6766 5719.894196202826
6767 5711.307613240972
6768 5702.746161649049
6769 5693.838717491668
6770 5685.241575369234
6771 5676.561897356455
6772 5668.148287249018
6773 5659.82540326342
6774 5652.100175628597
6775 5644.545278443019
6776 5638.191663211739
6777 5632.0339508671
6778 5626.841577104188
6779 5622.334957208184
6780 5618.852502578191
6781 5615.976507470094
6782 5614.436698254536
6783 5613.584276091396
6784 5613.783067967856
6785 5614.682201190907
6786 5616.810166686075
6787 5619.535785168197
6788 5623.512925183989
6789 5628.137695512122
6790 5633.730071789407
6791 5639.895669011708
6792 5646.763286287384
6793 5654.011783982118
6794 5662.191007811267
6795 5670.274487621718
6796 5678.911640067394
6797 5687.483163518081
6798 5696.412164299189
6799 5705.208762679101
6800 5714.192022555672
6801 5722.618798947614
6802 5730.775705769072
6803 5738.562808071618
6804 5745.750509826885
6805 5752.274017914773
6806 5758.68096420723
6807 5763.837017575601
6808 5768.450847038313
6809 5771.890274876374
6810 5774.715793923203
6811 5776.280652571642
6812 5777.210453407778
6813 5777.053346722604
6814 5776.169538016525
6815 5774.054439813864
6816 5771.330681108408
6817 5767.444544740019
6818 5762.935212237649
6819 5757.624844354164
6820 5751.666857429833
6821 5744.710288074172
6822 5737.698805961001
6823 5729.933227542076
6824 5722.026989190927
6825 5713.547658281114
6826 5705.42649433458
6827 5696.866272130438
6828 5688.436019421255
6829 5679.959778689094
6830 5671.838615804701
6831 5663.741243280752
6832 5656.364992673244
6833 5649.391037857422
6834 5643.332033043944
6835 5637.695270926649
6836 5632.919969190473
6837 5628.599895184691
6838 5625.325958101981
6839 5622.677445752664
6840 5621.301739251163
6841 5620.566497389953
6842 5620.993226236968
6843 5622.013633085219
6844 5624.119517204563
6845 5626.940373003248
6846 5630.622497722435
6847 5635.147205343346
6848 5640.531442061954
6849 5646.527300932158
6850 5653.149099764481
6851 5660.179751603596
6852 5668.013195866081
6853 5675.840583958378
6854 5684.141393523397
6855 5692.134842714498
6856 5700.630592677051
6857 5708.883949589073
6858 5717.410708082186
6859 5725.519872342165
6860 5733.226521789386
6861 5740.461094529958
6862 5747.539396383129
6863 5753.755260273657
6864 5759.624568512428
6865 5764.693197072465
6866 5769.251193739871
6867 5772.510089228536
6868 5775.350016282825
6869 5777.047840714478
6870 5778.029960106707
6871 5777.899900798127
6872 5776.997725010075
6873 5775.158597847316
6874 5772.691946046883
6875 5769.015176423342
6876 5764.909396723465
6877 5759.977503232029
6878 5754.470214239078
6879 5748.248430128413
6880 5741.692881525801
6881 5734.553422142459
6882 5727.323865584734
6883 5719.538817415463
6884 5711.421165893479
6885 5702.983697563367
6886 5695.021493330525
6887 5686.921993422428
6888 5679.143420054577
6889 5671.421103738095
6890 5664.153273325944
6891 5657.212256160291
6892 5650.918718521633
6893 5645.319473272038
6894 5640.432953513005
6895 5636.011279822649
6896 5632.679060698299
6897 5629.778453922904
6898 5627.97645668939
6899 5626.906629928018
6900 5626.840819382144
6901 5627.353321002547
6902 5629.158728004496
6903 5631.382762124111
6904 5634.551530791973
6905 5638.577743705178
6906 5643.557827427009
6907 5648.963377311686
6908 5655.25737393097
6909 5661.902930422134
6910 5669.143497262479
6911 5676.680188538416
6912 5684.811885157999
6913 5692.953790754176
6914 5701.260586996636
6915 5709.456955697558
6916 5717.910090685828
6917 5725.927233586168
6918 5733.71043332336
6919 5741.133764787839
6920 5748.250448939193
6921 5754.688357431268
6922 5760.620967093731
6923 5765.752628992066
6924 5770.553414156041
6925 5774.036107912884
6926 5777.03983959747
6927 5779.156599986389
6928 5780.463694282832
6929 5780.625087858042
6930 5780.090716194886
6931 5778.682864293241
6932 5776.404365570825
6933 5772.93920588733
6934 5769.171033117287
6935 5764.36613091922
6936 5758.991589319169
6937 5752.767452193053
6938 5746.276440419858
6939 5739.162491747878
6940 5731.77378200273
6941 5724.034575118146
6942 5716.122330171896
6943 5707.734635912783
6944 5699.639900075459
6945 5691.286168585407
6946 5683.210919804175
6947 5675.308546758883
6948 5668.075062632274
6949 5661.096976037416
6950 5654.658302903968
6951 5648.633824685421
6952 5643.701760635236
6953 5639.196875357589
6954 5635.607142099669
6955 5632.620310566689
6956 5630.583830521444
6957 5629.25610632639
6958 5629.065768534729
6959 5629.326685157883
6960 5630.875435649022
6961 5632.971499434229
6962 5636.30518358801
6963 5640.107334695561
6964 5644.800955709286
6965 5650.073648314617
6966 5656.151835504043
6967 5662.683456171972
6968 5670.10437702013
6969 5677.504197393496
6970 5685.595442280106
6971 5693.488421338787
6972 5701.899960583097
6973 5710.23536850288
6974 5718.806804409472
6975 5726.943691265701
6976 5734.988938101227
6977 5742.487357338135
6978 5749.911190804161
6979 5756.655358869965
6980 5762.997167206909
6981 5768.683902324891
6982 5773.731509063102
6983 5777.659216703394
6984 5780.937939601328
6985 5783.138812128228
6986 5784.559409402815
6987 5784.892241397716
6988 5784.396612415695
6989 5782.81631269665
6990 5780.680008732291
6991 5777.478162548256
6992 5773.610801724725
6993 5768.862432128169
6994 5763.420261411188
6995 5757.204654321482
6996 5750.665703882174
6997 5743.52854749411
6998 5736.286030350812
6999 5728.358290998519
7000 5720.32411384342
7001 5712.09164577823
7002 5703.980483971305
7003 5695.641397108498
7004 5687.659311532004
7005 5679.545455565451
7006 5672.144094980201
7007 5664.938584577513
7008 5658.428916023669
7009 5652.256554411157
7010 5646.940666589803
7011 5641.989532896828
7012 5638.107414053028
7013 5634.768758590276
7014 5632.451170088674
7015 5630.984633841476
7016 5630.484272225313
7017 5630.690282502519
7018 5632.019227913044
7019 5634.055196574098
7020 5637.10505981591
7021 5640.859452251844
7022 5645.643947815955
7023 5650.920508719661
7024 5657.146125700706
7025 5663.641028578721
7026 5670.911185054707
7027 5678.512580527864
7028 5686.727639402086
7029 5695.111816148138
7030 5703.784731825034
7031 5712.297382648355
7032 5721.098884493192
7033 5729.432693985078
7034 5737.557675279535
7035 5745.165148613514
7036 5752.581476519502
7037 5759.40359329598
7038 5765.792710381658
7039 5771.352859640004
7040 5776.31417993765
7041 5780.187330672841
7042 5783.495385854999
7043 5785.856219475781
7044 5787.602639820984
7045 5788.171013505415
7046 5787.650451520479
7047 5786.183184644104
7048 5784.177619124572
7049 5781.046700963752
7050 5777.298471903772
7051 5772.557215885522
7052 5767.328056967869
7053 5761.172058550948
7054 5754.700767192031
7055 5747.368497356983
7056 5739.934791885777
7057 5731.846447035708
7058 5723.766066382519
7059 5715.387973727812
7060 5707.040451364294
7061 5698.592487021951
7062 5690.880820621438
7063 5682.754504128128
7064 5675.232017068656
7065 5667.84014650497
7066 5661.35979391689
7067 5655.027652376969
7068 5649.581715210989
7069 5644.732133142887
7070 5640.767919216128
7071 5637.504704413775
7072 5635.269695153424
7073 5633.655044583183
7074 5633.059904169473
7075 5633.197180737664
7076 5634.573910735488
7077 5636.508380148793
7078 5639.472998727676
7079 5643.276685479874
7080 5647.871288933801
7081 5653.277243881235
7082 5659.446184979121
7083 5665.953478183014
7084 5673.084971554767
7085 5680.663839914144
7086 5688.758591624098
7087 5697.042392483249
7088 5705.613941217527
7089 5714.034980062571
7090 5722.591273723808
7091 5730.91374838704
7092 5739.447598482437
7093 5747.252669077228
7094 5754.999274813666
7095 5762.017989708364
7096 5768.301355670067
7097 5773.879531604138
7098 5778.833681924521
7099 5782.926450784024
7100 5786.202299443473
7101 5788.616045216747
7102 5790.266935380939
7103 5790.820673387188
7104 5790.509684072735
7105 5789.245094468331
7106 5787.197024581452
7107 5784.024986046001
7108 5780.259749773224
7109 5775.608057194152
7110 5770.436492064124
7111 5764.315050233637
7112 5757.782720655296
7113 5750.457807386772
7114 5743.127543064323
7115 5735.136718391132
7116 5727.247827217089
7117 5718.837358050873
7118 5710.551843638916
7119 5702.111681101254
7120 5693.985739500736
7121 5686.025320479991
7122 5678.590827634157
7123 5671.328563268283
7124 5664.804655164573
7125 5658.626454146521
7126 5653.305651719487
7127 5648.266034798825
7128 5644.082441492136
7129 5640.4885081477
7130 5637.96495053851
7131 5636.218816334437
7132 5635.528027076753
7133 5635.68001568654
7134 5636.836126587835
7135 5638.687008153222
7136 5641.451497440889
7137 5645.063563292267
7138 5649.58030383485
7139 5654.894160150898
7140 5660.645064919681
7141 5667.160719145947
7142 5674.266439160401
7143 5681.791865081345
7144 5689.991853451544
7145 5698.00757826689
7146 5706.577664822715
7147 5715.079455584954
7148 5723.569756022447
7149 5731.905922539861
7150 5740.216929412433
7151 5747.829929027515
7152 5755.450470972744
7153 5762.451486840569
7154 5768.696965349117
7155 5774.361751458353
7156 5779.290354127788
7157 5783.508522717118
7158 5787.017568975792
7159 5789.634151655078
7160 5791.504524905937
7161 5792.263700108053
7162 5792.117106858886
7163 5790.843848682331
7164 5788.873664884626
7165 5786.022321635362
7166 5782.414449308834
7167 5778.013283580317
7168 5772.873598265784
7169 5766.890758517779
7170 5760.531689412574
7171 5753.218905764
7172 5745.869298661798
7173 5737.901081654156
7174 5729.712359134483
7175 5721.298109842594
7176 5712.911346463609
7177 5704.434797492963
7178 5696.153543476321
7179 5687.996064371031
7180 5680.297303332002
7181 5672.726973917964
7182 5666.063919052518
7183 5659.668998040876
7184 5654.11931416348
7185 5649.184634952816
7186 5645.134605586613
7187 5641.610272869217
7188 5639.137293956555
7189 5637.342701694181
7190 5636.497072586535
7191 5636.554668355509
7192 5637.794404733841
7193 5639.461212635003
7194 5642.208928380267
7195 5645.61375811069
7196 5650.040655722583
7197 5655.11574258686
7198 5661.13053592805
7199 5667.389478578638
7200 5674.572531896439
7201 5681.807600594168
7202 5689.834062081823
7203 5697.889664159853
7204 5706.474550754081
7205 5714.875294230086
7206 5723.617356589986
7207 5731.719407935407
7208 5739.901348457392
7209 5747.870500474899
7210 5755.464982678621
7211 5762.320474802689
7212 5768.764290186404
7213 5774.505650777322
7214 5779.697418377558
7215 5784.160941727087
7216 5787.765750911347
7217 5790.312735131589
7218 5792.179308867656
7219 5792.961106168503
7220 5793.006517920494
7221 5791.877557737344
7222 5789.889379194242
7223 5787.030472054349
7224 5783.536312719618
7225 5779.051595016797
7226 5774.098039303391
7227 5768.120705001836
7228 5761.847492173124
7229 5754.728134360206
7230 5747.422053416139
7231 5739.462018361743
7232 5731.336934979374
7233 5723.00213777819
7234 5714.651253128453
7235 5705.938422301814
7236 5697.724827859451
7237 5689.608022907445
7238 5681.781021955928
7239 5674.283016493999
7240 5667.352064262488
7241 5660.859872648341
7242 5655.190039748113
7243 5649.990264678188
7244 5645.873791490319
7245 5642.305057076892
7246 5639.701062644252
7247 5637.812307428982
7248 5636.749810161792
7249 5636.640260200324
7250 5637.501672670399
7251 5639.106843745178
7252 5641.922110408175
7253 5645.253854323754
7254 5649.628056215688
7255 5654.583370216635
7256 5660.474994901186
7257 5666.777973547027
7258 5673.773103253361
7259 5681.221172178187
7260 5689.158018030616
7261 5697.333757301285
7262 5705.683044419601
7263 5714.05175939633
7264 5722.754137484364
7265 5731.205261907139
7266 5739.470330198221
7267 5747.477718886157
7268 5755.092439505554
7269 5762.045819595415
7270 5768.547397133922
7271 5774.303329057631
7272 5779.502846938285
7273 5783.85292011204
7274 5787.481916604866
7275 5789.904928008338
7276 5791.882125105321
7277 5792.809080910741
7278 5792.831006566859
7279 5791.805279603153
7280 5790.099998829477
7281 5787.312383482319
7282 5783.653617829335
7283 5779.121785946948
7284 5774.191770644239
7285 5768.435634084612
7286 5762.245015789023
7287 5755.115412105392
7288 5747.610057169542
7289 5739.585737784374
7290 5731.643713280657
7291 5723.391819734582
7292 5715.030891551446
7293 5706.275016775957
7294 5698.178794194913
7295 5690.028311932175
7296 5682.381392217601
7297 5674.650345063947
7298 5667.609076175741
7299 5661.086905657801
7300 5655.369515120143
7301 5650.100531043386
7302 5645.931087965241
7303 5642.101686279558
7304 5639.376598662054
7305 5637.442630671647
7306 5636.401935701299
7307 5636.045304365489
7308 5636.754187918506
7309 5638.400251831086
7310 5640.914552630413
7311 5644.197497828833
7312 5648.462838706287
7313 5653.385722953446
7314 5659.376513182884
7315 5665.500303115025
7316 5672.360868113502
7317 5679.739855165733
7318 5687.346572516774
7319 5695.409846547527
7320 5703.765022981626
7321 5712.143778165628
7322 5720.538606930134
7323 5728.588555389041
7324 5736.877363019629
7325 5744.835782163004
7326 5752.361904052885
7327 5759.25888833996
7328 5765.806711998991
7329 5771.658145305502
7330 5777.066628612546
7331 5781.614476220989
7332 5785.321064129237
7333 5788.101528477628
7334 5790.237580851862
7335 5791.187259069784
7336 5791.344630113924
7337 5790.296217492357
7338 5788.679872244636
7339 5786.076134796339
7340 5782.748802495098
7341 5778.467043260088
7342 5773.534092375229
7343 5767.651565067986
7344 5761.61937699958
7345 5754.714266165162
7346 5747.446993748399
7347 5739.68460541363
7348 5731.939739769431
7349 5723.488693007909
7350 5715.332429873284
7351 5706.658977974877
7352 5698.459462425373
7353 5690.280528615157
7354 5682.430106266636
7355 5674.661842169667
7356 5667.553705722852
7357 5661.115996189118
7358 5655.229504472421
7359 5649.918107968255
7360 5645.443074289274
7361 5641.654515777315
7362 5638.703941756063
7363 5636.539366893292
7364 5635.462397009393
7365 5635.041656589257
7366 5635.856836392494
7367 5637.206467108732
7368 5639.577974842947
7369 5642.709990348661
7370 5646.777316934147
7371 5651.46550686687
7372 5657.22128833936
7373 5663.321654643834
7374 5670.063845070865
7375 5677.187803160235
7376 5685.121564849564
7377 5693.31321034285
7378 5701.794580896147
7379 5709.931300509432
7380 5718.265521988592
7381 5726.49968644352
7382 5734.545043731438
7383 5742.350890063603
7384 5750.074588207014
7385 5756.991661805861
7386 5763.566373696574
7387 5769.506263072642
7388 5774.933769670835
7389 5779.421309234942
7390 5783.376967852229
7391 5786.206102170779
7392 5788.44954737126
7393 5789.375855550928
7394 5789.745429576812
7395 5788.905596881976
7396 5787.401288829227
7397 5784.865161986387
7398 5781.767379283757
7399 5777.611117358102
7400 5772.989520267794
7401 5767.173908241615
7402 5761.109644836332
7403 5754.112780142034
7404 5746.882989378277
7405 5739.141195849852
7406 5731.3038540286
7407 5723.058902445962
7408 5714.947188533139
7409 5706.338703454901
7410 5698.06255810926
7411 5689.861393425851
7412 5681.816255742271
7413 5673.952105533378
7414 5666.827970375246
7415 5660.202902729859
7416 5654.464988342176
7417 5649.090813737864
7418 5644.579397909867
7419 5640.657012934366
7420 5637.798502261938
7421 5635.629220056277
7422 5634.321001310655
7423 5633.715681249901
7424 5634.231987347654
7425 5635.451659645977
7426 5637.935228237464
7427 5640.887467842606
7428 5645.094068041669
7429 5649.748187542713
7430 5655.334090420694
7431 5661.197878775714
7432 5667.940433715482
7433 5674.980331680597
7434 5682.717987435985
7435 5690.64197803927
7436 5698.975258780517
7437 5707.228537716303
7438 5715.624206103586
7439 5723.751973901652
7440 5731.797185755664
7441 5739.628092556965
7442 5747.29159959671
7443 5754.327572370473
7444 5761.148639265193
7445 5767.11332728758
7446 5772.761504204832
7447 5777.287298333139
7448 5781.067129487016
7449 5784.014390807436
7450 5786.346036407189
7451 5787.412360058153
7452 5787.904367374878
7453 5787.134981392925
7454 5785.740496756184
7455 5783.220588362536
7456 5779.992658166394
7457 5775.993030422495
7458 5771.343315134099
7459 5765.640738160825
7460 5759.429554574006
7461 5752.528096891988
7462 5745.242025383631
7463 5737.671621399075
7464 5729.825798392839
7465 5721.427594157312
7466 5713.339330161127
7467 5704.736126159758
7468 5696.430408284561
7469 5688.164979204815
7470 5680.277642208052
7471 5672.676778822425
7472 5665.596135170738
7473 5658.850760525908
7474 5652.919479939459
7475 5647.506249261136
7476 5642.959644291715
7477 5638.895852293403
7478 5635.943704443854
7479 5633.751158523495
7480 5632.557103620595
7481 5632.056893877576
7482 5632.609988323809
7483 5633.858029608072
7484 5635.969580156854
7485 5638.845568998386
7486 5642.903098901954
7487 5647.490282283587
7488 5652.99056288211
7489 5658.843815947513
7490 5665.655863908899
7491 5672.715980502423
7492 5680.460754400795
7493 5688.435167926044
7494 5696.945615904274
7495 5705.066369515612
7496 5713.410152429487
7497 5721.714136537887
7498 5729.799084897171
7499 5737.684030231077
7500 5745.353100871765
7501 5752.443850695511
7502 5759.064098698612
7503 5765.099653190495
7504 5770.793907292697
7505 5775.276957759965
7506 5779.214828726531
7507 5782.253344526925
7508 5784.512823513192
7509 5785.596945203278
7510 5786.222438308608
7511 5785.519162208999
7512 5784.141708962779
7513 5781.721786857565
7514 5778.557842469908
7515 5774.425692956352
7516 5769.874862233906
7517 5764.15907075917
7518 5758.233382026472
7519 5751.321207250187
7520 5744.016950216279
7521 5736.239073488785
7522 5728.378369910806
7523 5720.22256034036
7524 5712.056509806995
7525 5703.481988323053
7526 5695.272414218748
7527 5687.042466818884
7528 5679.113251116515
7529 5671.491168022112
7530 5664.323504297284
7531 5657.605036021131
7532 5651.51650210144
7533 5646.068246133972
7534 5641.512017991047
7535 5637.369176698711
7536 5634.333786555648
7537 5632.089135038539
7538 5630.731345111501
7539 5630.010000579003
7540 5630.353841816867
7541 5631.516535140027
7542 5633.774905816365
7543 5636.743791947257
7544 5640.716207570547
7545 5645.391209421403
7546 5650.960416900923
7547 5656.88476536683
7548 5663.733583658729
7549 5670.840318613643
7550 5678.462893541807
7551 5686.120892744728
7552 5694.45163029163
7553 5702.627034161653
7554 5711.09070662329
7555 5719.693820697932
7556 5727.884207523852
7557 5735.66195077738
7558 5743.324237861882
7559 5750.578287621588
7560 5757.296937767243
7561 5763.397436568523
7562 5768.876322166338
7563 5773.341700945675
7564 5777.183672720728
7565 5780.104518048162
7566 5782.604810068374
7567 5783.813006513207
7568 5784.505762553505
7569 5783.849165232505
7570 5782.524041825607
7571 5780.077939516667
7572 5776.856939503643
7573 5772.790656558402
7574 5768.28646233784
7575 5762.500463448861
7576 5756.550302805342
7577 5749.670112818499
7578 5742.519641178308
7579 5734.606840016652
7580 5726.969670864405
7581 5718.847541094375
7582 5710.826783288337
7583 5702.481216458806
7584 5694.331581006493
7585 5686.140471917383
7586 5678.221632717157
7587 5670.552623099373
7588 5663.374911901219
7589 5656.613882187806
7590 5650.607021249349
