"mx-rfile"
"Iteration" "mx"
("Iteration" "mx")
1 -29012.0284438311
2 -27922.64198252602
3 -24892.31575762458
4 -21995.95470441118
5 -18952.15869216752
6 -16204.91162213566
7 -13610.32048286439
8 -11589.8950444792
9 -9371.376723631149
10 -7286.460046076903
11 -5345.00182887512
12 -3957.13820294829
13 -3075.055003779095
14 -2600.733999410986
15 -2419.266557225877
16 -2522.300113378567
17 -2753.969627755288
18 -3102.084855715332
19 -3553.739026370975
20 -4030.672079806435
21 -4600.200192048664
22 -5300.75601440009
23 -5896.344345421905
24 -6462.433818168414
25 -6911.415112799914
26 -7317.5626938923
27 -7573.440993020498
28 -7821.275392609494
29 -7957.227514537853
30 -8100.487441506366
31 -8166.104883357441
32 -8248.456860662744
33 -8291.184125114984
34 -8349.965926941959
35 -8383.553657958675
36 -8433.230680269689
37 -8447.432997881191
38 -8481.326800386028
39 -8489.103582183106
40 -8512.291758789135
41 -8511.121485163543
42 -8529.161949862264
43 -8526.784195419392
44 -8544.887082870941
45 -8544.800762575524
46 -8562.989237970058
47 -8569.894523504547
48 -8594.063584712323
49 -8608.93602337807
50 -8646.569836572278
51 -8668.064890566135
52 -8709.972957538474
53 -8742.67795738106
54 -8785.003400973819
55 -8817.245050104635
56 -8855.499176175219
57 -8877.461756645032
58 -8911.494005112436
59 -8931.508638378049
60 -8955.083975897038
61 -8972.831059852735
62 -8992.574356894369
63 -9006.893392763375
64 -9023.035740864301
65 -9035.143692808015
66 -9048.555683480638
67 -9057.948193050997
68 -9070.748956658839
69 -9078.428849429432
70 -9087.602998873794
71 -9091.052012850323
72 -9096.517610427336
73 -9097.155427397225
74 -9100.408872373137
75 -9099.333812463778
76 -9099.81116582205
77 -9098.047482244687
78 -9099.292886764028
79 -9096.307691767071
80 -9098.760218117581
81 -9095.905144551094
82 -9096.274225431764
83 -9093.200762568888
84 -9096.93367196114
85 -9095.409231869202
86 -9100.625028323604
87 -9099.15492386669
88 -9104.170298675122
89 -9102.350460327103
90 -9110.272811336827
91 -9107.592889722579
92 -9114.587185157072
93 -9111.901133804984
94 -9118.908895857798
95 -9116.504338679291
96 -9123.396096397893
97 -9120.974316196705
98 -9127.457336687507
99 -9126.147317068637
100 -9133.233509831227
101 -9129.477115705824
102 -9138.464935038903
103 -9133.476398053297
104 -9140.504292559914
105 -9135.500006359491
106 -9140.568614819102
107 -9134.912428256526
108 -9143.145159466716
109 -9139.131909241883
110 -9147.515552430606
111 -9144.444850330465
112 -9152.7041437233
113 -9148.812498621784
114 -9155.581983190825
115 -9150.420602273934
116 -9158.182489176137
117 -9152.836649946559
118 -9159.510001442261
119 -9153.376644590289
120 -9163.29917643851
121 -9160.017559875494
122 -9166.004838441806
123 -9159.723580686285
124 -9167.889271053966
125 -9162.177835048848
126 -9169.567112497365
127 -9163.564645675659
128 -9169.057401982327
129 -9160.335295882527
130 -9166.870050190395
131 -9158.77600334015
132 -9163.01870876769
133 -9155.667699082678
134 -9161.045348000553
135 -9155.203955558374
136 -9160.88469418412
137 -9156.444597278567
138 -9161.148484643341
139 -9158.250498160549
140 -9167.508908537653
141 -9165.530986758407
142 -9172.985278342887
143 -9173.58850434154
144 -9183.000959939962
145 -9181.559133298932
146 -9193.785547323994
147 -9197.571151346543
148 -9215.385872595925
149 -9221.902851580806
150 -9240.229594664821
151 -9250.513511901945
152 -9273.17217120651
153 -9285.893056308258
154 -9308.739629996933
155 -9326.850872741554
156 -9352.612847858672
157 -9378.017825819887
158 -9410.346211194017
159 -9435.49070590215
160 -9471.654125654033
161 -9502.883105437983
162 -9542.558869235674
163 -9572.134798936169
164 -9613.00804886251
165 -9648.577063708537
166 -9692.107342181565
167 -9723.349581407347
168 -9767.084752259012
169 -9808.916298047863
170 -9857.009732962377
171 -9896.383366991344
172 -9949.246027342519
173 -9991.798433064869
174 -10047.10715494957
175 -10093.26277880458
176 -10144.91920170839
177 -10193.30077593884
178 -10253.28635695321
179 -10302.41195035163
180 -10346.48118712509
181 -10396.67151654511
182 -10452.85146455678
183 -10504.30534888741
184 -10565.7360341839
185 -10613.04380057215
186 -10673.32829326268
187 -10725.421245312
188 -10785.43614340464
189 -10840.24824394589
190 -10904.1139134825
191 -10954.42421951468
192 -11017.53167617575
193 -11068.60489307143
194 -11127.59177554795
195 -11180.11097246237
196 -11235.46091162585
197 -11287.22808361513
198 -11346.40182824226
199 -11393.44423131222
200 -11452.09640739285
201 -11503.72520976531
202 -11558.55313962423
203 -11604.81186245916
204 -11660.89010135985
205 -11706.27130405215
206 -11760.08808178614
207 -11806.03215467531
208 -11844.24493151299
209 -11889.83104314451
210 -11939.0845677305
211 -11981.08144464819
212 -12023.04256628037
213 -12061.5849343909
214 -12099.51429410537
215 -12135.04624473563
216 -12166.47787710237
217 -12196.9318882635
218 -12231.40684612257
219 -12258.55083665373
220 -12281.16445103353
221 -12302.57960466287
222 -12325.61951851766
223 -12337.77337215551
224 -12355.62272967249
225 -12365.19016850953
226 -12375.61768433508
227 -12376.10010876903
228 -12381.70004950637
229 -12380.1093426209
230 -12380.88279513304
231 -12370.01991548013
232 -12361.34819946482
233 -12342.36145393979
234 -12329.72966131815
235 -12298.84439878671
236 -12280.27406702396
237 -12242.86042165998
238 -12216.20568278138
239 -12171.69015801365
240 -12139.03195709902
241 -12087.57477929524
242 -12048.05545371114
243 -11988.30333064199
244 -11941.95578579162
245 -11872.86031079816
246 -11818.7897245724
247 -11737.81753733517
248 -11673.08464197522
249 -11585.17222929101
250 -11517.39946478299
251 -11418.68007471899
252 -11339.6173040897
253 -11232.29818471723
254 -11152.08319331788
255 -11037.35499051604
256 -10948.47612569788
257 -10826.58577080608
258 -10732.25929999309
259 -10601.92066012363
260 -10502.52558629862
261 -10365.73876492672
262 -10256.71948489923
263 -10111.26114921949
264 -9970.718052742341
265 -9853.746364836608
266 -9706.127819964804
267 -9556.483799420119
268 -9438.62431066944
269 -9282.652449963643
270 -9137.38849348133
271 -9018.120071603065
272 -8864.936390005478
273 -8716.011124003981
274 -8573.972171083395
275 -8453.220203407651
276 -8310.115180547526
277 -8163.887199860448
278 -8026.84706668836
279 -7909.51161624444
280 -7775.876109732983
281 -7635.633093673738
282 -7532.91487901165
283 -7398.214464932025
284 -7294.934800589215
285 -7163.461473392762
286 -7065.867710724606
287 -6943.878012742186
288 -6855.326817974228
289 -6744.242681113027
290 -6662.64878633101
291 -6580.706061325678
292 -6507.482088433982
293 -6435.774542514396
294 -6376.098485796958
295 -6315.283428736791
296 -6271.710777305384
297 -6227.737135207448
298 -6200.39093381621
299 -6175.790706935084
300 -6167.190085273915
301 -6152.623181124831
302 -6157.012068519194
303 -6162.379983083611
304 -6177.636517933557
305 -6190.594390258226
306 -6217.193972309236
307 -6240.591048917703
308 -6272.927558351785
309 -6306.420273824804
310 -6347.519425552216
311 -6391.749676185715
312 -6436.804527128514
313 -6483.587030144517
314 -6534.821083330581
315 -6582.157719114468
316 -6634.606511513144
317 -6680.202426654717
318 -6731.476569145547
319 -6774.208362216394
320 -6819.362603494577
321 -6858.476036863748
322 -6907.959375020117
323 -6937.61122036623
324 -6965.372160686176
325 -6983.409933257791
326 -7009.915327810376
327 -7017.143077591837
328 -7025.966296064604
329 -7025.279125579016
330 -7025.39307730936
331 -7018.499899853738
332 -7010.582480517679
333 -6994.296279773349
334 -6975.412336939058
335 -6951.602161167531
336 -6927.001604314205
337 -6899.074601170943
338 -6871.346626768476
339 -6838.671319057423
340 -6808.482203627812
341 -6772.363966097548
342 -6739.105529459432
343 -6696.288413441876
344 -6671.568491130882
345 -6626.753821907867
346 -6584.842892075269
347 -6551.175566215177
348 -6507.13208814768
349 -6460.671173572882
350 -6416.812654075788
351 -6366.848888471449
352 -6321.238099126287
353 -6271.232836522934
354 -6224.476646273901
355 -6173.525640628083
356 -6123.940043690194
357 -6069.114857687036
358 -6018.493237198166
359 -5964.406263645317
360 -5912.971314487741
361 -5859.51130823182
362 -5808.54101839698
363 -5753.304379346277
364 -5707.704287440351
365 -5658.340230501194
366 -5616.20948442755
367 -5571.625904799963
368 -5532.531333841465
369 -5492.050545432219
370 -5458.44526150628
371 -5423.536977816068
372 -5396.59257305227
373 -5368.91374176799
374 -5348.325220499686
375 -5328.620737113674
376 -5316.332012728728
377 -5303.995516931597
378 -5299.966642592701
379 -5295.548715764582
380 -5299.134911056379
381 -5302.610779811431
382 -5315.210450078193
383 -5326.416401711173
384 -5345.690437369341
385 -5364.513649033959
386 -5391.977573175175
387 -5419.495273741016
388 -5453.67964879696
389 -5487.20446424999
390 -5515.885745034424
391 -5556.733866418092
392 -5605.107684230241
393 -5651.963279815347
394 -5705.135457653186
395 -5756.441393361078
396 -5813.992540272818
397 -5869.817125182422
398 -5928.989094506695
399 -5986.262949053933
400 -6051.817821915854
401 -6113.154104791696
402 -6176.767478064237
403 -6259.352482000583
404 -6322.899826500397
405 -6402.539190234319
406 -6467.09833734158
407 -6525.797646241242
408 -6608.268514478762
409 -6664.063971460662
410 -6724.481904806542
411 -6797.020704648619
412 -6856.307262126656
413 -6926.037405893636
414 -6982.79177885187
415 -7032.18566286526
416 -7101.201259604579
417 -7147.802342393679
418 -7197.427959874225
419 -7255.285395439474
420 -7300.481215135622
421 -7340.183748188223
422 -7398.510880605581
423 -7436.90420818146
424 -7477.395976508554
425 -7512.786162454915
426 -7563.672263967141
427 -7593.108436924625
428 -7630.279049434325
429 -7658.884833705926
430 -7690.398751532748
431 -7716.136674681587
432 -7744.396486809683
433 -7767.131581840504
434 -7791.887776940142
435 -7809.056425961497
436 -7827.579554823416
437 -7839.789160522205
438 -7853.423845067889
439 -7859.702775876671
440 -7866.480162071319
441 -7865.456774679377
442 -7865.847499664113
443 -7859.466703233349
444 -7854.489836873721
445 -7842.847110633598
446 -7832.054888997919
447 -7814.067358358512
448 -7797.286418355259
449 -7771.702215921543
450 -7747.786905588294
451 -7716.794345142547
452 -7686.491468690654
453 -7647.022613850883
454 -7609.272121545122
455 -7564.647706659363
456 -7522.195096860803
457 -7472.051722999249
458 -7424.819415285463
459 -7355.428004792373
460 -7305.114292911105
461 -7248.018898530565
462 -7176.36689931476
463 -7122.022459969957
464 -7051.332740454078
465 -6995.735996118923
466 -6925.841025997304
467 -6869.833819491598
468 -6800.596041380155
469 -6731.845902116798
470 -6683.709048505463
471 -6618.571363299917
472 -6561.797934159076
473 -6503.112653567019
474 -6464.471184516671
475 -6412.16589946466
476 -6367.867589916283
477 -6324.691331440466
478 -6288.7694893311
479 -6260.596865445428
480 -6231.051089164455
481 -6201.958013463296
482 -6186.258174687422
483 -6163.679623063676
484 -6153.891705131828
485 -6139.18935596448
486 -6133.010916739062
487 -6124.959971181433
488 -6124.922361031261
489 -6123.830852780716
490 -6128.957675126667
491 -6132.480583504152
492 -6142.868820841193
493 -6150.68921781691
494 -6165.169079250844
495 -6176.677051791441
496 -6193.975378713459
497 -6210.314741001612
498 -6230.93395098779
499 -6249.533021869962
500 -6272.829012439887
501 -6295.023523206433
502 -6320.581986336081
503 -6344.287785781324
504 -6373.013268402387
505 -6397.202573014954
506 -6425.444464993227
507 -6451.412645627219
508 -6480.331429478802
509 -6505.537897785284
510 -6533.043489264639
511 -6555.973510839619
512 -6583.315023664611
513 -6605.041961802937
514 -6628.510510904385
515 -6647.055359483983
516 -6668.827471954599
517 -6684.058592801971
518 -6701.717031486771
519 -6714.651187194587
520 -6727.45030903806
521 -6735.153100961943
522 -6742.998707308907
523 -6745.534097711163
524 -6748.86900362481
525 -6745.10656681418
526 -6741.605290655958
527 -6731.852672146569
528 -6722.965392044228
529 -6707.696517954047
530 -6692.110107511979
531 -6670.033640890784
532 -6648.389140000902
533 -6619.620997371946
534 -6591.236338007388
535 -6555.412205446968
536 -6519.716978142363
537 -6477.840355895647
538 -6436.992206015835
539 -6387.372776466897
540 -6338.215253973271
541 -6284.369480206429
542 -6230.932418111097
543 -6173.279884946408
544 -6115.882211030016
545 -6054.033324453113
546 -5993.736133293294
547 -5910.738518250458
548 -5850.863984031612
549 -5769.163306509996
550 -5711.317360473915
551 -5632.543167422615
552 -5562.996700376838
553 -5508.605853968746
554 -5442.474106217687
555 -5376.869705892747
556 -5319.239287642573
557 -5261.77760887168
558 -5212.066490134643
559 -5161.575828226463
560 -5118.89585259046
561 -5075.137363834683
562 -5037.816995249905
563 -5000.53146987193
564 -4969.437452917868
565 -4936.628294417998
566 -4910.887371559705
567 -4884.066056176645
568 -4863.742773633339
569 -4843.095000192724
570 -4828.707387590181
571 -4812.034049411181
572 -4805.284020900222
573 -4794.23799508336
574 -4790.544958065342
575 -4783.904655215782
576 -4784.190259412829
577 -4783.059342534126
578 -4787.375148661724
579 -4790.856988105148
580 -4798.678139718724
581 -4805.528534359193
582 -4816.416328901747
583 -4826.767776351931
584 -4841.566169829036
585 -4850.864544335399
586 -4869.564969283687
587 -4882.664651749108
588 -4906.164549072009
589 -4929.050538199277
590 -4955.813148444184
591 -4982.345993832103
592 -5012.175935080737
593 -5041.83781266996
594 -5074.391876427077
595 -5105.173792272986
596 -5138.418639411738
597 -5170.174170008002
598 -5204.459169991644
599 -5236.390652063976
600 -5269.620369542794
601 -5301.121209223228
602 -5334.121950588582
603 -5364.928270858063
604 -5396.627613978266
605 -5426.231417401561
606 -5456.634794839574
607 -5482.87548215634
608 -5510.053348377332
609 -5534.271096692508
610 -5559.415410406156
611 -5581.00887554071
612 -5602.124249851508
613 -5620.462901842862
614 -5637.84422808731
615 -5651.565710074182
616 -5665.429760636399
617 -5675.746680124335
618 -5686.949289771384
619 -5693.519706723373
620 -5699.769223312134
621 -5700.593997778
622 -5701.469180938169
623 -5698.46747049948
624 -5696.089891901443
625 -5688.269183623604
626 -5683.052594819715
627 -5670.435171479294
628 -5660.991857398594
629 -5643.379175589596
630 -5630.334189339896
631 -5605.9656642519
632 -5589.194628563911
633 -5559.90118857933
634 -5539.980702553755
635 -5504.813454779469
636 -5481.999020793217
637 -5444.128353739747
638 -5407.029264797866
639 -5367.621188597657
640 -5329.491118659955
641 -5290.463879963171
642 -5253.111334151846
643 -5214.316474135608
644 -5178.387288683599
645 -5141.346621782869
646 -5107.492339985553
647 -5063.401725222462
648 -5033.42967129931
649 -5003.790925004964
650 -4970.022711920526
651 -4945.944132737816
652 -4918.778681073117
653 -4899.850263937642
654 -4879.920690658575
655 -4866.531809820348
656 -4853.435943532513
657 -4845.147921711505
658 -4839.257483537545
659 -4835.844769865147
660 -4836.466794420705
661 -4837.301801935614
662 -4842.335003663015
663 -4847.153343111926
664 -4856.810853155877
665 -4865.186311270705
666 -4878.724198817534
667 -4891.258907651443
668 -4907.859314447262
669 -4924.407404694937
670 -4944.402250504958
671 -4963.342100669921
672 -4985.147319415923
673 -5006.566005653389
674 -5023.696253746346
675 -5049.736443491561
676 -5077.138490533049
677 -5103.666553009036
678 -5132.963232657807
679 -5160.936586414051
680 -5191.391879646529
681 -5220.259663580531
682 -5251.290336316306
683 -5281.058193709803
684 -5321.51826893361
685 -5350.525187156238
686 -5380.908797258588
687 -5418.439377299868
688 -5446.97152200172
689 -5481.402231169137
690 -5507.622901827608
691 -5538.81294106833
692 -5563.394406564867
693 -5584.604215252734
694 -5615.419034204965
695 -5633.892792789692
696 -5660.253108390547
697 -5677.582853915993
698 -5694.990643910782
699 -5714.601336250003
700 -5730.543918166977
701 -5742.976558564261
702 -5756.141265568881
703 -5765.845242618834
704 -5776.361781731511
705 -5784.00431565321
706 -5792.684787554303
707 -5798.103051993256
708 -5804.031610122851
709 -5806.444593555689
710 -5810.136678758144
711 -5809.729891068953
712 -5809.579141880067
713 -5806.231614590419
714 -5803.833151607476
715 -5797.754134412389
716 -5792.123651293551
717 -5782.247164147308
718 -5771.782039753314
719 -5758.430873804502
720 -5744.847213775022
721 -5727.708949691507
722 -5712.08824405939
723 -5692.798469047117
724 -5674.536093046408
725 -5652.630240419117
726 -5632.336282123149
727 -5609.077245406906
728 -5586.769503531721
729 -5561.648651009813
730 -5538.657992082064
731 -5513.178951684537
732 -5489.901369728979
733 -5465.432564579149
734 -5435.975872401211
735 -5413.758222717057
736 -5394.241113686997
737 -5367.291329915882
738 -5350.097912966088
739 -5326.849895906736
740 -5312.090237713539
741 -5296.671107773993
742 -5279.579506973801
743 -5266.762320419934
744 -5256.751302107238
745 -5243.495490455462
746 -5236.711579910315
747 -5229.138954298851
748 -5224.740792521984
749 -5220.802414730509
750 -5218.787748815937
751 -5216.240723985289
752 -5216.9380184355
753 -5217.66377128503
754 -5220.802255943543
755 -5224.368176777529
756 -5230.499078678655
757 -5236.230835761473
758 -5245.132606617535
759 -5249.908586500848
760 -5261.181577764137
761 -5267.46041471392
762 -5280.277591740111
763 -5288.47750162296
764 -5302.496630834988
765 -5311.620949989689
766 -5326.807568135477
767 -5336.144470400443
768 -5352.0912675571
769 -5367.154187119921
770 -5383.260953578041
771 -5398.088730324647
772 -5414.072820623111
773 -5427.902987509306
774 -5442.907463885849
775 -5455.794782598176
776 -5469.114113980979
777 -5480.095985120969
778 -5491.550368580145
779 -5497.272490705815
780 -5507.027203903423
781 -5514.106149368617
782 -5522.353118422385
783 -5526.057001458659
784 -5532.666888790861
785 -5535.084010528269
786 -5540.300444825965
787 -5541.463568504212
788 -5544.614964440725
789 -5544.446998151279
790 -5545.384439860669
791 -5543.859189274634
792 -5543.588649659205
793 -5541.239049530215
794 -5539.185082619764
795 -5535.198728084355
796 -5531.721015171768
797 -5525.92560476572
798 -5517.063755244127
799 -5510.096814341761
800 -5503.619274063416
801 -5494.896967993029
802 -5481.898904448355
803 -5471.467576405618
804 -5461.198126381527
805 -5443.379052773665
806 -5432.417616262852
807 -5419.069861833592
808 -5399.525845356819
809 -5385.256099024149
810 -5364.583364643857
811 -5349.539096431675
812 -5327.686712393486
813 -5312.119655018572
814 -5289.958105626623
815 -5267.774632488119
816 -5246.693778696417
817 -5224.724494540256
818 -5205.516605963141
819 -5185.856027997073
820 -5168.736320231558
821 -5151.467636317635
822 -5136.36354246251
823 -5121.320851107274
824 -5108.297433269637
825 -5095.559764383725
826 -5085.108574483236
827 -5074.098364945376
828 -5065.81076087586
829 -5057.223365863945
830 -5051.506436168605
831 -5045.720916395907
832 -5042.59290755694
833 -5039.400321676381
834 -5039.107622532383
835 -5037.89140852718
836 -5039.453020036679
837 -5040.317466176446
838 -5044.252196668689
839 -5047.420414398264
840 -5053.459291216489
841 -5059.037620403401
842 -5064.682763134817
843 -5071.68734063962
844 -5078.13202294445
845 -5086.179193783395
846 -5093.548943356036
847 -5103.688654816922
848 -5111.728822555646
849 -5122.616055482134
850 -5131.508077421606
851 -5143.29469502839
852 -5152.82455729287
853 -5164.882150197534
854 -5173.882156453277
855 -5185.682301401407
856 -5198.787382391726
857 -5205.790502606806
858 -5218.011623334865
859 -5227.825749097068
860 -5235.477609831654
861 -5244.561084000219
862 -5251.610361789656
863 -5258.913003047701
864 -5264.774231606286
865 -5270.299280029736
866 -5275.027557376433
867 -5279.16031251714
868 -5282.704210389618
869 -5284.865795032611
870 -5287.318053255152
871 -5287.155681945997
872 -5288.003639726852
873 -5287.055652088256
874 -5286.887582266922
875 -5284.908692653515
876 -5283.150133390227
877 -5279.874554933402
878 -5277.578477497378
879 -5273.722494481874
880 -5270.152030119039
881 -5264.746208588368
882 -5259.691911175772
883 -5253.558226492715
884 -5247.829639894722
885 -5240.514585498668
886 -5234.116919725706
887 -5225.959255257741
888 -5218.594047133043
889 -5210.069049709673
890 -5202.155551773645
891 -5193.526330467859
892 -5185.180730114454
893 -5175.989522000584
894 -5167.655474465654
895 -5154.084558759803
896 -5145.951211995454
897 -5137.323922339353
898 -5129.551145523796
899 -5117.532842555453
900 -5110.819857731013
901 -5099.726495532645
902 -5093.945555260838
903 -5084.952106539407
904 -5080.461524755005
905 -5072.996656999349
906 -5069.997574329795
907 -5064.808907646035
908 -5062.864473201264
909 -5059.138021902236
910 -5058.623100821509
911 -5057.441699857782
912 -5058.352256140456
913 -5059.193756216016
914 -5061.75932251507
915 -5063.441897672919
916 -5068.559203105238
917 -5072.062451618442
918 -5077.447763605049
919 -5084.86077284024
920 -5091.5809237231
921 -5097.624461481142
922 -5105.466506577171
923 -5112.568746382713
924 -5121.925470743201
925 -5130.638868502332
926 -5140.9538646168
927 -5150.632217616938
928 -5161.313259422875
929 -5176.818101730642
930 -5187.989480858305
931 -5203.900527535008
932 -5215.453439399156
933 -5230.986861497504
934 -5242.395116877919
935 -5257.937897237471
936 -5273.652046490735
937 -5287.360547110896
938 -5301.462549182295
939 -5313.076941204547
940 -5325.179476791434
941 -5334.637384614534
942 -5344.503102655552
943 -5351.917145176265
944 -5359.618599017266
945 -5364.872646093047
946 -5370.740424543838
947 -5373.875817263952
948 -5377.855770507153
949 -5378.366533225641
950 -5379.736247170212
951 -5378.957849393502
952 -5378.964152014847
953 -5376.183553543298
954 -5375.076857596363
955 -5370.882586029706
956 -5368.734037743503
957 -5364.285977286987
958 -5360.727546007794
959 -5355.142996242355
960 -5350.560956349424
961 -5344.172863746538
962 -5338.471021076385
963 -5331.495615982698
964 -5325.395865737162
965 -5317.935018526096
966 -5310.950037365918
967 -5302.769482543818
968 -5291.156098310823
969 -5282.756031597466
970 -5270.918221569545
971 -5262.615496719525
972 -5251.262011936924
973 -5243.18998595339
974 -5232.628341635829
975 -5221.19224574004
976 -5214.687276802049
977 -5203.872788273903
978 -5194.902462160577
979 -5184.982614250519
980 -5177.317100702376
981 -5168.980079728207
982 -5162.404696656543
983 -5155.256740817463
984 -5150.079751415622
985 -5144.318068639386
986 -5140.614101243263
987 -5135.91901457992
988 -5134.530842526412
989 -5130.993721098223
990 -5129.481921076886
991 -5127.852639117611
992 -5127.581240396703
993 -5126.960890631958
994 -5128.052810901605
995 -5128.230277291677
996 -5130.840848323642
997 -5131.825244527349
998 -5134.591623712311
999 -5137.709517134378
1000 -5141.217696518791
1001 -5143.655264989427
1002 -5148.180239632289
1003 -5152.037601397642
1004 -5157.134454491705
1005 -5161.720428484376
1006 -5167.608633175636
1007 -5173.031818964695
1008 -5183.398499676548
1009 -5189.401149531182
1010 -5196.844844553818
1011 -5206.910376511734
1012 -5214.487047512995
1013 -5224.946666994788
1014 -5232.553865353876
1015 -5243.233482724812
1016 -5250.529857380927
1017 -5260.008623056633
1018 -5270.179438511159
1019 -5278.435755316469
1020 -5284.234125883226
1021 -5290.993514944807
1022 -5298.113001414165
1023 -5303.284763316567
1024 -5306.833929661907
1025 -5310.031879371215
1026 -5313.740343660546
1027 -5314.245147700922
1028 -5315.450299372316
1029 -5314.530310083322
1030 -5313.481069588879
1031 -5311.511560457267
1032 -5308.515368132256
1033 -5305.48565769169
1034 -5300.28605864333
1035 -5295.770628303586
1036 -5291.333807284498
1037 -5285.529133709388
1038 -5280.04063228308
1039 -5272.907277145776
1040 -5266.14367778636
1041 -5258.314655677091
1042 -5250.256998739136
1043 -5241.241974711858
1044 -5232.393689774153
1045 -5222.799113686116
1046 -5208.885264099959
1047 -5199.408710597698
1048 -5185.534513067163
1049 -5175.93105673436
1050 -5162.250060468099
1051 -5148.621949568481
1052 -5135.911027469238
1053 -5123.336909394866
1054 -5112.145191219887
1055 -5101.055601211096
1056 -5091.537983098514
1057 -5081.498395508892
1058 -5073.554945243544
1059 -5065.462059777353
1060 -5059.294600601022
1061 -5052.663290857123
1062 -5047.483626008236
1063 -5042.321710166387
1064 -5038.95959632608
1065 -5034.91180375356
1066 -5032.795723721871
1067 -5030.213118780855
1068 -5029.272889292082
1069 -5027.692592053458
1070 -5027.936804940186
1071 -5027.397653244661
1072 -5028.627230086813
1073 -5029.252923193866
1074 -5031.148614050098
1075 -5032.412608689177
1076 -5035.882474034041
1077 -5038.057734982086
1078 -5040.943962827919
1079 -5043.594867440542
1080 -5047.438168811546
1081 -5051.022077759036
1082 -5055.645250411009
1083 -5060.099231694154
1084 -5065.417167699025
1085 -5070.543544479215
1086 -5075.9761253745
1087 -5084.105413996706
1088 -5090.059140025623
1089 -5098.402000788959
1090 -5104.620077501646
1091 -5113.362469403207
1092 -5119.60030325861
1093 -5128.11445901828
1094 -5137.18706058119
1095 -5144.975427699723
1096 -5152.733090145006
1097 -5159.191569669487
1098 -5165.570555131572
1099 -5170.967362893456
1100 -5176.093666087664
1101 -5179.94518134022
1102 -5183.929902953132
1103 -5186.370675784327
1104 -5188.823538623164
1105 -5189.222974752532
1106 -5189.754609424869
1107 -5189.194196104545
1108 -5187.853746946151
1109 -5185.942771766186
1110 -5183.237249570169
1111 -5180.466435762488
1112 -5177.75949940592
1113 -5172.475468308259
1114 -5169.20998903842
1115 -5164.641818702417
1116 -5160.468400227822
1117 -5155.194468262759
1118 -5150.004734546963
1119 -5144.100530873171
1120 -5138.25703730836
1121 -5131.514708413818
1122 -5125.047138898753
1123 -5114.455932153011
1124 -5107.64036618304
1125 -5096.8381707853
1126 -5089.787256032907
1127 -5078.716751989139
1128 -5068.644409502031
1129 -5058.403903256818
1130 -5049.09207809305
1131 -5039.305064542501
1132 -5031.053602501498
1133 -5022.615185805932
1134 -5015.591756972095
1135 -5008.291315905824
1136 -5002.587457257934
1137 -4996.57762670289
1138 -4992.068484607258
1139 -4987.301128431332
1140 -4984.044334029633
1141 -4980.40624346764
1142 -4978.416528611414
1143 -4976.147203901566
1144 -4975.503617524095
1145 -4974.482051634137
1146 -4974.885609451525
1147 -4974.905376121947
1148 -4976.618799654998
1149 -4977.258832243708
1150 -4979.975561588681
1151 -4981.755571053915
1152 -4985.933112660212
1153 -4988.348129469392
1154 -4991.736310975795
1155 -4996.946645742342
1156 -5001.671821413598
1157 -5005.700358815055
1158 -5011.055113111363
1159 -5015.985386206789
1160 -5022.156256423283
1161 -5027.765963414176
1162 -5037.165013480821
1163 -5043.415525697108
1164 -5053.359141132909
1165 -5059.729335573487
1166 -5070.225890728529
1167 -5080.076843301141
1168 -5090.516394797733
1169 -5100.118836632497
1170 -5110.073910769683
1171 -5118.856524953849
1172 -5128.194826564968
1173 -5135.828431582519
1174 -5143.980560859323
1175 -5150.622573698938
1176 -5157.911874433867
1177 -5163.27700578449
1178 -5169.249024803619
1179 -5173.384784346928
1180 -5178.143249493942
1181 -5180.908216428103
1182 -5184.130851555467
1183 -5185.427011025959
1184 -5187.496112989992
1185 -5187.437158971377
1186 -5187.92505905307
1187 -5186.575973990137
1188 -5186.208772852227
1189 -5183.314756414934
1190 -5182.100230519578
1191 -5178.397276311027
1192 -5176.814436206894
1193 -5173.715126058154
1194 -5170.057398156214
1195 -5166.651080123366
1196 -5163.517206872859
1197 -5159.420692087686
1198 -5155.782815681118
1199 -5151.414457764881
1200 -5147.534120615124
1201 -5140.584372597114
1202 -5136.355445293102
1203 -5131.537168670797
1204 -5125.257269946634
1205 -5120.385162636862
1206 -5113.735223370597
1207 -5108.863861161293
1208 -5102.500577287639
1209 -5095.812621774092
1210 -5089.749045963224
1211 -5085.331255791896
1212 -5079.722133985437
1213 -5073.695417180949
1214 -5068.851345774639
1215 -5065.192301011663
1216 -5060.970146251201
1217 -5056.337353422657
1218 -5054.164564222419
1219 -5050.320456957297
1220 -5047.793478923748
1221 -5045.634913623531
1222 -5043.994472332923
1223 -5042.333220146401
1224 -5041.479058363628
1225 -5040.660038835391
1226 -5040.446459661352
1227 -5039.984710379483
1228 -5040.898386045603
1229 -5041.233427439127
1230 -5042.563654897118
1231 -5043.589498924277
1232 -5045.529730414914
1233 -5047.194754038306
1234 -5049.838459779672
1235 -5052.371148637659
1236 -5055.734466179862
1237 -5058.914372855172
1238 -5062.931805852665
1239 -5066.628163249772
1240 -5071.186046698662
1241 -5075.824537526392
1242 -5083.416298321748
1243 -5088.232369861953
1244 -5096.340145874325
1245 -5101.331064043922
1246 -5109.70480226035
1247 -5117.321960188578
1248 -5122.754890075636
1249 -5130.321122692067
1250 -5138.250781787569
1251 -5145.25535429589
1252 -5152.58913416064
1253 -5158.877052059484
1254 -5165.357163771605
1255 -5170.725613934781
1256 -5176.195169044864
1257 -5180.46803988166
1258 -5185.063988405604
1259 -5188.224614738023
1260 -5191.817817927508
1261 -5193.721793749593
1262 -5196.001187662898
1263 -5196.876301312677
1264 -5197.829689195607
1265 -5197.449309336218
1266 -5197.705686359689
1267 -5196.507003866564
1268 -5196.188404545303
1269 -5194.09491501698
1270 -5193.21180742731
1271 -5191.192715546549
1272 -5189.995565704323
1273 -5187.413081860277
1274 -5185.293290836888
1275 -5182.304430306196
1276 -5179.625837110416
1277 -5176.020416022893
1278 -5172.884763286513
1279 -5168.733988795399
1280 -5163.455124941505
1281 -5159.232968193277
1282 -5153.068876970337
1283 -5148.680581442422
1284 -5142.375057961684
1285 -5137.965768753872
1286 -5131.690869353367
1287 -5127.051525335955
1288 -5120.85088085435
1289 -5114.171194184357
1290 -5110.198400642161
1291 -5103.748124975593
1292 -5098.208521222861
1293 -5092.138173946242
1294 -5088.833865456154
1295 -5083.239177687847
1296 -5078.406004852795
1297 -5074.747995995587
1298 -5070.711902196719
1299 -5066.181882028467
1300 -5063.782942739588
1301 -5059.469098012725
1302 -5056.468484345518
1303 -5053.867249478213
1304 -5051.159235710707
1305 -5049.220537551959
1306 -5047.274249744985
1307 -5045.846948851226
1308 -5044.602683407706
1309 -5043.604000171869
1310 -5043.398866731382
1311 -5042.924458032777
1312 -5043.415045448801
1313 -5043.591592418839
1314 -5044.602341251375
1315 -5045.872576995323
1316 -5047.396246667062
1317 -5048.764678740377
1318 -5050.902994760427
1319 -5052.873654773324
1320 -5055.720882508011
1321 -5058.302325211662
1322 -5061.6488407743
1323 -5064.864761727053
1324 -5068.622261479211
1325 -5072.093258204659
1326 -5076.34556750899
1327 -5080.358345291363
1328 -5086.865755900448
1329 -5090.981304233943
1330 -5097.617219034595
1331 -5101.854881413627
1332 -5108.487059522799
1333 -5112.458226573245
1334 -5118.740680093265
1335 -5124.574278511634
1336 -5128.63743608335
1337 -5133.694309080336
1338 -5139.119242262725
1339 -5143.338618023003
1340 -5147.843118598758
1341 -5149.902542089501
1342 -5153.718753011904
1343 -5156.498983104228
1344 -5158.509854687771
1345 -5160.007964375889
1346 -5161.45732358768
1347 -5162.173652095811
1348 -5163.076629537296
1349 -5163.021359883425
1350 -5163.365202601415
1351 -5162.638662274569
1352 -5162.56638106476
1353 -5161.502605443911
1354 -5161.156692068205
1355 -5159.593195565212
1356 -5158.449352146439
1357 -5156.579206801098
1358 -5154.98370520042
1359 -5152.579598027141
1360 -5150.600730966129
1361 -5147.78106450392
1362 -5145.377336739015
1363 -5142.424493393723
1364 -5138.337897831127
1365 -5135.17883935907
1366 -5132.32342130211
1367 -5127.360534068983
1368 -5124.5123164664
1369 -5119.282006666641
1370 -5116.457419960598
1371 -5111.364026862761
1372 -5108.624473642805
1373 -5103.595519737952
1374 -5100.788537637284
1375 -5095.645915313202
1376 -5093.118199786771
1377 -5088.285359113019
1378 -5085.90364000759
1379 -5081.247462128844
1380 -5079.184693227917
1381 -5075.061586573672
1382 -5073.318948567661
1383 -5069.486461799185
1384 -5068.028999713581
1385 -5065.643156800349
1386 -5063.716824280663
1387 -5061.958184098055
1388 -5061.015598791098
1389 -5059.609675977802
1390 -5058.608566483492
1391 -5057.613589873519
1392 -5057.444143761859
1393 -5056.908698898307
1394 -5057.047171319849
1395 -5056.742739374573
1396 -5057.403855886654
1397 -5057.616279405427
1398 -5058.697694769891
1399 -5059.390925401869
1400 -5060.85316561113
1401 -5062.060342797683
1402 -5063.961009348692
1403 -5065.691980152913
1404 -5067.983859947713
1405 -5070.134224440386
1406 -5072.696240233354
1407 -5075.359169067888
1408 -5078.508740528197
1409 -5081.502012710367
1410 -5084.889573288257
1411 -5088.100596288738
1412 -5091.834117964352
1413 -5097.226677075814
1414 -5101.05499445242
1415 -5104.686725512637
1416 -5110.616650325996
1417 -5114.288283433578
1418 -5120.011821694938
1419 -5123.405639011722
1420 -5128.871713493259
1421 -5132.12639454074
1422 -5137.259786089902
1423 -5140.266704366572
1424 -5145.05434934302
1425 -5149.163421086199
1426 -5151.807832203804
1427 -5155.072975986242
1428 -5157.495018046021
1429 -5159.988572323267
1430 -5161.900444451991
1431 -5163.70574319158
1432 -5165.323880145829
1433 -5166.483058325695
1434 -5167.572453134479
1435 -5167.768687108662
1436 -5168.680752622278
1437 -5168.50291633086
1438 -5168.795423299808
1439 -5168.260363284247
1440 -5168.036809328917
1441 -5167.155140013394
1442 -5166.506782193504
1443 -5165.093094427719
1444 -5163.95454598892
1445 -5162.128512005167
1446 -5160.543766193483
1447 -5158.521416468742
1448 -5156.662870008783
1449 -5154.21110059815
1450 -5152.089754595518
1451 -5149.467021785887
1452 -5147.046353434736
1453 -5144.139511222559
1454 -5140.096788748913
1455 -5137.262441753875
1456 -5134.604928428153
1457 -5130.141463925577
1458 -5127.537749352525
1459 -5124.560904465226
1460 -5120.708009103901
1461 -5117.801971553209
1462 -5114.138726998342
1463 -5111.621487852511
1464 -5109.557629138189
1465 -5106.089256267588
1466 -5104.149034478448
1467 -5102.010615994167
1468 -5099.750167469809
1469 -5098.002909564479
1470 -5096.897812349222
1471 -5095.003472988135
1472 -5094.433581084775
1473 -5093.450085478033
1474 -5093.247887064036
1475 -5092.838040727051
1476 -5093.119705235441
1477 -5093.092776509636
1478 -5093.711745742192
1479 -5094.067610735756
1480 -5095.135248366016
1481 -5095.863866139355
1482 -5097.215620137959
1483 -5098.416760189981
1484 -5100.152931593899
1485 -5101.833355385788
1486 -5104.023172833778
1487 -5106.141170332201
1488 -5108.667907679313
1489 -5111.069511277096
1490 -5114.056203161353
1491 -5116.743079572585
1492 -5119.942805890865
1493 -5122.807140028885
1494 -5126.05378379286
1495 -5129.183371894185
1496 -5134.288036322672
1497 -5137.292170324063
1498 -5140.596218285182
1499 -5145.152959594334
1500 -5148.433459132116
1501 -5151.159775891342
1502 -5155.681975267237
1503 -5158.148436578802
1504 -5160.956617359858
1505 -5164.298441182264
1506 -5166.807193154767
1507 -5169.604655457634
1508 -5171.622335309089
1509 -5173.520410724303
1510 -5175.141455816887
1511 -5176.572407781685
1512 -5177.76453138222
1513 -5178.066080395323
1514 -5178.817261015784
1515 -5178.762582548192
1516 -5179.016417221244
1517 -5178.487806452646
1518 -5178.383334412683
1519 -5177.475800116947
1520 -5176.872147729646
1521 -5175.611455428767
1522 -5174.610713315084
1523 -5173.138364928935
1524 -5171.843904531484
1525 -5169.963487821888
1526 -5168.38273252693
1527 -5166.175251650769
1528 -5164.150140975408
1529 -5161.60516640317
1530 -5159.16845042889
1531 -5156.385476929105
1532 -5153.888182851835
1533 -5150.951519949485
1534 -5146.903263770297
1535 -5143.809295671092
1536 -5140.846542860234
1537 -5136.246330698106
1538 -5133.43057478067
1539 -5130.210967875512
1540 -5125.976251899139
1541 -5122.832851881512
1542 -5118.609133842164
1543 -5115.822122400021
1544 -5111.944279978326
1545 -5109.242530552645
1546 -5105.669165162497
1547 -5103.232275382155
1548 -5100.422778245564
1549 -5098.356407677165
1550 -5095.826411364552
1551 -5094.127241296556
1552 -5092.071613892007
1553 -5090.696912274612
1554 -5089.339671892805
1555 -5088.485313422693
1556 -5087.853867716247
1557 -5087.00451353596
1558 -5087.014610452625
1559 -5086.946276963386
1560 -5087.454651472356
1561 -5087.70905405397
1562 -5088.633521858972
1563 -5089.375306285505
1564 -5090.756590400087
1565 -5092.070998825449
1566 -5093.721036054241
1567 -5095.502083367042
1568 -5097.593136321085
1569 -5099.925356254629
1570 -5102.58967100162
1571 -5105.336757011202
1572 -5108.433288814633
1573 -5111.704090182782
1574 -5115.154623415659
1575 -5118.503406094146
1576 -5122.187094307894
1577 -5127.669791218601
1578 -5131.416124109236
1579 -5135.052993620052
1580 -5140.827688096928
1581 -5144.513737802171
1582 -5150.068432558335
1583 -5153.565507957635
1584 -5158.756979229674
1585 -5161.829211554204
1586 -5166.324909012692
1587 -5168.976054661219
1588 -5172.878797160246
1589 -5176.159576551448
1590 -5178.197744594008
1591 -5180.627346449492
1592 -5182.165420422954
1593 -5183.717372320018
1594 -5184.73230870607
1595 -5185.379908767494
1596 -5185.777948717647
1597 -5185.455861366756
1598 -5185.296664518002
1599 -5184.462175965062
1600 -5183.328302918917
1601 -5182.070334098038
1602 -5180.777367797325
1603 -5179.137281199995
1604 -5177.477391864585
1605 -5175.276443140931
1606 -5173.257954123482
1607 -5170.795666735939
1608 -5168.474831046216
1609 -5165.74447959082
1610 -5163.121447515489
1611 -5159.968648301807
1612 -5157.017153894778
1613 -5153.845746415393
1614 -5150.723400083774
1615 -5145.849687478065
1616 -5142.691401946878
1617 -5138.012580405681
1618 -5135.091735101814
1619 -5130.643925398464
1620 -5128.139540485035
1621 -5124.15908988998
1622 -5121.946188924354
1623 -5118.458699080301
1624 -5116.604528427966
1625 -5113.738568462593
1626 -5112.344065248839
1627 -5110.052626645993
1628 -5109.010871877936
1629 -5107.304839268156
1630 -5106.66236682753
1631 -5105.540744350259
1632 -5105.351650961172
1633 -5104.690328294764
1634 -5104.795077101591
1635 -5104.792621492086
1636 -5105.374634196072
1637 -5105.655098304362
1638 -5106.325871266423
1639 -5106.831946105955
1640 -5107.758364407036
1641 -5108.615863312299
1642 -5109.763851557402
1643 -5110.841340924311
1644 -5112.117497464655
1645 -5113.419100206034
1646 -5114.805029800926
1647 -5116.206280252265
1648 -5117.820747688989
1649 -5119.563467787586
1650 -5121.186769093467
1651 -5122.903995208139
1652 -5124.771729937709
1653 -5127.662668635159
1654 -5129.586238312821
1655 -5131.511929113722
1656 -5134.354199383419
1657 -5136.171080951207
1658 -5138.092093219808
1659 -5140.974679764172
1660 -5142.737992750288
1661 -5145.34193659548
1662 -5147.105175994419
1663 -5149.582712625487
1664 -5151.311478717074
1665 -5153.608137423878
1666 -5155.146058379986
1667 -5157.144015462953
1668 -5158.613370604739
1669 -5160.364918820849
1670 -5161.565634863504
1671 -5162.927695452358
1672 -5163.915620308178
1673 -5164.496619289364
1674 -5165.649907594579
1675 -5166.068754955871
1676 -5166.565158980397
1677 -5166.737252357303
1678 -5167.08821199303
1679 -5167.145782295607
1680 -5167.304053531292
1681 -5167.153421638421
1682 -5167.225603222688
1683 -5166.929275456279
1684 -5166.66556192761
1685 -5166.212349987676
1686 -5165.77614767114
1687 -5165.128426077814
1688 -5164.398977997533
1689 -5163.47555244045
1690 -5162.536042814652
1691 -5161.438292907671
1692 -5160.336117771552
1693 -5159.175274991355
1694 -5157.909394311414
1695 -5156.431352455426
1696 -5154.929073603312
1697 -5152.423638972967
1698 -5150.788654750659
1699 -5148.915812704467
1700 -5146.280061914524
1701 -5144.425438842651
1702 -5142.614144450609
1703 -5139.721048209414
1704 -5137.978663620985
1705 -5135.253729962449
1706 -5133.598681160645
1707 -5131.006660750249
1708 -5129.63506102166
1709 -5127.24720065118
1710 -5126.056176083274
1711 -5124.521918385441
1712 -5122.870658947252
1713 -5121.729811550414
1714 -5120.800804127578
1715 -5119.639841298435
1716 -5119.109177861864
1717 -5118.469954677526
1718 -5118.259282861198
1719 -5117.952162334243
1720 -5117.867859050581
1721 -5117.779445440807
1722 -5117.919668588707
1723 -5118.079068997733
1724 -5118.47190083395
1725 -5118.811676633688
1726 -5119.2792586375
1727 -5119.900958625582
1728 -5120.675979503534
1729 -5121.486269805728
1730 -5122.379489094188
1731 -5123.417285698228
1732 -5124.599190931689
1733 -5125.806734103729
1734 -5127.275309210419
1735 -5128.624280095022
1736 -5130.106762725287
1737 -5131.538953702006
1738 -5133.091920696208
1739 -5135.333706864907
1740 -5136.945836883731
1741 -5138.394119846716
1742 -5140.789403899558
1743 -5142.232095845751
1744 -5143.642930974322
1745 -5145.534040531487
1746 -5146.819762247279
1747 -5147.812887288539
1748 -5149.324373158925
1749 -5150.095992984612
1750 -5150.775974301581
1751 -5151.646043010053
1752 -5152.128289626196
1753 -5152.303197831387
1754 -5152.537642705718
1755 -5152.492698211116
1756 -5152.27633613551
1757 -5151.901412719288
1758 -5151.480953598538
1759 -5150.820759066246
1760 -5150.137998463844
1761 -5149.120127567231
1762 -5148.058580746914
1763 -5146.845245668559
1764 -5145.494030193122
1765 -5143.996773163787
1766 -5142.490572926763
1767 -5140.98092037758
1768 -5139.315173822121
1769 -5137.592508047661
1770 -5135.857078933732
1771 -5134.039740394783
1772 -5132.255210962085
1773 -5129.639996405442
1774 -5127.870714737743
1775 -5126.11813581933
1776 -5123.586242175979
1777 -5121.967256994187
1778 -5120.370750924587
1779 -5118.045383270546
1780 -5116.558032936476
1781 -5115.025790876711
1782 -5113.024764001671
1783 -5111.76026682072
1784 -5110.592891273395
1785 -5108.910400142828
1786 -5107.933386620307
1787 -5106.882766345501
1788 -5105.615822421463
1789 -5104.792017848475
1790 -5104.077502297115
1791 -5103.398165099878
1792 -5102.815727099603
1793 -5101.892350496128
1794 -5101.481456915435
1795 -5100.986606579014
1796 -5100.77115018818
1797 -5100.396788912931
1798 -5100.30175328389
1799 -5100.099942795207
1800 -5100.014169932382
1801 -5099.888365618601
1802 -5099.950003698503
1803 -5100.083292501909
1804 -5100.336976011145
1805 -5100.647876995865
1806 -5101.085305142025
1807 -5101.520386898526
1808 -5102.077848038671
1809 -5102.720042410105
1810 -5103.489865571049
1811 -5104.349468592634
1812 -5105.300906616907
1813 -5106.21754126326
1814 -5107.306545870854
1815 -5108.414178693223
1816 -5109.676819091301
1817 -5110.927843857699
1818 -5112.985837228885
1819 -5114.379786160227
1820 -5115.831429793998
1821 -5118.044671642688
1822 -5119.562142812536
1823 -5121.026933800858
1824 -5123.332115918794
1825 -5124.706321702788
1826 -5126.931382970602
1827 -5128.268006399245
1828 -5129.605635916393
1829 -5131.519911918132
1830 -5132.728407549748
1831 -5134.41354227681
1832 -5135.50993850486
1833 -5136.839423922826
1834 -5137.811215953658
1835 -5138.444097000183
1836 -5139.4981603369
1837 -5139.852030765373
1838 -5140.192998095374
1839 -5140.457637700116
1840 -5140.594461184053
1841 -5140.401020028312
1842 -5140.272072434282
1843 -5139.940558177064
1844 -5139.59611135357
1845 -5138.916366274543
1846 -5138.248804814195
1847 -5137.404573611075
1848 -5136.495031298002
1849 -5135.417452308089
1850 -5134.265326718938
1851 -5132.880545285774
1852 -5131.511774673407
1853 -5129.953442453558
1854 -5128.380337055812
1855 -5125.84730015077
1856 -5124.18496459912
1857 -5122.309801310514
1858 -5120.511348469485
1859 -5117.659310998506
1860 -5115.830747248003
1861 -5113.846601653882
1862 -5111.113908089461
1863 -5109.238961737892
1864 -5107.412678830113
1865 -5104.529164696472
1866 -5102.858128572176
1867 -5100.172591536048
1868 -5098.700556368352
1869 -5096.316522777492
1870 -5095.050767891367
1871 -5093.116245223884
1872 -5092.140214531682
1873 -5090.583285580081
1874 -5089.93541864888
1875 -5088.734551800848
1876 -5088.338011158972
1877 -5087.540764410376
1878 -5087.350416368364
1879 -5087.097057349045
1880 -5087.272655985391
1881 -5087.427025085273
1882 -5088.039162155241
1883 -5088.372084435883
1884 -5089.388167560339
1885 -5090.018462973199
1886 -5090.980277085055
1887 -5092.389211554697
1888 -5093.563526558004
1889 -5094.630912763212
1890 -5096.038283792623
1891 -5097.333789818969
1892 -5098.915189554982
1893 -5100.405905438463
1894 -5102.969226109308
1895 -5104.67152351519
1896 -5106.327865440362
1897 -5108.906317356941
1898 -5110.698558573052
1899 -5113.289110697904
1900 -5115.113298988406
1901 -5117.602734922883
1902 -5119.32281478891
1903 -5121.68063148153
1904 -5124.056702191282
1905 -5125.34717275217
1906 -5127.473390009493
1907 -5129.218746328283
1908 -5130.90747286548
1909 -5132.135907289593
1910 -5133.492286351124
1911 -5133.969358697211
1912 -5134.965723518892
1913 -5135.494380141774
1914 -5135.942988523462
1915 -5136.197087056973
1916 -5136.748147737177
1917 -5136.620085317691
1918 -5136.831060005217
1919 -5136.518202591688
1920 -5136.347382572358
1921 -5135.894323361512
1922 -5135.642559134731
1923 -5135.019145605017
1924 -5134.682059966169
1925 -5133.93194066531
1926 -5133.3592313051
1927 -5132.52338457743
1928 -5131.869165731111
1929 -5131.045065493516
1930 -5130.320704345026
1931 -5129.418543246004
1932 -5128.592384147309
1933 -5127.694552886847
1934 -5126.547692874847
1935 -5125.708164733122
1936 -5124.851628086853
1937 -5123.613137758827
1938 -5122.838541044595
1939 -5121.963723804108
1940 -5120.86259454263
1941 -5120.075844955627
1942 -5119.317165322325
1943 -5118.154619301076
1944 -5117.517310234843
1945 -5116.744927277196
1946 -5115.883406212548
1947 -5115.158463986234
1948 -5114.54227002983
1949 -5113.726186921569
1950 -5113.083284937658
1951 -5112.281869701166
1952 -5111.646708014989
1953 -5110.874717054539
1954 -5110.192739416259
1955 -5109.391870448344
1956 -5108.708911106834
1957 -5107.931305662216
1958 -5107.251079669493
1959 -5106.420910038469
1960 -5105.708527012088
1961 -5104.932568050399
1962 -5104.199733248017
1963 -5103.426388530113
1964 -5102.787228441272
1965 -5102.075109311436
1966 -5101.545556260957
1967 -5100.942944780362
1968 -5100.508843409323
1969 -5100.076823542988
1970 -5099.691765499084
1971 -5099.217540989986
1972 -5099.032986919146
1973 -5098.896432703846
1974 -5098.964399682127
1975 -5099.006117837815
1976 -5099.264087523321
1977 -5099.462635756456
1978 -5099.860716452644
1979 -5100.172034121639
1980 -5100.862821815679
1981 -5101.434872171632
1982 -5102.2370613891
1983 -5102.983835147244
1984 -5103.897832426233
1985 -5104.790548474044
1986 -5105.816625405731
1987 -5106.757861517429
1988 -5107.835269712361
1989 -5108.849125436649
1990 -5109.99258609194
1991 -5110.986061076781
1992 -5112.104415570371
1993 -5112.996427340129
1994 -5113.991314344248
1995 -5115.260771019845
1996 -5116.11185757083
1997 -5116.732816728676
1998 -5117.415809169768
1999 -5118.155523562425
2000 -5118.618556274938
2001 -5118.904469956087
2002 -5119.208541752323
2003 -5119.336848159637
2004 -5119.417380719311
2005 -5119.219679861597
2006 -5118.984755579242
2007 -5118.596380144263
2008 -5118.157574994962
2009 -5117.447575964028
2010 -5116.89771173391
2011 -5116.137939613398
2012 -5115.062835864775
2013 -5114.253887318697
2014 -5113.397295898643
2015 -5112.314178920844
2016 -5110.852825844571
2017 -5109.735205023766
2018 -5108.617497876456
2019 -5107.469384362927
2020 -5106.43127489393
2021 -5105.214541880305
2022 -5103.482993501438
2023 -5102.271111108608
2024 -5101.228222377115
2025 -5099.586178638727
2026 -5098.729122307421
2027 -5097.699729454464
2028 -5096.544023737306
2029 -5095.638338598636
2030 -5094.599208541066
2031 -5093.81568671853
2032 -5093.050887156203
2033 -5092.519678594821
2034 -5091.960661423722
2035 -5091.516056305698
2036 -5091.264293583159
2037 -5090.958049813966
2038 -5090.912406608993
2039 -5090.84622968516
2040 -5091.076924886191
2041 -5091.170002652497
2042 -5091.572433551662
2043 -5091.766623136573
2044 -5092.19482757215
2045 -5092.753801911404
2046 -5093.36384652127
2047 -5093.750396962252
2048 -5094.517740247402
2049 -5095.010415096782
2050 -5095.768505213367
2051 -5096.315527784093
2052 -5097.112765239925
2053 -5097.654807557619
2054 -5098.431010184007
2055 -5099.312309781631
2056 -5100.016260595532
2057 -5100.446675760574
2058 -5101.323514690303
2059 -5101.791750893624
2060 -5102.357543990674
2061 -5102.860012730613
2062 -5103.368805706055
2063 -5103.713421111548
2064 -5104.159419055033
2065 -5104.319546174424
2066 -5104.7283484559
2067 -5104.773474220077
2068 -5105.133164162595
2069 -5105.073766617729
2070 -5105.382510757272
2071 -5105.191407210505
2072 -5105.424355848554
2073 -5105.093954627288
2074 -5105.328162421229
2075 -5105.000926471944
2076 -5105.159746169349
2077 -5104.914139154487
2078 -5104.994586837262
2079 -5104.705309794756
2080 -5104.785632717152
2081 -5104.460181259199
2082 -5104.54372278419
2083 -5104.256248454505
2084 -5104.31565027192
2085 -5104.069878670928
2086 -5104.094682345691
2087 -5103.871298049655
2088 -5103.921897091224
2089 -5103.818881832682
2090 -5103.952866579168
2091 -5103.907436125125
2092 -5104.185201936921
2093 -5104.150756505122
2094 -5104.299382370489
2095 -5104.295088673955
2096 -5104.545215252018
2097 -5104.484235617308
2098 -5104.787919423808
2099 -5104.777211521832
2100 -5105.038133959095
2101 -5105.002058421922
2102 -5105.182250619082
2103 -5105.10144994216
2104 -5105.358218895593
2105 -5105.321940914962
2106 -5105.441789364533
2107 -5105.299343402425
2108 -5105.36839646613
2109 -5105.09887301888
2110 -5105.151526578597
2111 -5104.732659682129
2112 -5104.711075193118
2113 -5104.227619891732
2114 -5104.158711994764
2115 -5103.543405260533
2116 -5103.380085434756
2117 -5102.792305892697
2118 -5102.380299843731
2119 -5101.803869529289
2120 -5101.444488716703
2121 -5100.538104368008
2122 -5100.140219509299
2123 -5099.182206191052
2124 -5098.860303193174
2125 -5097.873606659236
2126 -5097.637948305744
2127 -5096.709273938928
2128 -5096.427467471399
2129 -5095.537419077679
2130 -5095.314765638837
2131 -5094.528454292401
2132 -5094.406145806583
2133 -5093.626616319978
2134 -5093.580247629722
2135 -5092.979773991337
2136 -5093.063423654412
2137 -5092.608842223548
2138 -5092.812640738677
2139 -5092.535999444353
2140 -5092.854310808796
2141 -5092.754926736839
2142 -5093.366001120807
2143 -5093.395534915632
2144 -5094.128596023893
2145 -5094.549356358993
2146 -5095.266091111195
2147 -5095.831034599352
2148 -5097.053115937239
2149 -5097.395295950111
2150 -5098.686520360432
2151 -5099.480547980011
2152 -5100.5210115588
2153 -5101.485243157957
2154 -5103.052844955395
2155 -5103.652108240749
2156 -5105.251656166944
2157 -5106.36657665723
2158 -5107.468202922769
2159 -5108.559836342123
2160 -5110.155424272425
2161 -5110.707165472187
2162 -5112.1334125458
2163 -5113.167016019856
2164 -5114.127609914003
2165 -5114.83839376043
2166 -5116.107284259708
2167 -5116.660202984948
2168 -5117.413992135569
2169 -5117.810230957427
2170 -5118.609811410164
2171 -5118.641715079297
2172 -5119.09673129258
2173 -5118.8191069334
2174 -5119.009687625846
2175 -5118.508683556139
2176 -5118.484198539021
2177 -5117.80112340201
2178 -5117.623930790791
2179 -5116.943694808127
2180 -5116.58360161601
2181 -5115.62346943953
2182 -5115.371100252349
2183 -5114.229478333824
2184 -5113.749248615459
2185 -5112.877236949676
2186 -5112.308694248404
2187 -5111.21116724893
2188 -5110.919145198034
2189 -5109.74914167757
2190 -5109.264242143403
2191 -5108.440537263658
2192 -5108.081995057069
2193 -5107.096589056924
2194 -5106.946471819123
2195 -5106.163022278772
2196 -5106.108440913536
2197 -5105.606948296991
2198 -5105.705192692442
2199 -5105.243858569043
2200 -5105.439957808754
2201 -5105.14567961982
2202 -5105.612196712586
2203 -5105.329939611505
2204 -5105.918761024471
2205 -5106.028640945502
2206 -5106.628949957911
2207 -5106.814433965528
2208 -5107.87000052367
2209 -5107.958371086492
2210 -5109.045741928573
2211 -5109.453236320412
2212 -5110.312981409896
2213 -5110.795534460285
2214 -5111.747732123989
2215 -5112.238046184973
2216 -5113.230491637941
2217 -5113.687950356816
2218 -5114.682695447704
2219 -5115.087313402138
2220 -5116.005974099806
2221 -5116.322656815494
2222 -5117.218176797779
2223 -5117.384939052832
2224 -5118.124972383226
2225 -5118.195557713826
2226 -5119.12117641612
2227 -5119.036094868166
2228 -5119.734012594586
2229 -5119.598262749014
2230 -5120.144717611234
2231 -5120.012875411756
2232 -5120.451068527869
2233 -5120.297863872696
2234 -5120.822333933593
2235 -5120.682291963205
2236 -5121.232749466667
2237 -5121.031697137918
2238 -5121.613414899019
2239 -5121.414115074868
2240 -5122.018363479057
2241 -5121.853485235199
2242 -5122.423548828205
2243 -5122.154134265329
2244 -5122.804461530676
2245 -5122.57129376414
2246 -5123.046349396475
2247 -5122.946171971244
2248 -5123.439691801404
2249 -5123.227473725553
2250 -5123.808166981662
2251 -5123.751577326278
2252 -5124.183482066861
2253 -5124.017073699089
2254 -5124.349419977169
2255 -5124.057127038359
2256 -5124.382905356248
2257 -5124.085594608642
2258 -5124.255266851857
2259 -5123.902201001469
2260 -5123.902771211153
2261 -5123.326711658841
2262 -5123.292432894024
2263 -5122.691161989013
2264 -5122.357243443419
2265 -5121.670636222413
2266 -5121.347147186549
2267 -5120.246431767906
2268 -5119.81772704411
2269 -5118.599431181296
2270 -5118.119641722265
2271 -5116.746353591237
2272 -5115.905573422766
2273 -5114.802195450646
2274 -5113.83486651672
2275 -5112.232182779928
2276 -5111.287571212691
2277 -5109.668211563612
2278 -5108.735282359179
2279 -5107.16297154807
2280 -5106.404461508519
2281 -5104.920621959433
2282 -5104.350245426728
2283 -5103.043224699555
2284 -5102.667755402619
2285 -5101.555094707446
2286 -5101.406021699811
2287 -5100.497374968318
2288 -5100.607092340431
2289 -5099.926964456559
2290 -5100.214862344734
2291 -5099.771615501718
2292 -5100.275515751686
2293 -5099.958017348601
2294 -5100.692397644334
2295 -5100.684648709514
2296 -5101.641063584858
2297 -5101.816475981543
2298 -5102.706188124459
2299 -5102.998567774207
2300 -5104.32885687214
2301 -5104.785732921326
2302 -5106.154325853772
2303 -5106.728807967121
2304 -5107.886521365912
2305 -5108.493310518648
2306 -5110.020724315918
2307 -5110.667484681871
2308 -5112.148532761037
2309 -5112.388923255156
2310 -5113.808367581705
2311 -5114.398270899641
2312 -5115.72089736088
2313 -5116.15074355106
2314 -5117.365290445163
2315 -5117.737104823858
2316 -5118.879283171514
2317 -5119.07356475569
2318 -5120.01556572277
2319 -5120.116818971228
2320 -5120.962998099727
2321 -5120.850151682449
2322 -5121.589681387095
2323 -5121.319255558437
2324 -5121.968214806142
2325 -5121.660797320784
2326 -5122.19559927851
2327 -5121.84123902216
2328 -5122.365924094778
2329 -5121.93282682967
2330 -5122.386848691693
2331 -5121.97340247167
2332 -5122.30223137093
2333 -5121.891710092311
2334 -5122.274534291693
2335 -5121.877896244685
2336 -5122.288285622146
2337 -5121.923025588335
2338 -5122.32427332444
2339 -5122.044923876517
2340 -5122.335971921096
2341 -5121.984919572093
2342 -5122.196589181385
2343 -5121.819392951562
2344 -5122.112478647354
2345 -5121.739740502046
2346 -5122.015338240863
2347 -5121.674926866883
2348 -5121.941051299895
2349 -5121.668112197895
2350 -5122.025244456981
2351 -5121.711183530182
2352 -5122.079931160135
2353 -5121.803780571558
2354 -5122.257947307669
2355 -5122.011716941523
2356 -5122.482320599195
2357 -5122.321496690447
2358 -5122.688320890244
2359 -5122.571030260489
2360 -5123.072918669774
2361 -5122.900526944294
2362 -5123.381624479447
2363 -5123.252525507765
2364 -5123.572806959655
2365 -5123.305985422474
2366 -5123.606327783831
2367 -5123.302344099256
2368 -5123.50500957706
2369 -5123.198054270366
2370 -5123.311416731158
2371 -5122.938203170717
2372 -5123.015316871235
2373 -5122.521677406055
2374 -5122.463539135906
2375 -5121.816009444237
2376 -5121.794671659427
2377 -5121.021398399041
2378 -5120.937496983463
2379 -5120.308003730794
2380 -5120.13748999961
2381 -5119.335381289803
2382 -5119.216338799175
2383 -5118.344758149364
2384 -5118.013407413691
2385 -5117.290892980609
2386 -5116.944995034079
2387 -5116.111129057375
2388 -5115.766961571444
2389 -5115.054856626622
2390 -5114.772870350465
2391 -5113.939994524133
2392 -5113.85459922578
2393 -5113.052777718935
2394 -5113.001135230666
2395 -5112.417661984765
2396 -5112.40806807469
2397 -5111.903208230013
2398 -5111.998651838308
2399 -5111.485885644674
2400 -5111.720557237414
2401 -5111.326427676519
2402 -5111.63043661397
2403 -5111.29917947839
2404 -5111.595235505551
2405 -5111.266853722836
2406 -5111.640167718255
2407 -5111.38102901718
2408 -5111.835525425956
2409 -5111.727828385631
2410 -5112.190290745732
2411 -5112.122710566739
2412 -5112.655252396365
2413 -5112.510440639864
2414 -5113.094579628948
2415 -5113.029214115679
2416 -5113.364699198384
2417 -5113.357180386268
2418 -5113.706341374162
2419 -5113.519894297443
2420 -5113.983828773311
2421 -5113.863157182032
2422 -5114.123345076323
2423 -5114.058481887832
2424 -5114.288113174262
2425 -5114.094680575743
2426 -5114.307201659076
2427 -5114.110307299038
2428 -5114.172812926046
2429 -5113.830999437757
2430 -5113.845528819314
2431 -5113.472241635984
2432 -5113.389224203044
2433 -5113.05138603705
2434 -5112.93828762907
2435 -5112.393155917924
2436 -5112.26632972731
2437 -5111.793727693397
2438 -5111.694092444412
2439 -5111.246400505302
2440 -5111.028061141776
2441 -5110.67559194091
2442 -5110.494246993973
2443 -5110.114447638365
2444 -5110.067965342086
2445 -5109.738733612353
2446 -5109.734906814596
2447 -5109.490595270398
2448 -5109.512312894421
2449 -5109.396124334641
2450 -5109.461740976152
2451 -5109.428439567439
2452 -5109.511355428494
2453 -5109.543573066821
2454 -5109.666650451607
2455 -5109.769178417449
2456 -5109.910163756444
2457 -5110.10218152987
2458 -5110.306866363804
2459 -5110.574874971151
2460 -5110.817785849036
2461 -5111.153701486273
2462 -5111.391657766918
2463 -5111.790720172563
2464 -5112.088191554766
2465 -5112.514763853405
2466 -5112.829510325884
2467 -5113.258062571007
2468 -5113.606881255375
2469 -5114.067850799416
2470 -5114.476987547163
2471 -5114.900193277258
2472 -5115.293196901626
2473 -5115.657508855906
2474 -5116.067822552585
2475 -5116.420879275194
2476 -5116.79611866039
2477 -5117.174104232927
2478 -5117.589696518649
2479 -5117.90381580962
2480 -5118.280299834183
2481 -5118.566854017381
2482 -5118.915238970674
2483 -5119.212138288569
2484 -5119.592691159894
2485 -5119.911096438411
2486 -5120.271291900723
2487 -5120.601428103782
2488 -5120.959751571612
2489 -5121.484537824669
2490 -5121.847073479781
2491 -5122.172295284166
2492 -5122.583145192415
2493 -5122.980664096728
2494 -5123.600797625758
2495 -5123.945435611793
2496 -5124.269228663206
2497 -5124.800343777779
2498 -5125.176562914863
2499 -5125.491839150473
2500 -5126.152836502377
2501 -5126.550107092069
2502 -5126.91303134704
2503 -5127.430603311987
2504 -5127.84347235424
2505 -5128.152494145427
2506 -5128.743020764388
2507 -5129.063909196835
2508 -5129.399914694795
2509 -5129.878064462435
2510 -5130.185048059016
2511 -5130.400588583399
2512 -5130.828505984661
2513 -5130.998392719195
2514 -5131.152782386812
2515 -5131.260681135738
2516 -5131.453583553688
2517 -5131.510086662453
2518 -5131.467687588934
2519 -5131.374998770223
2520 -5131.283801633004
2521 -5131.001673616305
2522 -5130.766093585399
2523 -5130.466073013882
2524 -5130.205698407934
2525 -5129.818181085982
2526 -5129.273724848465
2527 -5128.830537486279
2528 -5128.293745073672
2529 -5127.733753745651
2530 -5126.870543718249
2531 -5126.295279013133
2532 -5125.632169237182
2533 -5124.65357414195
2534 -5124.013642958833
2535 -5123.322152207911
2536 -5122.322246705851
2537 -5121.656838034673
2538 -5121.031800310857
2539 -5120.006965209346
2540 -5119.45065154809
2541 -5118.473991996249
2542 -5117.976577390055
2543 -5117.0344162768
2544 -5116.545439787844
2545 -5115.728301110659
2546 -5115.320194939208
2547 -5114.51190691121
2548 -5114.180891228779
2549 -5113.467953214165
2550 -5113.173440190065
2551 -5112.514291803534
2552 -5112.304211803853
2553 -5111.715786915101
2554 -5111.613327047152
2555 -5111.12502970887
2556 -5111.120550427227
2557 -5110.757135919364
2558 -5110.803300514286
2559 -5110.524018639358
2560 -5110.625037235382
2561 -5110.537050846988
2562 -5110.546534682549
2563 -5110.464243245834
2564 -5110.613476454739
2565 -5110.563944278165
2566 -5110.872126149642
2567 -5110.950846220831
2568 -5111.226821007271
2569 -5111.442982455398
2570 -5111.749328080554
2571 -5111.856165121897
2572 -5112.244362579184
2573 -5112.637414533217
2574 -5113.071929193531
2575 -5113.290352823162
2576 -5113.911476083858
2577 -5114.222512482408
2578 -5114.578407817415
2579 -5115.047730560322
2580 -5115.409222349417
2581 -5115.7683701322
2582 -5116.240057283798
2583 -5116.384844993625
2584 -5116.774864356322
2585 -5117.020130076482
2586 -5117.237706682388
2587 -5117.255420622883
2588 -5117.454910138875
2589 -5117.392893954555
2590 -5117.531680251563
2591 -5117.361032117058
2592 -5117.336816083953
2593 -5117.065707114032
2594 -5117.019972580811
2595 -5116.65672967861
2596 -5116.652910625636
2597 -5116.147159741266
2598 -5116.093258423956
2599 -5115.529714826431
2600 -5115.44652020339
2601 -5115.016806843305
2602 -5114.655881903427
2603 -5114.20383603299
2604 -5113.907108870128
2605 -5113.217432235055
2606 -5112.877705165397
2607 -5112.307272979243
2608 -5111.797501650723
2609 -5111.29757271663
2610 -5110.636376821688
2611 -5109.956867592393
2612 -5109.571048137359
2613 -5108.837927536639
2614 -5108.325063401853
2615 -5107.601257220829
2616 -5107.175654855408
2617 -5106.496893803529
2618 -5106.06409798454
2619 -5105.419201472256
2620 -5105.081561559866
2621 -5104.477725673677
2622 -5104.153230415764
2623 -5103.560014979616
2624 -5103.486358855864
2625 -5102.904655972741
2626 -5102.806464663036
2627 -5102.263324100984
2628 -5102.269973464364
2629 -5101.698997649624
2630 -5101.527870499869
2631 -5101.087533610465
2632 -5100.98668309879
2633 -5100.536766365265
2634 -5100.441587465884
2635 -5099.944884371796
2636 -5099.867489545164
2637 -5099.420898097751
2638 -5099.299897180794
2639 -5098.823204538197
2640 -5098.800304589947
2641 -5098.336703196117
2642 -5098.256533933069
2643 -5097.774048502424
2644 -5097.760814849751
2645 -5097.269162003309
2646 -5097.222192745986
2647 -5096.715587373972
2648 -5096.727875792357
2649 -5096.22767781212
2650 -5096.265491572261
2651 -5095.75294189864
2652 -5095.781998834283
2653 -5095.321943333436
2654 -5095.437646390657
2655 -5094.936246881132
2656 -5095.105572207887
2657 -5094.64403615919
2658 -5094.864239057972
2659 -5094.422072713817
2660 -5094.695662812843
2661 -5094.353226161257
2662 -5094.729010036803
2663 -5094.40631817079
2664 -5094.952411213284
2665 -5094.70148235566
2666 -5095.300128940104
2667 -5095.183591998055
2668 -5095.850667259076
2669 -5095.810746865593
2670 -5096.607282398083
2671 -5096.617806163373
2672 -5097.451504759008
2673 -5097.501733627003
2674 -5098.404291583287
2675 -5098.417866085341
2676 -5099.346702782878
2677 -5099.354170646133
2678 -5100.271117507344
2679 -5100.223410954671
2680 -5101.085212601274
2681 -5100.993487254038
2682 -5101.824566296886
2683 -5101.686391409088
2684 -5102.409886447
2685 -5102.175405717539
2686 -5102.82101644429
2687 -5102.454466229214
2688 -5103.130125754038
2689 -5102.690808856494
2690 -5103.286514094874
2691 -5102.670382541586
2692 -5103.205885938836
2693 -5102.593806849731
2694 -5102.967485192177
2695 -5102.313594242947
2696 -5102.650467699385
2697 -5101.850354170158
2698 -5102.060656772508
2699 -5101.18198578579
2700 -5101.381613450584
2701 -5100.437279556797
2702 -5100.595872598908
2703 -5099.664849483735
2704 -5099.844541659419
2705 -5099.002279789183
2706 -5099.234016101582
2707 -5098.46409569804
2708 -5098.828089783417
2709 -5098.103655251479
2710 -5098.555728138868
2711 -5097.943002134852
2712 -5098.567316340605
2713 -5098.100720592418
2714 -5098.858814238611
2715 -5098.594625836253
2716 -5099.52025028658
2717 -5099.423461708864
2718 -5100.446602142089
2719 -5100.493958410656
2720 -5101.687946511842
2721 -5101.817015350063
2722 -5103.100840243056
2723 -5103.282494026693
2724 -5104.657410404048
2725 -5104.923844181007
2726 -5106.34180240229
2727 -5106.64892846683
2728 -5108.106385313253
2729 -5108.384505784376
2730 -5109.786703367887
2731 -5109.985413636144
2732 -5111.31373541308
2733 -5111.392223333105
2734 -5112.620165754122
2735 -5112.589173452265
2736 -5113.654148063366
2737 -5113.456860050665
2738 -5114.343936215044
2739 -5113.933784515857
2740 -5114.611193818848
2741 -5114.030530039377
2742 -5114.540879712899
2743 -5113.892397878095
2744 -5114.262356101664
2745 -5113.41116464861
2746 -5113.594751553568
2747 -5112.58003325898
2748 -5112.533181902505
2749 -5111.695143317274
2750 -5111.49988858476
2751 -5110.44854962487
2752 -5110.328157448494
2753 -5109.146036172309
2754 -5108.761152293981
2755 -5107.824139543087
2756 -5107.437063294217
2757 -5106.306706653711
2758 -5106.099325070514
2759 -5104.959022434882
2760 -5104.714672826689
2761 -5103.669213167792
2762 -5103.454476755373
2763 -5102.667354569208
2764 -5102.567682147984
2765 -5101.716587415072
2766 -5101.766247120901
2767 -5100.974256940386
2768 -5101.105342619957
2769 -5100.529584839376
2770 -5100.758970664016
2771 -5100.308935333267
2772 -5100.569944014167
2773 -5100.219051756807
2774 -5100.593851399814
2775 -5100.241817778077
2776 -5100.70751258358
2777 -5100.381070693491
2778 -5100.762523835399
2779 -5100.417864084073
2780 -5100.951270327255
2781 -5100.670498496725
2782 -5101.240729225283
2783 -5101.06329822201
2784 -5101.700165995087
2785 -5101.597551923383
2786 -5102.351982416823
2787 -5102.221392394476
2788 -5103.033344512746
2789 -5103.028859886739
2790 -5103.773846128027
2791 -5104.002892954818
2792 -5104.715836382857
2793 -5105.030161267624
2794 -5105.94186172791
2795 -5106.377666260605
2796 -5107.68419824742
2797 -5107.992044590083
2798 -5109.381233434688
2799 -5110.163856215691
2800 -5111.179492425989
2801 -5112.000795399186
2802 -5113.485522894885
2803 -5113.916086752389
2804 -5115.352355466201
2805 -5116.122629800592
2806 -5117.04634809688
2807 -5117.623068745548
2808 -5118.921975670555
2809 -5119.108141877754
2810 -5120.199791851371
2811 -5120.588450686232
2812 -5121.405319456569
2813 -5121.523726259489
2814 -5122.115628463821
2815 -5121.901108619159
2816 -5122.288941014462
2817 -5121.744759901107
2818 -5121.851153454831
2819 -5121.045084192243
2820 -5121.027088699928
2821 -5120.237861037156
2822 -5119.991559586455
2823 -5118.805564273387
2824 -5118.563520467686
2825 -5117.225680110329
2826 -5116.946479201207
2827 -5115.379967546385
2828 -5115.006228888993
2829 -5113.34883298382
2830 -5112.864532490871
2831 -5111.194535086741
2832 -5110.618960344307
2833 -5108.899669162701
2834 -5108.031653449687
2835 -5106.8441272337
2836 -5105.803110956987
2837 -5104.247424618499
2838 -5103.345703103159
2839 -5101.997633091348
2840 -5101.315137379266
2841 -5100.034708371701
2842 -5099.673643749514
2843 -5098.66324425851
2844 -5098.618162556712
2845 -5097.854746986478
2846 -5098.159517009162
2847 -5097.726187153612
2848 -5098.198451165769
2849 -5097.949468517301
2850 -5098.744083567535
2851 -5098.837432795528
2852 -5099.730804106021
2853 -5100.061362459353
2854 -5101.42361882042
2855 -5101.692727301621
2856 -5103.260521020638
2857 -5103.78319087915
2858 -5105.485862318728
2859 -5106.289763278377
2860 -5108.250687437398
2861 -5109.091788777628
2862 -5110.517972334064
2863 -5112.063262673541
2864 -5113.681042680266
2865 -5115.575674206983
2866 -5117.245285841409
2867 -5119.104087826021
2868 -5120.946877412087
2869 -5122.780935096102
2870 -5124.484807451572
2871 -5126.252805102869
2872 -5128.657180328361
2873 -5129.65385185766
2874 -5131.847283572492
2875 -5133.335026436842
2876 -5135.223642590607
2877 -5136.4082304882
2878 -5138.11245269348
2879 -5138.953893068812
2880 -5140.35018602705
2881 -5140.789011765194
2882 -5141.925453025014
2883 -5141.834902174438
2884 -5142.614342473903
2885 -5142.457407903929
2886 -5142.890474712963
2887 -5142.433408713605
2888 -5142.722522148129
2889 -5142.088245523555
2890 -5142.027554633167
2891 -5141.321291545975
2892 -5140.954443803646
2893 -5140.055286319676
2894 -5139.703734655061
2895 -5138.323793756384
2896 -5137.929134067243
2897 -5136.727686102171
2898 -5136.137396666459
2899 -5134.439672175833
2900 -5133.735539177076
2901 -5132.303846033767
2902 -5130.924640850363
2903 -5129.513229851112
2904 -5127.952945958232
2905 -5126.301242692218
2906 -5124.618454567641
2907 -5122.336316022914
2908 -5120.619008782935
2909 -5118.248548734491
2910 -5116.547507404093
2911 -5114.155352911288
2912 -5112.620435177489
2913 -5110.274464272895
2914 -5108.801411865298
2915 -5106.500006028915
2916 -5105.102180828442
2917 -5102.899468846037
2918 -5101.74737380736
2919 -5099.687196287343
2920 -5098.687168684796
2921 -5096.679091312519
2922 -5095.866986863273
2923 -5094.098799555808
2924 -5093.479648785616
2925 -5092.041906770992
2926 -5091.769962452749
2927 -5090.594746233972
2928 -5090.56762776403
2929 -5089.636719874028
2930 -5089.94941414242
2931 -5089.473152579917
2932 -5090.221744143109
2933 -5090.025960644251
2934 -5091.158625559539
2935 -5091.142077431165
2936 -5092.570915028571
2937 -5093.242183562446
2938 -5094.51952827525
2939 -5095.504102593364
2940 -5097.613781051386
2941 -5098.394026483278
2942 -5100.745422817732
2943 -5102.438573314077
2944 -5104.270654566819
2945 -5106.002427830497
2946 -5108.68084337348
2947 -5110.477626336072
2948 -5113.148522310276
2949 -5114.926674936023
2950 -5117.53642537363
2951 -5119.228660477476
2952 -5121.803246496769
2953 -5123.45396298599
2954 -5125.915117804091
2955 -5127.248702609819
2956 -5129.478957009437
2957 -5130.667593257713
2958 -5132.68287923746
2959 -5133.562643491969
2960 -5135.359343552882
2961 -5136.04174979552
2962 -5137.638553603416
2963 -5138.092914699107
2964 -5139.454852266277
2965 -5139.612367851005
2966 -5140.747386037752
2967 -5140.664396871
2968 -5141.539928277018
2969 -5141.218512898942
2970 -5141.905888134192
2971 -5141.358624649827
2972 -5141.846643357821
2973 -5141.217041516513
2974 -5141.465076658831
2975 -5140.627696430232
2976 -5140.838791492086
2977 -5139.836542601593
2978 -5139.919959582492
2979 -5138.75835282709
2980 -5138.804263589227
2981 -5137.788864157214
2982 -5137.293327804704
2983 -5136.317281026746
2984 -5135.596299193267
2985 -5134.484048986802
2986 -5133.459958974057
2987 -5132.292462207325
2988 -5131.184119672007
2989 -5129.494201789542
2990 -5128.88999334542
2991 -5126.974549789244
2992 -5125.826140319339
2993 -5123.936671449898
2994 -5122.761388279148
2995 -5120.825385160123
2996 -5119.705622343454
2997 -5117.778762577423
2998 -5116.748222257371
2999 -5114.84903005962
3000 -5113.839954424
3001 -5112.068454539914
3002 -5111.14625141139
3003 -5109.362774588656
3004 -5108.440641034459
3005 -5106.702570460355
3006 -5105.875793979327
3007 -5104.247297559004
3008 -5103.908419838206
3009 -5102.358083419242
3010 -5101.869346528438
3011 -5100.424947079053
3012 -5100.176194885643
3013 -5099.259705707889
3014 -5099.12859059336
3015 -5098.203101934098
3016 -5098.17912891157
3017 -5097.559897223233
3018 -5097.839059362351
3019 -5097.380972254035
3020 -5097.858564625013
3021 -5097.634950706333
3022 -5098.417968942857
3023 -5098.268407798538
3024 -5099.332485769801
3025 -5099.809114960114
3026 -5100.825173091748
3027 -5101.522921140097
3028 -5103.253683721181
3029 -5104.344401821987
3030 -5106.360274307985
3031 -5107.608687893502
3032 -5109.782471809354
3033 -5111.152705627081
3034 -5113.505984849142
3035 -5114.929119265372
3036 -5117.298696943973
3037 -5118.781585586679
3038 -5121.144287336536
3039 -5122.550430425152
3040 -5124.87560289016
3041 -5126.0150508765
3042 -5128.216162865981
3043 -5129.256301903511
3044 -5131.222063113005
3045 -5131.949242495022
3046 -5133.599139965398
3047 -5134.078216963493
3048 -5135.331954805164
3049 -5135.483124610097
3050 -5136.415384738258
3051 -5136.303573438779
3052 -5136.965494988593
3053 -5136.472250707451
3054 -5136.867978176111
3055 -5135.991303332485
3056 -5136.100979513489
3057 -5135.148940825713
3058 -5135.186615025839
3059 -5133.948982779208
3060 -5133.549870598168
3061 -5132.462512216003
3062 -5131.855554638058
3063 -5130.393791139233
3064 -5130.027407927495
3065 -5128.397164725194
3066 -5127.990250520857
3067 -5126.379056469791
3068 -5125.628548283487
3069 -5124.50142023004
3070 -5123.804582016131
3071 -5122.778031778496
3072 -5122.000314543724
3073 -5120.751155260858
3074 -5120.430971620959
3075 -5119.200415641919
3076 -5118.876813660047
3077 -5118.073937997799
3078 -5117.920122132475
3079 -5117.13382850032
3080 -5117.211502683469
3081 -5116.521626784181
3082 -5116.690557865548
3083 -5116.171144964215
3084 -5116.442532711906
3085 -5116.133407496139
3086 -5116.509346579269
3087 -5116.201163064354
3088 -5116.689636091964
3089 -5116.424491925003
3090 -5117.018295620235
3091 -5117.034210199157
3092 -5117.565011379698
3093 -5117.496683609225
3094 -5118.216900511629
3095 -5118.185139000602
3096 -5118.905360240245
3097 -5119.101679653049
3098 -5119.703614497977
3099 -5119.915231696412
3100 -5120.702271518308
3101 -5120.689958973053
3102 -5121.52418901622
3103 -5121.859432925319
3104 -5122.543507702883
3105 -5122.866222815582
3106 -5123.573607705328
3107 -5123.906986639246
3108 -5124.67333514199
3109 -5125.071659978366
3110 -5126.057471213573
3111 -5126.236938833621
3112 -5127.105320807163
3113 -5127.403972790929
3114 -5128.09561781172
3115 -5128.24175823404
3116 -5128.905924487139
3117 -5128.921149895685
3118 -5129.486305228482
3119 -5129.353483393108
3120 -5129.905661139192
3121 -5129.573567002463
3122 -5129.988695425485
3123 -5129.524367099024
3124 -5129.84078289161
3125 -5129.316846403908
3126 -5129.448122546501
3127 -5128.628107243206
3128 -5128.640579424763
3129 -5127.888553365791
3130 -5127.660677104341
3131 -5126.845304625584
3132 -5126.430657672936
3133 -5125.596072572293
3134 -5124.998123827256
3135 -5124.140615487088
3136 -5123.725023510272
3137 -5122.515520030427
3138 -5122.128409166358
3139 -5121.143069164626
3140 -5120.414306339737
3141 -5119.453162191907
3142 -5118.974602414354
3143 -5117.584158396863
3144 -5117.107623499718
3145 -5115.746376024317
3146 -5115.045843828017
3147 -5114.114394458993
3148 -5113.452157304535
3149 -5112.285193681508
3150 -5111.701301486657
3151 -5110.681803723613
3152 -5110.544283065634
3153 -5109.701652550368
3154 -5109.666428051889
3155 -5109.081750940062
3156 -5109.134643555259
3157 -5108.680905076504
3158 -5108.907776039014
3159 -5108.60469511017
3160 -5109.055241003189
3161 -5108.831473534829
3162 -5109.53771786019
3163 -5109.556853218326
3164 -5110.131874497651
3165 -5110.623349255961
3166 -5111.330784880228
3167 -5111.631902167856
3168 -5112.788942762774
3169 -5113.248899421948
3170 -5114.118573178683
3171 -5115.041766261854
3172 -5115.993400720401
3173 -5116.566162077428
3174 -5118.121660453669
3175 -5118.768671122667
3176 -5120.25505643352
3177 -5120.939525136616
3178 -5122.439861614072
3179 -5123.577917415423
3180 -5124.662564743048
3181 -5125.808714132078
3182 -5126.946493185971
3183 -5128.013614334915
3184 -5129.645448709191
3185 -5130.198896384501
3186 -5131.710685956597
3187 -5132.655512489446
3188 -5133.663990722003
3189 -5134.414094573293
3190 -5135.603379497536
3191 -5135.871326715554
3192 -5136.904622410184
3193 -5137.362158559482
3194 -5138.140913931726
3195 -5138.176222028793
3196 -5138.803552715904
3197 -5138.776019224635
3198 -5139.115549012841
3199 -5138.886007008725
3200 -5139.187096296869
3201 -5138.710801168432
3202 -5138.877379116153
3203 -5138.39128213648
3204 -5138.279862244646
3205 -5137.718532487524
3206 -5137.48019695404
3207 -5136.588640204443
3208 -5136.320350347594
3209 -5135.504054251182
3210 -5134.858874508867
3211 -5134.013376764538
3212 -5133.506414615337
3213 -5132.207023357979
3214 -5131.613633817909
3215 -5130.474396649819
3216 -5129.351245162588
3217 -5128.245431341256
3218 -5126.98888664421
3219 -5125.388639623641
3220 -5124.602873870499
3221 -5122.881755711827
3222 -5121.647877950942
3223 -5119.86898006019
3224 -5118.676328221276
3225 -5116.981032910612
3226 -5115.918031392872
3227 -5114.231516169688
3228 -5113.273449607472
3229 -5111.62235419871
3230 -5110.760348479802
3231 -5109.250527701706
3232 -5108.491537730859
3233 -5107.020209049222
3234 -5106.430268073462
3235 -5105.100083680935
3236 -5104.62443894551
3237 -5103.435842259219
3238 -5103.133285018384
3239 -5102.081098904324
3240 -5101.942167614754
3241 -5101.012685850438
3242 -5101.061999019927
3243 -5100.270522982695
3244 -5100.512775604719
3245 -5099.958941157442
3246 -5100.258552395365
3247 -5099.862750160657
3248 -5100.383865228824
3249 -5100.11346280376
3250 -5100.779046131413
3251 -5100.619800402673
3252 -5101.437280043655
3253 -5101.406686955201
3254 -5102.318289596314
3255 -5102.46862265327
3256 -5103.523688853178
3257 -5103.799895341656
3258 -5105.050997688046
3259 -5105.401969812896
3260 -5106.741460577379
3261 -5107.198538707065
3262 -5108.553227100033
3263 -5109.045585865964
3264 -5110.417246941739
3265 -5110.933379356806
3266 -5112.387244817449
3267 -5112.952157112035
3268 -5114.514233909946
3269 -5115.155097494622
3270 -5116.715706354822
3271 -5117.3510495112
3272 -5118.910877808072
3273 -5119.542052707367
3274 -5121.111390675766
3275 -5121.740972082686
3276 -5123.366068516989
3277 -5124.018035086396
3278 -5125.584231886696
3279 -5126.114176628649
3280 -5127.715284361986
3281 -5127.849488620594
3282 -5129.268956819711
3283 -5129.69810863145
3284 -5130.974576412615
3285 -5131.012842578376
3286 -5132.009526972623
3287 -5132.260701695016
3288 -5132.890398500886
3289 -5132.873220633766
3290 -5133.494108233634
3291 -5133.13615878818
3292 -5133.421484715182
3293 -5132.899271732707
3294 -5132.890269421699
3295 -5131.920028392526
3296 -5131.516387509148
3297 -5130.585573616509
3298 -5129.901563111622
3299 -5128.463403855043
3300 -5127.865989363518
3301 -5126.05580613382
3302 -5125.428076534043
3303 -5123.34352053866
3304 -5122.621528137812
3305 -5120.35364083493
3306 -5119.535029238532
3307 -5117.254444545189
3308 -5116.389793309701
3309 -5114.020204984356
3310 -5112.495464955831
3311 -5110.909912275187
3312 -5109.412691331584
3313 -5107.306080331427
3314 -5105.942624219846
3315 -5104.001236752325
3316 -5102.915433770822
3317 -5101.216787248237
3318 -5100.43748077927
3319 -5099.025886712918
3320 -5098.643159401627
3321 -5097.552870534961
3322 -5097.461705067211
3323 -5096.647070507484
3324 -5096.843388300788
3325 -5096.398952457627
3326 -5096.883514683767
3327 -5096.637200131728
3328 -5097.336743932207
3329 -5097.346322442909
3330 -5098.338472429185
3331 -5098.584597829729
3332 -5099.76661567044
3333 -5099.886311805372
3334 -5101.192650153535
3335 -5101.816119474678
3336 -5102.808221544457
3337 -5103.548142312527
3338 -5105.01530442539
3339 -5105.38158835112
3340 -5106.85683189106
3341 -5107.704842095606
3342 -5109.078715608875
3343 -5109.749075309183
3344 -5111.103298611688
3345 -5111.736675732947
3346 -5113.010801731789
3347 -5113.54011496193
3348 -5114.720744323467
3349 -5115.054221434852
3350 -5116.167341780037
3351 -5116.393237611872
3352 -5117.392478880789
3353 -5117.423995965364
3354 -5118.261978611404
3355 -5118.156509700972
3356 -5118.943974230398
3357 -5118.827936157073
3358 -5119.532753555655
3359 -5119.363470614187
3360 -5120.099104306619
3361 -5119.906078680977
3362 -5120.612170184792
3363 -5120.475615535115
3364 -5121.101742820407
3365 -5120.927069752107
3366 -5121.722137516143
3367 -5121.547723015094
3368 -5122.260106866225
3369 -5122.247328445634
3370 -5122.869496611173
3371 -5122.872831171926
3372 -5123.515922646087
3373 -5123.492835474753
3374 -5124.286856267458
3375 -5124.198419420714
3376 -5124.968959296253
3377 -5125.079812777316
3378 -5125.627885888648
3379 -5125.522197205024
3380 -5126.151246751482
3381 -5125.890467164763
3382 -5126.370474592346
3383 -5125.993893956731
3384 -5126.211272407005
3385 -5125.564235225735
3386 -5125.616691391926
3387 -5124.869075149259
3388 -5124.737457438855
3389 -5123.942276358935
3390 -5123.392312281012
3391 -5122.417223480416
3392 -5121.643870164639
3393 -5120.192450583716
3394 -5119.647511798632
3395 -5117.958220487853
3396 -5117.041117460384
3397 -5115.247289515699
3398 -5114.237164564379
3399 -5112.435055306594
3400 -5111.471601328871
3401 -5109.65184629253
3402 -5108.767053850997
3403 -5107.07794056735
3404 -5106.300390626371
3405 -5104.757904817253
3406 -5104.202724095731
3407 -5102.86397812578
3408 -5102.612308243119
3409 -5101.494387677854
3410 -5101.450344086319
3411 -5100.473060167997
3412 -5100.846833508569
3413 -5100.180251522896
3414 -5100.758278440017
3415 -5100.475684973494
3416 -5101.297484144679
3417 -5101.193514625893
3418 -5102.185683624539
3419 -5102.156287800759
3420 -5103.398060024657
3421 -5103.821767641019
3422 -5105.153451538439
3423 -5105.819030294498
3424 -5107.389840945363
3425 -5108.228596037172
3426 -5110.002373248402
3427 -5111.019732455963
3428 -5112.972353206269
3429 -5114.019036529946
3430 -5115.905946627784
3431 -5116.908266676818
3432 -5118.879213659287
3433 -5119.864607110294
3434 -5121.798333980423
3435 -5122.635173100915
3436 -5124.437463049097
3437 -5125.171617800184
3438 -5126.754958396921
3439 -5127.246374506818
3440 -5128.621166108407
3441 -5128.845458579881
3442 -5130.010686851969
3443 -5129.923198394234
3444 -5130.740693111222
3445 -5130.352569103093
3446 -5130.89847395272
3447 -5130.228196734271
3448 -5130.441619198387
3449 -5129.50835143636
3450 -5129.449439256337
3451 -5128.164202872158
3452 -5127.93071991436
3453 -5126.498324881526
3454 -5125.972370029596
3455 -5124.298460412714
3456 -5123.643062719518
3457 -5121.847816989846
3458 -5121.064609741906
3459 -5119.156243783395
3460 -5118.257589503657
3461 -5116.361096283063
3462 -5115.486471234019
3463 -5113.620920679386
3464 -5112.809102360017
3465 -5110.958323907491
3466 -5110.320997160357
3467 -5108.628431568707
3468 -5108.14806407062
3469 -5106.574750608071
3470 -5106.24093512372
3471 -5104.821203248901
3472 -5104.691293387605
3473 -5103.536109503331
3474 -5103.539247862574
3475 -5102.562235021484
3476 -5102.861732212777
3477 -5102.081535396779
3478 -5102.585792906091
3479 -5102.069272816092
3480 -5102.805181475513
3481 -5102.538321399452
3482 -5103.379065646364
3483 -5103.202808269446
3484 -5104.096064470756
3485 -5103.968008872649
3486 -5104.912771200092
3487 -5104.842166336863
3488 -5105.799130659499
3489 -5105.641332772355
3490 -5106.485804939557
3491 -5106.257112538244
3492 -5107.094791550273
3493 -5106.792849454494
3494 -5107.514741007193
3495 -5107.036946781833
3496 -5107.605829161809
3497 -5107.040004035289
3498 -5107.522947955253
3499 -5106.862956064352
3500 -5107.199519079028
3501 -5106.393119921893
3502 -5106.68608200394
3503 -5105.846638481275
3504 -5106.119855887198
3505 -5105.346057841374
3506 -5105.615047834317
3507 -5104.757411678447
3508 -5105.061204251646
3509 -5104.360365482597
3510 -5104.865928241761
3511 -5104.297982247201
3512 -5104.942098230224
3513 -5104.599791580309
3514 -5105.40468853841
3515 -5105.241572207537
3516 -5106.237479929605
3517 -5106.308462538276
3518 -5107.45684990208
3519 -5107.638408136023
3520 -5108.984050231533
3521 -5109.368215525797
3522 -5110.864133572924
3523 -5111.392609442886
3524 -5113.028408333865
3525 -5113.663119451514
3526 -5115.393869030795
3527 -5116.043795061039
3528 -5117.711652619829
3529 -5118.279479916298
3530 -5119.85749825488
3531 -5120.325343162531
3532 -5121.800961827576
3533 -5122.230232751474
3534 -5123.574863426958
3535 -5123.708510757778
3536 -5124.865127870729
3537 -5124.887369939612
3538 -5125.838277714574
3539 -5125.581546752768
3540 -5126.330761633889
3541 -5125.860385008247
3542 -5126.377987562678
3543 -5125.69755679781
3544 -5126.032105033992
3545 -5125.079776689674
3546 -5125.144717261832
3547 -5123.953699970863
3548 -5124.063852526748
3549 -5122.772998816558
3550 -5122.573072074296
3551 -5121.284547879983
3552 -5121.071730853144
3553 -5120.031907657153
3554 -5119.635023729678
3555 -5118.329488361225
3556 -5117.974994984324
3557 -5117.069636969181
3558 -5116.894923594587
3559 -5115.944278677428
3560 -5115.845391688485
3561 -5115.183177104108
3562 -5115.364373393981
3563 -5114.907881428419
3564 -5115.25088382885
3565 -5114.905643013207
3566 -5115.469141324305
3567 -5115.23672811016
3568 -5116.151837715383
3569 -5116.279952676148
3570 -5117.34038053509
3571 -5117.568096652188
3572 -5118.7597320398
3573 -5119.146452539352
3574 -5120.487869684312
3575 -5120.942619864126
3576 -5122.432016909126
3577 -5122.884256543017
3578 -5124.310269074879
3579 -5124.643600095935
3580 -5125.911324890476
3581 -5126.139447475804
3582 -5127.309833462688
3583 -5127.352246023858
3584 -5128.230473716732
3585 -5128.005385945178
3586 -5128.604194859099
3587 -5128.032322491033
3588 -5128.367257743554
3589 -5127.575517166283
3590 -5127.618831532546
3591 -5126.550345227413
3592 -5126.317704607292
3593 -5124.938582305084
3594 -5124.417702369708
3595 -5122.867668485297
3596 -5122.12667398251
3597 -5120.375982154279
3598 -5119.584540759759
3599 -5117.715315029374
3600 -5116.824172340803
3601 -5114.906609321602
3602 -5113.965536972499
3603 -5112.118887291507
3604 -5111.248353329177
3605 -5109.444803190694
3606 -5108.660981218651
3607 -5107.030977914827
3608 -5106.427713411376
3609 -5104.910591863842
3610 -5104.48841690394
3611 -5103.324424515368
3612 -5103.235712287356
3613 -5102.400437038148
3614 -5102.602722235861
3615 -5102.069406650049
3616 -5102.607873947559
3617 -5102.366199438687
3618 -5103.302199983104
3619 -5103.441410691423
3620 -5104.656478914417
3621 -5105.064082017572
3622 -5106.632034359314
3623 -5107.275115994375
3624 -5108.959788859229
3625 -5109.803991264867
3626 -5111.713255634948
3627 -5112.669420701572
3628 -5114.234251381091
3629 -5115.375474849368
3630 -5117.669876034804
3631 -5118.388424771598
3632 -5120.681080694467
3633 -5122.161719692594
3634 -5123.776831734811
3635 -5125.238915895667
3636 -5127.556435189441
3637 -5128.3439632842
3638 -5130.411759711143
3639 -5131.704831228075
3640 -5133.554419385211
3641 -5134.664978072704
3642 -5135.883662390501
3643 -5136.748727259748
3644 -5138.352239139689
3645 -5138.994162741302
3646 -5140.299892944025
3647 -5140.402581163335
3648 -5141.405253652938
3649 -5141.562503249814
3650 -5142.129055904938
3651 -5141.95323348819
3652 -5142.434119072304
3653 -5141.997422458475
3654 -5142.260816452373
3655 -5141.745549976071
3656 -5141.664425733949
3657 -5140.964686168007
3658 -5140.712474851678
3659 -5139.941762400586
3660 -5139.387997068739
3661 -5138.51273852065
3662 -5137.884495848273
3663 -5136.917363438183
3664 -5136.057450283396
3665 -5135.004587116049
3666 -5134.048585297763
3667 -5132.991913714735
3668 -5132.001696870342
3669 -5130.888132813896
3670 -5129.792400126247
3671 -5128.660885188099
3672 -5127.442735516546
3673 -5126.2970347603
3674 -5125.064575581883
3675 -5123.867190586871
3676 -5122.550452331156
3677 -5120.85002977346
3678 -5120.048642752667
3679 -5118.298835560916
3680 -5117.120274841884
3681 -5115.840476955571
3682 -5114.654409538511
3683 -5112.94170644613
3684 -5111.823857153751
3685 -5110.085894461048
3686 -5109.084265631086
3687 -5107.433962991756
3688 -5106.563244072998
3689 -5105.000524668516
3690 -5104.257401417339
3691 -5102.812859389775
3692 -5102.282209436966
3693 -5101.006352731431
3694 -5100.587050244126
3695 -5099.402497244873
3696 -5099.391839034624
3697 -5098.391915513267
3698 -5098.409397745118
3699 -5097.762615600076
3700 -5097.905610481257
3701 -5097.444628827877
3702 -5097.712666939415
3703 -5097.508710124297
3704 -5098.035124729887
3705 -5098.025482273026
3706 -5098.652498528743
3707 -5098.941651839139
3708 -5099.75179937848
3709 -5100.016784858681
3710 -5101.443123825173
3711 -5101.91555288518
3712 -5103.048119133986
3713 -5104.184449216053
3714 -5105.418695736152
3715 -5106.642132384075
3716 -5108.095752857567
3717 -5109.442987570381
3718 -5110.933979722184
3719 -5112.38779638962
3720 -5113.920533138453
3721 -5115.394522059842
3722 -5116.892468261763
3723 -5118.27922501886
3724 -5119.706114304945
3725 -5121.005667222276
3726 -5122.93986023682
3727 -5123.664641303725
3728 -5125.372200178494
3729 -5126.489293196126
3730 -5127.53089898726
3731 -5128.467990866915
3732 -5129.891367762076
3733 -5130.243067697791
3734 -5131.397227781061
3735 -5131.928893936281
3736 -5132.708179466552
3737 -5133.068369109829
3738 -5133.991474562625
3739 -5134.01590979285
3740 -5134.663997225272
3741 -5134.695578603629
3742 -5135.113788155665
3743 -5134.852556369683
3744 -5135.076129373331
3745 -5134.678766062361
3746 -5134.746438690596
3747 -5134.163564942908
3748 -5134.289805458875
3749 -5133.548970618349
3750 -5133.518559156568
3751 -5132.623371179132
3752 -5132.523498310284
3753 -5131.744198652658
3754 -5131.332584812609
3755 -5130.563652049654
3756 -5130.225358636576
3757 -5129.115827807447
3758 -5128.692382853426
3759 -5127.465161349726
3760 -5127.083122248171
3761 -5125.798259303256
3762 -5125.113560280592
3763 -5124.157964826749
3764 -5123.526065344277
3765 -5122.335477552383
3766 -5121.671979891222
3767 -5120.439158395653
3768 -5119.867794691159
3769 -5118.644119530789
3770 -5118.151642061157
3771 -5116.907447574933
3772 -5116.492471907837
3773 -5115.384951348233
3774 -5115.03570725895
3775 -5113.92382875632
3776 -5113.577420169755
3777 -5112.711415964099
3778 -5112.386336256619
3779 -5111.265665009518
3780 -5111.091609320444
3781 -5109.942775044619
3782 -5109.582360681296
3783 -5108.69538535183
3784 -5108.262103531247
3785 -5107.494725451755
3786 -5107.017267407197
3787 -5106.22600204876
3788 -5105.967749033623
3789 -5104.894923433449
3790 -5104.698701513702
3791 -5103.850080119239
3792 -5103.577263478317
3793 -5102.888245855854
3794 -5102.725603226742
3795 -5101.973674199824
3796 -5101.967540206362
3797 -5101.246105307456
3798 -5101.371950265866
3799 -5100.917930907576
3800 -5101.207315035193
3801 -5101.008598884428
3802 -5101.531001610605
3803 -5101.579762850111
3804 -5102.58592136313
3805 -5102.721805614904
3806 -5103.898341732976
3807 -5104.592155434839
3808 -5105.587917279733
3809 -5106.432541472711
3810 -5108.187670874281
3811 -5109.361533034432
3812 -5111.345257851015
3813 -5112.653646648321
3814 -5114.802286730383
3815 -5116.193163943079
3816 -5118.43912836549
3817 -5119.892134178171
3818 -5122.210863786289
3819 -5123.716501049313
3820 -5126.074691843856
3821 -5127.500305895326
3822 -5129.737151368188
3823 -5131.097413063038
3824 -5133.146501617882
3825 -5134.310404506728
3826 -5136.22748909403
3827 -5137.159885286219
3828 -5138.905622944965
3829 -5139.591789611947
3830 -5140.974017435778
3831 -5141.391353120674
3832 -5142.508159527331
3833 -5142.627138375316
3834 -5143.452108862617
3835 -5143.234954917587
3836 -5143.848119805369
3837 -5143.330503375051
3838 -5143.679685913262
3839 -5142.879851919328
3840 -5142.987754429838
3841 -5141.954000092146
3842 -5141.808526984385
3843 -5140.490029806773
3844 -5140.074106492259
3845 -5138.55466033407
3846 -5138.314327334181
3847 -5136.562356799282
3848 -5135.830016724861
3849 -5134.492694811777
3850 -5133.600873578631
3851 -5131.739481448538
3852 -5130.647089017586
3853 -5128.877636391044
3854 -5127.956976912646
3855 -5126.210756565573
3856 -5125.394355060645
3857 -5123.675075099891
3858 -5123.049366985537
3859 -5121.494216206191
3860 -5120.959514645948
3861 -5119.543450380354
3862 -5119.146825168213
3863 -5117.946333967788
3864 -5117.765407370963
3865 -5116.619132136226
3866 -5116.482460981674
3867 -5115.441487755188
3868 -5115.307376360622
3869 -5114.377927892168
3870 -5114.397326259075
3871 -5113.509231262275
3872 -5113.558221940103
3873 -5112.605063800165
3874 -5112.633173349143
3875 -5111.738448087964
3876 -5111.716344925354
3877 -5110.67624851493
3878 -5110.541681748176
3879 -5109.403345081653
3880 -5109.227002542248
3881 -5107.965703664021
3882 -5107.637339632838
3883 -5106.264171496142
3884 -5105.861974895832
3885 -5104.528234285339
3886 -5104.066178087973
3887 -5102.658809359194
3888 -5102.1827485976
3889 -5100.786671915346
3890 -5100.341313017258
3891 -5098.98256969362
3892 -5098.707082240696
3893 -5097.464185251461
3894 -5097.281638914641
3895 -5096.177540552771
3896 -5096.332112427613
3897 -5095.48205796298
3898 -5095.8783495649
3899 -5095.489966241717
3900 -5096.343101222421
3901 -5096.27973237737
3902 -5097.512274602129
3903 -5097.906684031397
3904 -5099.601582810225
3905 -5100.403950090381
3906 -5102.545486347606
3907 -5103.77503766711
3908 -5106.306401942293
3909 -5107.877562957687
3910 -5110.828641425443
3911 -5112.745045263342
3912 -5115.889155034965
3913 -5118.03453117048
3914 -5121.404630257442
3915 -5123.65956245939
3916 -5127.157755138137
3917 -5129.455457347816
3918 -5132.830023825348
3919 -5134.986441752209
3920 -5138.195914553812
3921 -5140.225890345206
3922 -5143.129254417003
3923 -5144.696835991082
3924 -5147.309927565197
3925 -5148.575059645547
3926 -5150.652069953901
3927 -5151.363227039399
3928 -5152.932582451751
3929 -5153.095274475792
3930 -5154.141741517553
3931 -5153.795409241066
3932 -5154.337313087029
3933 -5153.514806116284
3934 -5153.597429398208
3935 -5152.20055528484
3936 -5151.830246627985
3937 -5150.003832584782
3938 -5149.112482260212
3939 -5146.848869045287
3940 -5145.652652129789
3941 -5142.956653341069
3942 -5141.395917676115
3943 -5138.550956661033
3944 -5136.802375096242
3945 -5133.796440053
3946 -5131.932546399406
3947 -5128.953642689667
3948 -5127.059395600766
3949 -5124.075315360718
3950 -5122.219903147546
3951 -5119.283596896448
3952 -5117.65962406345
3953 -5114.904528022837
3954 -5113.375263245175
3955 -5110.826898796739
3956 -5109.587887609965
3957 -5107.34651537333
3958 -5106.353928842045
3959 -5104.349589724504
3960 -5103.656619603587
3961 -5101.984426822355
3962 -5101.616207859503
3963 -5100.254127725939
3964 -5100.262333840462
3965 -5099.100591645209
3966 -5099.3083977201
3967 -5098.490093657527
3968 -5098.975805818374
3969 -5098.481062909173
3970 -5099.230108353051
3971 -5098.951314504022
3972 -5099.946195598885
3973 -5099.867345617839
3974 -5101.015695547954
3975 -5101.106289133719
3976 -5102.208509303459
3977 -5102.552720356456
3978 -5103.792488700641
3979 -5104.2952667175
3980 -5105.641619933547
3981 -5106.004784818891
3982 -5107.846763524784
3983 -5108.46272499043
3984 -5109.846055008062
3985 -5111.142175140376
3986 -5112.596507396764
3987 -5114.128354740294
3988 -5116.496781925338
3989 -5118.243417034681
3990 -5120.562073373392
3991 -5122.292288230345
3992 -5124.724883581511
3993 -5126.387350582836
3994 -5128.806411497013
3995 -5130.387376407887
3996 -5132.935726921161
3997 -5134.40599745687
3998 -5136.745750171885
3999 -5138.065976244941
4000 -5140.268336834206
4001 -5141.369717948981
4002 -5143.423542653114
4003 -5144.335439841257
4004 -5146.189512287134
4005 -5146.796522782435
4006 -5148.325944809083
4007 -5148.571089928622
4008 -5149.703093709932
4009 -5149.632115071507
4010 -5150.422762999993
