"mz-rfile"
"Iteration" "mz"
("Iteration" "mz")
1 -9612.916088351283
2 -9365.108753959181
3 -8463.610853630948
4 -7453.706644056791
5 -6344.239098774454
6 -5304.871195228296
7 -4288.169540191612
8 -3475.19840721471
9 -2552.840532684791
10 -1679.210475348381
11 -850.2290180917826
12 -259.9589328441555
13 110.7029083341748
14 305.8400835681742
15 379.7503101747334
16 326.6209897475496
17 225.1019886777774
18 70.25025174753733
19 -122.6427588797912
20 -331.7144199292358
21 -575.9938833869173
22 -880.1697975701763
23 -1133.932576593621
24 -1375.284239296666
25 -1559.044269574585
26 -1724.298951059559
27 -1820.854088216677
28 -1913.323729144503
29 -1955.213685814725
30 -2000.393567079817
31 -2011.623936624751
32 -2031.50093752253
33 -2029.735890599884
34 -2038.012612834386
35 -2028.480854163838
36 -2030.08684441112
37 -2016.256131557577
38 -2015.222361315591
39 -1999.623682994151
40 -1998.229226381034
41 -1985.61373848098
42 -1986.084209907004
43 -1976.669365646716
44 -1977.716667287244
45 -1971.425969244624
46 -1974.166434033033
47 -1970.355305631261
48 -1974.54821755599
49 -1973.261837609146
50 -1980.16899114791
51 -1981.340102061448
52 -1990.270415613554
53 -1994.40489659136
54 -2004.224622562386
55 -2009.234922062965
56 -2018.863989956448
57 -2022.296216125873
58 -2031.008225428943
59 -2034.118987538026
60 -2040.2215959188
61 -2042.829921493287
62 -2047.349411170502
63 -2048.872295957362
64 -2052.254619282133
65 -2052.901080457152
66 -2054.966551243178
67 -2054.69391589495
68 -2055.798637650541
69 -2054.992563211997
70 -2054.992434739613
71 -2053.356103732395
72 -2052.501290757511
73 -2050.301590196429
74 -2049.330922506791
75 -2047.011587134023
76 -2045.459093018897
77 -2043.137367171279
78 -2042.019758832192
79 -2039.711217793255
80 -2039.289927356636
81 -2037.215267904579
82 -2036.558563724814
83 -2034.563647261241
84 -2034.937407349554
85 -2033.336864902984
86 -2034.519865362068
87 -2033.207390948361
88 -2034.656164743598
89 -2033.410118796056
90 -2035.6207553633
91 -2034.415406132767
92 -2036.583211736091
93 -2035.358888302806
94 -2037.828164568914
95 -2036.697312711741
96 -2038.927292019904
97 -2037.648449571919
98 -2040.141414375379
99 -2039.067885584425
100 -2041.374244139412
101 -2039.721249176634
102 -2042.163637400675
103 -2040.133327518708
104 -2042.46785054055
105 -2040.457486181136
106 -2042.229628128239
107 -2040.084969717012
108 -2042.635210765256
109 -2040.592854876356
110 -2043.558668418322
111 -2041.580206118796
112 -2044.051046138643
113 -2041.812866867492
114 -2044.003594162817
115 -2041.273747994505
116 -2043.439130913893
117 -2040.55241793998
118 -2042.646453275261
119 -2039.239356843724
120 -2041.276050993638
121 -2038.050240815981
122 -2038.96828596406
123 -2034.568715746375
124 -2035.676107744322
125 -2031.134991796873
126 -2031.44017792463
127 -2026.058752333993
128 -2025.180451054249
129 -2018.823005001266
130 -2017.953142684016
131 -2011.349691094915
132 -2009.406225744665
133 -2002.134857668637
134 -1999.919314445694
135 -1992.526496322271
136 -1989.482515573059
137 -1981.989752178481
138 -1978.657167778643
139 -1971.003207352466
140 -1968.180673785243
141 -1960.910554007334
142 -1957.289945014679
143 -1950.099856683466
144 -1947.045165182116
145 -1939.727907562765
146 -1937.758985247916
147 -1931.601684117636
148 -1931.414026597372
149 -1926.942570173548
150 -1927.906789569016
151 -1924.976941358047
152 -1927.11519039005
153 -1926.290900778843
154 -1929.203425644621
155 -1929.727020243628
156 -1934.427108226515
157 -1937.860116985692
158 -1944.937629776901
159 -1949.588710116659
160 -1958.876666413366
161 -1966.114448312815
162 -1977.436161271353
163 -1985.19386385174
164 -1997.926238609338
165 -2008.437166097608
166 -2023.739630681483
167 -2035.383488500486
168 -2051.830240184304
169 -2066.8360283996
170 -2086.039447301523
171 -2102.694942399006
172 -2124.832163702925
173 -2143.361520965973
174 -2167.55280805631
175 -2188.493911399483
176 -2212.962596464653
177 -2236.157715238303
178 -2264.087037894893
179 -2288.432585979564
180 -2310.584890821083
181 -2337.097127031808
182 -2366.397243344291
183 -2393.832375656344
184 -2425.723270051195
185 -2453.565343601432
186 -2485.461476841533
187 -2514.494157463977
188 -2547.794292361878
189 -2578.383979482419
190 -2613.487723351771
191 -2643.264780161985
192 -2678.461211178132
193 -2709.10088794182
194 -2743.428220955405
195 -2774.874960477762
196 -2809.110701032374
197 -2840.211310848832
198 -2875.07939821635
199 -2905.738092583601
200 -2941.525120420826
201 -2974.009113804982
202 -3008.615777530456
203 -3039.758502293385
204 -3075.236825857767
205 -3106.538095866904
206 -3142.415113313534
207 -3174.758771230692
208 -3202.40893847412
209 -3236.636427305728
210 -3271.944006255248
211 -3304.47292356538
212 -3337.379623075912
213 -3369.377707619927
214 -3401.951630033317
215 -3433.165953618731
216 -3460.797612738129
217 -3491.475150692677
218 -3524.142806437441
219 -3553.552757406313
220 -3578.534290794535
221 -3607.777876818922
222 -3638.348995376203
223 -3659.588909445484
224 -3689.360609888509
225 -3715.033191433291
226 -3737.030277972058
227 -3760.322988096356
228 -3781.033059441966
229 -3803.795588807001
230 -3822.577266450257
231 -3843.037355369045
232 -3859.105074789923
233 -3875.969467022413
234 -3890.856025700345
235 -3903.718251958098
236 -3916.306266633762
237 -3926.965992503618
238 -3936.525225195695
239 -3943.774392850216
240 -3951.013666227107
241 -3954.756968070848
242 -3958.989541110761
243 -3959.203327479952
244 -3960.678937005093
245 -3956.268813440429
246 -3953.68993844314
247 -3944.7539347191
248 -3937.106177595678
249 -3925.110529739689
250 -3916.100518039758
251 -3898.84000189575
252 -3883.869142042853
253 -3861.911063481485
254 -3845.580536357799
255 -3819.015137301158
256 -3798.732410586901
257 -3768.420634234093
258 -3744.734832148914
259 -3710.066819595801
260 -3682.771038428792
261 -3643.357009567747
262 -3611.283631805436
263 -3566.405761626822
264 -3522.594262362636
265 -3485.294016476505
266 -3437.634902082766
267 -3386.837379556627
268 -3347.060371900522
269 -3292.616177114257
270 -3241.588025451124
271 -3198.512877077776
272 -3142.813906681579
273 -3087.397667424995
274 -3035.82040119774
275 -2990.653718948955
276 -2936.925243707322
277 -2880.313035811879
278 -2827.782370898113
279 -2781.630619904274
280 -2727.956847348084
281 -2672.547123563439
282 -2630.976957952878
283 -2576.25579987942
284 -2533.514422146915
285 -2479.19904949932
286 -2438.044013608078
287 -2384.770157236655
288 -2346.343122671418
289 -2295.476320413296
290 -2257.699799036148
291 -2219.187580049798
292 -2183.039464462068
293 -2147.908272378877
294 -2116.175718733475
295 -2083.420438420758
296 -2056.930950916376
297 -2028.477474418076
298 -2006.478510058098
299 -1984.236603984597
300 -1971.169887033756
301 -1951.943444948074
302 -1942.614907520322
303 -1929.747679013381
304 -1924.643003824158
305 -1917.887695285526
306 -1915.54567343035
307 -1910.759249489014
308 -1910.099367312927
309 -1909.722622276869
310 -1911.192549614009
311 -1913.612066615668
312 -1917.32516716654
313 -1920.473138166739
314 -1925.899619687869
315 -1929.629769466607
316 -1935.631102689896
317 -1939.55764960324
318 -1945.99097234928
319 -1950.461627701955
320 -1956.341328527974
321 -1960.223633134378
322 -1966.109216793384
323 -1968.312008637354
324 -1970.526127577977
325 -1969.475828848612
326 -1970.827893672275
327 -1967.640210463846
328 -1965.72556604107
329 -1960.774408292603
330 -1956.936113251868
331 -1950.467247507299
332 -1944.469994436781
333 -1935.631544861049
334 -1926.33693638584
335 -1914.875910550732
336 -1904.149505301971
337 -1892.217132612367
338 -1880.640008367558
339 -1867.788006963925
340 -1856.096410548318
341 -1842.351157802011
342 -1830.219696348545
343 -1815.036037585014
344 -1806.577505718109
345 -1790.872249413572
346 -1776.750749023747
347 -1765.219420659007
348 -1750.491192637005
349 -1734.806743359466
350 -1720.055848953474
351 -1703.283917901045
352 -1688.162780036487
353 -1671.038620385759
354 -1655.045522406417
355 -1637.233208051186
356 -1620.072136763975
357 -1600.810471504737
358 -1583.193962546768
359 -1563.767927726309
360 -1545.358183809496
361 -1525.610905422116
362 -1507.207634614589
363 -1486.752271842453
364 -1469.647264731252
365 -1450.885442550105
366 -1435.009821212053
367 -1417.962022751984
368 -1403.162291877875
369 -1387.755421909175
370 -1375.359458674711
371 -1362.228062826365
372 -1352.555346734208
373 -1342.418537111044
374 -1335.661872281521
375 -1328.845401931793
376 -1325.414033849712
377 -1321.681428198972
378 -1321.505787887902
379 -1321.145818015817
380 -1324.209459285963
381 -1327.164053493849
382 -1333.711923711465
383 -1339.835698230826
384 -1349.131138726531
385 -1358.128663745429
386 -1370.423060517837
387 -1382.471606155547
388 -1397.348272024661
389 -1411.848491625189
390 -1423.775213374048
391 -1440.949916517153
392 -1460.968160927996
393 -1479.993102215273
394 -1501.403222004362
395 -1522.066140079851
396 -1544.932365778843
397 -1566.840245424629
398 -1590.169388804733
399 -1612.637831050868
400 -1637.847030969195
401 -1661.29130701088
402 -1686.067848647369
403 -1717.65923194917
404 -1741.737711454532
405 -1772.050422722988
406 -1796.441330008274
407 -1818.581882463625
408 -1849.655182327141
409 -1870.650459887764
410 -1893.547527216845
411 -1921.122056716602
412 -1943.465933986262
413 -1969.985616434962
414 -1991.476090170385
415 -2010.490715961873
416 -2037.410842668646
417 -2055.97617826271
418 -2075.739979546702
419 -2099.341003736867
420 -2117.883201304833
421 -2134.376694396372
422 -2158.723855116542
423 -2175.012652046421
424 -2192.521340545601
425 -2207.909541357583
426 -2230.049540142079
427 -2243.534959832559
428 -2260.056093381704
429 -2273.618090636706
430 -2288.571218809567
431 -2301.577896788128
432 -2315.579571152964
433 -2327.691173606524
434 -2340.940556866899
435 -2351.740697778534
436 -2363.383227593945
437 -2372.762745070577
438 -2382.923144751429
439 -2390.701677176221
440 -2398.669914334544
441 -2404.032733299219
442 -2410.331344132806
443 -2414.075834994126
444 -2418.897114891774
445 -2421.073806644847
446 -2423.720901206923
447 -2423.668629851446
448 -2424.088211805345
449 -2421.218128918205
450 -2419.189106347289
451 -2414.710147775271
452 -2410.441651108843
453 -2402.843820332017
454 -2395.54560478719
455 -2385.671179848892
456 -2376.554835694798
457 -2364.284278711686
458 -2353.156165016862
459 -2335.220871029307
460 -2322.324612155661
461 -2306.657748167929
462 -2286.776333574223
463 -2271.115950964294
464 -2250.787451650273
465 -2234.07478280995
466 -2213.249713394071
467 -2195.773546669707
468 -2173.917952268136
469 -2151.652517648997
470 -2136.11159702125
471 -2114.444862802362
472 -2095.411984285399
473 -2075.131788834636
474 -2061.848049747166
475 -2043.237231928456
476 -2027.323061140575
477 -2011.04176288239
478 -1997.508268668158
479 -1986.498235044902
480 -1974.499928836761
481 -1961.877623426647
482 -1954.885325528963
483 -1944.28916005565
484 -1938.898276496112
485 -1930.83811509699
486 -1926.562686826247
487 -1920.51083484826
488 -1918.251130664841
489 -1914.638524372552
490 -1914.238480159816
491 -1912.940712233368
492 -1914.213981326448
493 -1914.445677352379
494 -1917.340024279064
495 -1918.927696073591
496 -1923.056400982156
497 -1926.697151772289
498 -1932.104795436519
499 -1936.853597640089
500 -1943.646851212106
501 -1950.103834749489
502 -1958.192667119655
503 -1965.834076733881
504 -1975.547463706022
505 -1983.875666651343
506 -1994.180983133584
507 -2003.807992261818
508 -2015.114799862238
509 -2025.461363853474
510 -2036.809154315941
511 -2047.033437645323
512 -2059.217541258904
513 -2069.363592572231
514 -2080.725346733171
515 -2090.382715070396
516 -2101.388644349607
517 -2110.123033416761
518 -2120.046851823393
519 -2128.134741815746
520 -2136.354860290786
521 -2142.583547721631
522 -2149.136203888616
523 -2153.483959381931
524 -2158.011369726434
525 -2159.825552997612
526 -2161.52582470264
527 -2160.735877081344
528 -2160.253812614595
529 -2157.073568960476
530 -2153.555532230176
531 -2147.306799011881
532 -2141.168987470954
533 -2131.919541164884
534 -2122.652209030227
535 -2110.0822038548
536 -2097.056025129547
537 -2081.610705497389
538 -2066.291089118111
539 -2047.380843309873
540 -2028.306484319975
541 -2006.943955270608
542 -1985.540579096841
543 -1962.276231748496
544 -1938.786723422301
545 -1913.1322321691
546 -1887.898978727604
547 -1852.538451837404
548 -1826.837207493823
549 -1791.631590175453
550 -1766.395356681493
551 -1732.183460414996
552 -1700.833302331332
553 -1676.502638824699
554 -1646.409176104021
555 -1616.491857699284
556 -1589.533643846162
557 -1562.426268454903
558 -1538.237158673507
559 -1513.579659277532
560 -1491.604307589436
561 -1469.150131456179
562 -1449.432403700913
563 -1429.618802331091
564 -1412.281598666748
565 -1394.126844152602
566 -1378.540796819195
567 -1362.204665382759
568 -1348.721264111822
569 -1334.790776799708
570 -1323.718067977735
571 -1311.366299747829
572 -1304.267681654824
573 -1293.812386266832
574 -1287.890417573687
575 -1278.929285160597
576 -1274.518291378678
577 -1269.375163734848
578 -1266.705016670841
579 -1263.170957752387
580 -1261.619184641644
581 -1259.26969658815
582 -1258.9145968127
583 -1258.343224721373
584 -1259.505875847551
585 -1260.05179603509
586 -1262.967467789839
587 -1265.074865600461
588 -1270.097201327357
589 -1274.819856621783
590 -1281.566836925653
591 -1288.376667936948
592 -1296.869439778181
593 -1305.255374850599
594 -1315.457062587047
595 -1325.165605566822
596 -1336.370094675002
597 -1347.063216360216
598 -1359.240416520547
599 -1370.690490549001
600 -1383.157655041404
601 -1395.008235566894
602 -1407.710512892746
603 -1419.596952589492
604 -1432.156576871553
605 -1443.886910070197
606 -1456.307721562346
607 -1467.001457276433
608 -1478.234001052253
609 -1488.343753518228
610 -1498.87128781179
611 -1507.809506858987
612 -1516.847099958667
613 -1524.439829162336
614 -1531.940832652963
615 -1537.733371161291
616 -1543.546888964403
617 -1547.700424721001
618 -1552.096131233143
619 -1554.568260599695
620 -1556.918135776583
621 -1556.972428212938
622 -1557.02373711248
623 -1555.332386194093
624 -1554.124125002477
625 -1550.178031324252
626 -1547.693035367212
627 -1541.709431239861
628 -1537.493139683973
629 -1529.399579234902
630 -1523.643865470905
631 -1512.839941862634
632 -1505.508134403349
633 -1492.473648880418
634 -1483.848935062746
635 -1468.582870158291
636 -1458.706859456971
637 -1442.199054186325
638 -1426.170535015607
639 -1408.975086117186
640 -1392.679700619037
641 -1375.652058896812
642 -1359.743178054234
643 -1342.874059557652
644 -1327.477065065522
645 -1311.479576976576
646 -1296.989731857094
647 -1277.88784948572
648 -1265.11323270113
649 -1252.231847946037
650 -1237.573995472278
651 -1226.979841396571
652 -1215.308446839702
653 -1206.892450327037
654 -1198.304215385087
655 -1192.20801991565
656 -1186.38834097255
657 -1182.343154125908
658 -1179.38149774395
659 -1177.339054021251
660 -1177.025827504802
661 -1176.720484082379
662 -1178.41702290217
663 -1179.80939412418
664 -1183.327080898596
665 -1186.143396746257
666 -1191.119211391688
667 -1195.463104709991
668 -1201.574258942578
669 -1207.378688677969
670 -1214.836564059278
671 -1221.597870591208
672 -1229.80214787786
673 -1237.609530276082
674 -1244.119102966435
675 -1253.607608226092
676 -1263.945910691144
677 -1273.746568941821
678 -1284.832863116211
679 -1295.129719010499
680 -1306.633235233552
681 -1317.455723909169
682 -1329.196901851923
683 -1340.245988664493
684 -1355.75144986307
685 -1366.616646896768
686 -1378.236143564247
687 -1392.394232072698
688 -1403.397503042666
689 -1416.407434805104
690 -1426.624780557303
691 -1438.779854295905
692 -1448.618115747301
693 -1457.095391719228
694 -1469.695734216724
695 -1477.490227385762
696 -1488.811731867834
697 -1496.319397697981
698 -1504.071032475613
699 -1513.099671633332
700 -1520.580117762608
701 -1526.692998748305
702 -1533.446348899631
703 -1538.759379016754
704 -1544.699258413746
705 -1549.632425568865
706 -1555.363305252058
707 -1559.717521842741
708 -1564.55613536103
709 -1568.092429185462
710 -1572.465595953137
711 -1575.238652501809
712 -1578.299900266469
713 -1580.290075008371
714 -1582.762337719035
715 -1583.765440994958
716 -1585.137451370592
717 -1585.00356495411
718 -1584.721910335164
719 -1583.357968965287
720 -1582.150978987242
721 -1579.350043019871
722 -1577.250633584359
723 -1573.50655921151
724 -1570.218358801904
725 -1565.544618074809
726 -1561.599904859263
727 -1556.477861253968
728 -1551.811320889311
729 -1545.879211171142
730 -1540.896084316969
731 -1534.625700242866
732 -1529.345004131075
733 -1523.214888504447
734 -1516.434048637326
735 -1510.779510794515
736 -1506.220113304489
737 -1499.101810523333
738 -1494.89009363994
739 -1488.669109475763
740 -1484.896146050657
741 -1480.491301616558
742 -1475.805485203045
743 -1471.843656749512
744 -1468.95808423409
745 -1464.787217955869
746 -1462.598754394721
747 -1459.796850359938
748 -1458.2071630717
749 -1456.300342143844
750 -1455.174982863257
751 -1453.535691418536
752 -1453.063446879142
753 -1452.165825709973
754 -1452.11302609278
755 -1451.920711812597
756 -1452.695370790109
757 -1453.111741995901
758 -1454.547115950182
759 -1454.924540094805
760 -1456.886951153769
761 -1457.592932303421
762 -1459.879548386059
763 -1460.995255822566
764 -1463.354295353492
765 -1464.727001825275
766 -1467.535106970315
767 -1468.864780366209
768 -1471.675086768081
769 -1473.997545483728
770 -1476.925101788886
771 -1479.292248183216
772 -1482.323515040359
773 -1484.617704895472
774 -1487.609310388528
775 -1489.951372717823
776 -1492.845129813775
777 -1494.897524489552
778 -1497.598826321284
779 -1498.712758872669
780 -1501.237347973218
781 -1502.932244123366
782 -1505.436127656789
783 -1506.470499362205
784 -1508.894617907404
785 -1509.864153735618
786 -1512.257804469118
787 -1513.048484475996
788 -1515.132618622365
789 -1515.722821654299
790 -1517.019490234801
791 -1517.414066453705
792 -1518.462647419162
793 -1518.753953716601
794 -1519.510515888902
795 -1519.483239586308
796 -1519.909730853776
797 -1519.482076950081
798 -1519.174319992933
799 -1518.413983075328
800 -1518.161861536991
801 -1516.929177022398
802 -1515.460085046339
803 -1513.679470040382
804 -1512.167244024934
805 -1508.792169525941
806 -1506.994597447798
807 -1504.164438606856
808 -1500.205053484037
809 -1496.849122289875
810 -1492.245184744772
811 -1488.441593877352
812 -1483.148734848492
813 -1478.921902812757
814 -1473.032398197128
815 -1466.706876421318
816 -1460.649582902229
817 -1453.906561065368
818 -1448.061493960459
819 -1441.508437009834
820 -1435.743111894857
821 -1429.51230409026
822 -1424.058424804067
823 -1418.176555479352
824 -1412.892468641083
825 -1407.301946956391
826 -1402.540303864504
827 -1397.140725025943
828 -1392.741174755786
829 -1387.881263754037
830 -1384.036060121406
831 -1379.881862964946
832 -1376.666138258755
833 -1373.093120415122
834 -1370.728162271427
835 -1367.547784270557
836 -1365.590216121655
837 -1363.023975105854
838 -1361.805403688147
839 -1360.12374839564
840 -1359.46605150127
841 -1358.504212072148
842 -1358.642128113058
843 -1357.996968687848
844 -1358.343222995379
845 -1358.029488917685
846 -1358.747797779445
847 -1359.23555144602
848 -1360.119440922048
849 -1360.802035511924
850 -1361.95016504122
851 -1362.950472395892
852 -1364.276755498614
853 -1365.304579931005
854 -1366.573465611094
855 -1367.746429689091
856 -1369.697193061706
857 -1370.245198562204
858 -1372.153920714253
859 -1373.158564049146
860 -1374.460552538304
861 -1375.542240055604
862 -1376.862621947174
863 -1377.654805025115
864 -1378.836018598605
865 -1379.486338476878
866 -1380.549775616485
867 -1381.038162709833
868 -1381.846438792078
869 -1382.015242833283
870 -1382.697344049088
871 -1382.493512423066
872 -1382.905273849149
873 -1382.651583590701
874 -1382.936075230316
875 -1382.518270584414
876 -1382.416475780676
877 -1381.677292789322
878 -1381.592926068209
879 -1380.826052794896
880 -1380.453709076011
881 -1379.406579688439
882 -1378.654598393893
883 -1377.380113740373
884 -1376.523281812168
885 -1374.999407177815
886 -1373.978411037722
887 -1372.205445442318
888 -1370.930792841822
889 -1369.041780766686
890 -1367.586426073918
891 -1365.608576910712
892 -1363.918388212858
893 -1361.74837637606
894 -1360.03610771458
895 -1356.734632444605
896 -1354.929490311678
897 -1352.66730979414
898 -1350.810239709969
899 -1347.486547844476
900 -1345.78431138214
901 -1342.452596507962
902 -1340.845186874899
903 -1337.905695643685
904 -1336.543338327022
905 -1333.819453083838
906 -1332.731431187319
907 -1330.481450650892
908 -1329.582573817618
909 -1327.537591604406
910 -1326.939407703562
911 -1325.507195468077
912 -1325.255532591928
913 -1324.386644205825
914 -1324.575005665541
915 -1324.264273447354
916 -1324.851300672133
917 -1325.058219269459
918 -1326.044387875497
919 -1327.076165880826
920 -1328.506838103028
921 -1329.523850104777
922 -1331.363780396172
923 -1332.753920239095
924 -1335.069520125214
925 -1336.989706613754
926 -1339.672115518126
927 -1341.956913924522
928 -1344.833435730714
929 -1348.750262262545
930 -1351.853660266773
931 -1355.963971369832
932 -1359.225293488475
933 -1363.353413736215
934 -1366.6735322123
935 -1370.878884698762
936 -1375.492512840416
937 -1379.260432847267
938 -1383.472603593024
939 -1386.706527543109
940 -1390.419346732641
941 -1393.086095808709
942 -1396.190403872031
943 -1398.316802724281
944 -1400.865719073668
945 -1402.421746672427
946 -1404.510943884627
947 -1405.483990565795
948 -1407.041252283019
949 -1407.204262742838
950 -1408.055198230651
951 -1407.997519296992
952 -1408.403300026017
953 -1407.834648050286
954 -1407.937803175628
955 -1407.013501066661
956 -1406.847699147801
957 -1405.753778388277
958 -1405.23922678618
959 -1403.889942937816
960 -1403.136348973343
961 -1401.612872446475
962 -1400.525756463799
963 -1398.837378488382
964 -1397.691826432074
965 -1395.949462049021
966 -1394.583115815843
967 -1392.648565403396
968 -1390.289194950679
969 -1388.294181856454
970 -1385.882699322285
971 -1383.960983624683
972 -1381.721288407818
973 -1379.850991038175
974 -1377.866208203605
975 -1375.402332511389
976 -1374.292389471037
977 -1371.908976411741
978 -1370.374317650891
979 -1368.262257065658
980 -1367.101464816657
981 -1365.402842541505
982 -1364.498943434827
983 -1363.106151339137
984 -1362.58674876027
985 -1361.537148680901
986 -1361.400185999463
987 -1360.667873139975
988 -1360.907218586508
989 -1360.493715229929
990 -1360.976802733749
991 -1360.832093485526
992 -1361.675599222872
993 -1361.859417556734
994 -1363.114104796934
995 -1363.513353470143
996 -1365.151118945344
997 -1365.783891414228
998 -1367.213560634053
999 -1368.653328640338
1000 -1370.268208253729
1001 -1371.297905052217
1002 -1373.197468850838
1003 -1374.615931389609
1004 -1376.61635942673
1005 -1378.182321518674
1006 -1380.397765142329
1007 -1382.136909130625
1008 -1385.695275886276
1009 -1387.482344602715
1010 -1389.951777703965
1011 -1392.920879233626
1012 -1395.309558262155
1013 -1398.203179401864
1014 -1400.505768806338
1015 -1403.287190014596
1016 -1405.39508557495
1017 -1407.717473046386
1018 -1410.477409587706
1019 -1412.304455121523
1020 -1413.849668295464
1021 -1415.191022949065
1022 -1416.922743094861
1023 -1417.773880876417
1024 -1418.627719745181
1025 -1418.88312075235
1026 -1419.622041376865
1027 -1419.270258302975
1028 -1419.326387916751
1029 -1418.591259734485
1030 -1418.026569423861
1031 -1417.038683166586
1032 -1415.974771366008
1033 -1414.739568288377
1034 -1413.140393828929
1035 -1411.514546619257
1036 -1410.259358720875
1037 -1408.305745685622
1038 -1406.760258720149
1039 -1404.462290917794
1040 -1402.584839232892
1041 -1400.11330441224
1042 -1397.882213693122
1043 -1395.067522538769
1044 -1392.616503949031
1045 -1389.658484959533
1046 -1385.745416007471
1047 -1382.843250456406
1048 -1378.990977322527
1049 -1376.074141580969
1050 -1372.319224516596
1051 -1368.275324011389
1052 -1364.870977900885
1053 -1361.182894499331
1054 -1358.259447593927
1055 -1355.005445580605
1056 -1352.571128493348
1057 -1349.605955001681
1058 -1347.609490626051
1059 -1345.191411399221
1060 -1343.702834485648
1061 -1341.684004724881
1062 -1340.454029848294
1063 -1338.828267911898
1064 -1338.097399504498
1065 -1336.792670056881
1066 -1336.427296882299
1067 -1335.511378551014
1068 -1335.434109430838
1069 -1334.805404581734
1070 -1335.052374677407
1071 -1334.725442339434
1072 -1335.241708735894
1073 -1335.224768029019
1074 -1335.906841106972
1075 -1336.095598504712
1076 -1337.246614370708
1077 -1337.683938850205
1078 -1338.675412648584
1079 -1339.258674553123
1080 -1340.517166389319
1081 -1341.42614419585
1082 -1342.906237848508
1083 -1344.042305524773
1084 -1345.695829506883
1085 -1346.98905402786
1086 -1348.614215577352
1087 -1350.673002879061
1088 -1352.434899844082
1089 -1354.466557262351
1090 -1356.262339487446
1091 -1358.384377056443
1092 -1360.150305602237
1093 -1362.16066352093
1094 -1364.625227153701
1095 -1366.374734178549
1096 -1368.389656939935
1097 -1369.707162937835
1098 -1371.323356899125
1099 -1372.31603903101
1100 -1373.563596391258
1101 -1374.080910160149
1102 -1374.980589085731
1103 -1375.075909735521
1104 -1375.536954305457
1105 -1375.195446947967
1106 -1375.09762410763
1107 -1374.4766056101
1108 -1373.819373232436
1109 -1372.818234530872
1110 -1371.739427640176
1111 -1370.485307942804
1112 -1369.537138350737
1113 -1367.386615204888
1114 -1366.275257076436
1115 -1364.499260857309
1116 -1363.106658641879
1117 -1361.098169412961
1118 -1359.392417955605
1119 -1357.196136170721
1120 -1355.251521167981
1121 -1352.785753461987
1122 -1350.654803492208
1123 -1346.849596512589
1124 -1344.628976038929
1125 -1340.781085995791
1126 -1338.506452647874
1127 -1334.589995675702
1128 -1331.256393543795
1129 -1327.643365296048
1130 -1324.640124617292
1131 -1321.199269589928
1132 -1318.547525134927
1133 -1315.519249341416
1134 -1313.273828750084
1135 -1310.605617986214
1136 -1308.740588360946
1137 -1306.443422379034
1138 -1304.949942906485
1139 -1303.020537506403
1140 -1301.867349456777
1141 -1300.247992273886
1142 -1299.475429189843
1143 -1298.250949822016
1144 -1297.866095838627
1145 -1297.025604979365
1146 -1296.954312841102
1147 -1296.541301948321
1148 -1296.872989183007
1149 -1296.684175316419
1150 -1297.327935189657
1151 -1297.500722639726
1152 -1298.582972598479
1153 -1298.960639166343
1154 -1299.952728880611
1155 -1301.114069401928
1156 -1302.517135870491
1157 -1303.470984927935
1158 -1305.125852517499
1159 -1306.39398151104
1160 -1308.322804033802
1161 -1309.85674701965
1162 -1312.822195365689
1163 -1314.562378466667
1164 -1317.746918910275
1165 -1319.553253003194
1166 -1322.925419875752
1167 -1325.845464540266
1168 -1329.238091193327
1169 -1332.074647936246
1170 -1335.324700926853
1171 -1337.897961774503
1172 -1340.962635218891
1173 -1343.2256746611
1174 -1345.962448880099
1175 -1347.923381844523
1176 -1350.381735503897
1177 -1351.955951949766
1178 -1354.053486395736
1179 -1355.278839134718
1180 -1357.011460122562
1181 -1357.79980163604
1182 -1359.053226951059
1183 -1359.422149301879
1184 -1360.353999515414
1185 -1360.320545372493
1186 -1360.787328065829
1187 -1360.366493993178
1188 -1360.505404795152
1189 -1359.630582378601
1190 -1359.528540525349
1191 -1358.435227042055
1192 -1358.231636677102
1193 -1357.272479794387
1194 -1356.476801253692
1195 -1355.400443203691
1196 -1354.711339438146
1197 -1353.454728695134
1198 -1352.585277211268
1199 -1351.24407305431
1200 -1350.332624475115
1201 -1348.26842598006
1202 -1347.232736024832
1203 -1345.770944304567
1204 -1344.184885451475
1205 -1342.687818493145
1206 -1340.975928016086
1207 -1339.471914354245
1208 -1337.835578278084
1209 -1335.77906146189
1210 -1334.19359032276
1211 -1332.749312200978
1212 -1331.259957893593
1213 -1329.309713767514
1214 -1328.011887609665
1215 -1326.729560096156
1216 -1325.547851497947
1217 -1323.895362646473
1218 -1323.322833015033
1219 -1321.869224103838
1220 -1321.103485660762
1221 -1320.18886337531
1222 -1319.6756022012
1223 -1318.909775344224
1224 -1318.619770242898
1225 -1318.095931307148
1226 -1318.008465784883
1227 -1317.608190670154
1228 -1317.86623276541
1229 -1317.722079665777
1230 -1318.21659796293
1231 -1318.32606547528
1232 -1319.020583718016
1233 -1319.365666406781
1234 -1320.289724913655
1235 -1320.959648410525
1236 -1322.20090620094
1237 -1323.139660633619
1238 -1324.602442224628
1239 -1325.755594146661
1240 -1327.456632686433
1241 -1328.929851536134
1242 -1331.667705059688
1243 -1333.203551679469
1244 -1336.106760097506
1245 -1337.697330089426
1246 -1340.723507728558
1247 -1343.225449784313
1248 -1345.236486818977
1249 -1347.703145534022
1250 -1350.55405337556
1251 -1352.811854040082
1252 -1355.466000839979
1253 -1357.463555808809
1254 -1359.777316063016
1255 -1361.418662971548
1256 -1363.401939337349
1257 -1364.674381214669
1258 -1366.355621874237
1259 -1367.283979820702
1260 -1368.640313320526
1261 -1369.134315854805
1262 -1370.064768016259
1263 -1370.209762950787
1264 -1370.66895938498
1265 -1370.398674925372
1266 -1370.624625453953
1267 -1370.099830920311
1268 -1370.161948356682
1269 -1369.375075765974
1270 -1369.25669177366
1271 -1368.51517087609
1272 -1368.296136324703
1273 -1367.394353477703
1274 -1366.89088829766
1275 -1365.901099577613
1276 -1365.250514450731
1277 -1364.104760223121
1278 -1363.359432816168
1279 -1362.070600786181
1280 -1360.741705723082
1281 -1359.443690948548
1282 -1357.921740053044
1283 -1356.620143481648
1284 -1355.09067820263
1285 -1353.779940103787
1286 -1352.28426625207
1287 -1350.93105297298
1288 -1349.448522655611
1289 -1347.509958428491
1290 -1346.615458580797
1291 -1344.697274891663
1292 -1343.304968599041
1293 -1341.421451782637
1294 -1340.609686902171
1295 -1338.803076325087
1296 -1337.489221022766
1297 -1336.181905050923
1298 -1334.982072113329
1299 -1333.281496652824
1300 -1332.541625203436
1301 -1330.799964314193
1302 -1329.664323968725
1303 -1328.47597868889
1304 -1327.335437477245
1305 -1326.259772951136
1306 -1325.292148437382
1307 -1324.323960977993
1308 -1323.51946574173
1309 -1322.647456912904
1310 -1322.108291173985
1311 -1321.381468828709
1312 -1321.057879096598
1313 -1320.536947249828
1314 -1320.582019489242
1315 -1320.242065057644
1316 -1320.487045157304
1317 -1320.423673983541
1318 -1320.908438292575
1319 -1321.123325019047
1320 -1321.894852307778
1321 -1322.366180406986
1322 -1323.333625533605
1323 -1324.048221771296
1324 -1325.219237145424
1325 -1326.10381048416
1326 -1327.511580704508
1327 -1328.632770038884
1328 -1330.819353643031
1329 -1332.029769391871
1330 -1334.332106114451
1331 -1335.607952681842
1332 -1337.97794167246
1333 -1339.206909759022
1334 -1341.526993121945
1335 -1343.406976530925
1336 -1344.952553489971
1337 -1346.601351188379
1338 -1348.637251534465
1339 -1349.981651963903
1340 -1351.684772725549
1341 -1352.278021461471
1342 -1353.705906520382
1343 -1354.469417341053
1344 -1355.238808490484
1345 -1355.527136828254
1346 -1356.05842644434
1347 -1356.014297000315
1348 -1356.319475276967
1349 -1355.972975836093
1350 -1356.068923233651
1351 -1355.453354740409
1352 -1355.369560586352
1353 -1354.681376086742
1354 -1354.458860287535
1355 -1353.582392566964
1356 -1353.062349992927
1357 -1352.055600626059
1358 -1351.367593801364
1359 -1350.206030257498
1360 -1349.404573944854
1361 -1348.117289786138
1362 -1347.188235863761
1363 -1345.871073878758
1364 -1344.338545305405
1365 -1343.002402730763
1366 -1342.043800727618
1367 -1340.141966095268
1368 -1339.243104970824
1369 -1337.36499444716
1370 -1336.551585637468
1371 -1334.798128426288
1372 -1334.055951016787
1373 -1332.40335525845
1374 -1331.70721416527
1375 -1330.098274227623
1376 -1329.517903589317
1377 -1328.062103170142
1378 -1327.553561252494
1379 -1326.192985768228
1380 -1325.800985271222
1381 -1324.625999020144
1382 -1324.328627258094
1383 -1323.231349711101
1384 -1322.999533194051
1385 -1322.257434633636
1386 -1321.899375167936
1387 -1321.303440826153
1388 -1321.181313529328
1389 -1320.65269499298
1390 -1320.465933077271
1391 -1320.013160854106
1392 -1320.013723810189
1393 -1319.646056688514
1394 -1319.690231754989
1395 -1319.35746852279
1396 -1319.504132741843
1397 -1319.279305922263
1398 -1319.518093600891
1399 -1319.401085170036
1400 -1319.754608542235
1401 -1319.807106914812
1402 -1320.278623983345
1403 -1320.488582805879
1404 -1321.088653776092
1405 -1321.434584430863
1406 -1322.115082861246
1407 -1322.631399574596
1408 -1323.54042023365
1409 -1324.216307119769
1410 -1325.244334434766
1411 -1326.026268038647
1412 -1327.208466295377
1413 -1328.703177589704
1414 -1329.986094729313
1415 -1331.029143539304
1416 -1333.047327104448
1417 -1334.143456163928
1418 -1336.201333267301
1419 -1337.261558170854
1420 -1339.31566418014
1421 -1340.386290477413
1422 -1342.417727547801
1423 -1343.438044167231
1424 -1345.373434969682
1425 -1346.835569837457
1426 -1348.003752792449
1427 -1349.20093946676
1428 -1350.282187958392
1429 -1351.257970469543
1430 -1352.1536380394
1431 -1352.842455357697
1432 -1353.601289888431
1433 -1354.024405100085
1434 -1354.582444253082
1435 -1354.615785223213
1436 -1355.092606580975
1437 -1354.958333076881
1438 -1355.157592960116
1439 -1354.866079070834
1440 -1354.846755192328
1441 -1354.383728138184
1442 -1354.181308810205
1443 -1353.524325665038
1444 -1353.119876234173
1445 -1352.28009661664
1446 -1351.711352370402
1447 -1350.781742341325
1448 -1350.097386743131
1449 -1349.010798249416
1450 -1348.217725839565
1451 -1347.062074214362
1452 -1346.180292098071
1453 -1344.944709654682
1454 -1343.491228587976
1455 -1342.322792676465
1456 -1341.434992978391
1457 -1339.739957719536
1458 -1338.925301436886
1459 -1337.807003503415
1460 -1336.629209845142
1461 -1335.601951279651
1462 -1334.602142204715
1463 -1333.752538484408
1464 -1333.291840527276
1465 -1332.246489890683
1466 -1331.897678114129
1467 -1331.286486662906
1468 -1330.952247290926
1469 -1330.495402875632
1470 -1330.47236098421
1471 -1330.070639849629
1472 -1330.206749164904
1473 -1330.01978083258
1474 -1330.298962306184
1475 -1330.294208877586
1476 -1330.695941457998
1477 -1330.79121030583
1478 -1331.282913948137
1479 -1331.47065829747
1480 -1332.067135256221
1481 -1332.344815940761
1482 -1333.010278537299
1483 -1333.397388192036
1484 -1334.134643614312
1485 -1334.61255379929
1486 -1335.441681806812
1487 -1335.999188554237
1488 -1336.870820062541
1489 -1337.464695904034
1490 -1338.423067642786
1491 -1339.052496636733
1492 -1340.024816395573
1493 -1340.657311890226
1494 -1341.593462124611
1495 -1342.263816655171
1496 -1343.641051556021
1497 -1344.242177863403
1498 -1345.144545021602
1499 -1346.098851500712
1500 -1346.989413195598
1501 -1347.514805374156
1502 -1348.698686027233
1503 -1349.150232173387
1504 -1349.936453300841
1505 -1350.600853660029
1506 -1351.330884532343
1507 -1351.892471240753
1508 -1352.521548371102
1509 -1352.887400115234
1510 -1353.442107614938
1511 -1353.740688595989
1512 -1354.223102226177
1513 -1354.245042955728
1514 -1354.679515701415
1515 -1354.637299152996
1516 -1354.935160589105
1517 -1354.857987615373
1518 -1355.071712421684
1519 -1354.844522051269
1520 -1354.945718371952
1521 -1354.632259222306
1522 -1354.613739722086
1523 -1354.242585622747
1524 -1354.161294322716
1525 -1353.68437052817
1526 -1353.499913037856
1527 -1352.913455576619
1528 -1352.599518159813
1529 -1351.897153827516
1530 -1351.417730554824
1531 -1350.617317871159
1532 -1350.098251118348
1533 -1349.202165348304
1534 -1348.212345532952
1535 -1347.235166581273
1536 -1346.496754435344
1537 -1345.007437402898
1538 -1344.256236615261
1539 -1343.13757056732
1540 -1341.886234263751
1541 -1340.755341615569
1542 -1339.458801793466
1543 -1338.386114342955
1544 -1337.158440982424
1545 -1336.089397749455
1546 -1334.912389276829
1547 -1333.898117367271
1548 -1332.908648973739
1549 -1332.00357646458
1550 -1331.108816253029
1551 -1330.300080241004
1552 -1329.547002808009
1553 -1328.837682579738
1554 -1328.296828853497
1555 -1327.748127593868
1556 -1327.529956984393
1557 -1326.906406660088
1558 -1326.885720839614
1559 -1326.593330978742
1560 -1326.725302660459
1561 -1326.555769573607
1562 -1326.836748821158
1563 -1326.850212382671
1564 -1327.302021080674
1565 -1327.515723758269
1566 -1328.067070069
1567 -1328.44339001678
1568 -1329.15359538966
1569 -1329.715165874384
1570 -1330.613941932055
1571 -1331.324274884159
1572 -1332.368619039913
1573 -1333.261994231769
1574 -1334.43868732825
1575 -1335.365867448524
1576 -1336.610467916463
1577 -1338.187329344915
1578 -1339.448425129699
1579 -1340.457464695316
1580 -1342.345427652302
1581 -1343.355375683504
1582 -1345.177454707738
1583 -1346.123975845613
1584 -1347.81688935793
1585 -1348.622358925596
1586 -1350.078878464629
1587 -1350.732354684162
1588 -1351.985882216399
1589 -1352.788286815778
1590 -1353.48335963352
1591 -1354.003917909588
1592 -1354.528604994894
1593 -1354.757568842844
1594 -1355.102191036415
1595 -1355.0311599748
1596 -1355.164557519115
1597 -1354.779848166605
1598 -1354.735931770565
1599 -1354.239375331934
1600 -1353.824466230293
1601 -1353.188611541286
1602 -1352.789185781352
1603 -1352.026719421958
1604 -1351.483593686976
1605 -1350.554355016462
1606 -1349.902645381403
1607 -1348.896681140169
1608 -1348.171756756756
1609 -1347.108579407429
1610 -1346.306105137959
1611 -1345.139583997169
1612 -1344.272176078078
1613 -1343.122891537743
1614 -1342.21956455233
1615 -1340.571492373798
1616 -1339.720780174587
1617 -1338.190487455186
1618 -1337.455678984961
1619 -1336.060177665337
1620 -1335.492604947671
1621 -1334.303804527805
1622 -1333.876786720593
1623 -1332.900874561807
1624 -1332.613961972863
1625 -1331.869634516619
1626 -1331.745911045371
1627 -1331.212253564338
1628 -1331.208319844846
1629 -1330.884138716257
1630 -1331.013798282871
1631 -1330.859708070754
1632 -1331.112723956549
1633 -1331.075082718882
1634 -1331.409938994265
1635 -1331.468353227316
1636 -1332.011054298323
1637 -1332.118163247363
1638 -1332.57136238889
1639 -1332.720125772736
1640 -1333.209273809586
1641 -1333.418662584108
1642 -1333.934023419894
1643 -1334.172200020453
1644 -1334.679927216227
1645 -1334.936888560994
1646 -1335.434851689404
1647 -1335.690824659721
1648 -1336.220550536012
1649 -1336.528402450621
1650 -1337.016476057285
1651 -1337.271969041037
1652 -1337.808583046061
1653 -1338.319989887545
1654 -1338.852413251281
1655 -1339.149226500992
1656 -1339.869957645466
1657 -1340.121748550593
1658 -1340.659598021966
1659 -1341.166922344602
1660 -1341.674927071824
1661 -1342.129346913692
1662 -1342.671003676272
1663 -1343.138303796676
1664 -1343.702308184508
1665 -1344.195405782844
1666 -1344.751724888549
1667 -1345.235020663237
1668 -1345.827306439032
1669 -1346.308177209407
1670 -1346.856935973393
1671 -1347.288171456775
1672 -1347.8204305095
1673 -1348.01260001545
1674 -1348.703783593529
1675 -1348.868584726511
1676 -1349.325609185696
1677 -1349.458771945947
1678 -1349.901137905731
1679 -1350.019330022605
1680 -1350.39807871926
1681 -1350.47616616009
1682 -1350.846383081255
1683 -1350.873820701608
1684 -1351.129815393949
1685 -1351.087628576653
1686 -1351.263454787104
1687 -1351.146067969381
1688 -1351.197270461704
1689 -1350.947641787064
1690 -1350.890382052503
1691 -1350.521319169482
1692 -1350.359230331455
1693 -1349.91331950015
1694 -1349.631264618313
1695 -1349.028676047109
1696 -1348.607778074485
1697 -1347.579478783658
1698 -1347.063971606825
1699 -1346.225102093613
1700 -1345.297792505733
1701 -1344.430533191088
1702 -1343.802505314286
1703 -1342.498429026765
1704 -1341.892606014532
1705 -1340.642573076896
1706 -1340.069681297335
1707 -1338.883213566445
1708 -1338.41483525742
1709 -1337.331335383599
1710 -1336.942852222282
1711 -1336.235687372893
1712 -1335.694864730122
1713 -1335.150579468598
1714 -1334.934268230388
1715 -1334.41608936555
1716 -1334.375494091325
1717 -1334.090597368677
1718 -1334.195190616546
1719 -1334.072272527028
1720 -1334.277144784322
1721 -1334.272687533241
1722 -1334.590577168414
1723 -1334.705836272775
1724 -1335.139968465856
1725 -1335.339616618358
1726 -1335.827794926936
1727 -1336.139277010834
1728 -1336.725467911248
1729 -1337.093849716739
1730 -1337.716281715652
1731 -1338.146427615894
1732 -1338.852374469537
1733 -1339.325252675443
1734 -1340.082195681328
1735 -1340.570137055506
1736 -1341.292760560947
1737 -1341.768448135334
1738 -1342.47508969515
1739 -1343.172145679868
1740 -1343.831325099898
1741 -1344.194439682251
1742 -1345.046468750565
1743 -1345.328313215372
1744 -1345.817750757736
1745 -1346.147357898312
1746 -1346.538549542361
1747 -1346.589865248971
1748 -1346.92795528975
1749 -1346.860951361364
1750 -1347.00083408247
1751 -1346.8359719765
1752 -1346.902282895411
1753 -1346.622823229178
1754 -1346.502847777248
1755 -1346.163141380248
1756 -1346.017599345908
1757 -1345.591005051279
1758 -1345.392661443448
1759 -1344.892435012719
1760 -1344.62484564571
1761 -1344.050659317611
1762 -1343.710410561923
1763 -1343.113397050221
1764 -1342.727171327756
1765 -1342.098124115916
1766 -1341.716264018705
1767 -1341.129530504288
1768 -1340.741523237393
1769 -1340.141013162822
1770 -1339.783274673946
1771 -1339.198402020992
1772 -1338.861887212651
1773 -1338.106093382773
1774 -1337.806990988086
1775 -1337.287252538754
1776 -1336.846612155502
1777 -1336.377482923376
1778 -1336.157885429751
1779 -1335.550200369732
1780 -1335.363384802706
1781 -1334.928188135421
1782 -1334.64153650754
1783 -1334.262553683686
1784 -1334.138773390695
1785 -1333.648081194589
1786 -1333.556593422347
1787 -1333.182025470578
1788 -1332.984309465387
1789 -1332.639866402594
1790 -1332.561291548552
1791 -1332.228638000475
1792 -1332.144352543377
1793 -1331.682221335199
1794 -1331.618850965892
1795 -1331.275077969371
1796 -1331.2378462463
1797 -1330.906563383528
1798 -1330.874388887489
1799 -1330.577569364861
1800 -1330.537084028389
1801 -1330.257945681659
1802 -1330.261228970232
1803 -1330.061123612659
1804 -1330.116871387033
1805 -1329.973900183124
1806 -1330.096192895114
1807 -1330.008986665846
1808 -1330.187550811456
1809 -1330.183768581273
1810 -1330.448087043939
1811 -1330.531309698427
1812 -1330.873408199746
1813 -1331.009346082325
1814 -1331.443028027066
1815 -1331.675137630354
1816 -1332.194112723616
1817 -1332.490276417464
1818 -1333.280882319155
1819 -1333.636492035722
1820 -1334.271212027817
1821 -1334.931513246407
1822 -1335.593846315197
1823 -1336.014624759082
1824 -1336.982226050297
1825 -1337.374464570176
1826 -1338.32359950838
1827 -1338.712631029481
1828 -1339.355915468142
1829 -1339.982259724149
1830 -1340.584258654333
1831 -1341.125617368731
1832 -1341.686210646573
1833 -1342.110200814574
1834 -1342.614352350209
1835 -1342.772253742782
1836 -1343.330205939015
1837 -1343.394215988585
1838 -1343.685678699941
1839 -1343.716954270591
1840 -1343.922040735661
1841 -1343.770947290753
1842 -1343.861737274691
1843 -1343.644019275655
1844 -1343.630859316587
1845 -1343.273420589996
1846 -1343.15007462111
1847 -1342.730063665236
1848 -1342.504135753381
1849 -1341.992476932856
1850 -1341.681846156624
1851 -1341.053940273518
1852 -1340.647618069077
1853 -1339.949057407855
1854 -1339.462250871742
1855 -1338.378010007351
1856 -1337.839755894542
1857 -1337.00807173369
1858 -1336.424895062227
1859 -1335.210514123274
1860 -1334.628268611718
1861 -1333.769628188049
1862 -1332.841678280567
1863 -1332.017308558772
1864 -1331.459665848407
1865 -1330.288573823496
1866 -1329.796618564126
1867 -1328.719893729101
1868 -1328.319185281983
1869 -1327.387543676251
1870 -1327.087190561831
1871 -1326.337729941606
1872 -1326.177204458178
1873 -1325.607478319297
1874 -1325.575361548026
1875 -1325.177214405122
1876 -1325.269607906141
1877 -1325.047438473092
1878 -1325.289508452104
1879 -1325.225520300749
1880 -1325.646445877431
1881 -1325.739525943313
1882 -1326.332226148429
1883 -1326.510088813251
1884 -1327.261081402733
1885 -1327.54675244863
1886 -1328.194765108329
1887 -1328.852542189948
1888 -1329.568933935708
1889 -1330.012305373584
1890 -1330.811670970796
1891 -1331.336515669109
1892 -1332.178213464129
1893 -1332.752829752142
1894 -1334.005357358234
1895 -1334.615095821992
1896 -1335.45101349019
1897 -1336.391878458975
1898 -1337.22771607507
1899 -1338.097072804249
1900 -1338.888736345052
1901 -1339.646143724083
1902 -1340.349035682305
1903 -1340.974617064711
1904 -1341.818256705626
1905 -1342.054528174621
1906 -1342.740980034923
1907 -1343.017908343412
1908 -1343.5060922684
1909 -1343.561680984113
1910 -1343.894892099814
1911 -1343.745484632274
1912 -1343.914712576347
1913 -1343.646440774079
1914 -1343.720410474146
1915 -1343.358917607239
1916 -1343.349189465616
1917 -1342.9788280563
1918 -1342.873363282716
1919 -1342.4451202281
1920 -1342.234327204135
1921 -1341.786112959179
1922 -1341.669665036414
1923 -1341.201420155924
1924 -1341.084681951011
1925 -1340.620807620569
1926 -1340.47576000987
1927 -1340.037923798007
1928 -1339.920937672661
1929 -1339.536141673806
1930 -1339.450672648453
1931 -1339.093332254562
1932 -1339.020024777703
1933 -1338.726643041094
1934 -1338.674648545418
1935 -1338.443464401575
1936 -1338.467399775015
1937 -1338.240461669607
1938 -1338.324605583299
1939 -1338.154135168286
1940 -1338.285807978646
1941 -1338.161642340822
1942 -1338.307165897528
1943 -1338.203831775073
1944 -1338.380111515729
1945 -1338.273794240229
1946 -1338.511996093636
1947 -1338.401670994978
1948 -1338.559040442599
1949 -1338.405207073215
1950 -1338.525894261286
1951 -1338.344945355143
1952 -1338.421826267215
1953 -1338.204303689918
1954 -1338.224437043324
1955 -1337.953498901682
1956 -1337.918099804089
1957 -1337.598165983751
1958 -1337.513222359488
1959 -1337.127662365261
1960 -1336.977083402605
1961 -1336.55806009406
1962 -1336.356897594895
1963 -1335.882168123736
1964 -1335.643867536885
1965 -1335.144830902837
1966 -1334.903414904413
1967 -1334.390708993043
1968 -1334.141358357871
1969 -1333.663035832697
1970 -1333.411175142589
1971 -1332.758945865275
1972 -1332.564853632863
1973 -1332.147868967985
1974 -1332.027525547097
1975 -1331.671038001678
1976 -1331.630021788666
1977 -1331.350168232717
1978 -1331.368835106956
1979 -1331.149974511524
1980 -1331.275690985626
1981 -1331.16475338353
1982 -1331.368389860669
1983 -1331.34217067255
1984 -1331.617733143744
1985 -1331.679431565393
1986 -1332.032442808167
1987 -1332.15428742257
1988 -1332.562576235284
1989 -1332.744892520272
1990 -1333.218357120696
1991 -1333.438606583514
1992 -1333.929500584137
1993 -1334.156709563461
1994 -1334.65303073897
1995 -1335.059914694629
1996 -1335.54636567665
1997 -1335.739497436399
1998 -1336.203504178149
1999 -1336.506060261299
2000 -1336.903476560446
2001 -1337.014745489147
2002 -1337.384005335493
2003 -1337.543723787449
2004 -1337.857196049659
2005 -1337.853947115803
2006 -1338.165669279933
2007 -1338.088029957803
2008 -1338.24187126192
2009 -1338.138772065093
2010 -1338.259730564147
2011 -1338.061313924417
2012 -1338.07584727894
2013 -1337.830552739041
2014 -1337.828310206013
2015 -1337.504448614353
2016 -1337.357040094101
2017 -1337.00216179947
2018 -1336.88781121601
2019 -1336.496898035043
2020 -1336.366723177193
2021 -1335.931352012491
2022 -1335.592397399129
2023 -1335.136068680926
2024 -1334.965348164718
2025 -1334.357054646026
2026 -1334.220239447411
2027 -1333.776480117165
2028 -1333.517634204043
2029 -1333.088859554404
2030 -1332.8402973143
2031 -1332.424217797588
2032 -1332.224512525232
2033 -1331.86832058453
2034 -1331.714420532301
2035 -1331.375595448066
2036 -1331.307449187437
2037 -1331.011443013877
2038 -1331.02405598136
2039 -1330.805634082923
2040 -1330.907232999577
2041 -1330.74693745632
2042 -1330.92318122669
2043 -1330.812234042972
2044 -1331.033933385212
2045 -1331.018918696082
2046 -1331.30376319298
2047 -1331.278283815641
2048 -1331.612634221864
2049 -1331.619588772519
2050 -1331.948931709296
2051 -1331.999608485122
2052 -1332.343128009631
2053 -1332.381418729941
2054 -1332.722746604677
2055 -1332.850831887
2056 -1333.16442185215
2057 -1333.15788454655
2058 -1333.503083004182
2059 -1333.479830280885
2060 -1333.708420744939
2061 -1333.64534283317
2062 -1333.847986619422
2063 -1333.70285774921
2064 -1333.861911194079
2065 -1333.616332697378
2066 -1333.734705431254
2067 -1333.434002773443
2068 -1333.524097669843
2069 -1333.157403425376
2070 -1333.229222244414
2071 -1332.829489577238
2072 -1332.870085662019
2073 -1332.43241251865
2074 -1332.486614339906
2075 -1332.127838745324
2076 -1332.077979766303
2077 -1331.749481490461
2078 -1331.773279924068
2079 -1331.398855492154
2080 -1331.459007265849
2081 -1331.180017904904
2082 -1331.266331361637
2083 -1331.043885680688
2084 -1331.187798059367
2085 -1331.035696629812
2086 -1331.266786316264
2087 -1331.169772886405
2088 -1331.432599972465
2089 -1331.507389233275
2090 -1331.858490036396
2091 -1331.922989623039
2092 -1332.48954868096
2093 -1332.607408083009
2094 -1333.045840740014
2095 -1333.352807700187
2096 -1333.847219267128
2097 -1334.019115477148
2098 -1334.679027801883
2099 -1334.85132662205
2100 -1335.345744701669
2101 -1335.659221694579
2102 -1336.120421640436
2103 -1336.24621855819
2104 -1336.829947526382
2105 -1336.927292535135
2106 -1337.295272632139
2107 -1337.403828512225
2108 -1337.699459218349
2109 -1337.636335168831
2110 -1337.864914288831
2111 -1337.71165048308
2112 -1337.83581928895
2113 -1337.554396570131
2114 -1337.590976612913
2115 -1337.137535490541
2116 -1337.066622028289
2117 -1336.596147164132
2118 -1336.266725635742
2119 -1335.720964582034
2120 -1335.452496271093
2121 -1334.59297396562
2122 -1334.258817985174
2123 -1333.294990890232
2124 -1332.935866378973
2125 -1331.936884536017
2126 -1331.589373465139
2127 -1330.608572456388
2128 -1330.26141978828
2129 -1329.308129062194
2130 -1328.997261363153
2131 -1328.097089354665
2132 -1327.855033742054
2133 -1327.056489843368
2134 -1326.906997825688
2135 -1326.279449827447
2136 -1326.248192319185
2137 -1325.795652594654
2138 -1325.89613370875
2139 -1325.667526333938
2140 -1325.917934883655
2141 -1325.895086273717
2142 -1326.428803918995
2143 -1326.49886998926
2144 -1327.194757615826
2145 -1327.593054184837
2146 -1328.231935857125
2147 -1328.77788022777
2148 -1329.823871672683
2149 -1330.190025617378
2150 -1331.328657643801
2151 -1332.071436510445
2152 -1332.930621569605
2153 -1333.742321833416
2154 -1334.979138503425
2155 -1335.42789579398
2156 -1336.610410996777
2157 -1337.35825455299
2158 -1338.152386569617
2159 -1338.800886142271
2160 -1339.771605837184
2161 -1340.000200359514
2162 -1340.815938618045
2163 -1341.148750295652
2164 -1341.633000283423
2165 -1341.733844819021
2166 -1342.18595166251
2167 -1342.069850135377
2168 -1342.275097138654
2169 -1341.970795358762
2170 -1341.987340189217
2171 -1341.44765595334
2172 -1341.239739704778
2173 -1340.670582254161
2174 -1340.295363449102
2175 -1339.412533908352
2176 -1339.128630199505
2177 -1338.143473194496
2178 -1337.566374306502
2179 -1336.799170832634
2180 -1336.177714158855
2181 -1335.126495840956
2182 -1334.782642394562
2183 -1333.735988259036
2184 -1333.19939791224
2185 -1332.496320476242
2186 -1332.045842165503
2187 -1331.214881646545
2188 -1331.069193202002
2189 -1330.362894536479
2190 -1330.227287269546
2191 -1329.811375123756
2192 -1329.835241684293
2193 -1329.473614038156
2194 -1329.650011555525
2195 -1329.480181038254
2196 -1329.855152121135
2197 -1329.781448901961
2198 -1330.310391273289
2199 -1330.44445911699
2200 -1330.936185849761
2201 -1331.200411682639
2202 -1331.963733941096
2203 -1332.095301937052
2204 -1332.922905651394
2205 -1333.326583266632
2206 -1333.98499427934
2207 -1334.42509322259
2208 -1335.345135365992
2209 -1335.55016081725
2210 -1336.436521944261
2211 -1336.822624362117
2212 -1337.440384354677
2213 -1337.749877481042
2214 -1338.336632949735
2215 -1338.57337688924
2216 -1339.096800420757
2217 -1339.234625432284
2218 -1339.68739246445
2219 -1339.692394759197
2220 -1340.050368645317
2221 -1339.93296995021
2222 -1340.214104068398
2223 -1339.948625537583
2224 -1340.125197699895
2225 -1339.757894009193
2226 -1339.848310498233
2227 -1339.486069238719
2228 -1339.463381015463
2229 -1339.07248499628
2230 -1338.994051219658
2231 -1338.460703996283
2232 -1338.461008241503
2233 -1337.913496710054
2234 -1337.932963450397
2235 -1337.413092328967
2236 -1337.461451061022
2237 -1336.978711628348
2238 -1337.085665638359
2239 -1336.660531367987
2240 -1336.808043908746
2241 -1336.461591839458
2242 -1336.640985274316
2243 -1336.369053428239
2244 -1336.580677390844
2245 -1336.35595530339
2246 -1336.595300346477
2247 -1336.462680226828
2248 -1336.737135884707
2249 -1336.60194914648
2250 -1336.964114154928
2251 -1336.883477372884
2252 -1337.192475155731
2253 -1337.115361568903
2254 -1337.383626376688
2255 -1337.225930774673
2256 -1337.512998980894
2257 -1337.331054927365
2258 -1337.552652716231
2259 -1337.332111660683
2260 -1337.454978016238
2261 -1337.128172324847
2262 -1337.2050858491
2263 -1336.855131430619
2264 -1336.764641671893
2265 -1336.33627405434
2266 -1336.246220664078
2267 -1335.604625036817
2268 -1335.461299075781
2269 -1334.732340215135
2270 -1334.54335479206
2271 -1333.757735871173
2272 -1333.386089837384
2273 -1332.763544641286
2274 -1332.355594483538
2275 -1331.522941936755
2276 -1331.162938831378
2277 -1330.363318382994
2278 -1330.079483325517
2279 -1329.357769584044
2280 -1329.19476115752
2281 -1328.57858221257
2282 -1328.572831180291
2283 -1328.09656367175
2284 -1328.225812457858
2285 -1327.901558888656
2286 -1328.196608893954
2287 -1328.012409679404
2288 -1328.455143527931
2289 -1328.431457191927
2290 -1329.011047694973
2291 -1329.093869413019
2292 -1329.640589789451
2293 -1329.818816925997
2294 -1330.617354435643
2295 -1330.911185581401
2296 -1331.791542182412
2297 -1332.1533395334
2298 -1332.857294573649
2299 -1333.261004970833
2300 -1334.218102263493
2301 -1334.617738052294
2302 -1335.540380291526
2303 -1335.906851582266
2304 -1336.585138272269
2305 -1336.899351670924
2306 -1337.714417399284
2307 -1337.947245340171
2308 -1338.65485836267
2309 -1338.658177471699
2310 -1339.265112661755
2311 -1339.290655970631
2312 -1339.770132813514
2313 -1339.66845503409
2314 -1340.036733015871
2315 -1339.812531751321
2316 -1340.062737504182
2317 -1339.706452958909
2318 -1339.831390575568
2319 -1339.379006299676
2320 -1339.407989740855
2321 -1338.841649960352
2322 -1338.79913694487
2323 -1338.169383856363
2324 -1338.085789588095
2325 -1337.43338494239
2326 -1337.447704576581
2327 -1336.777880071482
2328 -1336.659548883879
2329 -1336.123216506608
2330 -1335.999786027506
2331 -1335.375960679524
2332 -1335.373648934931
2333 -1334.793454033256
2334 -1334.845072477761
2335 -1334.335823942778
2336 -1334.374234715337
2337 -1334.019176088369
2338 -1334.143401498772
2339 -1333.869464708346
2340 -1334.042185019495
2341 -1333.816622990852
2342 -1334.051298881345
2343 -1333.909181842851
2344 -1334.295267631256
2345 -1334.195829918737
2346 -1334.666159443725
2347 -1334.724397303785
2348 -1335.255999656817
2349 -1335.403131227436
2350 -1336.044387937413
2351 -1336.221601094197
2352 -1336.756459751575
2353 -1336.993451077049
2354 -1337.730806994888
2355 -1337.846717281314
2356 -1338.602629681077
2357 -1338.874708690734
2358 -1339.420447407444
2359 -1339.721037044414
2360 -1340.433710866559
2361 -1340.518009675671
2362 -1341.165507900138
2363 -1341.315817307486
2364 -1341.724555894707
2365 -1341.744080947456
2366 -1342.157724870049
2367 -1342.017342036319
2368 -1342.290760438186
2369 -1342.083583263793
2370 -1342.229030913003
2371 -1341.921608065337
2372 -1341.94465505013
2373 -1341.452825370065
2374 -1341.352564837949
2375 -1340.732724987183
2376 -1340.633208195321
2377 -1339.892688637102
2378 -1339.609919654217
2379 -1339.008761928476
2380 -1338.649334978029
2381 -1337.828244955794
2382 -1337.615661390264
2383 -1336.77525400707
2384 -1336.359761250731
2385 -1335.726798848056
2386 -1335.339377562238
2387 -1334.568717649871
2388 -1334.248121779621
2389 -1333.69098088599
2390 -1333.464777973415
2391 -1332.853934791103
2392 -1332.843374817314
2393 -1332.333253277888
2394 -1332.358202693393
2395 -1332.018342647309
2396 -1332.162578044002
2397 -1331.912073696812
2398 -1332.139803705371
2399 -1331.995730921644
2400 -1332.363035008888
2401 -1332.252611252395
2402 -1332.724447295609
2403 -1332.759371578819
2404 -1333.171370318711
2405 -1333.251562274588
2406 -1333.703158109086
2407 -1333.834267867818
2408 -1334.326734033855
2409 -1334.514932593529
2410 -1334.997394119779
2411 -1335.182796843258
2412 -1335.677987429009
2413 -1335.718435832365
2414 -1336.299354730866
2415 -1336.316460746535
2416 -1336.688246693428
2417 -1336.74970896842
2418 -1337.077673359784
2419 -1336.99557798007
2420 -1337.344764557769
2421 -1337.228556149415
2422 -1337.45652142015
2423 -1337.315526405846
2424 -1337.483899460127
2425 -1337.273157670757
2426 -1337.368176069537
2427 -1337.115433391015
2428 -1337.161909006778
2429 -1336.797647393778
2430 -1336.81864784293
2431 -1336.477203161858
2432 -1336.386867358857
2433 -1336.03914421248
2434 -1336.007642756673
2435 -1335.541476895154
2436 -1335.512540096056
2437 -1335.152761479572
2438 -1335.146599618421
2439 -1334.814153548381
2440 -1334.757843618287
2441 -1334.46753782507
2442 -1334.486734831601
2443 -1334.224348349837
2444 -1334.296499034827
2445 -1334.06187673608
2446 -1334.164210860854
2447 -1333.978689613909
2448 -1334.114222872496
2449 -1333.976079995503
2450 -1334.137380479288
2451 -1334.033554618049
2452 -1334.1981167105
2453 -1334.115022764907
2454 -1334.289492451597
2455 -1334.219183239604
2456 -1334.393751698101
2457 -1334.337619477465
2458 -1334.51426391884
2459 -1334.466469964091
2460 -1334.640048125895
2461 -1334.588447072941
2462 -1334.727416264917
2463 -1334.67198259481
2464 -1334.806119276565
2465 -1334.728906070692
2466 -1334.839376611763
2467 -1334.740937828954
2468 -1334.833970432596
2469 -1334.726558477977
2470 -1334.817204981108
2471 -1334.681285043148
2472 -1334.754486642923
2473 -1334.601591217348
2474 -1334.67642315485
2475 -1334.516061929114
2476 -1334.589437182348
2477 -1334.442181294474
2478 -1334.538621629615
2479 -1334.394297361529
2480 -1334.512224310139
2481 -1334.391822200478
2482 -1334.539236339802
2483 -1334.462259922002
2484 -1334.657909043485
2485 -1334.629113963111
2486 -1334.864419438895
2487 -1334.880123135481
2488 -1335.160059028358
2489 -1335.304815185383
2490 -1335.623738884204
2491 -1335.719075706188
2492 -1336.087133985929
2493 -1336.228225034422
2494 -1336.7726486088
2495 -1336.921269340923
2496 -1337.321586140004
2497 -1337.623790531765
2498 -1338.04772571446
2499 -1338.214040803032
2500 -1338.812756369225
2501 -1338.982779742826
2502 -1339.399163935181
2503 -1339.681440869727
2504 -1340.083121550945
2505 -1340.199308792686
2506 -1340.703539289991
2507 -1340.778583302447
2508 -1341.102256741266
2509 -1341.237376783815
2510 -1341.515590502914
2511 -1341.49990366987
2512 -1341.775552019491
2513 -1341.703095607136
2514 -1341.857084661634
2515 -1341.728009694847
2516 -1341.833233368926
2517 -1341.648499863115
2518 -1341.673326728001
2519 -1341.406512411554
2520 -1341.375680250092
2521 -1340.96409396695
2522 -1340.885697501009
2523 -1340.530013343744
2524 -1340.425663104623
2525 -1340.033770948405
2526 -1339.757890081539
2527 -1339.351158186416
2528 -1339.170818476519
2529 -1338.736150751352
2530 -1338.398343853644
2531 -1337.983062592397
2532 -1337.800205030822
2533 -1337.229640951658
2534 -1337.08196652331
2535 -1336.664559099877
2536 -1336.392569902463
2537 -1336.016012894164
2538 -1335.918208288575
2539 -1335.445058356404
2540 -1335.385700486146
2541 -1334.955877248641
2542 -1334.93517861148
2543 -1334.542631513831
2544 -1334.532180799191
2545 -1334.180756949794
2546 -1334.211704567553
2547 -1333.884251645191
2548 -1333.93511589869
2549 -1333.631268274917
2550 -1333.698783642421
2551 -1333.406478028897
2552 -1333.491727784392
2553 -1333.213681668987
2554 -1333.321076275135
2555 -1333.061753325995
2556 -1333.181979799858
2557 -1332.947142582334
2558 -1333.081126795304
2559 -1332.865413247501
2560 -1332.995635672347
2561 -1332.828178428282
2562 -1332.951979584622
2563 -1332.80192244876
2564 -1332.976374508698
2565 -1332.870876361235
2566 -1333.139968025572
2567 -1333.076447703626
2568 -1333.338663031338
2569 -1333.367622606332
2570 -1333.665335327218
2571 -1333.679409728909
2572 -1334.035186490667
2573 -1334.229834742634
2574 -1334.627316565823
2575 -1334.740136246533
2576 -1335.324992212139
2577 -1335.482781548139
2578 -1335.918529798987
2579 -1336.255811601632
2580 -1336.706089496994
2581 -1337.012694971114
2582 -1337.602299086696
2583 -1337.734812323218
2584 -1338.313395980317
2585 -1338.565704547867
2586 -1339.077661930103
2587 -1339.138418734434
2588 -1339.601005630493
2589 -1339.683112698176
2590 -1340.077923408091
2591 -1340.01629159377
2592 -1340.301809296998
2593 -1340.189073261022
2594 -1340.371004892735
2595 -1340.160250949344
2596 -1340.288719551162
2597 -1339.967613856113
2598 -1340.036469383126
2599 -1339.622634569992
2600 -1339.633001342753
2601 -1339.262399556366
2602 -1339.069945536317
2603 -1338.634592629443
2604 -1338.479158029547
2605 -1337.83124852387
2606 -1337.637671792593
2607 -1337.12338317873
2608 -1336.74441476467
2609 -1336.235396853587
2610 -1335.821813835244
2611 -1335.150601964131
2612 -1334.940180921171
2613 -1334.271387962707
2614 -1333.972631526341
2615 -1333.354098175666
2616 -1333.140070130534
2617 -1332.585798708716
2618 -1332.438298041043
2619 -1331.977898835637
2620 -1331.945735973437
2621 -1331.583782485058
2622 -1331.664865617443
2623 -1331.408362318285
2624 -1331.591666925494
2625 -1331.411926111356
2626 -1331.688578165057
2627 -1331.576799361786
2628 -1331.854947230442
2629 -1331.797407411539
2630 -1332.154065216732
2631 -1332.075237696906
2632 -1332.462750653404
2633 -1332.458531914544
2634 -1332.760083893936
2635 -1332.760144218429
2636 -1333.129853988051
2637 -1333.029076155038
2638 -1333.363326755053
2639 -1333.295746601312
2640 -1333.540514778292
2641 -1333.411759972678
2642 -1333.630383964707
2643 -1333.41659350597
2644 -1333.591979633422
2645 -1333.298305211991
2646 -1333.399541204779
2647 -1333.040238314062
2648 -1333.067942417741
2649 -1332.627743357309
2650 -1332.599308772431
2651 -1332.090727174864
2652 -1332.011523882497
2653 -1331.479826814539
2654 -1331.385153659339
2655 -1330.788954470627
2656 -1330.666575883084
2657 -1330.080500174923
2658 -1330.003878723191
2659 -1329.464642332919
2660 -1329.438218975145
2661 -1328.951568006745
2662 -1329.011147644255
2663 -1328.617987010752
2664 -1328.796714085684
2665 -1328.497926417075
2666 -1328.773691288668
2667 -1328.601350974656
2668 -1329.005524126103
2669 -1328.970386890641
2670 -1329.526519268697
2671 -1329.604966738956
2672 -1330.242780151597
2673 -1330.435247509919
2674 -1331.191053282933
2675 -1331.43421298302
2676 -1332.261286898908
2677 -1332.551179834382
2678 -1333.39708662522
2679 -1333.685858622341
2680 -1334.504076843394
2681 -1334.762014753369
2682 -1335.559794082847
2683 -1335.768928813987
2684 -1336.489358679458
2685 -1336.597152888996
2686 -1337.219725856594
2687 -1337.195386674864
2688 -1337.700393577562
2689 -1337.546754052231
2690 -1337.913973452411
2691 -1337.599849778286
2692 -1337.838894649281
2693 -1337.395666853119
2694 -1337.474724641788
2695 -1336.908447276315
2696 -1336.873861107178
2697 -1336.187160710601
2698 -1336.028847332421
2699 -1335.225292217413
2700 -1334.975572742512
2701 -1334.087332345681
2702 -1333.758531705187
2703 -1332.821338749995
2704 -1332.504781390633
2705 -1331.613012955885
2706 -1331.355141261363
2707 -1330.528442993109
2708 -1330.325489291494
2709 -1329.564767989136
2710 -1329.463898314208
2711 -1328.798628771853
2712 -1328.816419608509
2713 -1328.281044310983
2714 -1328.423573196167
2715 -1328.0272822309
2716 -1328.289063553862
2717 -1328.01305709727
2718 -1328.379766602412
2719 -1328.234257301909
2720 -1328.738364509723
2721 -1328.679539956413
2722 -1329.265841778554
2723 -1329.272845797535
2724 -1329.91273925825
2725 -1329.966862415921
2726 -1330.657522196982
2727 -1330.756657577393
2728 -1331.461590247841
2729 -1331.555735711743
2730 -1332.265017320186
2731 -1332.332134842383
2732 -1332.990531766669
2733 -1333.009025582232
2734 -1333.633270006714
2735 -1333.601963123006
2736 -1334.16384175893
2737 -1334.079873916677
2738 -1334.57065351531
2739 -1334.407645114843
2740 -1334.835245058147
2741 -1334.612331133776
2742 -1334.980201482436
2743 -1334.715242334707
2744 -1335.059067729165
2745 -1334.748539339414
2746 -1334.978560177907
2747 -1334.649089915484
2748 -1334.870259346534
2749 -1334.57529284313
2750 -1334.786563463574
2751 -1334.462603304157
2752 -1334.631543243086
2753 -1334.277937931288
2754 -1334.406193219862
2755 -1334.089906158509
2756 -1334.252280073114
2757 -1333.939509367242
2758 -1334.12346992536
2759 -1333.829676271097
2760 -1334.047996815532
2761 -1333.783201295471
2762 -1334.01675755589
2763 -1333.766732191078
2764 -1334.01894421512
2765 -1333.758128509405
2766 -1333.976314281005
2767 -1333.710474621444
2768 -1333.948757135608
2769 -1333.683995140096
2770 -1333.890571773806
2771 -1333.644792189531
2772 -1333.844053590316
2773 -1333.569838703529
2774 -1333.740212071901
2775 -1333.453077343944
2776 -1333.607887995683
2777 -1333.250210363686
2778 -1333.407797502792
2779 -1333.051730821308
2780 -1333.21737331963
2781 -1332.873403902701
2782 -1333.05383140271
2783 -1332.717921836859
2784 -1332.908081711424
2785 -1332.577363515656
2786 -1332.758908783639
2787 -1332.495999593176
2788 -1332.696111348641
2789 -1332.473198383994
2790 -1332.690420101678
2791 -1332.538076014456
2792 -1332.827070187029
2793 -1332.780459761953
2794 -1333.168543338248
2795 -1333.186240732578
2796 -1333.702183320716
2797 -1333.709953598915
2798 -1334.305517771564
2799 -1334.485680542447
2800 -1334.9744496774
2801 -1335.195966982948
2802 -1335.8689992603
2803 -1335.943779827279
2804 -1336.593344106318
2805 -1336.794437925466
2806 -1337.260956926975
2807 -1337.405563531469
2808 -1337.970024479421
2809 -1337.933283257432
2810 -1338.439203225258
2811 -1338.443495593002
2812 -1338.804876008377
2813 -1338.674836880104
2814 -1338.945151822679
2815 -1338.681112267092
2816 -1338.842898702063
2817 -1338.425490246179
2818 -1338.45698451285
2819 -1337.912130794718
2820 -1337.865599780115
2821 -1337.367829117666
2822 -1337.21783662534
2823 -1336.517520571585
2824 -1336.441184205564
2825 -1335.725691761231
2826 -1335.641706117668
2827 -1334.876902081829
2828 -1334.779720088713
2829 -1334.019395679874
2830 -1333.903843787287
2831 -1333.170541485208
2832 -1333.061099325264
2833 -1332.374680712205
2834 -1332.235951694825
2835 -1331.776320924115
2836 -1331.620979260261
2837 -1331.10173490054
2838 -1331.04974425775
2839 -1330.631639160637
2840 -1330.713787682826
2841 -1330.363250134845
2842 -1330.563800456186
2843 -1330.313029511881
2844 -1330.635194433751
2845 -1330.478970944584
2846 -1330.907621338304
2847 -1330.825870764454
2848 -1331.308785665251
2849 -1331.292964945854
2850 -1331.839635326018
2851 -1331.876911751472
2852 -1332.354428394572
2853 -1332.432986845423
2854 -1333.054341378665
2855 -1333.043769626941
2856 -1333.669209635741
2857 -1333.692328270953
2858 -1334.312455676969
2859 -1334.393281231953
2860 -1335.023471270406
2861 -1335.082693691681
2862 -1335.550174277323
2863 -1335.777974658017
2864 -1336.30436781152
2865 -1336.625077953798
2866 -1337.172947468416
2867 -1337.473142299578
2868 -1338.057932220027
2869 -1338.363942656824
2870 -1338.916327346568
2871 -1339.234269081682
2872 -1340.020580940859
2873 -1340.177707440946
2874 -1340.949568158541
2875 -1341.280487274946
2876 -1342.009126897327
2877 -1342.283723829948
2878 -1343.008695686609
2879 -1343.227944321583
2880 -1343.899575638211
2881 -1344.04066648242
2882 -1344.67342248353
2883 -1344.637282723176
2884 -1345.208111152641
2885 -1345.235721635023
2886 -1345.620026191406
2887 -1345.568213303308
2888 -1345.977987472981
2889 -1345.804550138827
2890 -1346.110859700615
2891 -1345.883813620875
2892 -1346.049335794704
2893 -1345.745559256419
2894 -1345.811309589493
2895 -1345.34723823048
2896 -1345.351468860532
2897 -1344.873461073163
2898 -1344.764999430418
2899 -1344.01200430217
2900 -1343.799038197121
2901 -1343.110642252131
2902 -1342.525394457239
2903 -1341.76054061745
2904 -1340.983381610041
2905 -1340.070742470058
2906 -1339.196537650198
2907 -1337.875151869607
2908 -1336.939977935122
2909 -1335.539909920514
2910 -1334.595367338121
2911 -1333.212766255292
2912 -1332.362489708936
2913 -1331.016206636962
2914 -1330.216003940528
2915 -1328.94956564205
2916 -1328.25689928258
2917 -1327.108020155472
2918 -1326.597753073655
2919 -1325.616156490423
2920 -1325.270260069191
2921 -1324.429283054914
2922 -1324.24946547568
2923 -1323.591427187574
2924 -1323.614035602106
2925 -1323.200407209969
2926 -1323.442906598356
2927 -1323.23070185862
2928 -1323.692184778677
2929 -1323.67628633288
2930 -1324.331028483176
2931 -1324.529605171652
2932 -1325.386833623153
2933 -1325.764955985125
2934 -1326.81031256025
2935 -1327.079930925574
2936 -1328.236264445299
2937 -1328.912634291425
2938 -1329.82621050417
2939 -1330.613342354826
2940 -1331.972884345155
2941 -1332.473021434665
2942 -1333.841998130681
2943 -1334.697442980952
2944 -1335.655476317468
2945 -1336.445799806862
2946 -1337.694837690405
2947 -1338.362162540082
2948 -1339.472619271528
2949 -1339.968564309095
2950 -1340.910883677498
2951 -1341.241985884818
2952 -1342.016125679455
2953 -1342.181039268148
2954 -1342.795699341853
2955 -1342.765596473504
2956 -1343.221856718854
2957 -1343.068636892817
2958 -1343.400192853767
2959 -1343.104853124002
2960 -1343.32171069959
2961 -1342.921762655289
2962 -1343.099388453235
2963 -1342.678548792307
2964 -1342.799980940062
2965 -1342.308507967382
2966 -1342.415960117404
2967 -1341.944266986425
2968 -1342.035536174686
2969 -1341.564075123865
2970 -1341.701388861099
2971 -1341.322540947146
2972 -1341.49364962778
2973 -1341.128508746191
2974 -1341.319247037003
2975 -1340.995254910007
2976 -1341.234146322581
2977 -1340.942887949533
2978 -1341.197520104698
2979 -1340.958138810219
2980 -1341.24404133092
2981 -1341.015445896565
2982 -1341.259872492311
2983 -1341.04004360924
2984 -1341.232339835511
2985 -1340.96378735062
2986 -1341.047622615394
2987 -1340.734159262021
2988 -1340.733007305273
2989 -1340.279407122515
2990 -1340.313895719644
2991 -1339.69968934051
2992 -1339.518690766726
2993 -1338.802693824522
2994 -1338.505332691054
2995 -1337.666065257263
2996 -1337.289255276032
2997 -1336.345545951913
2998 -1335.905036174482
2999 -1334.896020150496
3000 -1334.387005238088
3001 -1333.337329229603
3002 -1332.807325676382
3003 -1331.735095594735
3004 -1331.176191222107
3005 -1330.117868213918
3006 -1329.601548473927
3007 -1328.610310303721
3008 -1328.402736080917
3009 -1327.48994447269
3010 -1327.178286018222
3011 -1326.375194842107
3012 -1326.238469042478
3013 -1325.755197386626
3014 -1325.750065349565
3015 -1325.335826599759
3016 -1325.51048284906
3017 -1325.286026352743
3018 -1325.700593019127
3019 -1325.710376328971
3020 -1326.207105785051
3021 -1326.411884035838
3022 -1327.21995606714
3023 -1327.38674060967
3024 -1328.392872377048
3025 -1328.988511835381
3026 -1329.826821108397
3027 -1330.564502967355
3028 -1331.822659156753
3029 -1332.651323835011
3030 -1333.997602786892
3031 -1334.812046046429
3032 -1336.145556013284
3033 -1336.938783536852
3034 -1338.249098919967
3035 -1338.935996561783
3036 -1340.118757603496
3037 -1340.710785039396
3038 -1341.764768244226
3039 -1342.211647148068
3040 -1343.130028164617
3041 -1343.35385979605
3042 -1344.105640178904
3043 -1344.177261467461
3044 -1344.737962729052
3045 -1344.609576981145
3046 -1344.983826833623
3047 -1344.702442716025
3048 -1344.898330077891
3049 -1344.457478241728
3050 -1344.498696272598
3051 -1343.930985102073
3052 -1343.856937320663
3053 -1343.177373823074
3054 -1343.137887466457
3055 -1342.333007806814
3056 -1342.094618041296
3057 -1341.293060453515
3058 -1341.189239152277
3059 -1340.381682742769
3060 -1340.106043360528
3061 -1339.490152089094
3062 -1339.221242129985
3063 -1338.487768320117
3064 -1338.422827662671
3065 -1337.73565601453
3066 -1337.713272641995
3067 -1337.102447119954
3068 -1337.060866397489
3069 -1336.652081703255
3070 -1336.677019025715
3071 -1336.338078428075
3072 -1336.393787242158
3073 -1336.053232495003
3074 -1336.20248483252
3075 -1335.89492350336
3076 -1336.090323244271
3077 -1335.832819035849
3078 -1336.057338405699
3079 -1335.816320990324
3080 -1336.019833865143
3081 -1335.744943256538
3082 -1335.940381734824
3083 -1335.65963863268
3084 -1335.807745745189
3085 -1335.496307165497
3086 -1335.638976054759
3087 -1335.261127759129
3088 -1335.319695287746
3089 -1334.965571153832
3090 -1335.00610210197
3091 -1334.590082149669
3092 -1334.662531646559
3093 -1334.196703262767
3094 -1334.187122942376
3095 -1333.811174399247
3096 -1333.778607984452
3097 -1333.32433520237
3098 -1333.385132236187
3099 -1332.974944172991
3100 -1333.007738213672
3101 -1332.687451343133
3102 -1332.816488883707
3103 -1332.577808119385
3104 -1332.805580965598
3105 -1332.679524654838
3106 -1332.979829248452
3107 -1332.962735341678
3108 -1333.356118812643
3109 -1333.494748738604
3110 -1334.10260076989
3111 -1334.205454289602
3112 -1334.91686492806
3113 -1335.259726465668
3114 -1336.029048762937
3115 -1336.410018730612
3116 -1337.261815120311
3117 -1337.647744465947
3118 -1338.513250580726
3119 -1338.906724736842
3120 -1339.770928054357
3121 -1340.107440833735
3122 -1340.949655207943
3123 -1341.227716265171
3124 -1341.982649496331
3125 -1342.190030302213
3126 -1342.820647506893
3127 -1342.816167045095
3128 -1343.305002668523
3129 -1343.134702156759
3130 -1343.432481153338
3131 -1343.186175795925
3132 -1343.300987673981
3133 -1342.957636114555
3134 -1342.89779344929
3135 -1342.461943930012
3136 -1342.361380100188
3137 -1341.677416893608
3138 -1341.51426316422
3139 -1340.891178197932
3140 -1340.43993441526
3141 -1339.750307830005
3142 -1339.416956152043
3143 -1338.386780922473
3144 -1338.013744937823
3145 -1336.938580986415
3146 -1336.283535852678
3147 -1335.503049021724
3148 -1334.858086300876
3149 -1333.823234792123
3150 -1333.254632409904
3151 -1332.340213570784
3152 -1332.123755012428
3153 -1331.315951315118
3154 -1331.03668995739
3155 -1330.502934472576
3156 -1330.338123201426
3157 -1329.811126611123
3158 -1329.857288930275
3159 -1329.462991087837
3160 -1329.63264675804
3161 -1329.403762936796
3162 -1329.686246082638
3163 -1329.571521823748
3164 -1329.900810390744
3165 -1330.009055490318
3166 -1330.416917954868
3167 -1330.498229946499
3168 -1331.142963028894
3169 -1331.302517631875
3170 -1331.836280030962
3171 -1332.237725015184
3172 -1332.80392241902
3173 -1333.03811806005
3174 -1333.88585121871
3175 -1334.14233376334
3176 -1334.975298496659
3177 -1335.233864428387
3178 -1336.058216232243
3179 -1336.516418714407
3180 -1337.125562883205
3181 -1337.565433269614
3182 -1338.161235882353
3183 -1338.533841926618
3184 -1339.30987763505
3185 -1339.451644635165
3186 -1340.155119137656
3187 -1340.427812690158
3188 -1340.916689936465
3189 -1341.117182856988
3190 -1341.69320475568
3191 -1341.696549215059
3192 -1342.192014460892
3193 -1342.245784952832
3194 -1342.666544186533
3195 -1342.577924221912
3196 -1342.934419116959
3197 -1342.838263412749
3198 -1343.094222825857
3199 -1342.939814514568
3200 -1343.177342414397
3201 -1342.95416809495
3202 -1343.153882440888
3203 -1342.917341713162
3204 -1343.050837850214
3205 -1342.784250141649
3206 -1342.855246595043
3207 -1342.495024013793
3208 -1342.549446196013
3209 -1342.208981885327
3210 -1342.155018425901
3211 -1341.791272448361
3212 -1341.756296813012
3213 -1341.235052654733
3214 -1341.171486586496
3215 -1340.700636008647
3216 -1340.444486558128
3217 -1339.95962180592
3218 -1339.642302393799
3219 -1338.950422936905
3220 -1338.775205733112
3221 -1338.036436384486
3222 -1337.686365253697
3223 -1336.925588451735
3224 -1336.582116672732
3225 -1335.839960475593
3226 -1335.548345707514
3227 -1334.806973135566
3228 -1334.556475959989
3229 -1333.844768653684
3230 -1333.658039350386
3231 -1333.012032707304
3232 -1332.880679121108
3233 -1332.289584288485
3234 -1332.243390560304
3235 -1331.723507985571
3236 -1331.766924073776
3237 -1331.332215000307
3238 -1331.461742316125
3239 -1331.100464417912
3240 -1331.287186447784
3241 -1330.988433289959
3242 -1331.276422656665
3243 -1331.038058147508
3244 -1331.3924195817
3245 -1331.238421650245
3246 -1331.611290029993
3247 -1331.495114893935
3248 -1331.934251595056
3249 -1331.845098951609
3250 -1332.297378764642
3251 -1332.205163022427
3252 -1332.66410153265
3253 -1332.5801322553
3254 -1333.031116062449
3255 -1332.941727081675
3256 -1333.380342111079
3257 -1333.282453451714
3258 -1333.735247716761
3259 -1333.614295643107
3260 -1334.050630609991
3261 -1333.920611375509
3262 -1334.321651553433
3263 -1334.175912925112
3264 -1334.551004714471
3265 -1334.373750022514
3266 -1334.768373072117
3267 -1334.600478158242
3268 -1335.020565525597
3269 -1334.887391880777
3270 -1335.327845462539
3271 -1335.210337587431
3272 -1335.661458337183
3273 -1335.584999076414
3274 -1336.092970921302
3275 -1336.065826296883
3276 -1336.633334918906
3277 -1336.663001550849
3278 -1337.265827080295
3279 -1337.293083404824
3280 -1337.94153545352
3281 -1337.888734123463
3282 -1338.52775024771
3283 -1338.618789468655
3284 -1339.242736513674
3285 -1339.206903979883
3286 -1339.784326374523
3287 -1339.874410336547
3288 -1340.290251594989
3289 -1340.308707564588
3290 -1340.768506493801
3291 -1340.623933298847
3292 -1340.971270767968
3293 -1340.813636582725
3294 -1341.017301343863
3295 -1340.695670653732
3296 -1340.781615693311
3297 -1340.40939010511
3298 -1340.360063034825
3299 -1339.810654545083
3300 -1339.756352698158
3301 -1339.05425018454
3302 -1338.948509987524
3303 -1338.136975057789
3304 -1337.973150511614
3305 -1337.067865752557
3306 -1336.856177563851
3307 -1335.908430888143
3308 -1335.657852177259
3309 -1334.673401437888
3310 -1334.181233973382
3311 -1333.479687937094
3312 -1332.9912426982
3313 -1332.08162661327
3314 -1331.67234017901
3315 -1330.854554432626
3316 -1330.566206287866
3317 -1329.868918224346
3318 -1329.728485248248
3319 -1329.154458345224
3320 -1329.179847708909
3321 -1328.756739421908
3322 -1328.92497067182
3323 -1328.621616461503
3324 -1328.909858205024
3325 -1328.757557276731
3326 -1329.175558252371
3327 -1329.105026246291
3328 -1329.615548383758
3329 -1329.641219788471
3330 -1330.249768702403
3331 -1330.349074993823
3332 -1330.98880964551
3333 -1330.993773620535
3334 -1331.664141384213
3335 -1331.832614329712
3336 -1332.329892550618
3337 -1332.50552131209
3338 -1333.135721600077
3339 -1333.135947393639
3340 -1333.71236736837
3341 -1333.818171299203
3342 -1334.308644578206
3343 -1334.311192299422
3344 -1334.76497275203
3345 -1334.703145872003
3346 -1335.088310564769
3347 -1334.950845591621
3348 -1335.278028527289
3349 -1335.051556696218
3350 -1335.340175569303
3351 -1335.067012834014
3352 -1335.324975949862
3353 -1335.02188001462
3354 -1335.264944961504
3355 -1334.962559013923
3356 -1335.2551633097
3357 -1335.018249796981
3358 -1335.353206834058
3359 -1335.167673508261
3360 -1335.586236657879
3361 -1335.489627065849
3362 -1335.986562648061
3363 -1335.982194227842
3364 -1336.445800219183
3365 -1336.51366218841
3366 -1337.166040055387
3367 -1337.190086091933
3368 -1337.879297274972
3369 -1338.122891763859
3370 -1338.704522014709
3371 -1338.994249968434
3372 -1339.60606974692
3373 -1339.911504253491
3374 -1340.700011553162
3375 -1340.828960653309
3376 -1341.592978040702
3377 -1341.887723555148
3378 -1342.415933941971
3379 -1342.585338708942
3380 -1343.179030630496
3381 -1343.138758716842
3382 -1343.604567995329
3383 -1343.502346694399
3384 -1343.738157064065
3385 -1343.429406964816
3386 -1343.527091418292
3387 -1343.113647830252
3388 -1343.027093424691
3389 -1342.508844533639
3390 -1342.166714320717
3391 -1341.506618562099
3392 -1340.962064817869
3393 -1339.929615205905
3394 -1339.552968382583
3395 -1338.360751402825
3396 -1337.61083157246
3397 -1336.331144250921
3398 -1335.516423875632
3399 -1334.228648407289
3400 -1333.458735329826
3401 -1332.171403025999
3402 -1331.47041762929
3403 -1330.278447485094
3404 -1329.665904679772
3405 -1328.62296814994
3406 -1328.199527337283
3407 -1327.338671833648
3408 -1327.1335786578
3409 -1326.463935359125
3410 -1326.456967741921
3411 -1325.967470024361
3412 -1326.210125526717
3413 -1325.968490064213
3414 -1326.403005986051
3415 -1326.395050022227
3416 -1327.046454515108
3417 -1327.220436330952
3418 -1328.040996567136
3419 -1328.198674390971
3420 -1329.193792857088
3421 -1329.739846958414
3422 -1330.841011011857
3423 -1331.510951897594
3424 -1332.733027377949
3425 -1333.47414967506
3426 -1334.7770223431
3427 -1335.573626241581
3428 -1336.920920732232
3429 -1337.688812756929
3430 -1338.964978729508
3431 -1339.662697961983
3432 -1340.886435692847
3433 -1341.483036516617
3434 -1342.614453961785
3435 -1343.067983075638
3436 -1344.045936913878
3437 -1344.339824175916
3438 -1345.11019541353
3439 -1345.204630131994
3440 -1345.777057601156
3441 -1345.653988726088
3442 -1346.028136743992
3443 -1345.692166653543
3444 -1345.846641203082
3445 -1345.310403325208
3446 -1345.280932782052
3447 -1344.562249880102
3448 -1344.335025335007
3449 -1343.447525465612
3450 -1343.069879922185
3451 -1342.0162409332
3452 -1341.547148912672
3453 -1340.447010246158
3454 -1339.880497887692
3455 -1338.699869237927
3456 -1338.097722990626
3457 -1336.901239878574
3458 -1336.300172275332
3459 -1335.120060679969
3460 -1334.543951015315
3461 -1333.433029041309
3462 -1332.952219411613
3463 -1331.952980938859
3464 -1331.59587212571
3465 -1330.70733487312
3466 -1330.515791343686
3467 -1329.790482042996
3468 -1329.73128662767
3469 -1329.138582350929
3470 -1329.240894014316
3471 -1328.792145425878
3472 -1329.044986751087
3473 -1328.771548665086
3474 -1329.176107959672
3475 -1329.042333381336
3476 -1329.582945836859
3477 -1329.556752621994
3478 -1330.210827939043
3479 -1330.275658577603
3480 -1331.001007511645
3481 -1331.138141925011
3482 -1331.8884191596
3483 -1332.018441445979
3484 -1332.719077966781
3485 -1332.7930999972
3486 -1333.424504185685
3487 -1333.419859295033
3488 -1333.946227139854
3489 -1333.817419411285
3490 -1334.206220414719
3491 -1333.930447090616
3492 -1334.182420724906
3493 -1333.76750143186
3494 -1333.885245013598
3495 -1333.310516807312
3496 -1333.283201850888
3497 -1332.606186034629
3498 -1332.495865979977
3499 -1331.76182418031
3500 -1331.58316855029
3501 -1330.782757733012
3502 -1330.605513734972
3503 -1329.811774660707
3504 -1329.660165811459
3505 -1328.933441074898
3506 -1328.847429847304
3507 -1328.199922789572
3508 -1328.214071184283
3509 -1327.707112099372
3510 -1327.903670490281
3511 -1327.568104765924
3512 -1327.928163482432
3513 -1327.790803552392
3514 -1328.379865023027
3515 -1328.44864198047
3516 -1329.218335919956
3517 -1329.463865174041
3518 -1330.373391514899
3519 -1330.738739474377
3520 -1331.757265965846
3521 -1332.243498370796
3522 -1333.3570066536
3523 -1333.919854459355
3524 -1335.089498694983
3525 -1335.667160133441
3526 -1336.846997262274
3527 -1337.402475848477
3528 -1338.495982363835
3529 -1338.949124804519
3530 -1339.947624724108
3531 -1340.276470645506
3532 -1341.144455016143
3533 -1341.345340548985
3534 -1342.03006550791
3535 -1342.018679147471
3536 -1342.525835215268
3537 -1342.34889389104
3538 -1342.668327150846
3539 -1342.281136186191
3540 -1342.4127534984
3541 -1341.858905334082
3542 -1341.828628135904
3543 -1341.115650560943
3544 -1340.933992768396
3545 -1340.066295581951
3546 -1339.755448053119
3547 -1338.78124986109
3548 -1338.609677657993
3549 -1337.59175238181
3550 -1337.172464434317
3551 -1336.186104598732
3552 -1335.823640404637
3553 -1335.124518578927
3554 -1334.78354868569
3555 -1333.962077807376
3556 -1333.750780224199
3557 -1333.235723449493
3558 -1333.194435314583
3559 -1332.707044240389
3560 -1332.817449786244
3561 -1332.533126079668
3562 -1332.84809784639
3563 -1332.767993184638
3564 -1333.253827329796
3565 -1333.315090673086
3566 -1333.833333576336
3567 -1334.011155163869
3568 -1334.812798501785
3569 -1335.130686118229
3570 -1336.009130208616
3571 -1336.351089862209
3572 -1337.264793076249
3573 -1337.64138877952
3574 -1338.549945950478
3575 -1338.892024595994
3576 -1339.776911339593
3577 -1340.038361180742
3578 -1340.809010122305
3579 -1340.922126280808
3580 -1341.528112189469
3581 -1341.472153855672
3582 -1341.922335282983
3583 -1341.693810254581
3584 -1341.934493125685
3585 -1341.517026751867
3586 -1341.557459944783
3587 -1340.924531904794
3588 -1340.784043927283
3589 -1339.989721359224
3590 -1339.702399284746
3591 -1338.758388940916
3592 -1338.333184998444
3593 -1337.293866220337
3594 -1336.798111967677
3595 -1335.702517976549
3596 -1335.137959042283
3597 -1334.025619194408
3598 -1333.522508410376
3599 -1332.466544326261
3600 -1332.03165151722
3601 -1331.073726417146
3602 -1330.74393708971
3603 -1329.927404862666
3604 -1329.745958926575
3605 -1329.070413638336
3606 -1329.047490158837
3607 -1328.545459991089
3608 -1328.708165819769
3609 -1328.387361730737
3610 -1328.731029839077
3611 -1328.605647858522
3612 -1329.141297054459
3613 -1329.204116511217
3614 -1329.90492963089
3615 -1330.088667959973
3616 -1330.910189639941
3617 -1331.206877932621
3618 -1332.138768263542
3619 -1332.525242836743
3620 -1333.520732131689
3621 -1333.942041284352
3622 -1334.96398254123
3623 -1335.389968790324
3624 -1336.354854546209
3625 -1336.718213718404
3626 -1337.624282359035
3627 -1337.91514581744
3628 -1338.574925729426
3629 -1338.813219128952
3630 -1339.593536834605
3631 -1339.622633152365
3632 -1340.302711515879
3633 -1340.420685795476
3634 -1340.876644602216
3635 -1340.907891451087
3636 -1341.387626198415
3637 -1341.246533426983
3638 -1341.615622700255
3639 -1341.462898126661
3640 -1341.730326704068
3641 -1341.513135507127
3642 -1341.731807155671
3643 -1341.450630644595
3644 -1341.66441982759
3645 -1341.363685536435
3646 -1341.537478213138
3647 -1341.226278061984
3648 -1341.362853596128
3649 -1341.028631627806
3650 -1341.18264443092
3651 -1340.809272820783
3652 -1340.918674227557
3653 -1340.580368437383
3654 -1340.700452893985
3655 -1340.389942155688
3656 -1340.471956766437
3657 -1340.144742737039
3658 -1340.222811816578
3659 -1339.903421098677
3660 -1339.933501001089
3661 -1339.591281286484
3662 -1339.611483666449
3663 -1339.252686423224
3664 -1339.197474007445
3665 -1338.813415185761
3666 -1338.730056864959
3667 -1338.34530698096
3668 -1338.228547390121
3669 -1337.786803856437
3670 -1337.619888549897
3671 -1337.171135895701
3672 -1336.935916236951
3673 -1336.45783227819
3674 -1336.19158600923
3675 -1335.687704032174
3676 -1335.374917198227
3677 -1334.664229495178
3678 -1334.505051124721
3679 -1333.788037202218
3680 -1333.49051876432
3681 -1332.928917894539
3682 -1332.637746584428
3683 -1331.934622275626
3684 -1331.673082103761
3685 -1330.964858391136
3686 -1330.76439226487
3687 -1330.121810871303
3688 -1329.992335019877
3689 -1329.410931456007
3690 -1329.364790642669
3691 -1328.869816044296
3692 -1328.929638136448
3693 -1328.513696013985
3694 -1328.644939506198
3695 -1328.292080781109
3696 -1328.516848470843
3697 -1328.267924388887
3698 -1328.5958467278
3699 -1328.421868745295
3700 -1328.810084530958
3701 -1328.696171720066
3702 -1329.139307466963
3703 -1329.116956024514
3704 -1329.651524202018
3705 -1329.695375093091
3706 -1330.173891568521
3707 -1330.402156940536
3708 -1330.925325676645
3709 -1331.05617875929
3710 -1331.817519944943
3711 -1331.975262888564
3712 -1332.54761585358
3713 -1332.9314565984
3714 -1333.501040438865
3715 -1333.860765057256
3716 -1334.456813356235
3717 -1334.778418876295
3718 -1335.350293745058
3719 -1335.656338733953
3720 -1336.199519382382
3721 -1336.443629420536
3722 -1336.940027366491
3723 -1337.124338540433
3724 -1337.569826199273
3725 -1337.701436772211
3726 -1338.246368896298
3727 -1338.2312827671
3728 -1338.707403855561
3729 -1338.760300787558
3730 -1339.10032532386
3731 -1339.112361277729
3732 -1339.538164083032
3733 -1339.456854826868
3734 -1339.847936731391
3735 -1339.824633308124
3736 -1340.158635658206
3737 -1340.136675171191
3738 -1340.551806695548
3739 -1340.46896804433
3740 -1340.855230956833
3741 -1340.820548542571
3742 -1341.189868047755
3743 -1341.073135087368
3744 -1341.428485781021
3745 -1341.33653252114
3746 -1341.600606728692
3747 -1341.472015208572
3748 -1341.749829250688
3749 -1341.581260810594
3750 -1341.812973543927
3751 -1341.596214966082
3752 -1341.793423876229
3753 -1341.543309536768
3754 -1341.664226069418
3755 -1341.389157066283
3756 -1341.473517014355
3757 -1341.091275799409
3758 -1341.096201641408
3759 -1340.618649727656
3760 -1340.601144327301
3761 -1340.04338846604
3762 -1339.869995780308
3763 -1339.38408268693
3764 -1339.150686305411
3765 -1338.474682983404
3766 -1338.189989111145
3767 -1337.456143471301
3768 -1337.168345306629
3769 -1336.395312237619
3770 -1336.095810010564
3771 -1335.28949761533
3772 -1334.989746225687
3773 -1334.213916907571
3774 -1333.945509158053
3775 -1333.156911781391
3776 -1332.880579264694
3777 -1332.284414043411
3778 -1332.035643837645
3779 -1331.289424026804
3780 -1331.189135627566
3781 -1330.454525991364
3782 -1330.22915893152
3783 -1329.685521068394
3784 -1329.460220464777
3785 -1328.967537352954
3786 -1328.768860278042
3787 -1328.308643988349
3788 -1328.265638054573
3789 -1327.715326141313
3790 -1327.723117104499
3791 -1327.322578507358
3792 -1327.325581178939
3793 -1327.001881660753
3794 -1327.101516616496
3795 -1326.818656242086
3796 -1326.994079526598
3797 -1326.782019962502
3798 -1327.047899970521
3799 -1326.992445609241
3800 -1327.36218548124
3801 -1327.440673565956
3802 -1327.903020410473
3803 -1328.114881710826
3804 -1328.879688189898
3805 -1329.044859113046
3806 -1329.894440829509
3807 -1330.373870178485
3808 -1331.062168938287
3809 -1331.614241169888
3810 -1332.68839989706
3811 -1333.34684501548
3812 -1334.484627979436
3813 -1335.156000091278
3814 -1336.325206635038
3815 -1337.005677508429
3816 -1338.183712501955
3817 -1338.846403940388
3818 -1340.020986968376
3819 -1340.656380863032
3820 -1341.791156201376
3821 -1342.352178197222
3822 -1343.397989764179
3823 -1343.870645889697
3824 -1344.781937030205
3825 -1345.122031825418
3826 -1345.929959774018
3827 -1346.126468783836
3828 -1346.797808802892
3829 -1346.841768864909
3830 -1347.333321851926
3831 -1347.221789272256
3832 -1347.5612604685
3833 -1347.290286018804
3834 -1347.470886196199
3835 -1347.045312485152
3836 -1347.101896989376
3837 -1346.532104573447
3838 -1346.465907335887
3839 -1345.767457707092
3840 -1345.593279307308
3841 -1344.798499409966
3842 -1344.53015428858
3843 -1343.635877493306
3844 -1343.278782490029
3845 -1342.33450803543
3846 -1342.15303165457
3847 -1341.138869721931
3848 -1340.693817157399
3849 -1339.954662006555
3850 -1339.523066258792
3851 -1338.54957584376
3852 -1338.115948436389
3853 -1337.232036122612
3854 -1336.919151707493
3855 -1336.123719098166
3856 -1335.923962131197
3857 -1335.206697203384
3858 -1335.136132378588
3859 -1334.543001684952
3860 -1334.566748854825
3861 -1334.071178961015
3862 -1334.188804020193
3863 -1333.792784981353
3864 -1334.006683739444
3865 -1333.66583372972
3866 -1333.918127820797
3867 -1333.621591492915
3868 -1333.888760552731
3869 -1333.621055259719
3870 -1333.916227418601
3871 -1333.645089177422
3872 -1333.904619064632
3873 -1333.567191337116
3874 -1333.775743865634
3875 -1333.411592849371
3876 -1333.566766892809
3877 -1333.118784511633
3878 -1333.180334528932
3879 -1332.618718445414
3880 -1332.595413643844
3881 -1331.945162132664
3882 -1331.83162625598
3883 -1331.098807146592
3884 -1330.916167301036
3885 -1330.149444784945
3886 -1329.923906940952
3887 -1329.119624438485
3888 -1328.869798542928
3889 -1328.063090256581
3890 -1327.837401623223
3891 -1327.061374810162
3892 -1326.904291486723
3893 -1326.216939536826
3894 -1326.14868849448
3895 -1325.550509200566
3896 -1325.624983343096
3897 -1325.168259395707
3898 -1325.40038472462
3899 -1325.153360370253
3900 -1325.595211801498
3901 -1325.526629331344
3902 -1326.168482891609
3903 -1326.319248902416
3904 -1327.180092190272
3905 -1327.525474003443
3906 -1328.592623881792
3907 -1329.157574724883
3908 -1330.391400193866
3909 -1331.119716944083
3910 -1332.549646626555
3911 -1333.422612193506
3912 -1334.933165390329
3913 -1335.889220100892
3914 -1337.472685492323
3915 -1338.465891517527
3916 -1340.089986633185
3917 -1341.067430002425
3918 -1342.629552751924
3919 -1343.526772911367
3920 -1345.002131756443
3921 -1345.82725477912
3922 -1347.138791092436
3923 -1347.767764326244
3924 -1348.949929797286
3925 -1349.430349173489
3926 -1350.400117130406
3927 -1350.648770797508
3928 -1351.4020264966
3929 -1351.418744653178
3930 -1351.943008537839
3931 -1351.753400220778
3932 -1352.06837782759
3933 -1351.688138982813
3934 -1351.844573025401
3935 -1351.265379381271
3936 -1351.23448176797
3937 -1350.461476561283
3938 -1350.218019412913
3939 -1349.276617088672
3940 -1348.903945778621
3941 -1347.768850705471
3942 -1347.2213213112
3943 -1346.006112916179
3944 -1345.361511313173
3945 -1344.047966343388
3946 -1343.320075045533
3947 -1341.976777346322
3948 -1341.194878482
3949 -1339.800710719923
3950 -1338.992419317197
3951 -1337.568256333784
3952 -1336.788275859175
3953 -1335.391806831696
3954 -1334.595722498769
3955 -1333.193773347051
3956 -1332.442146798138
3957 -1331.11044317094
3958 -1330.405979740115
3959 -1329.095043735063
3960 -1328.46816475479
3961 -1327.276668314986
3962 -1326.733355061009
3963 -1325.645675398675
3964 -1325.264932562727
3965 -1324.255074744821
3966 -1323.97064593304
3967 -1323.125030812329
3968 -1322.968777191047
3969 -1322.280910656592
3970 -1322.299571221711
3971 -1321.78691023851
3972 -1321.985887072913
3973 -1321.630127021661
3974 -1321.96141671952
3975 -1321.774905273623
3976 -1322.225625939665
3977 -1322.271091941967
3978 -1322.8383628052
3979 -1323.044800996726
3980 -1323.729108379583
3981 -1323.949898032762
3982 -1325.040999529513
3983 -1325.445408770968
3984 -1326.360558269972
3985 -1327.283486494788
3986 -1328.315512037035
3987 -1329.466024103275
3988 -1331.134536002491
3989 -1332.40395223728
3990 -1334.088633178072
3991 -1335.350796910563
3992 -1337.105414225899
3993 -1338.357303882073
3994 -1340.10006727954
3995 -1341.284295566998
3996 -1343.030421580335
3997 -1344.150617210214
3998 -1345.748102917147
3999 -1346.733225159635
4000 -1348.19270381697
4001 -1348.99259100299
4002 -1350.292408928876
4003 -1350.905539286509
4004 -1351.991881101474
4005 -1352.360139515965
4006 -1353.194884185597
4007 -1353.315307997457
4008 -1353.90254901362
4009 -1353.783103838947
4010 -1354.134697919632
