"y-rfile"
"Iteration" "y"
("Iteration" "y")
1 -7960.193113903813
2 -7665.546681209976
3 -6625.034540555176
4 -5830.391158052476
5 -4761.049667461933
6 -3734.246396452788
7 -2662.379263360973
8 -2189.936410108528
9 -1551.803529564023
10 -1068.282297307793
11 -627.9650543487181
12 -297.9395644952619
13 -103.0196276575116
14 22.16376411019961
15 48.1174100113194
16 16.99496001286125
17 -60.4669715149895
18 -167.2990714825642
19 -309.7879907720784
20 -439.8354280767881
21 -572.301689279214
22 -701.6999045448234
23 -817.4139528849964
24 -905.6660219281757
25 -994.6263853030108
26 -1065.116367621597
27 -1119.473498982743
28 -1163.887104009198
29 -1189.804401059413
30 -1207.365770126732
31 -1214.750249442603
32 -1216.089695564322
33 -1213.795177631186
34 -1209.834781130201
35 -1205.191781968054
36 -1200.677939500752
37 -1196.995390412151
38 -1194.266982299595
39 -1192.68869224362
40 -1191.679863691981
41 -1191.992668371681
42 -1192.947628007565
43 -1194.790823792287
44 -1198.104681756594
45 -1201.792673959767
46 -1206.480549653884
47 -1211.000411273762
48 -1216.384340556312
49 -1221.202943089801
50 -1225.962308104744
51 -1231.022764760998
52 -1234.93912832053
53 -1239.317655881414
54 -1242.527157883945
55 -1246.326060647241
56 -1249.854384528793
57 -1253.788906064936
58 -1257.320290855035
59 -1261.119340844635
60 -1263.391165202845
61 -1267.226139631095
62 -1269.468428040541
63 -1273.089092042783
64 -1276.041358490133
65 -1279.013330489507
66 -1281.285764772957
67 -1283.608296686286
68 -1285.245908827736
69 -1286.952529213897
70 -1288.044820878171
71 -1289.214800800637
72 -1289.843962769579
73 -1290.636764625994
74 -1290.936692129925
75 -1291.412814270458
76 -1291.494630639401
77 -1291.780239996818
78 -1291.736883513608
79 -1291.991723646934
80 -1291.91567742112
81 -1292.189307198325
82 -1292.167693690224
83 -1292.479212709288
84 -1292.484963142372
85 -1292.783127027273
86 -1292.814134796945
87 -1293.095921154305
88 -1293.11147291046
89 -1293.339288414164
90 -1293.273626215281
91 -1293.406966909723
92 -1293.26077699833
93 -1293.326594615895
94 -1293.08288196353
95 -1293.027309779962
96 -1292.668265127441
97 -1292.489465893804
98 -1291.982252406491
99 -1291.678728379135
100 -1291.09102143493
101 -1290.690651087034
102 -1289.99425586013
103 -1289.513059307741
104 -1288.736604166739
105 -1288.169299776698
106 -1287.320220402274
107 -1286.691632049664
108 -1285.791560125915
109 -1285.124711328691
110 -1284.194072199595
111 -1283.462036950263
112 -1282.521427230962
113 -1281.788932519407
114 -1280.80199153696
115 -1280.043873753888
116 -1279.061688736739
117 -1278.281913799725
118 -1277.27261087628
119 -1276.485073271761
120 -1275.478266021073
121 -1274.707411407743
122 -1273.704500995784
123 -1272.914638650965
124 -1271.892369999485
125 -1271.101378329003
126 -1270.061910900492
127 -1269.281306498166
128 -1268.234792973341
129 -1267.440990231823
130 -1266.381440037055
131 -1265.583393999736
132 -1264.514110161183
133 -1263.70114052566
134 -1262.618226486733
135 -1261.800318606592
136 -1260.68392697048
137 -1259.876855886223
138 -1258.766237246273
139 -1257.943550456778
140 -1256.831489635039
141 -1256.00424346868
142 -1254.88118928181
143 -1254.042732687261
144 -1252.925831338652
145 -1252.089096938337
146 -1250.982506778067
147 -1250.147899700716
148 -1249.04459144242
149 -1248.249914170464
150 -1247.176191212418
151 -1246.392569465173
152 -1245.326555291445
153 -1244.560586549421
154 -1243.501893506965
155 -1242.746359523145
156 -1241.721725859401
157 -1241.009790071223
158 -1240.033166432797
159 -1239.347995511936
160 -1238.39924943787
161 -1237.750514745884
162 -1236.8422407978
163 -1236.218552047078
164 -1235.353947881543
165 -1234.772997522956
166 -1233.957700263042
167 -1233.417232802813
168 -1232.656745506972
169 -1232.173308455263
170 -1231.459757796425
171 -1231.020857432734
172 -1230.371164706936
173 -1230.004580162859
174 -1229.409641776453
175 -1229.078821196448
176 -1228.538840118601
177 -1228.280215805324
178 -1227.807551982029
179 -1227.609633034242
180 -1227.186838534938
181 -1227.067117578138
182 -1226.715396226052
183 -1226.651946225649
184 -1226.375459587151
185 -1226.393712165745
186 -1226.170139657048
187 -1226.254289160203
188 -1226.102657525698
189 -1226.26068093752
190 -1226.173730223455
191 -1226.397970206817
192 -1226.38192003895
193 -1226.672129486731
194 -1226.722357905196
195 -1227.075267537812
196 -1227.193876168142
197 -1227.611482066773
198 -1227.785476966836
199 -1228.251111241282
200 -1228.49620512045
201 -1229.030421600317
202 -1229.341894190263
203 -1229.926613929527
204 -1230.294520546678
205 -1230.941827398752
206 -1231.352769828694
207 -1232.044177592598
208 -1232.516641323275
209 -1233.260883725491
210 -1233.772627779545
211 -1234.561244912514
212 -1235.118264840844
213 -1235.949409850299
214 -1236.539380556635
215 -1237.40825550475
216 -1238.019486863491
217 -1238.924987066762
218 -1239.568119406697
219 -1240.4934809485
220 -1241.16556305326
221 -1242.119194882686
222 -1242.800328566171
223 -1243.762542361158
224 -1244.45538486851
225 -1245.424634437016
226 -1246.121350682783
227 -1247.074386771411
228 -1247.755961404631
229 -1248.725543816769
230 -1249.398055948392
231 -1250.338178644917
232 -1250.999312773293
233 -1251.9397756065
234 -1252.587234947599
235 -1253.498811581091
236 -1254.13004642588
237 -1255.037776602569
238 -1255.648306865965
239 -1256.524394906978
240 -1257.110267556487
241 -1257.971372767703
242 -1258.530139544579
243 -1259.365209967193
244 -1259.893709443274
245 -1260.7083608854
246 -1261.21663520629
247 -1261.990011231282
248 -1262.474750135521
249 -1263.235608885524
250 -1263.701080118592
251 -1264.447858190698
252 -1264.888257721095
253 -1265.620405387562
254 -1266.038813477289
255 -1266.739152261602
256 -1267.14683353128
257 -1267.837340336149
258 -1268.236432085629
259 -1268.91171481813
260 -1269.29361091413
261 -1269.968356917374
262 -1270.349956542973
263 -1270.999102003361
264 -1271.381575449176
265 -1272.01486536378
266 -1272.390398798568
267 -1273.017380143018
268 -1273.388031292176
269 -1274.006525703809
270 -1274.367455354857
271 -1274.977296947653
272 -1275.335883609077
273 -1275.938519092721
274 -1276.290758075733
275 -1276.89527119406
276 -1277.236446542361
277 -1277.841093154562
278 -1278.177592818162
279 -1278.78480524949
280 -1279.119532791089
281 -1279.716738231357
282 -1280.034130252545
283 -1280.632724560456
284 -1280.949723788595
285 -1281.549583560608
286 -1281.870349079511
287 -1282.468740931647
288 -1282.781491241486
289 -1283.381654188608
290 -1283.695762602264
291 -1284.284964471355
292 -1284.588734508677
293 -1285.173529956847
294 -1285.469687559472
295 -1286.05575121024
296 -1286.353140403356
297 -1286.932750895915
298 -1287.226859851242
299 -1287.806577285904
300 -1288.100458151776
301 -1288.663959617198
302 -1288.952500627381
303 -1289.510157278932
304 -1289.799834544351
305 -1290.353949687695
306 -1290.634587204461
307 -1291.187015319426
308 -1291.466691901488
309 -1292.022327457325
310 -1292.303635779999
311 -1292.847219441319
312 -1293.119522490876
313 -1293.672750129925
314 -1293.940381423162
315 -1294.491166343088
316 -1294.751293992151
317 -1295.308602339735
318 -1295.569993599546
319 -1296.116948128505
320 -1296.371484704133
321 -1296.91724983279
322 -1297.175918226175
323 -1297.722122465938
324 -1297.980896599096
325 -1298.518668277598
326 -1298.766239774668
327 -1299.304997794603
328 -1299.559425792865
329 -1300.096169859043
330 -1300.349754382165
331 -1300.887079042706
332 -1301.136256850227
333 -1301.670252539631
334 -1301.932178489549
335 -1302.455466106754
336 -1302.718555569499
337 -1303.234216279709
338 -1303.495613808841
339 -1304.010241983209
340 -1304.274186318681
341 -1304.784722262944
342 -1305.044676383571
343 -1305.554453556193
344 -1305.811335094472
345 -1306.309592677076
346 -1306.570811370567
347 -1307.074071303049
348 -1307.331994731203
349 -1307.825465863754
350 -1308.085398095938
351 -1308.574368905968
352 -1308.823342655919
353 -1309.306271785652
354 -1309.551607064694
355 -1310.046743451548
356 -1310.296358848079
357 -1310.777363578218
358 -1311.019178057286
359 -1311.513360928248
360 -1311.757943891093
361 -1312.242354937925
362 -1312.477912745881
363 -1312.96277841599
364 -1313.196695302785
365 -1313.675449876724
366 -1313.903041323533
367 -1314.380872362735
368 -1314.596255984528
369 -1315.071019634926
370 -1315.295412882833
371 -1315.771263552345
372 -1315.983285914998
373 -1316.455313799573
374 -1316.664672239995
375 -1317.139112505731
376 -1317.345670759761
377 -1317.807003881401
378 -1318.008899761119
379 -1318.472631182324
380 -1318.672813687834
381 -1319.128855712169
382 -1319.325378172201
383 -1319.781059240402
384 -1319.978807676226
385 -1320.429116456407
386 -1320.630835573812
387 -1321.06479370846
388 -1321.247413232093
389 -1321.689201859226
390 -1321.872948494324
391 -1322.31153236084
392 -1322.484662021558
393 -1322.923117040514
394 -1323.104736027159
395 -1323.534605691531
396 -1323.707565429414
397 -1324.130972388549
398 -1324.30519337184
399 -1324.726767081818
400 -1324.896363385175
401 -1325.30633823062
402 -1325.48104244609
403 -1325.891346356504
404 -1326.047434745935
405 -1326.457824734937
406 -1326.615971101547
407 -1327.018208640197
408 -1327.166504626668
409 -1327.579481466597
410 -1327.729453194525
411 -1328.138853307782
412 -1328.275549936422
413 -1328.672356269688
414 -1328.802406041437
415 -1329.211484095678
416 -1329.339841040274
417 -1329.734727471902
418 -1329.848913228591
419 -1330.243436735644
420 -1330.3607212031
421 -1330.747413348873
422 -1330.864435556297
423 -1331.246556236775
424 -1331.356590276564
425 -1331.725952596555
426 -1331.840739924277
427 -1332.210790557042
428 -1332.323748221271
429 -1332.675211269352
430 -1332.794392937059
431 -1333.152026910976
432 -1333.265527889853
433 -1333.616230616016
434 -1333.724335443442
435 -1334.081799973528
436 -1334.191326954736
437 -1334.530359514324
438 -1334.629084311838
439 -1334.981484583514
440 -1335.078877632761
441 -1335.414234716813
442 -1335.507877287126
443 -1335.85002761791
444 -1335.941064393222
445 -1336.277729841597
446 -1336.366840716128
447 -1336.710619098103
448 -1336.786900876698
449 -1337.120843363355
450 -1337.200874556526
451 -1337.528275494442
452 -1337.596940154099
453 -1337.929746294282
454 -1338.002207942847
455 -1338.326055830675
456 -1338.381559889036
457 -1338.721775918038
458 -1338.768538800994
459 -1339.104058312957
460 -1339.148839694955
461 -1339.486187200896
462 -1339.519344610049
463 -1339.85358654534
464 -1339.887915980372
465 -1340.220888962326
466 -1340.250182138566
467 -1340.575844092857
468 -1340.603255033446
469 -1340.937971661716
470 -1340.971712964923
471 -1341.296437642065
472 -1341.324865932396
473 -1341.651223872687
474 -1341.681508812576
475 -1341.99563028201
476 -1342.022173041633
477 -1342.335438518621
478 -1342.367474035294
479 -1342.672496208328
480 -1342.698505657166
481 -1343.00445559972
482 -1343.026471893457
483 -1343.320374888606
484 -1343.340272374451
485 -1343.634961076118
486 -1343.660567297027
487 -1343.942822217813
488 -1343.964104025429
489 -1344.247639084334
490 -1344.269111609427
491 -1344.549671853479
492 -1344.561501227338
493 -1344.853561477647
494 -1344.879559918262
495 -1345.155162875928
496 -1345.169239417042
497 -1345.448773027039
498 -1345.462951612342
499 -1345.730431311273
500 -1345.74356385041
501 -1346.016566524704
502 -1346.02653828538
503 -1346.29681018047
504 -1346.306586571823
505 -1346.583780270773
506 -1346.590132371223
507 -1346.858302627572
508 -1346.848655659599
509 -1347.118877794274
510 -1347.116899574414
511 -1347.384018983422
512 -1347.373781887836
513 -1347.646464273088
514 -1347.630539668986
515 -1347.895551380851
516 -1347.878904346756
517 -1348.149622200509
518 -1348.130025217731
519 -1348.395797351771
520 -1348.3762138627
521 -1348.637025381695
522 -1348.620014320783
523 -1348.884328705105
524 -1348.867289816221
525 -1349.12914505891
526 -1349.108508456109
527 -1349.366068352988
528 -1349.340651295336
529 -1349.597608025826
530 -1349.574428784807
531 -1349.8247777273
532 -1349.791517698653
533 -1350.044577926598
534 -1350.012690024086
535 -1350.269043817439
536 -1350.235080948282
537 -1350.486714313515
538 -1350.451432095043
539 -1350.694083795734
540 -1350.653301408588
541 -1350.905960487009
542 -1350.872980407069
543 -1351.118646861561
544 -1351.082795350824
545 -1351.325746671408
546 -1351.293953250447
547 -1351.530202319334
548 -1351.489797531601
549 -1351.719690679796
550 -1351.69061424633
551 -1351.918031749215
552 -1351.884114563849
553 -1352.110712677009
554 -1352.077678665197
555 -1352.298972530152
556 -1352.265501495398
557 -1352.48689797784
558 -1352.446723794404
559 -1352.664440056822
560 -1352.632393796006
561 -1352.852657970277
562 -1352.816465638164
563 -1353.03307632281
564 -1352.993689604144
565 -1353.211558161384
566 -1353.174933369304
567 -1353.388184462965
568 -1353.352691995676
569 -1353.55793873332
570 -1353.527025545892
571 -1353.729020092143
572 -1353.691588412992
573 -1353.895000490432
574 -1353.8635173675
575 -1354.066901540289
576 -1354.021628761876
577 -1354.226022389226
578 -1354.185914729665
579 -1354.387838289779
580 -1354.33732545917
581 -1354.543291967148
582 -1354.498419204006
583 -1354.706513832371
584 -1354.659319912075
585 -1354.869741615113
586 -1354.814720216141
587 -1355.025523242093
588 -1354.973305950165
589 -1355.186487158568
590 -1355.132916944298
591 -1355.343116679278
592 -1355.281283498178
593 -1355.488747736904
594 -1355.434932412999
595 -1355.636129985759
596 -1355.581742626327
597 -1355.779729997786
598 -1355.719078176695
599 -1355.918984860238
600 -1355.856086350396
601 -1356.053193211274
602 -1355.990937839265
603 -1356.196678299221
604 -1356.131584685183
605 -1356.336749765311
606 -1356.271031884409
607 -1356.479105790773
608 -1356.405503505778
609 -1356.60858965032
610 -1356.541578969952
611 -1356.744481710021
612 -1356.671483719463
613 -1356.871977905329
614 -1356.797265077161
615 -1357.005624317348
616 -1356.932314700872
617 -1357.133654139684
618 -1357.051319559587
619 -1357.249510691671
620 -1357.174681390034
621 -1357.366747643354
622 -1357.281068964323
623 -1357.475375006586
624 -1357.398091488193
625 -1357.592736314843
626 -1357.512237359397
627 -1357.710817191153
628 -1357.635328959062
629 -1357.829320574239
630 -1357.756949396558
631 -1357.94736300138
632 -1357.871556771214
633 -1358.058203962504
634 -1357.981562375482
635 -1358.178470226055
636 -1358.106589677112
637 -1358.288736988055
638 -1358.217488429429
639 -1358.402795012788
640 -1358.325667140405
641 -1358.502176655822
642 -1358.425405233963
643 -1358.608160155026
644 -1358.527037302636
645 -1358.712309503524
646 -1358.631821201831
647 -1358.818627478324
648 -1358.738481716684
649 -1358.92019556123
650 -1358.840230069544
651 -1359.021031889819
652 -1358.950710254146
653 -1359.124465671717
654 -1359.046989407118
655 -1359.220673736216
656 -1359.156454591373
657 -1359.330362800762
658 -1359.252278545677
659 -1359.417520654273
660 -1359.340144724202
661 -1359.504868870808
662 -1359.43358654548
663 -1359.593440506611
664 -1359.518967951675
665 -1359.682317395523
666 -1359.611156352463
667 -1359.770229468805
668 -1359.68919224718
669 -1359.860949388044
670 -1359.777634007078
671 -1359.948382651472
672 -1359.865394186603
673 -1360.040827070525
674 -1359.951841412021
675 -1360.122265900618
676 -1360.031372169601
677 -1360.206174911619
678 -1360.10577921791
679 -1360.282109075156
680 -1360.188634425408
681 -1360.372378160241
682 -1360.274998019248
683 -1360.458630001438
684 -1360.36317898279
685 -1360.549385774645
686 -1360.443979070131
687 -1360.617004044137
688 -1360.521802469263
689 -1360.696222097253
690 -1360.592013195059
691 -1360.760751400771
692 -1360.663512480561
693 -1360.846580082063
694 -1360.74054984521
695 -1360.914345871336
696 -1360.809118230414
697 -1360.993602963906
698 -1360.887634227146
699 -1361.064246142227
700 -1360.960215657775
701 -1361.138666156796
702 -1361.041925005434
703 -1361.214241831921
704 -1361.119545885814
705 -1361.287537312209
706 -1361.19432365528
707 -1361.350399708471
708 -1361.264128291649
709 -1361.419082829172
710 -1361.326370550681
711 -1361.477467535867
712 -1361.395428437546
713 -1361.553599049865
714 -1361.460894778746
715 -1361.612703598356
716 -1361.527936773624
717 -1361.678077620515
718 -1361.582345426653
719 -1361.731572653184
720 -1361.633672339593
721 -1361.794771350675
722 -1361.691706132172
723 -1361.850161762652
724 -1361.753176795447
725 -1361.914089526554
726 -1361.815665433633
727 -1361.972148906374
728 -1361.876203389668
729 -1362.037134833726
730 -1361.944465714863
731 -1362.100996613435
732 -1362.00949840105
733 -1362.172139177538
734 -1362.071084512091
735 -1362.227436026754
736 -1362.132896037049
737 -1362.283231711116
738 -1362.179223692349
739 -1362.326886252975
740 -1362.236830430263
741 -1362.386116831665
742 -1362.284864495018
743 -1362.432695047564
744 -1362.335949971119
745 -1362.490704998547
746 -1362.391641626541
747 -1362.535759506083
748 -1362.437912670607
749 -1362.591217231186
750 -1362.489013047635
751 -1362.63755788103
752 -1362.537498442505
753 -1362.687354024199
754 -1362.583614546891
755 -1362.739406543363
756 -1362.638578408613
757 -1362.792238069205
758 -1362.681690656266
759 -1362.834916229342
760 -1362.738375414216
761 -1362.88602348339
762 -1362.786466398599
763 -1362.930382885055
764 -1362.835674684158
765 -1362.982377098026
766 -1362.889314771573
767 -1363.035284339745
768 -1362.939113308985
769 -1363.084085866431
770 -1362.98528154058
771 -1363.129393217919
772 -1363.030125790267
773 -1363.173690562179
774 -1363.066905678154
775 -1363.220524127171
776 -1363.10736957089
777 -1363.258212118955
778 -1363.144709325045
779 -1363.299302133787
780 -1363.184305238701
781 -1363.334975430955
782 -1363.224062147404
783 -1363.379978336121
784 -1363.263241297473
785 -1363.417707711111
786 -1363.299892647957
787 -1363.45815777297
788 -1363.340079938447
789 -1363.497303165946
790 -1363.380255200731
791 -1363.534191580674
792 -1363.417562226019
793 -1363.572762440454
794 -1363.449217270375
795 -1363.611807506447
796 -1363.495088117533
797 -1363.64777283393
798 -1363.526897393753
799 -1363.688904900097
800 -1363.569741923871
801 -1363.729341549634
802 -1363.611803019292
803 -1363.771971213169
804 -1363.647355429664
805 -1363.798721184398
806 -1363.677116103624
807 -1363.835805692899
808 -1363.719085536671
809 -1363.871717650157
810 -1363.755292404408
811 -1363.912733122542
812 -1363.799410363111
813 -1363.947002264028
814 -1363.828186754555
815 -1363.986467485086
816 -1363.867937039762
817 -1364.01652353059
818 -1363.899121421307
819 -1364.043582321301
820 -1363.933784712816
821 -1364.072210095701
822 -1363.964630949244
823 -1364.107129213854
824 -1363.997981796341
825 -1364.13130157736
826 -1364.018714451119
827 -1364.159609994238
828 -1364.051142431104
829 -1364.189553745942
830 -1364.075771488713
831 -1364.217276459942
832 -1364.102224324444
833 -1364.243305230778
834 -1364.130894777891
835 -1364.278907914162
836 -1364.175438440925
837 -1364.31197785768
838 -1364.203744147823
839 -1364.344673559594
840 -1364.235439737079
841 -1364.376314013265
842 -1364.265660244153
843 -1364.407792884268
844 -1364.2974910369
845 -1364.437514438231
846 -1364.323624926853
847 -1364.466474792154
848 -1364.358684841526
849 -1364.490328628733
850 -1364.378141493672
851 -1364.518104006534
852 -1364.411264773453
853 -1364.542604333216
854 -1364.428124915467
855 -1364.565998557356
856 -1364.448650008874
857 -1364.581345869311
858 -1364.469118932303
859 -1364.605761173386
860 -1364.492318729526
861 -1364.624077162055
862 -1364.512001079574
863 -1364.659973300597
864 -1364.547478439513
865 -1364.682462607244
866 -1364.565310253231
867 -1364.713750382607
868 -1364.599185175452
869 -1364.738527802391
870 -1364.619345027305
871 -1364.765629206641
872 -1364.643132392027
873 -1364.781533377566
874 -1364.660819806258
875 -1364.811531931576
876 -1364.6814295833
877 -1364.8217685699
878 -1364.698395519805
879 -1364.840759969788
880 -1364.716509240689
881 -1364.859304735633
882 -1364.733417392093
883 -1364.88493632864
884 -1364.749995440295
885 -1364.90214414246
886 -1364.77344531024
887 -1364.929599378434
888 -1364.806329447135
889 -1364.952203909994
890 -1364.82310885926
891 -1364.97272479606
892 -1364.843880908874
893 -1364.994168624825
894 -1364.870559578604
895 -1365.020275727567
896 -1364.894599256574
897 -1365.035375382281
898 -1364.920577645504
899 -1365.058970521049
900 -1364.939649875155
901 -1365.076276275196
902 -1364.960352489351
903 -1365.094764684633
904 -1364.985140993521
905 -1365.112637846209
906 -1364.99922449679
907 -1365.128102684325
908 -1365.020505505919
909 -1365.143257740689
910 -1365.035257096781
911 -1365.164724785063
912 -1365.055244167472
913 -1365.179084320014
914 -1365.067212523496
915 -1365.195875707183
916 -1365.082508851664
917 -1365.206805045998
918 -1365.095212518225
919 -1365.225316824361
920 -1365.112219213297
921 -1365.23891494277
922 -1365.123582307381
923 -1365.252735458329
924 -1365.139728521345
925 -1365.268106773652
926 -1365.158300032793
927 -1365.283525531533
928 -1365.175090738519
929 -1365.294526079773
930 -1365.191459711399
931 -1365.309914592413
932 -1365.211363851198
933 -1365.322611451774
934 -1365.221095648455
935 -1365.346977785672
936 -1365.242485395074
937 -1365.363099853187
938 -1365.25114207789
939 -1365.376130205067
940 -1365.265068892289
941 -1365.389073846352
942 -1365.27590076295
943 -1365.404540512817
944 -1365.290131648607
945 -1365.416071958079
946 -1365.304819353852
947 -1365.432926655437
948 -1365.314834090486
949 -1365.440801629242
950 -1365.324874246488
951 -1365.453123273454
952 -1365.347929606912
953 -1365.478175910733
954 -1365.358652328899
955 -1365.492902729737
956 -1365.374891477613
957 -1365.501661585611
958 -1365.388122025964
959 -1365.511124195614
960 -1365.393218842968
961 -1365.524130813732
962 -1365.407729681349
963 -1365.532806815522
964 -1365.416981201235
965 -1365.546683669364
966 -1365.425251864025
967 -1365.549243414132
968 -1365.429025354414
969 -1365.560419694497
970 -1365.433789324929
971 -1365.565790190602
972 -1365.441960651407
973 -1365.590057777421
974 -1365.461708416075
975 -1365.613636127874
976 -1365.481396317694
977 -1365.630691449221
978 -1365.499296081154
979 -1365.636556775925
980 -1365.510666762341
981 -1365.656250711675
982 -1365.528311197498
983 -1365.666740216805
984 -1365.531545582306
985 -1365.672045375052
986 -1365.531319625014
987 -1365.668871878213
988 -1365.538519425122
989 -1365.680989473683
990 -1365.545322342495
991 -1365.681892713756
992 -1365.556402306194
993 -1365.701365746349
994 -1365.573426679347
995 -1365.711263009785
996 -1365.579418425011
997 -1365.72286436679
998 -1365.600765473133
999 -1365.730675148107
1000 -1365.60402942192
1001 -1365.739555085951
1002 -1365.607529992757
1003 -1365.745009248792
1004 -1365.619502936213
1005 -1365.760436422805
1006 -1365.627759380564
1007 -1365.760291785533
1008 -1365.633133458338
1009 -1365.774065771664
1010 -1365.6451718513
1011 -1365.777627688081
1012 -1365.659187685258
1013 -1365.790570758252
1014 -1365.658041389362
1015 -1365.796852128131
1016 -1365.674529146179
1017 -1365.804623770013
1018 -1365.690512727827
1019 -1365.811644661827
1020 -1365.692245272039
1021 -1365.830092950007
1022 -1365.707051455915
1023 -1365.833637619647
1024 -1365.719569678984
1025 -1365.842117066687
1026 -1365.721525758921
1027 -1365.838828129714
1028 -1365.727491757889
1029 -1365.851352911375
1030 -1365.736589659981
1031 -1365.858663921709
1032 -1365.739529181888
1033 -1365.873601721328
1034 -1365.746140613443
1035 -1365.875114223544
1036 -1365.750442820892
1037 -1365.884705896026
1038 -1365.756180581349
1039 -1365.883010219465
1040 -1365.763231444207
1041 -1365.898236990831
1042 -1365.767363339458
1043 -1365.898992103197
1044 -1365.772075935477
1045 -1365.909896726909
1046 -1365.775400076419
1047 -1365.913480532132
1048 -1365.776300860537
1049 -1365.916598982235
1050 -1365.78615843054
1051 -1365.925388346922
1052 -1365.793214122903
1053 -1365.934099036922
1054 -1365.806676003512
1055 -1365.943762912693
1056 -1365.805216803966
1057 -1365.939846407362
1058 -1365.814227118169
1059 -1365.939327398054
1060 -1365.815346510721
1061 -1365.944147222996
1062 -1365.822306684273
1063 -1365.956240231658
1064 -1365.831879054537
1065 -1365.962578660133
1066 -1365.834441434851
1067 -1365.966311529297
1068 -1365.850461029939
1069 -1365.979898928601
1070 -1365.855761067372
1071 -1365.985040806225
1072 -1365.865984706867
1073 -1365.996338858917
1074 -1365.868665141487
1075 -1366.00649704995
1076 -1365.875558842358
1077 -1366.00268037383
1078 -1365.878750779073
1079 -1366.005098435101
1080 -1365.876052245643
1081 -1366.004936047805
1082 -1365.874562190704
1083 -1365.999777059894
1084 -1365.873150100107
1085 -1366.008439367535
1086 -1365.882923194984
1087 -1366.01593616357
1088 -1365.895846299667
1089 -1366.032967495911
1090 -1365.911067623204
1091 -1366.041496441112
1092 -1365.921251020512
1093 -1366.052606208161
1094 -1365.924584535517
1095 -1366.054658943868
1096 -1365.930348851096
1097 -1366.053452035772
1098 -1365.934022866438
1099 -1366.05602004992
1100 -1365.941851375814
1101 -1366.065303465692
1102 -1365.945859460333
1103 -1366.06704067708
1104 -1365.945074498023
1105 -1366.071880175401
1106 -1365.945836344684
1107 -1366.068764156794
1108 -1365.953289088959
1109 -1366.074232031034
1110 -1365.952703734064
1111 -1366.076882512741
1112 -1365.955568561519
1113 -1366.085765644594
1114 -1365.965640611088
1115 -1366.0852724441
1116 -1365.966231860542
1117 -1366.093681027948
1118 -1365.972712845029
1119 -1366.095317565953
1120 -1365.972792825848
1121 -1366.10454458519
1122 -1365.973711984726
1123 -1366.104185012243
1124 -1365.982366565567
1125 -1366.112414372575
1126 -1365.984510234226
1127 -1366.110097900437
1128 -1365.985957517059
1129 -1366.114265216341
1130 -1365.990197145889
1131 -1366.124424879025
1132 -1365.992716184482
1133 -1366.13546258363
1134 -1365.993320531084
1135 -1366.134906764169
1136 -1365.997121548047
1137 -1366.142024318866
1138 -1366.003181771228
1139 -1366.142448400085
1140 -1366.010241950561
1141 -1366.151185806325
1142 -1366.016009340902
1143 -1366.156645587956
1144 -1366.026173974446
1145 -1366.158418393111
1146 -1366.021831702471
1147 -1366.153866499135
1148 -1366.026829753154
1149 -1366.152741397086
1150 -1366.023553217248
1151 -1366.145394650167
1152 -1366.021047146733
1153 -1366.152525114583
1154 -1366.026575472017
1155 -1366.154771452441
1156 -1366.030615760796
1157 -1366.15912083231
1158 -1366.035960397413
1159 -1366.155009067581
1160 -1366.038965963796
1161 -1366.165763682478
1162 -1366.044686523494
1163 -1366.162148422345
1164 -1366.043429732586
1165 -1366.169840947253
1166 -1366.044371140209
1167 -1366.166335996737
1168 -1366.051452478145
1169 -1366.179012508275
1170 -1366.065857492537
1171 -1366.17978940671
1172 -1366.073425702561
1173 -1366.192482899831
1174 -1366.072510075919
1175 -1366.189628305267
1176 -1366.075168649312
1177 -1366.194780147035
1178 -1366.074549421677
1179 -1366.188236329413
1180 -1366.071058079744
1181 -1366.196028847745
1182 -1366.073476576815
1183 -1366.193829941952
1184 -1366.072106865336
1185 -1366.19965213849
1186 -1366.073643825909
1187 -1366.195344909641
1188 -1366.070574989969
1189 -1366.199205963976
1190 -1366.080991395208
1191 -1366.20636292253
1192 -1366.082261561309
1193 -1366.207937372134
1194 -1366.083437902218
1195 -1366.206394174026
1196 -1366.088907222632
1197 -1366.21088719986
1198 -1366.096246198582
1199 -1366.222103891069
1200 -1366.099988371052
1201 -1366.231920691714
1202 -1366.098625776489
1203 -1366.238546169998
1204 -1366.109045063968
1205 -1366.241602243537
1206 -1366.115723481252
1207 -1366.243965847856
1208 -1366.115723812884
1209 -1366.24641550599
1210 -1366.117934437112
1211 -1366.244555832296
1212 -1366.116232325485
1213 -1366.235499219489
1214 -1366.109175210853
1215 -1366.243806172674
1216 -1366.125120979103
1217 -1366.241880750537
1218 -1366.118768268798
1219 -1366.241062083009
1220 -1366.122867810281
1221 -1366.244998022719
1222 -1366.115980458158
1223 -1366.252051643136
1224 -1366.126637002592
1225 -1366.248099271013
1226 -1366.120869269308
1227 -1366.251214844252
1228 -1366.115732825193
1229 -1366.241300545265
1230 -1366.123629466461
1231 -1366.257680743764
1232 -1366.129572735654
1233 -1366.263633104869
1234 -1366.132085554489
1235 -1366.268095925153
1236 -1366.134284530738
1237 -1366.266420310724
1238 -1366.134015860963
1239 -1366.26072687886
1240 -1366.135574781505
1241 -1366.263662953864
1242 -1366.130425941075
1243 -1366.260459391068
1244 -1366.128385541819
1245 -1366.260136537605
1246 -1366.128013188003
1247 -1366.266455192287
1248 -1366.13308824144
1249 -1366.265072824265
1250 -1366.133307098704
1251 -1366.270021361516
1252 -1366.140670953878
1253 -1366.27361281145
1254 -1366.138854350758
1255 -1366.278607723346
1256 -1366.151288385757
1257 -1366.283506770396
1258 -1366.156221746987
1259 -1366.282197369173
1260 -1366.160544552717
1261 -1366.285817099302
1262 -1366.167915881874
1263 -1366.285583277627
1264 -1366.167231040294
1265 -1366.281362774088
1266 -1366.16742138987
1267 -1366.279186790171
1268 -1366.166081386152
1269 -1366.280098703583
1270 -1366.176006555922
1271 -1366.29066770669
1272 -1366.174363555469
1273 -1366.29698125582
1274 -1366.17794063918
1275 -1366.300324932364
1276 -1366.174835134255
1277 -1366.304069514936
1278 -1366.175352793545
1279 -1366.300758558956
1280 -1366.179923286842
1281 -1366.306497238279
1282 -1366.183109767337
1283 -1366.308072230598
1284 -1366.178037462266
1285 -1366.307919967806
1286 -1366.181604078653
1287 -1366.299746513638
1288 -1366.176077900429
1289 -1366.293708514134
1290 -1366.171584080977
1291 -1366.2919635999
1292 -1366.177907434361
1293 -1366.300275533797
1294 -1366.175921050708
1295 -1366.303028408455
1296 -1366.181356353605
1297 -1366.309242329682
1298 -1366.189460593038
1299 -1366.317035123132
1300 -1366.190928013317
1301 -1366.325852158017
1302 -1366.194949912071
1303 -1366.321767247426
1304 -1366.186241744766
1305 -1366.317478772375
1306 -1366.1764777174
1307 -1366.310593400535
1308 -1366.175574311522
1309 -1366.315299107252
1310 -1366.182513493925
1311 -1366.315082968306
1312 -1366.184583284446
1313 -1366.321175089557
1314 -1366.185121182494
1315 -1366.318348906336
1316 -1366.187276921551
1317 -1366.327852994501
1318 -1366.197302344563
1319 -1366.33596517312
1320 -1366.199293268198
1321 -1366.338875101471
1322 -1366.212392029961
1323 -1366.343830119501
1324 -1366.210593501005
1325 -1366.340483316481
1326 -1366.202682629133
1327 -1366.337617064989
1328 -1366.206955778239
1329 -1366.335114766377
1330 -1366.20395404382
1331 -1366.333176918409
1332 -1366.204330912929
1333 -1366.330171496279
1334 -1366.200081456264
1335 -1366.33189178987
1336 -1366.207310518692
1337 -1366.328090272032
1338 -1366.207539437294
1339 -1366.334914523028
1340 -1366.216536156231
1341 -1366.338256588059
1342 -1366.209331089239
1343 -1366.335434917745
1344 -1366.202655973874
1345 -1366.333823303326
1346 -1366.207288835507
1347 -1366.334242964547
1348 -1366.206600242365
1349 -1366.331730115533
1350 -1366.209993257642
1351 -1366.337264657317
1352 -1366.206797425
1353 -1366.332878235196
1354 -1366.207944470226
1355 -1366.332862515814
1356 -1366.206467551251
1357 -1366.322035777571
1358 -1366.205747933294
1359 -1366.330716298881
1360 -1366.212335829257
1361 -1366.331060349743
1362 -1366.207028036744
1363 -1366.333197573169
1364 -1366.214392361014
1365 -1366.336404207694
1366 -1366.214718692364
1367 -1366.342091207739
1368 -1366.225581792624
1369 -1366.343512447185
1370 -1366.225413584484
1371 -1366.349611117301
1372 -1366.221879843413
1373 -1366.341411545986
1374 -1366.220002793282
1375 -1366.344960706082
1376 -1366.219627835953
1377 -1366.337600282081
1378 -1366.217261911221
1379 -1366.341071124275
1380 -1366.21907636382
1381 -1366.341800354237
1382 -1366.220685044408
1383 -1366.348171015067
1384 -1366.22791830757
1385 -1366.345791922193
1386 -1366.225986625193
1387 -1366.348653474104
1388 -1366.235051600601
1389 -1366.348976200973
1390 -1366.240501238161
1391 -1366.357195922333
1392 -1366.240800866249
1393 -1366.363227363286
1394 -1366.245503357559
1395 -1366.371923170765
1396 -1366.246858930253
1397 -1366.367666602994
1398 -1366.241491666541
1399 -1366.367877785719
1400 -1366.24119019616
1401 -1366.367001450712
1402 -1366.227676925569
1403 -1366.360291470445
1404 -1366.216038979255
1405 -1366.355387488475
1406 -1366.216525598986
1407 -1366.359583310377
1408 -1366.212428373312
1409 -1366.352370949094
1410 -1366.210482230227
1411 -1366.351696526513
1412 -1366.210799540283
1413 -1366.352193519197
1414 -1366.211389843149
1415 -1366.36054604413
1416 -1366.218108897154
1417 -1366.358919321101
1418 -1366.213756377205
1419 -1366.354816131879
1420 -1366.211791839895
1421 -1366.356395755206
1422 -1366.215365204797
1423 -1366.357251962778
1424 -1366.219418906465
1425 -1366.364607010144
1426 -1366.220878975592
1427 -1366.36005484877
1428 -1366.222186260355
1429 -1366.366360278294
1430 -1366.226766871629
1431 -1366.371952878898
1432 -1366.236494100538
1433 -1366.365626499048
1434 -1366.22663292336
1435 -1366.360720164937
1436 -1366.227519333353
1437 -1366.357250342239
1438 -1366.237243090055
1439 -1366.360038638903
1440 -1366.232078281063
1441 -1366.357965576077
1442 -1366.23543081999
1443 -1366.359751817407
1444 -1366.232654203428
1445 -1366.353970752488
1446 -1366.234552115428
1447 -1366.350641309777
1448 -1366.225040393493
1449 -1366.344236587848
1450 -1366.230258154192
1451 -1366.347915203195
1452 -1366.233691151681
1453 -1366.354318545815
1454 -1366.231564110303
1455 -1366.362908692779
1456 -1366.236526779377
1457 -1366.359705058463
1458 -1366.242305600465
1459 -1366.366457770919
1460 -1366.242327316632
1461 -1366.364360427934
1462 -1366.248091255895
1463 -1366.370879445597
1464 -1366.246474983233
1465 -1366.368481657499
1466 -1366.241097173437
1467 -1366.364952768394
1468 -1366.23516074959
1469 -1366.357433496508
1470 -1366.234770271808
1471 -1366.36319630909
1472 -1366.230811921305
1473 -1366.362874862821
1474 -1366.230086808493
1475 -1366.370944562556
1476 -1366.23076323228
1477 -1366.364867117216
1478 -1366.235268356518
1479 -1366.374750434559
1480 -1366.238770808986
1481 -1366.373735081389
1482 -1366.23932141327
1483 -1366.371733856116
1484 -1366.239935981843
1485 -1366.371187244658
1486 -1366.23392578366
1487 -1366.365060490541
1488 -1366.234449522389
1489 -1366.35956512811
1490 -1366.231502418549
1491 -1366.358411346709
1492 -1366.238522078445
1493 -1366.363814936056
1494 -1366.239216653547
1495 -1366.363183224166
1496 -1366.23594659474
1497 -1366.360029964993
1498 -1366.23912871527
1499 -1366.365395291275
1500 -1366.240352135438
1501 -1366.367171124405
1502 -1366.241871551856
1503 -1366.37318362775
1504 -1366.247852922193
1505 -1366.368861816738
1506 -1366.235340914263
1507 -1366.365384995371
1508 -1366.230847748598
1509 -1366.363119212102
1510 -1366.239465695596
1511 -1366.372131504643
1512 -1366.232389672621
1513 -1366.370134620616
1514 -1366.23897680544
1515 -1366.374016001049
1516 -1366.23157906324
1517 -1366.359418872903
1518 -1366.225768615839
1519 -1366.35844319355
1520 -1366.231126228873
1521 -1366.351500956228
1522 -1366.228892145894
1523 -1366.353433357924
1524 -1366.23360221929
1525 -1366.360448677123
1526 -1366.2423433781
1527 -1366.363827923761
1528 -1366.240739754152
1529 -1366.361367368065
1530 -1366.244497269951
1531 -1366.369957313196
1532 -1366.245747925273
1533 -1366.367976961986
1534 -1366.247062393483
1535 -1366.375698954555
1536 -1366.249093141405
1537 -1366.372540349772
1538 -1366.250647766447
1539 -1366.373669475338
1540 -1366.252400469661
1541 -1366.37590083145
1542 -1366.257454429188
1543 -1366.374011989108
1544 -1366.261211252124
1545 -1366.381558979416
1546 -1366.257533586422
1547 -1366.379374016649
1548 -1366.252458398106
1549 -1366.363290972685
1550 -1366.24827552492
1551 -1366.372279340092
1552 -1366.247399875668
1553 -1366.363703650255
1554 -1366.239350454218
1555 -1366.367954049904
1556 -1366.248695055913
1557 -1366.368877819006
1558 -1366.250459751123
1559 -1366.369851394482
1560 -1366.247848209158
1561 -1366.371877971954
1562 -1366.24474477655
1563 -1366.372373521985
1564 -1366.244712454162
1565 -1366.369242218535
1566 -1366.238824891396
1567 -1366.368321503227
1568 -1366.239349176688
1569 -1366.366458679755
1570 -1366.242795198654
1571 -1366.372123922989
1572 -1366.239649951639
1573 -1366.367018453745
1574 -1366.245209900731
1575 -1366.377831717222
1576 -1366.245451063134
1577 -1366.380346959455
1578 -1366.244945951654
1579 -1366.381038927399
1580 -1366.248188435518
1581 -1366.378932137907
1582 -1366.244176376317
1583 -1366.377404252973
1584 -1366.239154814772
1585 -1366.376541700341
1586 -1366.238615941076
1587 -1366.382060491016
1588 -1366.244341920596
1589 -1366.383521161011
1590 -1366.245334673174
1591 -1366.390835420893
1592 -1366.252311139361
1593 -1366.397483787953
1594 -1366.259947325182
1595 -1366.404830801195
1596 -1366.256352306906
1597 -1366.400933180561
1598 -1366.257842255052
1599 -1366.393110654609
1600 -1366.252442755347
1601 -1366.384085197363
1602 -1366.24647580768
1603 -1366.376202553735
1604 -1366.244386680659
1605 -1366.36961672074
1606 -1366.239210682349
1607 -1366.368104939547
1608 -1366.243930241515
1609 -1366.369432540979
1610 -1366.242674161299
1611 -1366.368015173692
1612 -1366.250024954013
1613 -1366.371443366212
1614 -1366.248691428233
1615 -1366.371057225317
1616 -1366.243090322886
1617 -1366.36684019363
1618 -1366.246629266509
1619 -1366.373042305412
1620 -1366.258274526404
1621 -1366.380460011774
1622 -1366.258017798271
1623 -1366.381477821981
1624 -1366.255815317409
1625 -1366.381407733237
1626 -1366.257034866995
1627 -1366.377720509904
1628 -1366.259543119347
1629 -1366.375501166452
1630 -1366.257828434315
1631 -1366.376725095302
1632 -1366.250164790495
1633 -1366.374274777539
1634 -1366.24906784845
1635 -1366.374388984247
1636 -1366.240679093717
1637 -1366.367370491281
1638 -1366.247377769352
1639 -1366.371712619705
1640 -1366.249314700184
1641 -1366.373823026645
1642 -1366.25248314069
1643 -1366.381493905233
1644 -1366.257945003133
1645 -1366.382357885735
1646 -1366.259294699336
1647 -1366.387838895982
1648 -1366.25754798752
1649 -1366.381171534794
1650 -1366.262371076822
1651 -1366.382948763274
1652 -1366.257668433264
1653 -1366.386590377834
1654 -1366.258993191427
1655 -1366.387142330945
1656 -1366.254119761631
1657 -1366.382453115488
1658 -1366.257879039644
1659 -1366.381044365879
1660 -1366.257577362356
1661 -1366.380912074553
1662 -1366.246904107961
1663 -1366.381117073414
1664 -1366.253437803737
1665 -1366.379966448737
1666 -1366.257521702178
1667 -1366.386353691463
1668 -1366.251596032745
1669 -1366.3831678985
1670 -1366.260119720931
1671 -1366.390380371943
1672 -1366.261608647231
1673 -1366.392328343569
1674 -1366.262184379918
1675 -1366.395780119161
1676 -1366.256540706742
1677 -1366.393058543074
1678 -1366.256350510189
1679 -1366.393585582278
1680 -1366.255110315072
1681 -1366.395704035587
1682 -1366.25071642611
1683 -1366.393356785944
1684 -1366.253719702343
1685 -1366.392158362926
1686 -1366.249564365952
1687 -1366.391695673489
1688 -1366.249749481888
1689 -1366.386953796854
1690 -1366.251429749794
1691 -1366.390236823704
1692 -1366.244052778435
1693 -1366.384781617391
1694 -1366.23496971105
1695 -1366.377790600274
1696 -1366.24010463039
1697 -1366.381494264436
1698 -1366.235231451701
1699 -1366.375779198218
1700 -1366.247441744498
1701 -1366.383332221164
1702 -1366.250441578404
1703 -1366.388599723035
1704 -1366.262724796565
1705 -1366.392279875525
1706 -1366.263069828634
1707 -1366.387510260802
1708 -1366.266635095216
1709 -1366.381551107048
1710 -1366.270731516158
1711 -1366.382409187971
1712 -1366.264699733325
1713 -1366.379067484388
1714 -1366.267579493502
1715 -1366.382586448017
1716 -1366.268830513801
1717 -1366.374585795309
1718 -1366.267331175183
1719 -1366.373752328339
1720 -1366.261357103417
1721 -1366.373258351373
1722 -1366.257162587514
1723 -1366.371236826594
1724 -1366.268305127336
1725 -1366.383220932021
1726 -1366.268390327639
1727 -1366.386598091739
1728 -1366.270237581253
1729 -1366.392277905023
1730 -1366.269300323176
1731 -1366.387780619422
1732 -1366.264383780316
1733 -1366.386883163368
1734 -1366.261966903879
1735 -1366.392749673691
1736 -1366.265002800609
1737 -1366.3913107957
1738 -1366.263435405052
1739 -1366.387444810261
1740 -1366.257088914861
1741 -1366.375186339139
1742 -1366.24985753276
1743 -1366.372707379938
1744 -1366.248130298127
1745 -1366.369347735396
1746 -1366.248055981235
1747 -1366.378195022207
1748 -1366.251370392596
1749 -1366.372907242104
1750 -1366.250046277302
1751 -1366.378523195407
1752 -1366.254243049967
1753 -1366.385827961126
1754 -1366.2543484002
1755 -1366.392826551401
1756 -1366.261189178001
1757 -1366.391863963908
1758 -1366.258041812589
1759 -1366.390995804183
1760 -1366.254918353268
1761 -1366.390019923106
1762 -1366.252141791562
1763 -1366.385711990181
1764 -1366.246269019796
1765 -1366.385912518459
1766 -1366.249637278519
1767 -1366.391939708548
1768 -1366.251418707021
1769 -1366.388446545904
1770 -1366.248541591786
1771 -1366.390982750424
1772 -1366.258373701202
1773 -1366.392778208503
1774 -1366.255262063017
1775 -1366.397494800537
1776 -1366.257929759242
1777 -1366.392080469868
1778 -1366.260428732559
1779 -1366.392859384215
1780 -1366.264885107809
1781 -1366.385292266197
1782 -1366.264112361998
1783 -1366.386411923789
1784 -1366.263891793471
1785 -1366.383897607631
1786 -1366.261438073373
1787 -1366.376027909277
1788 -1366.253205670321
1789 -1366.37514892262
1790 -1366.246059004316
1791 -1366.371810381455
1792 -1366.250585959478
1793 -1366.370141361246
1794 -1366.239297658971
1795 -1366.362779815667
1796 -1366.240882934025
1797 -1366.363183754863
1798 -1366.238442263467
1799 -1366.366744217601
1800 -1366.242714809825
1801 -1366.374569796757
1802 -1366.250337567525
1803 -1366.376959510811
1804 -1366.249700087503
1805 -1366.382431696421
1806 -1366.251047828155
1807 -1366.37894612438
1808 -1366.258136074201
1809 -1366.380936137517
1810 -1366.256452616095
1811 -1366.376884931083
1812 -1366.252638434896
1813 -1366.379014796298
1814 -1366.253714059663
1815 -1366.382705141322
1816 -1366.257507638286
1817 -1366.388633113332
1818 -1366.26361109416
1819 -1366.388229661794
1820 -1366.262189033767
1821 -1366.391855867144
1822 -1366.267634237791
1823 -1366.39187824911
1824 -1366.267375471851
1825 -1366.392681263087
1826 -1366.264614938622
1827 -1366.381031359852
1828 -1366.263806760983
1829 -1366.380632978332
1830 -1366.254236796408
1831 -1366.385113852473
1832 -1366.261917468738
1833 -1366.384050030421
1834 -1366.259646383158
1835 -1366.388423969418
1836 -1366.25850702125
1837 -1366.38070595125
1838 -1366.25033209285
1839 -1366.375745711683
1840 -1366.245694539453
1841 -1366.368186197692
1842 -1366.244319356186
1843 -1366.374049399722
1844 -1366.242692164443
1845 -1366.367179550006
1846 -1366.238215640607
1847 -1366.37271220092
1848 -1366.250460580382
1849 -1366.375468011346
1850 -1366.251207842273
1851 -1366.379829225677
1852 -1366.256748791479
1853 -1366.383648086623
1854 -1366.259386543249
1855 -1366.397123378407
1856 -1366.263477039686
1857 -1366.39177722049
1858 -1366.258144166951
1859 -1366.392670233731
1860 -1366.267032689195
1861 -1366.39724159375
1862 -1366.263189927087
1863 -1366.403077792301
1864 -1366.264576273294
1865 -1366.403400162076
1866 -1366.260295015921
1867 -1366.403701052706
1868 -1366.261858787311
1869 -1366.395791247345
1870 -1366.255998039291
1871 -1366.393311832548
1872 -1366.253045371182
1873 -1366.38359839169
1874 -1366.247210589925
1875 -1366.384723799846
1876 -1366.241964487291
1877 -1366.36715725091
1878 -1366.236729384684
1879 -1366.371122530066
1880 -1366.245264016753
1881 -1366.369813242039
1882 -1366.247335392547
1883 -1366.376101750658
1884 -1366.253713349683
1885 -1366.374698977413
1886 -1366.248284064729
1887 -1366.37796191608
1888 -1366.25284890774
1889 -1366.374509996329
1890 -1366.256231782219
1891 -1366.381408241799
1892 -1366.263463531906
1893 -1366.388372556692
1894 -1366.26447996265
1895 -1366.396477074935
1896 -1366.265891562334
1897 -1366.395443312527
1898 -1366.270755563925
1899 -1366.396448976355
1900 -1366.270569280891
1901 -1366.391605989456
1902 -1366.270470712378
1903 -1366.40323063815
1904 -1366.272913675638
1905 -1366.398671475617
1906 -1366.267086259657
1907 -1366.399914808924
1908 -1366.264149105905
1909 -1366.390009540515
1910 -1366.270474914014
1911 -1366.39815007169
1912 -1366.266088425214
1913 -1366.391017859725
1914 -1366.259458967601
1915 -1366.398268155431
1916 -1366.25862603373
1917 -1366.391910112371
1918 -1366.256740068399
1919 -1366.390233661652
1920 -1366.252135087067
1921 -1366.386737821789
1922 -1366.24758993639
1923 -1366.379109976276
1924 -1366.246650926921
1925 -1366.375774007484
1926 -1366.235497836151
1927 -1366.376222248051
1928 -1366.243560937755
1929 -1366.373286493795
1930 -1366.240659657034
1931 -1366.379012903553
1932 -1366.250878104911
1933 -1366.387294665646
1934 -1366.252630009515
1935 -1366.39886261301
1936 -1366.265079811477
1937 -1366.394460641808
1938 -1366.264985628781
1939 -1366.401118713031
1940 -1366.270744632146
1941 -1366.394977244642
1942 -1366.265537956421
1943 -1366.398680558635
1944 -1366.271227933382
1945 -1366.394887721104
1946 -1366.259546821201
1947 -1366.390322943044
1948 -1366.260172188686
1949 -1366.37886936732
1950 -1366.259942465781
1951 -1366.389102893984
1952 -1366.26184665676
1953 -1366.383653245658
1954 -1366.260758403003
1955 -1366.3913914821
1956 -1366.264532213025
1957 -1366.386511584155
1958 -1366.262416691684
1959 -1366.3902546564
1960 -1366.261472197256
1961 -1366.381472777408
1962 -1366.250004082488
1963 -1366.377449922188
1964 -1366.248983379832
1965 -1366.368946871862
1966 -1366.243467979937
1967 -1366.376363234422
1968 -1366.249126553866
1969 -1366.379453578774
1970 -1366.24559591713
1971 -1366.379769359795
1972 -1366.239738205002
1973 -1366.375536233839
1974 -1366.238969927229
1975 -1366.38342457638
1976 -1366.250988216319
1977 -1366.387315725882
1978 -1366.261634111565
1979 -1366.399328363492
1980 -1366.263389071723
1981 -1366.398606631557
1982 -1366.266634723881
1983 -1366.404156010285
1984 -1366.274743103437
1985 -1366.400091756663
1986 -1366.268648577564
1987 -1366.393798845152
1988 -1366.268524501484
1989 -1366.387601689378
1990 -1366.262767786163
1991 -1366.38658356751
1992 -1366.262849244669
1993 -1366.380229797751
1994 -1366.255868065052
1995 -1366.380008245679
1996 -1366.257404773988
1997 -1366.381151417267
1998 -1366.258152309466
1999 -1366.381901656311
2000 -1366.264121718977
2001 -1366.3923652078
2002 -1366.263047684075
2003 -1366.388444099983
2004 -1366.263831684694
2005 -1366.391785408612
2006 -1366.260931391393
2007 -1366.383342942479
2008 -1366.259722985112
2009 -1366.384465776179
2010 -1366.266020102075
2011 -1366.383095644455
2012 -1366.263505396232
2013 -1366.383768327068
2014 -1366.26972079331
2015 -1366.389795702229
2016 -1366.266105260002
2017 -1366.387925576035
2018 -1366.265673195441
2019 -1366.380594157716
2020 -1366.257398213947
2021 -1366.378617924528
2022 -1366.256601390324
2023 -1366.382990362903
2024 -1366.261753945837
2025 -1366.386985511394
2026 -1366.253192229361
2027 -1366.384564886819
2028 -1366.257559295885
2029 -1366.388266455623
2030 -1366.254585874815
2031 -1366.39001132314
2032 -1366.255417189602
2033 -1366.39720289625
2034 -1366.25248954758
2035 -1366.391259570043
2036 -1366.256423086631
2037 -1366.396754240665
2038 -1366.249763487177
2039 -1366.390131419858
2040 -1366.254158139219
2041 -1366.394167639361
2042 -1366.251835257187
2043 -1366.384424695979
2044 -1366.257457877141
2045 -1366.389649926879
2046 -1366.261265076513
2047 -1366.387344491947
2048 -1366.261220386098
2049 -1366.385045080932
2050 -1366.259383699914
2051 -1366.385334606115
2052 -1366.257630699921
2053 -1366.383449598352
2054 -1366.260216254784
2055 -1366.394104828045
2056 -1366.268257158208
2057 -1366.393917587476
2058 -1366.258852106688
2059 -1366.387249244991
2060 -1366.258734027672
2061 -1366.38833543319
2062 -1366.256687660239
2063 -1366.392856832087
2064 -1366.260306143958
2065 -1366.390719635815
2066 -1366.259902485465
2067 -1366.394254643844
2068 -1366.262799337683
2069 -1366.391350412772
2070 -1366.266311087463
2071 -1366.400219172116
2072 -1366.271269411871
2073 -1366.397440318305
2074 -1366.269522135899
2075 -1366.401455597132
2076 -1366.28135916208
2077 -1366.396991183062
2078 -1366.278967950843
2079 -1366.394926170967
2080 -1366.274976877178
2081 -1366.38680430957
2082 -1366.267999425036
2083 -1366.386724280988
2084 -1366.263702208005
2085 -1366.378812228059
2086 -1366.255109864832
2087 -1366.379373863459
2088 -1366.252848172544
2089 -1366.374761883886
2090 -1366.249820451854
2091 -1366.383180438448
2092 -1366.256614144016
2093 -1366.388036438497
2094 -1366.252856812533
2095 -1366.3946611931
2096 -1366.25677894878
2097 -1366.393187330387
2098 -1366.265042450647
2099 -1366.393774982856
2100 -1366.255600502908
2101 -1366.391008075253
2102 -1366.262667214961
2103 -1366.387461803001
2104 -1366.254200842143
2105 -1366.38191475551
2106 -1366.244745983898
2107 -1366.381149956309
2108 -1366.243009093263
2109 -1366.376312233125
2110 -1366.244529451463
2111 -1366.381408290367
2112 -1366.250511573227
2113 -1366.383732572735
2114 -1366.257246159655
2115 -1366.387172288334
2116 -1366.262372455127
2117 -1366.382901314203
2118 -1366.265190077363
2119 -1366.383318356859
2120 -1366.266366374802
2121 -1366.38624583448
2122 -1366.264830067851
2123 -1366.391961243861
2124 -1366.268456179663
2125 -1366.395677197145
2126 -1366.265963009365
2127 -1366.388806014371
2128 -1366.261313756139
2129 -1366.392431238832
2130 -1366.270879170776
2131 -1366.390716355271
2132 -1366.254835086815
2133 -1366.384165049309
2134 -1366.25373800127
2135 -1366.387221966238
2136 -1366.250298274619
2137 -1366.38947905754
2138 -1366.252582683139
2139 -1366.382736240396
2140 -1366.247776144468
2141 -1366.384826698974
2142 -1366.255316025334
2143 -1366.386145422162
2144 -1366.258166667054
2145 -1366.396504440364
2146 -1366.26037759594
2147 -1366.383404675776
2148 -1366.252275034453
2149 -1366.385072881213
2150 -1366.249213380033
2151 -1366.377288889986
2152 -1366.249636256034
2153 -1366.379882911023
2154 -1366.25342693485
2155 -1366.381649150495
2156 -1366.252453440267
2157 -1366.382644330166
2158 -1366.260591070831
2159 -1366.383683977673
2160 -1366.258079248898
2161 -1366.384907389973
2162 -1366.263057181308
2163 -1366.385861195359
2164 -1366.258467147682
2165 -1366.387343453675
2166 -1366.261295950318
2167 -1366.383919194685
2168 -1366.260959806824
2169 -1366.385617418095
2170 -1366.263602527637
2171 -1366.38418096269
2172 -1366.263052070939
2173 -1366.386394167546
2174 -1366.260704719953
2175 -1366.384487926584
2176 -1366.258200893277
2177 -1366.384539222434
2178 -1366.259478692126
2179 -1366.376387559067
2180 -1366.253707603232
2181 -1366.377321907265
2182 -1366.252893584442
2183 -1366.381461692043
2184 -1366.253427713265
2185 -1366.381220294838
2186 -1366.260073318899
2187 -1366.386650139094
2188 -1366.256622326971
2189 -1366.38854134899
2190 -1366.261961207988
2191 -1366.390312779555
2192 -1366.257508470233
2193 -1366.396280484511
2194 -1366.256980631694
2195 -1366.389680445057
2196 -1366.253853550733
2197 -1366.382555087299
2198 -1366.248592451297
2199 -1366.38028550239
2200 -1366.242834176999
2201 -1366.379051721985
2202 -1366.243955730769
2203 -1366.38799190559
2204 -1366.250634097973
2205 -1366.392914605616
2206 -1366.255445657046
2207 -1366.39602780035
2208 -1366.253175522373
2209 -1366.388966562295
2210 -1366.258763317447
2211 -1366.395457227039
2212 -1366.259089878566
2213 -1366.391108972446
2214 -1366.255882181709
2215 -1366.396261861727
2216 -1366.263191414398
2217 -1366.387962069791
2218 -1366.251965434909
2219 -1366.383424665564
2220 -1366.250075280319
2221 -1366.377067152166
2222 -1366.250314842263
2223 -1366.376567945255
2224 -1366.247268781515
2225 -1366.374654977625
2226 -1366.256833366501
2227 -1366.376116858326
2228 -1366.253146318171
2229 -1366.370371711054
2230 -1366.257553230076
2231 -1366.378672356228
2232 -1366.254974788288
2233 -1366.374367121677
2234 -1366.25110434947
2235 -1366.376314426063
2236 -1366.250386071714
2237 -1366.373306822324
2238 -1366.260273310448
2239 -1366.374773836548
2240 -1366.26182992189
2241 -1366.372976810878
2242 -1366.265013693238
2243 -1366.375417736593
2244 -1366.26080692564
2245 -1366.37200185169
2246 -1366.257755836073
2247 -1366.369372027202
2248 -1366.253757623128
2249 -1366.36825373079
2250 -1366.261735507572
2251 -1366.373748451304
2252 -1366.260525741287
2253 -1366.377472889761
2254 -1366.270835471779
2255 -1366.390365170032
2256 -1366.27522779061
2257 -1366.398081133221
2258 -1366.285368969541
2259 -1366.396957048021
2260 -1366.27882824019
2261 -1366.402072387071
2262 -1366.276221454112
2263 -1366.395797389611
2264 -1366.271670676768
2265 -1366.388947140556
2266 -1366.256864761483
2267 -1366.379076290437
2268 -1366.252410789296
2269 -1366.383708286716
2270 -1366.252840878548
2271 -1366.383118278787
2272 -1366.249690021631
2273 -1366.389088389027
2274 -1366.25316403387
2275 -1366.388567223823
2276 -1366.24088524332
2277 -1366.385950987782
2278 -1366.24710967253
2279 -1366.385585146906
2280 -1366.246718590621
2281 -1366.387551777203
2282 -1366.24602435534
2283 -1366.379923521535
2284 -1366.248275457258
2285 -1366.385483537881
2286 -1366.252805442359
2287 -1366.385240413467
2288 -1366.251282639286
2289 -1366.389675974903
2290 -1366.257695266929
2291 -1366.39671978536
2292 -1366.256077894698
2293 -1366.390832040983
2294 -1366.252758510002
2295 -1366.391763854177
2296 -1366.254191688752
2297 -1366.390081943858
2298 -1366.258714585794
2299 -1366.386924423963
2300 -1366.256134795058
2301 -1366.386336223665
2302 -1366.264273275795
2303 -1366.391033489211
2304 -1366.26445043996
2305 -1366.392536099478
2306 -1366.269661525105
2307 -1366.38597106144
2308 -1366.256745884622
2309 -1366.373714014624
2310 -1366.257635898786
2311 -1366.373108264253
2312 -1366.258781585321
2313 -1366.379753424887
2314 -1366.265801916694
2315 -1366.38128764059
2316 -1366.268066868174
2317 -1366.385202849779
2318 -1366.273981265901
2319 -1366.388411900261
2320 -1366.275631811758
2321 -1366.390804192054
2322 -1366.280781753969
2323 -1366.396819450923
2324 -1366.274188157322
2325 -1366.395349260905
2326 -1366.276684272292
2327 -1366.39850921851
2328 -1366.267434210647
2329 -1366.37952872874
2330 -1366.265556276654
2331 -1366.384886142492
2332 -1366.263985491411
2333 -1366.380699953165
2334 -1366.257060726238
2335 -1366.379422872217
2336 -1366.260089210031
2337 -1366.376006520336
2338 -1366.257776621194
2339 -1366.374162605666
2340 -1366.253820803193
2341 -1366.374981113785
2342 -1366.264703324206
2343 -1366.378739024762
2344 -1366.264499769349
2345 -1366.38444640155
2346 -1366.269250065891
2347 -1366.390384186687
2348 -1366.26868467257
2349 -1366.392211748673
2350 -1366.271262154128
2351 -1366.398789003571
2352 -1366.274221946846
2353 -1366.399058358954
2354 -1366.266280282761
2355 -1366.400395555921
2356 -1366.270006698386
2357 -1366.397868926967
2358 -1366.265857398004
2359 -1366.395882091607
2360 -1366.269042176342
2361 -1366.399048812392
2362 -1366.261897652788
2363 -1366.403965161385
2364 -1366.261304654114
2365 -1366.401431282923
2366 -1366.266499778629
2367 -1366.406592266308
2368 -1366.264082809724
2369 -1366.404833405859
2370 -1366.261994183922
2371 -1366.405841658357
2372 -1366.267229067593
2373 -1366.402396059767
2374 -1366.260145013567
2375 -1366.402265780279
2376 -1366.262231551467
2377 -1366.395268885377
2378 -1366.257368434201
2379 -1366.386585506671
2380 -1366.254897712166
2381 -1366.386650643958
2382 -1366.256625003016
2383 -1366.383144689778
2384 -1366.254669685804
2385 -1366.382757327318
2386 -1366.256736107051
2387 -1366.383829223111
2388 -1366.25201860418
2389 -1366.381242438693
2390 -1366.25475768132
2391 -1366.389044960348
2392 -1366.256734490905
2393 -1366.393325523556
2394 -1366.253399790182
2395 -1366.380492427975
2396 -1366.252418412446
2397 -1366.386662301802
2398 -1366.256504980389
2399 -1366.388654742891
2400 -1366.263110702289
2401 -1366.396080827662
2402 -1366.263888576754
2403 -1366.390657444505
2404 -1366.26417639042
2405 -1366.392884509632
2406 -1366.257130957647
2407 -1366.377606039882
2408 -1366.250404020511
2409 -1366.380823639025
2410 -1366.26044991931
2411 -1366.379246543555
2412 -1366.255607846286
2413 -1366.388039903015
2414 -1366.256581072472
2415 -1366.386561858515
2416 -1366.249062684363
2417 -1366.377381601452
2418 -1366.255296192015
2419 -1366.375920037153
2420 -1366.246996559292
2421 -1366.377567910858
2422 -1366.251952996548
2423 -1366.373041444946
2424 -1366.248853205096
2425 -1366.374464150916
2426 -1366.243069917982
2427 -1366.372928346331
2428 -1366.241946504326
2429 -1366.376853301332
2430 -1366.241329236485
2431 -1366.377638653503
2432 -1366.250269465618
2433 -1366.389771562981
2434 -1366.255640975787
2435 -1366.392197006534
2436 -1366.2593104469
2437 -1366.392924145349
2438 -1366.262948280897
2439 -1366.390886646445
2440 -1366.2599800993
2441 -1366.386521979942
2442 -1366.25568746788
2443 -1366.388260329016
2444 -1366.258093425174
2445 -1366.385371074281
2446 -1366.250766020142
2447 -1366.38052249595
2448 -1366.252812318942
2449 -1366.377431294507
2450 -1366.251056392259
2451 -1366.377603475953
2452 -1366.254794586126
2453 -1366.38051294445
2454 -1366.256309017262
2455 -1366.38688012809
2456 -1366.265801591198
2457 -1366.382440714033
2458 -1366.260828792727
2459 -1366.390253079577
2460 -1366.265796777217
2461 -1366.38796919061
2462 -1366.263511951527
2463 -1366.392623316116
2464 -1366.26259860184
2465 -1366.387205348813
2466 -1366.25709871205
2467 -1366.388620492192
2468 -1366.254140165287
2469 -1366.374605095619
2470 -1366.250249341291
2471 -1366.383909298216
2472 -1366.24964307692
2473 -1366.38042979172
2474 -1366.245218874182
2475 -1366.388351506035
2476 -1366.257430459026
2477 -1366.379544983475
2478 -1366.254200123644
2479 -1366.389507444297
2480 -1366.266407055324
2481 -1366.393045344433
2482 -1366.269003239402
2483 -1366.399130822781
2484 -1366.265882607613
2485 -1366.392406783527
2486 -1366.262081473584
2487 -1366.39122883045
2488 -1366.260243598839
2489 -1366.379892807449
2490 -1366.260509252803
2491 -1366.377199381742
2492 -1366.256470432071
2493 -1366.374338842111
2494 -1366.254027943929
2495 -1366.374501380203
2496 -1366.263657196721
2497 -1366.378621542723
2498 -1366.256945148433
2499 -1366.380598380615
2500 -1366.265842742534
2501 -1366.385914060513
2502 -1366.275755818405
2503 -1366.389692343361
2504 -1366.278632334833
2505 -1366.390992041862
2506 -1366.270268110256
2507 -1366.385292770586
2508 -1366.278313700484
2509 -1366.383861822768
2510 -1366.278490414293
2511 -1366.382732129664
2512 -1366.281165294015
2513 -1366.384168071346
2514 -1366.274260126985
2515 -1366.390180350874
2516 -1366.27278696273
2517 -1366.384686813531
2518 -1366.274348086075
2519 -1366.388866591422
2520 -1366.268653283285
2521 -1366.388420667993
2522 -1366.264476391654
2523 -1366.384699763145
2524 -1366.267318524064
2525 -1366.388809895151
2526 -1366.259831985332
2527 -1366.381807935671
2528 -1366.259153069837
2529 -1366.390136375027
2530 -1366.266118256149
2531 -1366.390207402331
2532 -1366.264243647795
2533 -1366.399719667099
2534 -1366.269186695061
2535 -1366.400350296469
2536 -1366.266959278598
2537 -1366.393275893688
2538 -1366.263699005207
2539 -1366.388130470006
2540 -1366.261219043701
2541 -1366.382906230124
2542 -1366.257919094999
2543 -1366.38044349146
2544 -1366.263857163459
2545 -1366.394245233018
2546 -1366.267425339652
2547 -1366.399874240369
2548 -1366.278861909019
2549 -1366.40632042303
2550 -1366.276210719669
2551 -1366.403773649275
2552 -1366.278749953537
2553 -1366.412900609734
2554 -1366.271930971508
2555 -1366.403886652549
2556 -1366.266020145383
2557 -1366.399306859656
2558 -1366.261142919773
2559 -1366.393295540868
2560 -1366.25503061789
2561 -1366.397422653374
2562 -1366.25249379663
2563 -1366.386630545418
2564 -1366.25908652561
2565 -1366.398826974283
2566 -1366.25627591729
2567 -1366.386919748715
2568 -1366.261676317996
2569 -1366.392049821959
2570 -1366.256878282878
2571 -1366.386445106084
2572 -1366.252920851807
2573 -1366.387806922301
2574 -1366.255980690294
2575 -1366.389485206004
2576 -1366.263913870916
2577 -1366.391549754143
2578 -1366.269935124841
2579 -1366.396647199299
2580 -1366.269026446715
2581 -1366.391705887814
2582 -1366.268801581956
2583 -1366.392982575143
2584 -1366.266534102991
2585 -1366.384705928047
2586 -1366.258504728126
2587 -1366.383010861755
2588 -1366.254068710143
2589 -1366.374351860798
2590 -1366.249928458155
2591 -1366.379773722175
2592 -1366.256028122626
2593 -1366.385597224097
2594 -1366.253854901523
2595 -1366.38989658401
2596 -1366.260222390745
2597 -1366.390609895991
2598 -1366.26072718421
2599 -1366.396539936752
2600 -1366.267894761764
2601 -1366.397055477742
2602 -1366.267108273312
2603 -1366.395125298072
2604 -1366.264429335785
2605 -1366.390120792624
2606 -1366.260995578682
2607 -1366.389234407541
2608 -1366.261827030103
2609 -1366.383195028571
2610 -1366.265363965696
2611 -1366.392335801889
2612 -1366.269785000968
2613 -1366.397324566508
2614 -1366.275988636608
2615 -1366.409800405466
2616 -1366.280445396623
2617 -1366.405772106616
2618 -1366.273691556773
2619 -1366.39954058065
2620 -1366.279448171983
2621 -1366.390613454207
2622 -1366.267749343637
2623 -1366.39040058256
2624 -1366.270237506413
2625 -1366.387991601022
2626 -1366.257932309243
2627 -1366.379781872771
2628 -1366.257717404311
2629 -1366.380710962274
2630 -1366.263160729038
2631 -1366.380259625065
2632 -1366.26245460598
2633 -1366.375768280588
2634 -1366.256917667614
2635 -1366.383484041665
2636 -1366.262675070837
2637 -1366.380061743939
2638 -1366.256764062812
2639 -1366.380080919894
2640 -1366.263315122644
2641 -1366.386082188297
2642 -1366.260603082171
2643 -1366.387784636454
2644 -1366.255399448743
2645 -1366.382866119763
2646 -1366.25464093251
2647 -1366.384387197594
2648 -1366.254031075349
2649 -1366.388830144115
2650 -1366.257028355109
2651 -1366.395326263905
2652 -1366.257953312506
2653 -1366.400212390204
2654 -1366.259721913575
2655 -1366.398553853542
2656 -1366.262413767364
2657 -1366.394607986745
2658 -1366.261179488098
2659 -1366.394370536545
2660 -1366.264727877332
2661 -1366.394195194739
2662 -1366.262146820686
2663 -1366.384199286354
2664 -1366.259643152411
2665 -1366.384895084212
2666 -1366.252732315261
2667 -1366.376136596524
2668 -1366.256374517732
2669 -1366.375902278233
2670 -1366.261893668513
2671 -1366.37701381534
2672 -1366.263176780959
2673 -1366.391797255808
2674 -1366.268558362064
2675 -1366.384167037544
2676 -1366.2650253163
2677 -1366.392567544316
2678 -1366.271058525447
2679 -1366.391187640167
2680 -1366.272480906962
2681 -1366.395948514781
2682 -1366.270631412403
2683 -1366.394814967462
2684 -1366.264265565388
2685 -1366.395853220992
2686 -1366.263396087181
2687 -1366.387683460793
2688 -1366.250487882628
2689 -1366.38598396954
2690 -1366.255275516617
2691 -1366.382130128694
2692 -1366.25182867157
2693 -1366.386965839791
2694 -1366.249254346451
2695 -1366.38109505512
2696 -1366.249001085938
2697 -1366.38401547823
2698 -1366.245865262894
2699 -1366.375798192062
2700 -1366.238700624636
2701 -1366.384685491021
2702 -1366.247158237982
2703 -1366.378377730763
2704 -1366.243028794763
2705 -1366.3820208485
2706 -1366.2522871913
2707 -1366.38213958298
2708 -1366.251510607472
2709 -1366.385153947583
2710 -1366.264325098274
2711 -1366.388767291068
2712 -1366.263619836109
2713 -1366.389557843578
2714 -1366.257740609967
2715 -1366.381180586464
2716 -1366.250360065845
2717 -1366.37556050447
2718 -1366.253720504158
2719 -1366.373373927317
2720 -1366.251826162315
2721 -1366.37628708865
2722 -1366.25617553328
2723 -1366.389219131264
2724 -1366.258377547485
2725 -1366.386812480425
2726 -1366.265966092735
2727 -1366.384902556325
2728 -1366.257439610075
2729 -1366.380115613964
2730 -1366.25667572007
2731 -1366.383772560414
2732 -1366.261695969862
2733 -1366.379988601941
2734 -1366.251117760366
2735 -1366.38154658753
2736 -1366.256248096491
2737 -1366.382092748519
2738 -1366.251507410541
2739 -1366.377601248617
2740 -1366.255442040699
2741 -1366.382202291519
2742 -1366.255906507126
2743 -1366.381678663222
2744 -1366.25603655999
2745 -1366.384390961446
2746 -1366.254443418994
2747 -1366.380825884925
2748 -1366.244416404764
2749 -1366.379720715644
2750 -1366.248167438081
2751 -1366.383510980666
2752 -1366.247054675941
2753 -1366.387415789117
2754 -1366.249900189724
2755 -1366.389926462975
2756 -1366.248075472499
2757 -1366.386949095282
2758 -1366.24618779068
2759 -1366.388432178344
2760 -1366.256800629907
2761 -1366.399693215428
2762 -1366.261453195417
2763 -1366.393424195244
2764 -1366.262135854249
2765 -1366.393489291455
2766 -1366.253175747925
2767 -1366.388995560815
2768 -1366.24856145765
2769 -1366.38566642249
2770 -1366.253172377877
2771 -1366.38652702589
2772 -1366.249279615084
2773 -1366.388284484233
2774 -1366.251641392969
2775 -1366.38953465504
2776 -1366.257941466647
2777 -1366.389147906397
2778 -1366.248732297594
2779 -1366.378299094786
2780 -1366.252174572573
2781 -1366.380249538621
2782 -1366.253279389744
2783 -1366.381088465241
2784 -1366.253729127898
2785 -1366.388003395283
2786 -1366.260121123395
2787 -1366.381650239008
2788 -1366.257011825135
2789 -1366.385021517642
2790 -1366.257400233734
2791 -1366.376175130404
2792 -1366.253301563588
2793 -1366.380803523772
2794 -1366.254755326445
2795 -1366.383130464164
2796 -1366.252109368525
2797 -1366.388388186228
2798 -1366.25921239134
2799 -1366.390320750454
2800 -1366.266941445842
2801 -1366.398553130818
2802 -1366.266324570194
2803 -1366.399376728819
2804 -1366.268412331547
2805 -1366.403144188895
2806 -1366.269703591556
2807 -1366.396063102431
2808 -1366.257388432279
2809 -1366.396875312802
2810 -1366.258595304593
2811 -1366.384806630259
2812 -1366.242404262962
2813 -1366.385166559003
2814 -1366.238148253835
2815 -1366.373290130698
2816 -1366.236663554564
2817 -1366.376759200412
2818 -1366.237185604693
2819 -1366.377901599717
2820 -1366.23930032025
2821 -1366.385532096117
2822 -1366.252059247884
2823 -1366.392928965848
2824 -1366.254118139048
2825 -1366.404421806531
2826 -1366.264241248905
2827 -1366.40185639655
2828 -1366.266106123538
2829 -1366.406122400992
2830 -1366.265882038318
2831 -1366.391482210805
2832 -1366.259594206685
2833 -1366.390283828041
2834 -1366.252899232691
2835 -1366.38153207797
2836 -1366.250325689365
2837 -1366.387012092819
2838 -1366.269037206649
2839 -1366.388723394568
2840 -1366.26234254141
2841 -1366.388690543142
2842 -1366.26403691256
2843 -1366.389545560337
2844 -1366.263218855594
2845 -1366.387611768468
2846 -1366.26274309162
2847 -1366.385907372644
2848 -1366.257744001671
2849 -1366.376948970009
2850 -1366.252907599655
2851 -1366.375205064151
2852 -1366.260993749385
2853 -1366.382564455497
2854 -1366.258685901261
2855 -1366.384545311065
2856 -1366.262925838549
2857 -1366.39128853013
2858 -1366.270443013033
2859 -1366.389657680023
2860 -1366.26404637616
2861 -1366.391224712271
2862 -1366.267569215778
2863 -1366.390947095122
2864 -1366.26240707137
2865 -1366.392472365805
2866 -1366.260096926044
2867 -1366.390693841617
2868 -1366.263687503779
2869 -1366.39937745488
2870 -1366.266186343182
2871 -1366.403487196079
2872 -1366.27031964676
2873 -1366.403217395733
2874 -1366.267722781039
2875 -1366.40144041121
2876 -1366.265967980234
2877 -1366.396460953505
2878 -1366.264366791342
2879 -1366.392773408289
2880 -1366.257878083071
2881 -1366.387027709173
2882 -1366.259361704801
2883 -1366.38297820236
2884 -1366.254244746268
2885 -1366.378590144005
2886 -1366.257414940293
2887 -1366.372605226177
2888 -1366.250880393355
2889 -1366.376169759616
2890 -1366.25992216094
2891 -1366.374432371964
2892 -1366.259449444361
2893 -1366.383366303949
2894 -1366.263831766118
2895 -1366.383187532249
2896 -1366.268740687262
2897 -1366.383161397348
2898 -1366.265723313083
2899 -1366.380525765144
2900 -1366.267100972448
2901 -1366.386244806699
2902 -1366.266471790407
2903 -1366.379110171516
2904 -1366.265884027689
2905 -1366.384640854736
2906 -1366.266291311932
2907 -1366.383209548138
2908 -1366.266198603245
2909 -1366.383289187208
2910 -1366.268645362796
2911 -1366.38548180771
2912 -1366.271324756754
2913 -1366.391461352542
2914 -1366.265508014908
2915 -1366.38914225468
2916 -1366.262614045027
2917 -1366.395260205822
2918 -1366.264759875201
2919 -1366.386923049627
2920 -1366.25878126619
2921 -1366.400542053758
2922 -1366.26542114738
2923 -1366.397542112919
2924 -1366.267436917817
2925 -1366.398493986821
2926 -1366.25693010862
2927 -1366.387839846486
2928 -1366.248128195275
2929 -1366.386668627698
2930 -1366.251348816462
2931 -1366.382230387146
2932 -1366.248430056366
2933 -1366.38875036144
2934 -1366.256875590313
2935 -1366.385450623548
2936 -1366.262137827005
2937 -1366.390541181179
2938 -1366.265239297883
2939 -1366.383225852355
2940 -1366.259503377682
2941 -1366.384489253077
2942 -1366.26914607189
2943 -1366.386369291306
2944 -1366.262886216284
2945 -1366.389074926242
2946 -1366.265645697654
2947 -1366.381464498538
2948 -1366.262728083199
2949 -1366.385477288624
2950 -1366.265117842965
2951 -1366.381982282407
2952 -1366.27079132756
2953 -1366.395195907304
2954 -1366.27499140219
2955 -1366.396100845951
2956 -1366.26926826442
2957 -1366.390602082497
2958 -1366.270755228626
2959 -1366.383663337935
2960 -1366.264165935214
2961 -1366.389201338815
2962 -1366.264566595306
2963 -1366.389304805316
2964 -1366.262865550151
2965 -1366.391669538501
2966 -1366.263145161578
2967 -1366.379152029409
2968 -1366.259775453735
2969 -1366.387149828418
2970 -1366.261320102423
2971 -1366.381703506167
2972 -1366.266299016427
2973 -1366.389493029639
2974 -1366.259595832619
2975 -1366.389416284201
2976 -1366.258014636628
2977 -1366.391466769617
2978 -1366.250525722895
2979 -1366.382463294974
2980 -1366.25178683807
2981 -1366.38969669383
2982 -1366.256905536573
2983 -1366.392282661901
2984 -1366.259601057428
2985 -1366.40117331117
2986 -1366.261766980989
2987 -1366.402366996573
2988 -1366.263743789981
2989 -1366.401030174655
2990 -1366.263310775724
2991 -1366.398565423201
2992 -1366.260452821019
2993 -1366.396471986209
2994 -1366.267801585735
2995 -1366.399944969888
2996 -1366.269048948936
2997 -1366.393895771473
2998 -1366.271588190626
2999 -1366.390869306186
3000 -1366.270473067225
3001 -1366.388880853995
3002 -1366.280329998692
3003 -1366.399696851117
3004 -1366.275785582618
3005 -1366.390749482112
3006 -1366.274661133193
3007 -1366.39165981323
3008 -1366.275629353567
3009 -1366.384783897557
3010 -1366.266374332148
3011 -1366.384957854922
3012 -1366.263617449815
3013 -1366.383556209916
3014 -1366.269386303552
3015 -1366.389963332368
3016 -1366.263261088364
3017 -1366.386445984193
3018 -1366.265985410675
3019 -1366.386873201689
3020 -1366.259305816403
3021 -1366.382228391763
3022 -1366.260486834322
3023 -1366.391256338084
3024 -1366.260558548512
3025 -1366.383996316526
3026 -1366.258321646892
3027 -1366.383528179701
3028 -1366.255828279392
3029 -1366.378919000432
3030 -1366.254292866632
3031 -1366.385548570274
3032 -1366.260393375629
3033 -1366.391911381929
3034 -1366.266135450828
3035 -1366.39755532614
3036 -1366.272379474861
3037 -1366.399517980008
3038 -1366.277998486161
3039 -1366.397754226277
3040 -1366.265413170665
3041 -1366.397645619703
3042 -1366.267116075191
3043 -1366.390455259482
3044 -1366.261445913514
3045 -1366.396397606291
3046 -1366.264740258369
3047 -1366.393285230968
3048 -1366.264398026635
3049 -1366.394904028724
3050 -1366.265905081834
3051 -1366.390628447013
3052 -1366.263403253897
3053 -1366.392341385666
3054 -1366.258285923238
3055 -1366.390229766421
3056 -1366.256637399575
3057 -1366.386394528423
3058 -1366.257657947738
3059 -1366.382163489781
3060 -1366.249753382769
3061 -1366.382227850706
3062 -1366.24920293469
3063 -1366.369330848454
3064 -1366.243725455096
3065 -1366.372008135193
3066 -1366.242751251272
3067 -1366.370194034809
3068 -1366.251702991517
3069 -1366.376437236389
3070 -1366.255475981248
3071 -1366.377323914492
3072 -1366.257706218511
3073 -1366.378518402036
3074 -1366.258899549538
3075 -1366.376313916459
3076 -1366.258305685968
3077 -1366.3787955053
3078 -1366.264120271776
3079 -1366.381915154527
3080 -1366.269560164079
3081 -1366.391767989229
3082 -1366.272467679527
3083 -1366.389771268257
3084 -1366.266903313663
3085 -1366.386837341238
3086 -1366.254894671512
3087 -1366.377532681542
3088 -1366.243854361421
3089 -1366.372792002405
3090 -1366.250051937691
3091 -1366.369039122343
3092 -1366.247636732684
3093 -1366.376431163
3094 -1366.250262982452
3095 -1366.378836861545
3096 -1366.251712685045
3097 -1366.385894441013
3098 -1366.25923148957
3099 -1366.38274457754
3100 -1366.262297210658
3101 -1366.385977740706
3102 -1366.262760342107
3103 -1366.383760753101
3104 -1366.268434046643
3105 -1366.384463131538
3106 -1366.265451058096
3107 -1366.383907517521
3108 -1366.258691171504
3109 -1366.38173969342
3110 -1366.264732017591
3111 -1366.383504884348
3112 -1366.260388484288
3113 -1366.387112451889
3114 -1366.258497022471
3115 -1366.386242946669
3116 -1366.254199873415
3117 -1366.382270671598
3118 -1366.257966641105
3119 -1366.381121769881
3120 -1366.264716022887
3121 -1366.383568439798
3122 -1366.258219992573
3123 -1366.379271527452
3124 -1366.254397138971
3125 -1366.376066612412
3126 -1366.259706936574
3127 -1366.383207526394
3128 -1366.255648455847
3129 -1366.386062673431
3130 -1366.264930759802
3131 -1366.39662107549
3132 -1366.267153361358
3133 -1366.399305322321
3134 -1366.270962866305
3135 -1366.40175441149
3136 -1366.272971351692
3137 -1366.396391191005
3138 -1366.269861094457
3139 -1366.393414621848
3140 -1366.270784724365
3141 -1366.396477744019
3142 -1366.258563820929
3143 -1366.397029956556
3144 -1366.260825740446
3145 -1366.399301246341
3146 -1366.261168005486
3147 -1366.396500058898
3148 -1366.257182698015
3149 -1366.39499598618
3150 -1366.257830135494
3151 -1366.392728116067
3152 -1366.25583259598
3153 -1366.393905677808
3154 -1366.251247776583
3155 -1366.39840893558
3156 -1366.255204119716
3157 -1366.393959035148
3158 -1366.258230197646
3159 -1366.397783114125
3160 -1366.265997335705
3161 -1366.394412192286
3162 -1366.259769201798
3163 -1366.392079031422
3164 -1366.264267270049
3165 -1366.394451045464
3166 -1366.27077683926
3167 -1366.398782396779
3168 -1366.269765758694
3169 -1366.38970769506
3170 -1366.266618701593
3171 -1366.384136738865
3172 -1366.262631958433
3173 -1366.383421925016
3174 -1366.264532441617
3175 -1366.388732298988
3176 -1366.268824284379
3177 -1366.390861249406
3178 -1366.266377111558
3179 -1366.385407750455
3180 -1366.259749736822
3181 -1366.386723221978
3182 -1366.269717183516
3183 -1366.386213913625
3184 -1366.269101013124
3185 -1366.39368614514
3186 -1366.267287933395
3187 -1366.391134527441
3188 -1366.265237101702
3189 -1366.396419077871
3190 -1366.273575482153
3191 -1366.399498611697
3192 -1366.270305376668
3193 -1366.401316488992
3194 -1366.269234828059
3195 -1366.393396155137
3196 -1366.27034071213
3197 -1366.396139811163
3198 -1366.269406349147
3199 -1366.394084543664
3200 -1366.272435649813
3201 -1366.396922024744
3202 -1366.271140082092
3203 -1366.391306000087
3204 -1366.263439770149
3205 -1366.396376465183
3206 -1366.273642291415
3207 -1366.39912884525
3208 -1366.270988597395
3209 -1366.400464020753
3210 -1366.272145686909
3211 -1366.398075570085
3212 -1366.274244314189
3213 -1366.406075122907
3214 -1366.277239777923
3215 -1366.402248755658
3216 -1366.27142290494
3217 -1366.402534568913
3218 -1366.272967349891
3219 -1366.395126863326
3220 -1366.265171204785
3221 -1366.392828109128
3222 -1366.265875621473
3223 -1366.387870226722
3224 -1366.256432367145
3225 -1366.392257730252
3226 -1366.254087395117
3227 -1366.38750839426
3228 -1366.252195797275
3229 -1366.396676641647
3230 -1366.26359438435
3231 -1366.398506271555
3232 -1366.269197202999
3233 -1366.410387563443
3234 -1366.275739703289
3235 -1366.40598362617
3236 -1366.274223812867
3237 -1366.40453315372
3238 -1366.283645728668
3239 -1366.404642324608
3240 -1366.273074985157
3241 -1366.39908042758
3242 -1366.275426038552
3243 -1366.399901916863
3244 -1366.266750955592
3245 -1366.39418852727
3246 -1366.264527330335
3247 -1366.38813133495
3248 -1366.26022393039
3249 -1366.386523590555
3250 -1366.25591645809
3251 -1366.3832895917
3252 -1366.249021648372
3253 -1366.375419665517
3254 -1366.248281206344
3255 -1366.380693597214
3256 -1366.247590204202
3257 -1366.378181127633
3258 -1366.257885924492
3259 -1366.384189050296
3260 -1366.270071539032
3261 -1366.388645651726
3262 -1366.277219060607
3263 -1366.396185416292
3264 -1366.277694817602
3265 -1366.393746218997
3266 -1366.278637533535
3267 -1366.394717952603
3268 -1366.272621019721
3269 -1366.387641298279
3270 -1366.27274054969
3271 -1366.38891030081
3272 -1366.267014630027
3273 -1366.385750934588
3274 -1366.266211077286
3275 -1366.39432010922
3276 -1366.265524184437
3277 -1366.395572730617
3278 -1366.267607824791
3279 -1366.390346546127
3280 -1366.267185378166
3281 -1366.395482143452
3282 -1366.261747493918
3283 -1366.389132884299
3284 -1366.255679355861
3285 -1366.389229180606
3286 -1366.265414834721
3287 -1366.391259188154
3288 -1366.264124373861
3289 -1366.388643670524
3290 -1366.270370618641
3291 -1366.396978549329
3292 -1366.269235844532
3293 -1366.397847317381
3294 -1366.27452617333
3295 -1366.400184945759
3296 -1366.276655372384
3297 -1366.397001441545
3298 -1366.273354783741
3299 -1366.3981806672
3300 -1366.276955750776
3301 -1366.397481506101
3302 -1366.279325956074
3303 -1366.393395995506
3304 -1366.276357024659
3305 -1366.389446240487
3306 -1366.278673194514
3307 -1366.385790674524
3308 -1366.275966983712
3309 -1366.39015185098
3310 -1366.281729779541
3311 -1366.394425381054
3312 -1366.280838426361
3313 -1366.392932790504
3314 -1366.276146114598
3315 -1366.389352447992
3316 -1366.271543848714
3317 -1366.384421033472
3318 -1366.266131215634
3319 -1366.379971311515
3320 -1366.263242714115
3321 -1366.387115097144
3322 -1366.265681118882
3323 -1366.387740466146
3324 -1366.262646514363
3325 -1366.397060004379
3326 -1366.275364842747
3327 -1366.40494090144
3328 -1366.27763218365
3329 -1366.411372375946
3330 -1366.28674307583
3331 -1366.411457315423
3332 -1366.286082423188
3333 -1366.409263808305
3334 -1366.277618573684
3335 -1366.403706261859
3336 -1366.271269705938
3337 -1366.399651253758
3338 -1366.272753546013
3339 -1366.397783210475
3340 -1366.265191812307
3341 -1366.399270645835
3342 -1366.261912089283
3343 -1366.39062413621
3344 -1366.26425898049
3345 -1366.397598348231
3346 -1366.258280991742
3347 -1366.386309235394
3348 -1366.257775815113
3349 -1366.384113585259
3350 -1366.2547860825
3351 -1366.378544979217
3352 -1366.251215862419
3353 -1366.381023844004
3354 -1366.251667107896
3355 -1366.383186602913
3356 -1366.25651522509
3357 -1366.389754611857
3358 -1366.264321882965
3359 -1366.390901224166
3360 -1366.26228731954
3361 -1366.389873038893
3362 -1366.263134182021
3363 -1366.383980019031
3364 -1366.259610279909
3365 -1366.383909585498
3366 -1366.256700296964
3367 -1366.382592264853
3368 -1366.266923705525
3369 -1366.393831577418
3370 -1366.267839044591
3371 -1366.393573030916
3372 -1366.273079356104
3373 -1366.398934832835
3374 -1366.266617645882
3375 -1366.396385389306
3376 -1366.265936843942
3377 -1366.394481943241
3378 -1366.268910039176
3379 -1366.39493690299
3380 -1366.264482087551
3381 -1366.3951846632
3382 -1366.260937350096
3383 -1366.394627365426
3384 -1366.265557192749
3385 -1366.395022589528
3386 -1366.260538300877
3387 -1366.386232918293
3388 -1366.250965744526
3389 -1366.381493985358
3390 -1366.249605255953
3391 -1366.386624691498
3392 -1366.246804175794
3393 -1366.383906800449
3394 -1366.246640219519
3395 -1366.386700879657
3396 -1366.249120926379
3397 -1366.383652935603
3398 -1366.255647240383
3399 -1366.388476118183
3400 -1366.253064871676
3401 -1366.3857557694
3402 -1366.257056773152
3403 -1366.38780231749
3404 -1366.259662101003
3405 -1366.387487530553
3406 -1366.258612967398
3407 -1366.385573793303
3408 -1366.262218862905
3409 -1366.383435630431
3410 -1366.261581857664
3411 -1366.383730728939
3412 -1366.268553438917
3413 -1366.391669282036
3414 -1366.265960003141
3415 -1366.391584822318
3416 -1366.267892721338
3417 -1366.390278854556
3418 -1366.262821002593
3419 -1366.386415058194
3420 -1366.257557593522
3421 -1366.385165110009
3422 -1366.259964223662
3423 -1366.383920740916
3424 -1366.258734548378
3425 -1366.386591784716
3426 -1366.260456981978
3427 -1366.386670669436
3428 -1366.256241965092
3429 -1366.378952735317
3430 -1366.250945562744
3431 -1366.377192148554
3432 -1366.251775877485
3433 -1366.372170660145
3434 -1366.242194418658
3435 -1366.37227332785
3436 -1366.244159727135
3437 -1366.366132116975
3438 -1366.241805463049
3439 -1366.363922202777
3440 -1366.241429970082
3441 -1366.367626902331
3442 -1366.249760751258
3443 -1366.37436837145
3444 -1366.249893582197
3445 -1366.375492051646
3446 -1366.252990527836
3447 -1366.380336294789
3448 -1366.25527325203
3449 -1366.382299951261
3450 -1366.257376487181
3451 -1366.384202908992
3452 -1366.266297242069
3453 -1366.399681605786
3454 -1366.275037215895
3455 -1366.405857032337
3456 -1366.285765656484
3457 -1366.40607536424
3458 -1366.283664585762
3459 -1366.40301621182
3460 -1366.280000260332
3461 -1366.40279661087
3462 -1366.282857987818
3463 -1366.395442557962
3464 -1366.268680557514
3465 -1366.390014403721
3466 -1366.264585950453
3467 -1366.385219645959
3468 -1366.263843828166
3469 -1366.390323586414
3470 -1366.26413578875
3471 -1366.381362276052
3472 -1366.261896534945
3473 -1366.385128364558
3474 -1366.260267418107
3475 -1366.3831617131
3476 -1366.258198876182
3477 -1366.379929221839
3478 -1366.25644270605
3479 -1366.374972317993
3480 -1366.245557537551
3481 -1366.379601822415
3482 -1366.252266132347
3483 -1366.379345670306
3484 -1366.248820807003
3485 -1366.38457507422
3486 -1366.255312965461
3487 -1366.384657178663
3488 -1366.25452247265
3489 -1366.391673405652
3490 -1366.263275842905
3491 -1366.386596188671
3492 -1366.267151785674
3493 -1366.396416284233
3494 -1366.269391293189
3495 -1366.39267359505
3496 -1366.268323174949
3497 -1366.39055747855
3498 -1366.279694468582
3499 -1366.393811345238
3500 -1366.272907216686
3501 -1366.396723808592
3502 -1366.279554711384
3503 -1366.401562592553
3504 -1366.274342131916
3505 -1366.39270207921
3506 -1366.268622758232
3507 -1366.388385640401
3508 -1366.267541552521
3509 -1366.383397596478
3510 -1366.268336520898
3511 -1366.384704639889
3512 -1366.266275526187
3513 -1366.382455654752
3514 -1366.266789226868
3515 -1366.384701805517
3516 -1366.265957112766
3517 -1366.383372700045
3518 -1366.26818378541
3519 -1366.389917156704
3520 -1366.274178629109
3521 -1366.386259715422
3522 -1366.26796486996
3523 -1366.386802702102
3524 -1366.268151068702
3525 -1366.386140718069
3526 -1366.259738911721
3527 -1366.37998388714
3528 -1366.257016864256
3529 -1366.382657536376
3530 -1366.263648381488
3531 -1366.391838979466
3532 -1366.267835934323
3533 -1366.394589607575
3534 -1366.2642617509
3535 -1366.400919959617
3536 -1366.267774831999
3537 -1366.399243687991
3538 -1366.269026526941
3539 -1366.403156523592
3540 -1366.267466646253
3541 -1366.402424216328
3542 -1366.258293449864
3543 -1366.399068802185
3544 -1366.258777153196
3545 -1366.386176649201
3546 -1366.256576573855
3547 -1366.385283863326
3548 -1366.250725575941
3549 -1366.384566483256
3550 -1366.255150848545
3551 -1366.395467761045
3552 -1366.261187986921
3553 -1366.404035285372
3554 -1366.262394006873
3555 -1366.404845279067
3556 -1366.269065712944
3557 -1366.401755538205
3558 -1366.265419710665
3559 -1366.399992396768
3560 -1366.263546831131
3561 -1366.3982421479
3562 -1366.263457471216
3563 -1366.394252088624
3564 -1366.255432482925
3565 -1366.389807951282
3566 -1366.25800577314
3567 -1366.383608636795
3568 -1366.249376340427
3569 -1366.383087525376
3570 -1366.259314511186
3571 -1366.378650876798
3572 -1366.255955011524
3573 -1366.386169839561
3574 -1366.261271258717
3575 -1366.386001278656
3576 -1366.259305457732
3577 -1366.382761127001
3578 -1366.264463067243
3579 -1366.384097967025
3580 -1366.260258636816
3581 -1366.392150152813
3582 -1366.27089737257
3583 -1366.392946999925
3584 -1366.261428625393
3585 -1366.395401096962
3586 -1366.266778821461
3587 -1366.392865394154
3588 -1366.254174289226
3589 -1366.385502072565
3590 -1366.24992618135
3591 -1366.375968304503
3592 -1366.247486183545
3593 -1366.378407254793
3594 -1366.249023454723
3595 -1366.383012183755
3596 -1366.25521520497
3597 -1366.392668953289
3598 -1366.266151952022
3599 -1366.398530161838
3600 -1366.266277809255
3601 -1366.405039486292
3602 -1366.274165880746
3603 -1366.401625190054
3604 -1366.273480815387
3605 -1366.405391807825
3606 -1366.266398565679
3607 -1366.395267745704
3608 -1366.26421665502
3609 -1366.393956776126
3610 -1366.25927800478
3611 -1366.382238748671
3612 -1366.246958512113
3613 -1366.377003770041
3614 -1366.240519126839
3615 -1366.370416251494
3616 -1366.245343510886
3617 -1366.372816986924
3618 -1366.252056640494
3619 -1366.373568977549
3620 -1366.252169301605
3621 -1366.382827183948
3622 -1366.261091654443
3623 -1366.380060607167
3624 -1366.262635404413
3625 -1366.386525047079
3626 -1366.266442700417
3627 -1366.381249211742
3628 -1366.27032354526
3629 -1366.393296055313
3630 -1366.276514317682
3631 -1366.394489594862
3632 -1366.277343918496
3633 -1366.397115440536
3634 -1366.278055807189
3635 -1366.397639428452
3636 -1366.270520104469
3637 -1366.390658692674
3638 -1366.274268438883
3639 -1366.392119525464
3640 -1366.262996766599
3641 -1366.382658946937
3642 -1366.260212893358
3643 -1366.380202645689
3644 -1366.260134031571
3645 -1366.389581481379
3646 -1366.256375241326
3647 -1366.390281577614
3648 -1366.261432997999
3649 -1366.391229697491
3650 -1366.262977965753
3651 -1366.395419792145
3652 -1366.263453429691
3653 -1366.392985660706
3654 -1366.260127006476
3655 -1366.400454240833
3656 -1366.26018405721
3657 -1366.387481221896
3658 -1366.265462694786
3659 -1366.386433955811
3660 -1366.259096807504
3661 -1366.386439740084
3662 -1366.266162859657
3663 -1366.386796683776
3664 -1366.266951671292
3665 -1366.382868830241
3666 -1366.268139783184
3667 -1366.381090223744
3668 -1366.274140766745
3669 -1366.385492402148
3670 -1366.276379277156
3671 -1366.389010896887
3672 -1366.273624909517
3673 -1366.387399129198
3674 -1366.269298006822
3675 -1366.385845048562
3676 -1366.27158323051
3677 -1366.380172740477
3678 -1366.269686951387
3679 -1366.378327673669
3680 -1366.268174000679
3681 -1366.381292483468
3682 -1366.270334876279
3683 -1366.383063212826
3684 -1366.266269286087
3685 -1366.386309634796
3686 -1366.270435017047
3687 -1366.388294786555
3688 -1366.266626230034
3689 -1366.384605000301
3690 -1366.260572267504
3691 -1366.388989098826
3692 -1366.266172036872
3693 -1366.389630345398
3694 -1366.266113320677
3695 -1366.397728675629
3696 -1366.263524575987
3697 -1366.393349497355
3698 -1366.270010591949
3699 -1366.389328305178
3700 -1366.258535362638
3701 -1366.385694899758
3702 -1366.254579407581
3703 -1366.378574353577
3704 -1366.242019226535
3705 -1366.378180455381
3706 -1366.246793181181
3707 -1366.377897662087
3708 -1366.246021080512
3709 -1366.383717645356
3710 -1366.254315476051
3711 -1366.392215319477
3712 -1366.266648848594
3713 -1366.40874825971
3714 -1366.276186979761
3715 -1366.40803263198
3716 -1366.279584796149
3717 -1366.406847788149
3718 -1366.281915100204
3719 -1366.403755692487
3720 -1366.271749585265
3721 -1366.400987800421
3722 -1366.272740312545
3723 -1366.397018896678
3724 -1366.267012336994
3725 -1366.400524846683
3726 -1366.271580249443
3727 -1366.389943921257
3728 -1366.270989098002
3729 -1366.396305520969
3730 -1366.274328793698
3731 -1366.39146016671
3732 -1366.277921302409
3733 -1366.399883124782
3734 -1366.283322404389
3735 -1366.403320344182
3736 -1366.275417573202
3737 -1366.40024213922
3738 -1366.275426293284
3739 -1366.390429739043
3740 -1366.26323606256
3741 -1366.390777633035
3742 -1366.264736612152
3743 -1366.392309468837
3744 -1366.262028849679
3745 -1366.388803748565
3746 -1366.262862225264
3747 -1366.385435280352
3748 -1366.25319145174
3749 -1366.389577139782
3750 -1366.261783916015
3751 -1366.382707171765
3752 -1366.259607982366
3753 -1366.390704551123
3754 -1366.261456084671
3755 -1366.383602224934
3756 -1366.263075208901
3757 -1366.390426749006
3758 -1366.271635520606
3759 -1366.38955020205
3760 -1366.275353357791
3761 -1366.407183890486
3762 -1366.285739500591
3763 -1366.407992593096
3764 -1366.28243844043
3765 -1366.413994125091
3766 -1366.287831208925
3767 -1366.410790844028
3768 -1366.274759059332
3769 -1366.400803283055
3770 -1366.268252468776
3771 -1366.391315481976
3772 -1366.264659264926
3773 -1366.391203510053
3774 -1366.263518685082
3775 -1366.395931566128
3776 -1366.267408858791
3777 -1366.396560709538
3778 -1366.273632521502
3779 -1366.396897726946
3780 -1366.273630094973
3781 -1366.402843563785
3782 -1366.288300549971
3783 -1366.407437786386
3784 -1366.280561407346
3785 -1366.398581814935
3786 -1366.267964407575
3787 -1366.391154357451
3788 -1366.267095470623
3789 -1366.38701249915
3790 -1366.264164216722
3791 -1366.391410604887
3792 -1366.27062991727
3793 -1366.392024169461
3794 -1366.260407269059
3795 -1366.394879838157
3796 -1366.262250490334
3797 -1366.387873722478
3798 -1366.260375211605
3799 -1366.386119420333
3800 -1366.258989169903
3801 -1366.388053258948
3802 -1366.261228737244
3803 -1366.389868504338
3804 -1366.259560841722
3805 -1366.389151135741
3806 -1366.263427058834
3807 -1366.39588225074
3808 -1366.265325818021
3809 -1366.397777751284
3810 -1366.268965146094
3811 -1366.395590544714
3812 -1366.273580872354
3813 -1366.399969515817
3814 -1366.264233809607
3815 -1366.402158487423
3816 -1366.263239241895
3817 -1366.395182825757
3818 -1366.25799637662
3819 -1366.394192027197
3820 -1366.256909730521
3821 -1366.392797315619
3822 -1366.25992345991
3823 -1366.403649849368
3824 -1366.263105267259
3825 -1366.3994338276
3826 -1366.254730625995
3827 -1366.400006612358
3828 -1366.261866011534
3829 -1366.396995503807
3830 -1366.264537641111
3831 -1366.398377316754
3832 -1366.268217145298
3833 -1366.394674325365
3834 -1366.256522500006
3835 -1366.384391932611
3836 -1366.253529969022
3837 -1366.378621872977
3838 -1366.254392595868
3839 -1366.375938834306
3840 -1366.2566277022
3841 -1366.38481492502
3842 -1366.263135392939
3843 -1366.387267744207
3844 -1366.26460127721
3845 -1366.390323014128
3846 -1366.272833557784
3847 -1366.391781430588
3848 -1366.269298881774
3849 -1366.391316585479
3850 -1366.273143690027
3851 -1366.388918509025
3852 -1366.276295509835
3853 -1366.392839966735
3854 -1366.277872895583
3855 -1366.39737624342
3856 -1366.273507761872
3857 -1366.39093536749
3858 -1366.278783912641
3859 -1366.390884327261
3860 -1366.271959714307
3861 -1366.392269912713
3862 -1366.270165590004
3863 -1366.387281379916
3864 -1366.26741156211
3865 -1366.387774281712
3866 -1366.265438660033
3867 -1366.38699198503
3868 -1366.260786663733
3869 -1366.37893688733
3870 -1366.262967462571
3871 -1366.387478784521
3872 -1366.259111986288
3873 -1366.386960779849
3874 -1366.262476179515
3875 -1366.38588861584
3876 -1366.256449408351
3877 -1366.379275014795
3878 -1366.26440376529
3879 -1366.382063195263
3880 -1366.257864854537
3881 -1366.380657845086
3882 -1366.26384010121
3883 -1366.381378197545
3884 -1366.266562475506
3885 -1366.378381988471
3886 -1366.258473765823
3887 -1366.365464873373
3888 -1366.251302033484
3889 -1366.369901617617
3890 -1366.255844529895
3891 -1366.370855900291
3892 -1366.256179219002
3893 -1366.375654069126
3894 -1366.262188300853
3895 -1366.380503604892
3896 -1366.261727432749
3897 -1366.382688445171
3898 -1366.268934574518
3899 -1366.388376384393
3900 -1366.266770378393
3901 -1366.379878620867
3902 -1366.265338551084
3903 -1366.387992464916
3904 -1366.265018785313
3905 -1366.386984125908
3906 -1366.261554761153
3907 -1366.384682215457
3908 -1366.258636218177
3909 -1366.388969679446
3910 -1366.267271394307
3911 -1366.402369927578
3912 -1366.267990609329
3913 -1366.39885364196
3914 -1366.266201209197
3915 -1366.405035497005
3916 -1366.258205961057
3917 -1366.387851485302
3918 -1366.250575011834
3919 -1366.387651471963
3920 -1366.250405098238
3921 -1366.385864124449
3922 -1366.249065960518
3923 -1366.390277736461
3924 -1366.252368080369
3925 -1366.38792921118
3926 -1366.245596617726
3927 -1366.389472690418
3928 -1366.245730564214
3929 -1366.382324625286
3930 -1366.250033376816
3931 -1366.388035193179
3932 -1366.24871748784
3933 -1366.38890750748
3934 -1366.24959418033
3935 -1366.394020881387
3936 -1366.251341719233
3937 -1366.392510674564
3938 -1366.257080946409
3939 -1366.396305197955
3940 -1366.258663560538
3941 -1366.395657822457
3942 -1366.26357361823
3943 -1366.398740430222
3944 -1366.266568711791
3945 -1366.391541337534
3946 -1366.265979286013
3947 -1366.393714329331
3948 -1366.267176062837
3949 -1366.381597704592
3950 -1366.259880531356
3951 -1366.384107084782
3952 -1366.259466362118
3953 -1366.379009126314
3954 -1366.263756781608
3955 -1366.385765089581
3956 -1366.267976042486
3957 -1366.38324528584
3958 -1366.277033054949
3959 -1366.386288638577
3960 -1366.275236658885
3961 -1366.380156410904
3962 -1366.271800788136
3963 -1366.375426307532
3964 -1366.26678731192
3965 -1366.370388217326
3966 -1366.257393518086
3967 -1366.362685915426
3968 -1366.257001424555
3969 -1366.367048874798
3970 -1366.262549306202
3971 -1366.374404803015
3972 -1366.262404251522
3973 -1366.380713169389
3974 -1366.263786172221
3975 -1366.386488336612
3976 -1366.256794742476
3977 -1366.386450886255
3978 -1366.254034894093
3979 -1366.38655434475
3980 -1366.2547907854
3981 -1366.394231411019
3982 -1366.252295301894
3983 -1366.392575322036
3984 -1366.256606521104
3985 -1366.396963697606
3986 -1366.254899793864
3987 -1366.391908028438
3988 -1366.255986214345
3989 -1366.400144968932
3990 -1366.259587878451
3991 -1366.395067328414
3992 -1366.256014587826
3993 -1366.400626284815
3994 -1366.26579430869
3995 -1366.396294518182
3996 -1366.253804721832
3997 -1366.390494343377
3998 -1366.259603170659
3999 -1366.385801899326
4000 -1366.248855200517
4001 -1366.386088271104
4002 -1366.25258635565
4003 -1366.381505278364
4004 -1366.24750938783
4005 -1366.382909141358
4006 -1366.247065670304
4007 -1366.379723012559
4008 -1366.246553768297
4009 -1366.383541869685
4010 -1366.250832211251
4011 -1366.380284755173
4012 -1366.255942485015
4013 -1366.394098579411
4014 -1366.261023393249
4015 -1366.388259254771
4016 -1366.260444834824
4017 -1366.397267499479
4018 -1366.272476377007
4019 -1366.396010528179
4020 -1366.2717577465
4021 -1366.400608609701
4022 -1366.270332614594
4023 -1366.392751425552
4024 -1366.270281047344
4025 -1366.398743779009
4026 -1366.266692277883
4027 -1366.390243683699
4028 -1366.265913945651
4029 -1366.393885067597
4030 -1366.262204576999
4031 -1366.392556942356
4032 -1366.258355755533
4033 -1366.393706935101
4034 -1366.257376597564
4035 -1366.39400557054
4036 -1366.254008318967
4037 -1366.386065645682
4038 -1366.256512194626
4039 -1366.387042359458
4040 -1366.256746120065
4041 -1366.388700792614
4042 -1366.261058703577
4043 -1366.38936902742
4044 -1366.261016499391
4045 -1366.384639061024
4046 -1366.258019195827
4047 -1366.379298672149
4048 -1366.258835713728
4049 -1366.37241745863
4050 -1366.258043760333
4051 -1366.374134203395
4052 -1366.261852101607
4053 -1366.377654207968
4054 -1366.262274647109
4055 -1366.386104544189
4056 -1366.265295773925
4057 -1366.383528544575
4058 -1366.266875784237
4059 -1366.382736652583
4060 -1366.263052677934
4061 -1366.377215924281
4062 -1366.264036693398
4063 -1366.377915532125
4064 -1366.265953571177
4065 -1366.373712249808
4066 -1366.26348892922
4067 -1366.377273253634
4068 -1366.260637057419
4069 -1366.372157035454
4070 -1366.263805121364
4071 -1366.378474267412
4072 -1366.261686121197
4073 -1366.38418287953
4074 -1366.255334027062
4075 -1366.377920078293
4076 -1366.249304969664
4077 -1366.373009515219
4078 -1366.252017939489
4079 -1366.378751560114
4080 -1366.249788261646
4081 -1366.376672709861
4082 -1366.24965890823
4083 -1366.378193821408
4084 -1366.251415003936
4085 -1366.383971589712
4086 -1366.253874983194
4087 -1366.389168176029
4088 -1366.254021184058
4089 -1366.392461425975
4090 -1366.258322090935
4091 -1366.39039196368
4092 -1366.254952200837
4093 -1366.391136013824
4094 -1366.251959101249
4095 -1366.38775009883
4096 -1366.25047447888
4097 -1366.38571664212
4098 -1366.251594402944
4099 -1366.387150773176
4100 -1366.253300619396
4101 -1366.390236792441
4102 -1366.258232729118
4103 -1366.391456280629
4104 -1366.258348412661
4105 -1366.389303378037
4106 -1366.255505220117
4107 -1366.383807859321
4108 -1366.248479666714
4109 -1366.377193475495
4110 -1366.25259573996
4111 -1366.373269880949
4112 -1366.252111956857
4113 -1366.373371650329
4114 -1366.253020532693
4115 -1366.374778041077
4116 -1366.25628601413
4117 -1366.379852104107
4118 -1366.261340771705
4119 -1366.380955067465
4120 -1366.265802747437
4121 -1366.386007314677
4122 -1366.269688446449
4123 -1366.380659737393
4124 -1366.27194948763
4125 -1366.38373819817
4126 -1366.279048838208
4127 -1366.382612448007
4128 -1366.27752462383
4129 -1366.385987697209
4130 -1366.277999055724
4131 -1366.381169123448
4132 -1366.27062399539
4133 -1366.381621137772
4134 -1366.266888531876
4135 -1366.380493097091
4136 -1366.263095796352
4137 -1366.383313038576
4138 -1366.261690578352
4139 -1366.377502793177
4140 -1366.251229401134
4141 -1366.376719717138
4142 -1366.25302199716
4143 -1366.377072428107
4144 -1366.245263676034
4145 -1366.379638553831
4146 -1366.251396109277
4147 -1366.384028022644
4148 -1366.250153010717
4149 -1366.388886359291
4150 -1366.258327329717
4151 -1366.397232073305
4152 -1366.259740812802
4153 -1366.405331602113
4154 -1366.268984250196
4155 -1366.402452605498
4156 -1366.266538621558
4157 -1366.401872187515
4158 -1366.266148945414
4159 -1366.39882925492
4160 -1366.264458747378
4161 -1366.397260462431
4162 -1366.261056299722
4163 -1366.394880244339
4164 -1366.251622883015
4165 -1366.387760965249
4166 -1366.255088125906
4167 -1366.3837493342
4168 -1366.258554385537
4169 -1366.385472748872
4170 -1366.258823949726
4171 -1366.384706671466
4172 -1366.258577212761
4173 -1366.38420187165
4174 -1366.253793667859
4175 -1366.385846324326
4176 -1366.253509769694
4177 -1366.383098840961
4178 -1366.262805622044
4179 -1366.384136945004
4180 -1366.261683492868
4181 -1366.383195333812
4182 -1366.264172581798
4183 -1366.38732897389
4184 -1366.26058023186
4185 -1366.378941296785
4186 -1366.256178485474
4187 -1366.378521592053
4188 -1366.26125708417
4189 -1366.380303947361
4190 -1366.269198866136
4191 -1366.390935803451
4192 -1366.270076057151
4193 -1366.381416552377
4194 -1366.260850661724
4195 -1366.386774858812
4196 -1366.262543974356
4197 -1366.385311022296
4198 -1366.259788525222
4199 -1366.39032641904
4200 -1366.256369304655
4201 -1366.388808520061
4202 -1366.260248836957
4203 -1366.393347844222
4204 -1366.252590957773
4205 -1366.388136267489
4206 -1366.249064828277
4207 -1366.388900648438
4208 -1366.250231985616
4209 -1366.389747620754
4210 -1366.251816674852
4211 -1366.392605194767
4212 -1366.248522336518
4213 -1366.400368694491
4214 -1366.255984502825
4215 -1366.404392750597
4216 -1366.264027876889
4217 -1366.400931726388
4218 -1366.26889380399
4219 -1366.403019799339
4220 -1366.268940336697
4221 -1366.401342883545
4222 -1366.267687429061
4223 -1366.393626181033
4224 -1366.2707697341
4225 -1366.391962155571
4226 -1366.264098593225
4227 -1366.378051772999
4228 -1366.257358145183
4229 -1366.374960602275
4230 -1366.255151632833
4231 -1366.371428901984
4232 -1366.255982969156
4233 -1366.371895353309
4234 -1366.248380609476
4235 -1366.373114563673
4236 -1366.254118002937
4237 -1366.379648845906
4238 -1366.263418322563
4239 -1366.385473594852
4240 -1366.260109401768
4241 -1366.384788756462
4242 -1366.263366369839
4243 -1366.386287741676
4244 -1366.253800894844
4245 -1366.390653579237
4246 -1366.263787905716
4247 -1366.392793946264
4248 -1366.257098726307
4249 -1366.393207369558
4250 -1366.26183007489
4251 -1366.393016634407
4252 -1366.261213732364
4253 -1366.394037252841
4254 -1366.262152775419
4255 -1366.393372497397
4256 -1366.263901015466
4257 -1366.390278321862
4258 -1366.252141489926
4259 -1366.376801517149
4260 -1366.254790570411
4261 -1366.383907571241
4262 -1366.25565239317
4263 -1366.383520631765
4264 -1366.257082597933
4265 -1366.394774188775
4266 -1366.258289437592
4267 -1366.390317277555
4268 -1366.258122532361
4269 -1366.39757344007
4270 -1366.256993262391
4271 -1366.389294774118
4272 -1366.249425513928
4273 -1366.381833403178
4274 -1366.245755751852
4275 -1366.373618638651
4276 -1366.242476449376
4277 -1366.37172112987
4278 -1366.242091539678
4279 -1366.369711065515
4280 -1366.248385668781
4281 -1366.378015753022
4282 -1366.253298907743
4283 -1366.380505251366
4284 -1366.256774387357
4285 -1366.39055307762
4286 -1366.26492387842
4287 -1366.392613444704
4288 -1366.263894170957
4289 -1366.391591207888
4290 -1366.262327488822
4291 -1366.380575964833
4292 -1366.258299959678
4293 -1366.389165583978
4294 -1366.26283085414
4295 -1366.394778797063
4296 -1366.26067322909
4297 -1366.390101331899
4298 -1366.269869815999
4299 -1366.39434996346
4300 -1366.259480373831
4301 -1366.389443934582
4302 -1366.263155587662
4303 -1366.392388459943
4304 -1366.263372439678
4305 -1366.386900568276
4306 -1366.255435635124
4307 -1366.379614978038
4308 -1366.260455607101
4309 -1366.372361825885
4310 -1366.2607407103
4311 -1366.374577382501
4312 -1366.266136216441
4313 -1366.375985726712
4314 -1366.266484516461
4315 -1366.383021326584
4316 -1366.27039532973
4317 -1366.37858769971
4318 -1366.272567678824
4319 -1366.391832189081
4320 -1366.267313832689
4321 -1366.383265985121
4322 -1366.2661568553
4323 -1366.382208790689
4324 -1366.255495336484
4325 -1366.385072709405
4326 -1366.263085033586
4327 -1366.389670206262
4328 -1366.262870668797
4329 -1366.39169117632
4330 -1366.270943675181
4331 -1366.397755761877
4332 -1366.274184042338
4333 -1366.399606096104
4334 -1366.274457705894
4335 -1366.407075482648
4336 -1366.266006476807
4337 -1366.399448319251
4338 -1366.271815427586
4339 -1366.395437581749
4340 -1366.259621010691
4341 -1366.389634260699
4342 -1366.257429943112
4343 -1366.393467141564
4344 -1366.260291096267
4345 -1366.396259719996
4346 -1366.258050529821
4347 -1366.394625541061
4348 -1366.255165429266
4349 -1366.389612774459
4350 -1366.261788456272
4351 -1366.388841647457
4352 -1366.258513034862
4353 -1366.385131404541
4354 -1366.264150049509
4355 -1366.384462379557
4356 -1366.256727016627
4357 -1366.376948245481
4358 -1366.270180635764
4359 -1366.382506386379
4360 -1366.263842464116
4361 -1366.382352767504
4362 -1366.266286322136
4363 -1366.374126252896
4364 -1366.265639012429
4365 -1366.379946524484
4366 -1366.266340756597
4367 -1366.375185627159
4368 -1366.255626774406
4369 -1366.372889340793
4370 -1366.256688712963
4371 -1366.374211052422
4372 -1366.253123832415
4373 -1366.378964539457
4374 -1366.25981186198
4375 -1366.381013589493
4376 -1366.262915143096
4377 -1366.391666978201
4378 -1366.268145786918
4379 -1366.39058260679
4380 -1366.271486629525
4381 -1366.40106366433
4382 -1366.276303883754
4383 -1366.395673828455
4384 -1366.267799712147
4385 -1366.39551381722
4386 -1366.264172993828
4387 -1366.378314520017
4388 -1366.259039523901
4389 -1366.379922270223
4390 -1366.252731888964
4391 -1366.375912004575
4392 -1366.250907461658
4393 -1366.388521142504
4394 -1366.254394168079
4395 -1366.382103276771
4396 -1366.251199442739
4397 -1366.384521746795
4398 -1366.256258079948
4399 -1366.38205209433
4400 -1366.256194857248
4401 -1366.390291864747
4402 -1366.257802932192
4403 -1366.383705886978
4404 -1366.248377638567
4405 -1366.379451557415
4406 -1366.256064085881
4407 -1366.377590590946
4408 -1366.252512453643
4409 -1366.38254435311
4410 -1366.260971905558
4411 -1366.381521615446
4412 -1366.253764798702
4413 -1366.38418225195
4414 -1366.254118385527
4415 -1366.381605623742
4416 -1366.250860751489
4417 -1366.390953461533
4418 -1366.260823657911
4419 -1366.384632249396
4420 -1366.259906491657
4421 -1366.392363354473
4422 -1366.263779624149
4423 -1366.390167354758
4424 -1366.268538916299
4425 -1366.400803050575
4426 -1366.274090876583
4427 -1366.395910554514
4428 -1366.274092454604
4429 -1366.393665214053
4430 -1366.271037822055
4431 -1366.389079884066
4432 -1366.264390607776
4433 -1366.380791976977
4434 -1366.254369409604
4435 -1366.37843564562
4436 -1366.254678488978
4437 -1366.373749593286
4438 -1366.25183712056
4439 -1366.387488932357
4440 -1366.261243736646
4441 -1366.391582904866
4442 -1366.258669505465
4443 -1366.392172898401
4444 -1366.260162519505
4445 -1366.394111453834
4446 -1366.269317499929
4447 -1366.3981195087
4448 -1366.268188399388
4449 -1366.397037448517
4450 -1366.264926068657
4451 -1366.39685876463
4452 -1366.266712568749
4453 -1366.383896079475
4454 -1366.256991673229
4455 -1366.390901901488
4456 -1366.253758581253
4457 -1366.381147186772
4458 -1366.250277901454
4459 -1366.380609136006
4460 -1366.258185068805
4461 -1366.385197926333
4462 -1366.265506959934
4463 -1366.394337368908
4464 -1366.270927115091
4465 -1366.39264569542
4466 -1366.272790367174
4467 -1366.393219924335
4468 -1366.26110262059
4469 -1366.382129963254
4470 -1366.261665135273
4471 -1366.387952554566
4472 -1366.255675260363
4473 -1366.388011358749
4474 -1366.256742620359
4475 -1366.396136439671
4476 -1366.26944819588
4477 -1366.39362964981
4478 -1366.270258950062
4479 -1366.396657239239
4480 -1366.270145719922
4481 -1366.392941270565
4482 -1366.263205635729
4483 -1366.386806133099
4484 -1366.264713957743
4485 -1366.381286487368
4486 -1366.254663003849
4487 -1366.384972983111
4488 -1366.252960820826
4489 -1366.377784283929
4490 -1366.253751404383
4491 -1366.383222347995
4492 -1366.254106297375
4493 -1366.386744134451
4494 -1366.25683039314
4495 -1366.385384582242
4496 -1366.252576177711
4497 -1366.384429262374
4498 -1366.254065442134
4499 -1366.375923734189
4500 -1366.252720148881
4501 -1366.374629510388
4502 -1366.253576654021
4503 -1366.384137223991
4504 -1366.264913241247
4505 -1366.396894412952
4506 -1366.270120974688
4507 -1366.393498171122
4508 -1366.275578886438
4509 -1366.394321321772
4510 -1366.273774265022
4511 -1366.395187107356
4512 -1366.268958892493
4513 -1366.401037109679
4514 -1366.272342060316
4515 -1366.401008968876
4516 -1366.270518095737
4517 -1366.396460809511
4518 -1366.271377735452
4519 -1366.39370626093
4520 -1366.266280311726
4521 -1366.389910403031
4522 -1366.265717203319
4523 -1366.38519711564
4524 -1366.266927335364
4525 -1366.381248778255
4526 -1366.256786397738
4527 -1366.382040492933
4528 -1366.253528712315
4529 -1366.373962072755
4530 -1366.256667333332
4531 -1366.377487995962
4532 -1366.256287449999
4533 -1366.376428086564
4534 -1366.259102002774
4535 -1366.380000329087
4536 -1366.250097649058
4537 -1366.379690007601
4538 -1366.257365565518
4539 -1366.379081769847
4540 -1366.247782609943
4541 -1366.376641663014
4542 -1366.249166105644
4543 -1366.37426440975
4544 -1366.252055650297
4545 -1366.378202098878
4546 -1366.25280831675
4547 -1366.374853003174
4548 -1366.254296736894
4549 -1366.37781809214
4550 -1366.256539772891
4551 -1366.382541032518
4552 -1366.262970141003
4553 -1366.390254323877
4554 -1366.268619264235
4555 -1366.394605865193
4556 -1366.273322620825
4557 -1366.396265357585
4558 -1366.282176666097
4559 -1366.397596492756
4560 -1366.278483113865
4561 -1366.392444098889
4562 -1366.275745758458
4563 -1366.385585280673
4564 -1366.270313529631
4565 -1366.379150650959
4566 -1366.263484804266
4567 -1366.373395756872
4568 -1366.261488532012
4569 -1366.372907784594
4570 -1366.254751846875
4571 -1366.376708266424
4572 -1366.257245187539
4573 -1366.379421417279
4574 -1366.255651064201
4575 -1366.387433577546
4576 -1366.26205118395
4577 -1366.378706333119
4578 -1366.258798294526
4579 -1366.382267655456
4580 -1366.26475203219
4581 -1366.38473200523
4582 -1366.266502224828
4583 -1366.3892567816
4584 -1366.262034296542
4585 -1366.386883646287
4586 -1366.258472865188
4587 -1366.386531333299
4588 -1366.258711104894
4589 -1366.388401113476
4590 -1366.265337019618
4591 -1366.390572921081
4592 -1366.265510888162
4593 -1366.392674131842
4594 -1366.262264708603
4595 -1366.389152114908
4596 -1366.255850848962
4597 -1366.381924580198
4598 -1366.260225713263
4599 -1366.38548336621
4600 -1366.246149199815
4601 -1366.385759991909
4602 -1366.253522060664
4603 -1366.390897141521
4604 -1366.254431626243
4605 -1366.394757855018
4606 -1366.252242682945
4607 -1366.39442762619
4608 -1366.252410295779
4609 -1366.392498995735
4610 -1366.257483398792
4611 -1366.398593202244
4612 -1366.254134922804
4613 -1366.39539660734
4614 -1366.253224352298
4615 -1366.395106523167
4616 -1366.248774981189
4617 -1366.38756322063
4618 -1366.247145886582
4619 -1366.382842393125
4620 -1366.247625035619
4621 -1366.379974274159
4622 -1366.247455075954
4623 -1366.382401960456
4624 -1366.253516923379
4625 -1366.385214575209
4626 -1366.252718599656
4627 -1366.384278534376
4628 -1366.255596725975
4629 -1366.387056683429
4630 -1366.259920269956
4631 -1366.389377977117
4632 -1366.258553883792
4633 -1366.394246647985
4634 -1366.263295359908
4635 -1366.401180538361
4636 -1366.261387067513
4637 -1366.39890321954
4638 -1366.265548780013
4639 -1366.394427309172
4640 -1366.27155483983
4641 -1366.405198419567
4642 -1366.275058873664
4643 -1366.406009696992
4644 -1366.271869337651
4645 -1366.408330270917
4646 -1366.27274862424
4647 -1366.392593522752
4648 -1366.263270737395
4649 -1366.391893609292
4650 -1366.272293381621
4651 -1366.389496194563
4652 -1366.264223969485
4653 -1366.391457667658
4654 -1366.272364967204
4655 -1366.389183853014
4656 -1366.258556136376
4657 -1366.386014339784
4658 -1366.26029721393
4659 -1366.3769935046
4660 -1366.255050186951
4661 -1366.37325210482
4662 -1366.246824081283
4663 -1366.367588803641
4664 -1366.240111351052
4665 -1366.374123716475
4666 -1366.247696784315
4667 -1366.372528165681
4668 -1366.250085121201
4669 -1366.379287282512
4670 -1366.258416961368
4671 -1366.386940461225
4672 -1366.261455212924
4673 -1366.394427431296
4674 -1366.27483701885
4675 -1366.399603730309
4676 -1366.272465009203
4677 -1366.397284519905
4678 -1366.275315617692
4679 -1366.394984390802
4680 -1366.273507511032
4681 -1366.397373411887
4682 -1366.273684120605
4683 -1366.396796839848
4684 -1366.278291411831
4685 -1366.401942638981
4686 -1366.279722729953
4687 -1366.402555425538
4688 -1366.277959271438
4689 -1366.403790160138
4690 -1366.280116093974
4691 -1366.40119943557
4692 -1366.27014479176
4693 -1366.395637506133
4694 -1366.26754466142
4695 -1366.395019761027
4696 -1366.267028067726
4697 -1366.386732282709
4698 -1366.25982662531
4699 -1366.385695865929
4700 -1366.254361727741
4701 -1366.375400866952
4702 -1366.250093091543
4703 -1366.376711480914
4704 -1366.247724942515
4705 -1366.380284378542
4706 -1366.255502208832
4707 -1366.379510002818
4708 -1366.247425829768
4709 -1366.374898197858
4710 -1366.249897829774
4711 -1366.38138101591
4712 -1366.250256092335
4713 -1366.382896436159
4714 -1366.25093262724
4715 -1366.382281342302
4716 -1366.247373173854
4717 -1366.381265678256
4718 -1366.259859424215
4719 -1366.381814206454
4720 -1366.265934480864
4721 -1366.382844610284
4722 -1366.266829981138
4723 -1366.383888252326
4724 -1366.267583603045
4725 -1366.379623144402
4726 -1366.270411968888
4727 -1366.384076956922
4728 -1366.26580953659
4729 -1366.375070588438
4730 -1366.263752415324
4731 -1366.376048105571
4732 -1366.266363402025
4733 -1366.375480596658
4734 -1366.264734470974
4735 -1366.374613407164
4736 -1366.261663124013
4737 -1366.375658272628
4738 -1366.263679231506
4739 -1366.372560500198
4740 -1366.260932794091
4741 -1366.372225091513
4742 -1366.26769486262
4743 -1366.376643779787
4744 -1366.257537959577
4745 -1366.370465933407
4746 -1366.259120278218
4747 -1366.371444916649
4748 -1366.266048473315
4749 -1366.376544148922
4750 -1366.269617989755
4751 -1366.384759699764
4752 -1366.275870645519
4753 -1366.383042754993
4754 -1366.271129176559
4755 -1366.382477340857
4756 -1366.265409109148
4757 -1366.382115246132
4758 -1366.271871455478
4759 -1366.384789316204
4760 -1366.257777365533
4761 -1366.383233694268
4762 -1366.258631330345
4763 -1366.380964093024
4764 -1366.257243178872
4765 -1366.389314970825
4766 -1366.264455960842
4767 -1366.386078910022
4768 -1366.256350832346
4769 -1366.391900506836
4770 -1366.269490102298
4771 -1366.395156770968
4772 -1366.261356471113
4773 -1366.394082463235
4774 -1366.25854512895
4775 -1366.389860185386
4776 -1366.256235759544
4777 -1366.385656236286
4778 -1366.248479633955
4779 -1366.380425001499
4780 -1366.247563905698
4781 -1366.388221000923
4782 -1366.253461118201
4783 -1366.389674327521
4784 -1366.254223427592
4785 -1366.394593582928
4786 -1366.25105002043
4787 -1366.387182046582
4788 -1366.245969918787
4789 -1366.386047556401
4790 -1366.252938044401
4791 -1366.388439633404
4792 -1366.249333763384
4793 -1366.387662246345
4794 -1366.245492091383
4795 -1366.387414851241
4796 -1366.245215330322
4797 -1366.387339264785
4798 -1366.245035641966
4799 -1366.384909402552
4800 -1366.249037363649
4801 -1366.394448203846
4802 -1366.258701700787
4803 -1366.393404832043
4804 -1366.256624958381
4805 -1366.393564631473
4806 -1366.253835521107
4807 -1366.385652238613
4808 -1366.250991153943
4809 -1366.385569164811
4810 -1366.263309863549
4811 -1366.388934153953
4812 -1366.264390601698
4813 -1366.387036644966
4814 -1366.269113990076
4815 -1366.393742429906
4816 -1366.272422567562
4817 -1366.389584800313
4818 -1366.270393064345
4819 -1366.380838793255
4820 -1366.273936628093
4821 -1366.383714110722
4822 -1366.269239586031
4823 -1366.383728601174
4824 -1366.265236126053
4825 -1366.381737232408
4826 -1366.267595686619
4827 -1366.376881516206
4828 -1366.255840453978
4829 -1366.373279037096
4830 -1366.254660065734
4831 -1366.37617660852
4832 -1366.255936005365
4833 -1366.375457724905
4834 -1366.251690847553
4835 -1366.378283386699
4836 -1366.257733749458
4837 -1366.374254420149
4838 -1366.255536247392
4839 -1366.378655614434
4840 -1366.25567771571
4841 -1366.371950968847
4842 -1366.257059335528
4843 -1366.381136583316
4844 -1366.260585110405
4845 -1366.382269777897
4846 -1366.270984200599
4847 -1366.393685335911
4848 -1366.265857532728
4849 -1366.389185483333
4850 -1366.267986967367
4851 -1366.396630796401
4852 -1366.264489201772
4853 -1366.393926381273
4854 -1366.265044394925
4855 -1366.395729260891
4856 -1366.270008702778
4857 -1366.395243024492
4858 -1366.266680686677
4859 -1366.392416236859
4860 -1366.266043722831
4861 -1366.388334968066
4862 -1366.268879624319
4863 -1366.391052019633
4864 -1366.262739356368
4865 -1366.380827791074
4866 -1366.260595752165
4867 -1366.380057857191
4868 -1366.260778134196
4869 -1366.37924745335
4870 -1366.262532202115
4871 -1366.383788873293
4872 -1366.260137847089
4873 -1366.384461750277
4874 -1366.255901648223
4875 -1366.383501615337
4876 -1366.257643764502
4877 -1366.387434655981
4878 -1366.255465828302
4879 -1366.389841023421
4880 -1366.261259085194
4881 -1366.392867672956
4882 -1366.257746068101
4883 -1366.39623088398
4884 -1366.257765726113
4885 -1366.391708874504
4886 -1366.258425304467
4887 -1366.391061631641
4888 -1366.253843445643
4889 -1366.377675753182
4890 -1366.251669968995
4891 -1366.378367496313
4892 -1366.254552401387
4893 -1366.379806289981
4894 -1366.247193107721
4895 -1366.38091686572
4896 -1366.25475107588
4897 -1366.379377299397
4898 -1366.254389881946
4899 -1366.372097331681
4900 -1366.257539403653
4901 -1366.378032955023
4902 -1366.257964695318
4903 -1366.376634178688
4904 -1366.259987695361
4905 -1366.381821861344
4906 -1366.261825018917
4907 -1366.380524558008
4908 -1366.265255939697
4909 -1366.388601906827
4910 -1366.275472672609
4911 -1366.388062021431
4912 -1366.267625951404
4913 -1366.38950149178
4914 -1366.265779019065
4915 -1366.38042379522
4916 -1366.269199503513
4917 -1366.384535620381
4918 -1366.276344939095
4919 -1366.386578342941
4920 -1366.269152771156
4921 -1366.384638697205
4922 -1366.264903831419
4923 -1366.380915363122
4924 -1366.2571299139
4925 -1366.382115636838
4926 -1366.267380878551
4927 -1366.382066024686
4928 -1366.260113460462
4929 -1366.384328689306
4930 -1366.263373349332
4931 -1366.379185248675
4932 -1366.255271641042
4933 -1366.373857697385
4934 -1366.25168054789
4935 -1366.377546951856
4936 -1366.249917545761
4937 -1366.377144159129
4938 -1366.248193158543
4939 -1366.376761558497
4940 -1366.252388714208
4941 -1366.385168714424
4942 -1366.258623376003
4943 -1366.38692646603
4944 -1366.261486058071
4945 -1366.396162508735
4946 -1366.274521916394
4947 -1366.392065291671
4948 -1366.270809068236
4949 -1366.396813762235
4950 -1366.277333754953
4951 -1366.391108840652
4952 -1366.270631955156
4953 -1366.397638467927
4954 -1366.265992395001
4955 -1366.382869751361
4956 -1366.254498268647
4957 -1366.376173162946
4958 -1366.254211023898
4959 -1366.376900362841
4960 -1366.246069759533
4961 -1366.374013806336
4962 -1366.258466284905
4963 -1366.384017000873
4964 -1366.263904876403
4965 -1366.391008640562
4966 -1366.270804413496
4967 -1366.386771409582
4968 -1366.263507572962
4969 -1366.384119903076
4970 -1366.266149428868
4971 -1366.378719519521
4972 -1366.261819772971
4973 -1366.383503012974
4974 -1366.265545313537
4975 -1366.391666337649
4976 -1366.272838168746
4977 -1366.38480373048
4978 -1366.266788174955
4979 -1366.387566094183
4980 -1366.268911806985
4981 -1366.389079164282
4982 -1366.26083413985
4983 -1366.386465844781
4984 -1366.25845376032
4985 -1366.383940676729
4986 -1366.256281940261
4987 -1366.378973189474
4988 -1366.250146967008
4989 -1366.38305468114
4990 -1366.252562431536
4991 -1366.385006789083
4992 -1366.252505047051
4993 -1366.389001719749
4994 -1366.25110205279
4995 -1366.397035487232
4996 -1366.260779145372
4997 -1366.393789722304
4998 -1366.263356611377
4999 -1366.397513354902
5000 -1366.26479378607
5001 -1366.388934521975
5002 -1366.26333663532
5003 -1366.38698098438
5004 -1366.257911347104
5005 -1366.379972369962
5006 -1366.262100594849
5007 -1366.380668713359
5008 -1366.258371633839
5009 -1366.374588532147
5010 -1366.266252353626
5011 -1366.387888201384
5012 -1366.271308120402
5013 -1366.386837878025
5014 -1366.273154991553
5015 -1366.397088314935
5016 -1366.275575643328
5017 -1366.397557731469
5018 -1366.277472217164
5019 -1366.392306567822
5020 -1366.282255220608
5021 -1366.392935855384
5022 -1366.280763984921
5023 -1366.398160300738
5024 -1366.285728524839
5025 -1366.396086295941
5026 -1366.274729266553
5027 -1366.388059650194
5028 -1366.26106933935
5029 -1366.382562085993
5030 -1366.256390193971
5031 -1366.376750433843
5032 -1366.24700924952
5033 -1366.373858259386
5034 -1366.240869153827
5035 -1366.370793087976
5036 -1366.238189639996
5037 -1366.372347299454
5038 -1366.242535620602
5039 -1366.376740971194
5040 -1366.250122932061
5041 -1366.393579790172
5042 -1366.24954308847
5043 -1366.387076450224
5044 -1366.251865662075
5045 -1366.391922333421
5046 -1366.254603461631
5047 -1366.390844611236
5048 -1366.252942863718
5049 -1366.398054682098
5050 -1366.26171117188
5051 -1366.39389297707
5052 -1366.259457971847
5053 -1366.405870247301
5054 -1366.26947670136
5055 -1366.405385917373
5056 -1366.269216302361
5057 -1366.403716761492
5058 -1366.266980331869
5059 -1366.402204746252
5060 -1366.263163319328
5061 -1366.40646874423
5062 -1366.268052121542
5063 -1366.404320812512
5064 -1366.259370800116
5065 -1366.404693058005
5066 -1366.259767684219
5067 -1366.392154672215
5068 -1366.243913337192
