"x-rfile"
"Iteration" "x"
("Iteration" "x")
1779 -107.5432725502699
1780 -107.7778483902244
1781 -107.5149249673627
1782 -107.5728000382025
1783 -109.0760837018749
1784 -109.8235336280214
1785 -111.0070491855723
1786 -113.1095325140396
1787 -115.8087629897465
1788 -119.5687780692186
1789 -124.9231220677447
1790 -132.0126631084953
1791 -139.7382195903933
1792 -148.6335632262573
1793 -158.4531644718598
1794 -168.2294421054863
1795 -179.3216549189736
1796 -192.1501657359617
1797 -204.7778301766395
1798 -219.2079396017818
1799 -232.6455416622789
1800 -248.315110550232
1801 -265.7718893422441
1802 -284.5720043137536
1803 -304.9401591137077
1804 -322.1096250249892
1805 -341.6420451977809
1806 -363.1238377682672
1807 -386.2510778573006
1808 -410.7077294927793
1809 -436.4499621924895
1810 -463.5494212728048
1811 -491.914820736788
1812 -521.412836723313
1813 -551.8099721282674
1814 -582.9702781168776
1815 -614.6220266933798
1816 -646.909274168189
1817 -679.5609214858302
1818 -712.3496241000396
1819 -745.4052377535579
1820 -778.4274659473081
1821 -811.2329081993373
1822 -843.9041648876895
1823 -875.9887991612756
1824 -907.410819885648
1825 -938.1017817537822
1826 -967.9972751785307
1827 -997.0770912424613
1828 -1025.233941044221
1829 -1052.412316391731
1830 -1078.579353054379
1831 -1103.5882287306
1832 -1127.427805135946
1833 -1150.025894216317
1834 -1165.346447774369
1835 -1188.055830786202
1836 -1202.47895994826
1837 -1223.053821912352
1838 -1235.762860965761
1839 -1253.65769156956
1840 -1264.39170279176
1841 -1279.256511451562
1842 -1287.877749309153
1843 -1295.989505472906
1844 -1303.45979203965
1845 -1310.085991090577
1846 -1315.695244150908
1847 -1320.367115785003
1848 -1324.033623084309
1849 -1326.757191535793
1850 -1328.508738563536
1851 -1329.40207819205
1852 -1329.556889742718
1853 -1328.971278496674
1854 -1327.757628513393
1855 -1325.979450892134
1856 -1323.697359970902
1857 -1320.871999047912
1858 -1317.771030346663
1859 -1314.365572392344
1860 -1310.789356860393
1861 -1307.059562425847
1862 -1303.209974350392
1863 -1299.310077366071
1864 -1295.443935276977
1865 -1291.627666633982
1866 -1287.67219722677
1867 -1283.865875597731
1868 -1280.120304086716
1869 -1276.444401716584
1870 -1271.351728913535
1871 -1268.26443935919
1872 -1265.099309179977
1873 -1261.938789808331
1874 -1258.79826467808
1875 -1254.432704091598
1876 -1251.792236916803
1877 -1249.079951546641
1878 -1245.055887722827
1879 -1242.548383237801
1880 -1238.690767226279
1881 -1236.26529451225
1882 -1232.583366153153
1883 -1229.297126052193
1884 -1225.936483512741
1885 -1222.776943754855
1886 -1219.588812883367
1887 -1216.471464912402
1888 -1213.32099574515
1889 -1210.278401249187
1890 -1207.041659449818
1891 -1203.849047125623
1892 -1200.531641917368
1893 -1197.282269135315
1894 -1193.832078329226
1895 -1190.490087564429
1896 -1186.95274213297
1897 -1183.466796143023
1898 -1179.720065917318
1899 -1175.130267696601
1900 -1171.58777890642
1901 -1167.00349788041
1902 -1163.514590536641
1903 -1158.915542365265
1904 -1155.367534788444
1905 -1150.821156191191
1906 -1146.350983800034
1907 -1142.023263207349
1908 -1138.590437703272
1909 -1134.09096923183
1910 -1129.608090603203
1911 -1125.341731230039
1912 -1121.022774923867
1913 -1116.890370589338
1914 -1112.624374359435
1915 -1108.566095568698
1916 -1104.423039824455
1917 -1100.491924450529
1918 -1096.424683888547
1919 -1092.558774352552
1920 -1088.637853728999
1921 -1084.933293080066
1922 -1081.144079297036
1923 -1077.547148671019
1924 -1074.024359559734
1925 -1070.676048418833
1926 -1067.271018090542
1927 -1063.445258118892
1928 -1060.527059963993
1929 -1057.857401023938
1930 -1054.609646669109
1931 -1052.237338192225
1932 -1049.34166897377
1933 -1047.211899842173
1934 -1044.667851438518
1935 -1042.758394811322
1936 -1040.43561785172
1937 -1038.798469050018
1938 -1036.593633328564
1939 -1035.046760822466
1940 -1032.99046495306
1941 -1031.491891873222
1942 -1029.497990303955
1943 -1027.78277071869
1944 -1026.327663680836
1945 -1024.616587958956
1946 -1023.168780582112
1947 -1021.492014894652
1948 -1019.794210174473
1949 -1018.506989645905
1950 -1016.703483341205
1951 -1015.145274670458
1952 -1013.705537514693
1953 -1011.9229815143
1954 -1010.199366191727
1955 -1008.721367262381
1956 -1006.734338659872
1957 -1004.903103006459
1958 -1003.281644290548
1959 -1001.163720178598
1960 -999.3647349535804
1961 -997.1175335198101
1962 -995.0517261155259
1963 -992.4801647020787
1964 -990.255430234969
1965 -987.4528776348224
1966 -985.0655297842277
1967 -982.0200911611211
1968 -979.4572972735003
1969 -976.7805888864232
1970 -973.892721029707
1971 -970.9352058442774
1972 -967.7281192386815
1973 -964.5685688714084
1974 -961.3254284010975
1975 -958.0321795472103
1976 -954.5720540872263
1977 -951.0718519594457
1978 -947.5002362893929
1979 -943.8985316822553
1980 -940.9573742873604
1981 -936.9641959946755
1982 -933.8687717134231
1983 -929.6719291235992
1984 -926.4323442114035
1985 -922.9874184701752
1986 -918.4129157095031
1987 -915.0051960355626
1988 -911.3699561330593
1989 -907.6860894434302
1990 -903.7673781982871
1991 -899.9058528287115
1992 -895.9537462760036
1993 -892.0254500106548
1994 -887.9284504835982
1995 -883.8593595727806
1996 -879.840726519938
1997 -875.9240863095145
1998 -871.9817953586703
1999 -868.0615806589113
2000 -864.190482034379
2001 -860.4342924544669
2002 -856.5926864451025
2003 -852.9365044863396
2004 -849.365360516925
2005 -845.652503034481
2006 -842.0453188547017
2007 -838.4972589873548
2008 -834.9848129247398
2009 -831.4796467869886
2010 -828.0310287895959
2011 -824.6048424085777
2012 -821.2412134906097
2013 -817.8410382925535
2014 -814.5029358729191
2015 -811.2580360975509
2016 -807.9660139079025
2017 -804.7029233788563
2018 -801.4934457496926
2019 -798.2595186442006
2020 -795.0291338973086
2021 -791.8538685980544
2022 -788.5950977100658
2023 -785.4108759707316
2024 -782.2075075505522
2025 -778.9420227609912
2026 -775.6445495330228
2027 -772.3960908744754
2028 -769.0916184116562
2029 -765.7686326542268
2030 -762.5043931733485
2031 -759.1582250271006
2032 -755.845480324043
2033 -752.4806750211612
2034 -749.1496973174499
2035 -745.8609154952421
2036 -742.5413944479737
2037 -739.1935464573512
2038 -735.8547427555823
2039 -732.5160148717639
2040 -728.1089407430629
2041 -725.0026697342905
2042 -721.8073176755042
2043 -717.8235098353961
2044 -714.8958083393295
2045 -711.9381712604661
2046 -708.0954054785972
2047 -705.3247563674092
2048 -701.7639452583155
2049 -699.1869438325155
2050 -695.8147358385133
2051 -693.2285074451052
2052 -689.8734121448265
2053 -687.359904279969
2054 -684.1388750903502
2055 -681.6924251104774
2056 -678.458785964368
2057 -676.0723315727286
2058 -672.9053907609061
2059 -670.5618149278332
2060 -667.4679829389476
2061 -665.1324068623168
2062 -662.1583553088242
2063 -659.8268475998102
2064 -656.8281834180079
2065 -653.8483280524583
2066 -651.6382742897854
2067 -648.6948193075572
2068 -646.5577115152146
2069 -643.6335831210322
2070 -641.4740762384837
2071 -638.5042725334509
2072 -635.6402921145714
2073 -633.5087834843091
2074 -630.6238265436315
2075 -628.4582315593912
2076 -625.5227435620391
2077 -622.682636296395
2078 -620.5982520456888
2079 -617.7154827237365
2080 -615.505412940439
2081 -612.4246844118787
2082 -610.2029796947174
2083 -607.2077372653551
2084 -604.2411733322884
2085 -601.9179762184872
2086 -598.807755449805
2087 -595.8145847889637
2088 -593.5352137283096
2089 -590.5273631660734
2090 -587.4528101547741
2091 -585.1387718532832
2092 -581.9357487746695
2093 -578.786905693918
2094 -576.4266306622906
2095 -573.1498310012228
2096 -569.9558118034734
2097 -566.7664361953266
2098 -564.3681664551542
2099 -561.0413631577557
2100 -557.8222058755434
2101 -554.5480723820338
2102 -552.0691699471848
2103 -548.7491064144717
2104 -545.475190458579
2105 -542.012697309196
2106 -539.3610693667538
2107 -535.7587695339425
2108 -532.2412852233023
2109 -529.5228366399139
2110 -525.8002848138501
2111 -522.0910546889318
2112 -519.3058866024287
2113 -515.4330602582396
2114 -512.4588562695496
2115 -508.403396425065
2116 -505.4515723982335
2117 -501.3771052498037
2118 -498.4008551030803
2119 -494.2785835264536
2120 -491.2526081807354
2121 -487.0684204257628
2122 -483.9827033602739
2123 -479.6663718377034
2124 -476.4865284805105
2125 -472.1872550062644
2126 -469.0670470512507
2127 -464.8333132824215
2128 -461.6799467162826
2129 -457.5039150747764
2130 -454.3344378914218
2131 -451.0261988445473
2132 -446.7702055726265
2133 -443.6012507578931
2134 -440.3331026925017
2135 -437.0145649859567
2136 -433.6997326049049
2137 -430.3373703145795
2138 -427.0008198470376
2139 -423.604459191745
2140 -420.282107179625
2141 -416.8599946477556
2142 -413.4750549557623
2143 -410.0697667806024
2144 -406.7648056497659
2145 -403.360837719974
2146 -400.0400754609039
2147 -396.7530620057356
2148 -393.54003514568
2149 -390.4098696743935
2150 -387.3966458674793
2151 -384.2949051141891
2152 -381.3874996876231
2153 -378.3946416003613
2154 -375.6116666593094
2155 -372.9408787933195
2156 -370.3270112180001
2157 -367.7461726780151
2158 -365.3368480138506
2159 -362.9155120551887
2160 -360.7103983551075
2161 -358.4064991852231
2162 -356.3140430712307
2163 -354.2613570887602
2164 -352.3288563981263
2165 -350.3833365766081
2166 -348.5805041041361
2167 -346.803042491114
2168 -345.191174760894
2169 -343.4933243438512
2170 -341.9828249782142
2171 -340.4950068799455
2172 -339.1177967369372
2173 -337.7021933858367
2174 -336.472062601393
2175 -335.2208616122498
2176 -334.0496147439742
2177 -332.838133724876
2178 -331.7132416556622
2179 -330.6363230353476
2180 -329.4900360852984
2181 -328.2839101290272
2182 -327.1224741886322
2183 -325.7641235801805
2184 -324.0947268129271
2185 -322.7279937423969
2186 -320.956552797841
2187 -319.507435304291
2188 -317.5968282699324
2189 -315.9256638441857
2190 -313.734785565292
2191 -311.4730808826239
2192 -309.7492429481762
2193 -307.2814316086287
2194 -304.7790592337718
2195 -302.2482186099377
2196 -299.6439792749899
2197 -297.4611273536255
2198 -294.4666005004376
2199 -291.4805480082559
2200 -288.5258825138031
2201 -285.418134986338
2202 -282.3671831037316
2203 -279.785322593443
2204 -276.3642211975226
2205 -272.9724324559214
2206 -269.5715380651119
2207 -266.8095166750663
2208 -263.1263821246177
2209 -260.2492942616099
2210 -256.5116322827823
2211 -253.6204923790232
2212 -249.8346146970072
2213 -246.8773175748948
2214 -243.0668358811807
2215 -240.0869148675425
2216 -237.1227023868431
2217 -234.014821101994
2218 -230.9418234765398
2219 -227.7810642998742
2220 -224.6590437824509
2221 -221.5400297536964
2222 -218.5426979911091
2223 -215.4803121113831
2224 -212.4876563685535
2225 -209.5104119464036
2226 -206.6948343227468
2227 -203.8999821196551
2228 -201.2640352204411
2229 -198.5929759762154
2230 -196.0889232288716
2231 -193.5493632027066
2232 -191.8593194364132
2233 -189.3063970385698
2234 -187.0049955377759
2235 -184.8175603209117
2236 -182.7978717173939
2237 -180.8325538551678
2238 -179.0590186633802
2239 -177.3599643397576
2240 -175.871281045857
2241 -174.3667628443767
2242 -173.075434283217
2243 -171.8438505499161
2244 -170.7924685612689
2245 -169.8236673110973
2246 -168.9699217336426
2247 -168.2242013613909
2248 -167.6050549297982
2249 -167.0103422907658
2250 -166.5939383293167
2251 -166.2336442319655
2252 -166.0444481218368
2253 -165.8448222338176
2254 -165.8693968039342
2255 -165.8948516954751
2256 -166.0712871344094
2257 -166.255052193606
2258 -166.6111990060258
2259 -166.9988811547066
2260 -167.5066275714265
2261 -168.0351291126188
2262 -168.687612130106
2263 -169.3883578710419
2264 -170.1855582029026
2265 -170.9200109355418
2266 -171.7478974099356
2267 -172.5782000675251
2268 -173.4425520502933
2269 -174.2266048856712
2270 -175.1505274918538
2271 -176.0600078227846
2272 -177.0039634061911
2273 -177.848226332972
2274 -178.7700268342953
2275 -179.5936698417619
2276 -180.5001379536937
2277 -181.3122010915531
2278 -182.1592676780376
2279 -182.9749821217695
2280 -183.827615703398
2281 -184.7922369999047
2282 -185.5250819958372
2283 -186.2024034700923
2284 -186.9204850542253
2285 -187.5652996638066
2286 -188.1970343657867
2287 -188.7696342008443
2288 -189.3828256788282
2289 -189.9801480547933
2290 -190.5994917674129
2291 -191.1502578213091
2292 -191.7121641379751
2293 -192.2176738373834
2294 -192.7907559980212
2295 -193.2829180962105
2296 -193.8210285182426
2297 -194.3504243123328
2298 -194.9281586120227
2299 -195.2293673695735
2300 -195.8241873065551
2301 -196.1670045674894
2302 -196.8047592773889
2303 -197.4374548835643
2304 -198.1528930257881
2305 -198.8558464215321
2306 -199.6223327370525
2307 -200.3758184698804
2308 -201.1704437050333
2309 -201.9538148143327
2310 -202.8401318212066
2311 -203.6963317982757
2312 -204.670626625362
2313 -205.616464112994
2314 -206.6375542080477
2315 -207.6966530013675
2316 -208.8180119473752
2317 -209.9424882086641
2318 -211.1833932476327
2319 -212.3858450228868
2320 -213.7172091557838
2321 -215.0048182883538
2322 -216.369891154439
2323 -217.7299688630548
2324 -219.1577357943199
2325 -220.5697698544247
2326 -222.0497053133268
2327 -223.5089719419346
2328 -224.9897597549584
2329 -226.4281319984703
2330 -227.4691523471334
2331 -229.0565846547953
2332 -230.1617032423352
2333 -231.7558551239409
2334 -232.8516461085269
2335 -234.4830521458182
2336 -235.5687992741432
2337 -237.188417148717
2338 -238.24734591151
2339 -239.7539553056715
2340 -240.7432721926039
2341 -242.1585554521907
2342 -243.4655756566198
2343 -244.3149743621591
2344 -245.6076449156142
2345 -246.7389116588711
2346 -247.7809305722316
2347 -248.7572674457546
2348 -249.7283969508024
2349 -250.6666726941412
2350 -251.5868437009104
2351 -252.4361764399893
2352 -253.2735467118224
2353 -254.0737964304065
2354 -254.8994186454438
2355 -255.7273810529883
2356 -256.5638353511044
2357 -257.4347016890974
2358 -258.3664939003832
2359 -259.2653603792047
2360 -260.211278369983
2361 -261.1847353957852
2362 -262.1802100475564
2363 -263.2138775053733
2364 -264.323521825163
2365 -265.4012341472461
2366 -266.5568338122416
2367 -267.7388707103856
2368 -268.9620259716408
2369 -270.2358369658984
2370 -271.5892410793219
2371 -272.9768671229972
2372 -274.4242995382005
2373 -275.8949955275799
2374 -277.4437447742437
2375 -278.9945348570587
2376 -280.6158170193355
2377 -282.2461111421796
2378 -283.9509541420899
2379 -285.684163923441
2380 -287.5022968231486
2381 -289.3107331156104
2382 -291.1593586866841
2383 -292.9877780526933
2384 -294.8630305446683
2385 -296.7104916421451
2386 -298.5690662840064
2387 -300.3941368821791
2388 -301.6767572562685
2389 -303.5956229299112
2390 -305.448404225913
2391 -306.6722787649934
2392 -308.4949181471641
2393 -310.201292823749
2394 -311.3586358503616
2395 -312.9992571257168
2396 -314.5495469783848
2397 -315.9053454799339
2398 -317.2044243476051
2399 -318.3353343891616
2400 -319.3980140384872
2401 -320.3023941204807
2402 -321.1103011430897
2403 -321.766947289797
2404 -322.3350508620235
2405 -322.7806215825048
2406 -323.1379500460788
2407 -323.3692135284674
2408 -323.5199474771496
2409 -323.5699355307888
2410 -323.5378498554081
2411 -323.3865961038175
2412 -323.1768526016508
2413 -322.8843996585315
2414 -322.5372990404315
2415 -322.0788506194888
2416 -321.584562875817
2417 -321.0138729183911
2418 -320.3930997550852
2419 -319.7084749643255
2420 -319.0124867635527
2421 -318.2374839064158
2422 -317.4509495658579
2423 -316.6257861370755
2424 -315.7624425622932
2425 -314.8811051612832
2426 -314.0144692141515
2427 -313.1071534990976
2428 -312.2341042085334
2429 -311.3272170067663
2430 -310.4659533947233
2431 -309.6042687401243
2432 -308.7349455571565
2433 -307.8635005172719
2434 -307.0613290345833
2435 -306.2421115887764
2436 -305.4597090228092
2437 -304.6783031477298
2438 -303.7469102621405
2439 -303.0796630002224
2440 -302.4529742851578
2441 -301.8228038755448
2442 -301.2255676390842
2443 -300.6679084299786
2444 -300.151253404828
2445 -299.6365910674419
2446 -299.1814071867175
2447 -298.7695050029917
2448 -298.3950302630161
2449 -298.0645989077343
2450 -297.7966850442061
2451 -297.5729220606049
2452 -297.3904225529147
2453 -297.2216677301219
2454 -297.1143752417288
2455 -296.9903160779799
2456 -296.9234245974881
2457 -296.8038957025603
2458 -296.7650652765884
2459 -296.677508591058
2460 -296.6292196786703
2461 -296.5657871760812
2462 -296.4666623456518
2463 -296.3657632135306
2464 -296.2724061237507
2465 -296.1110749987117
2466 -295.9528569072478
2467 -295.7671817820472
2468 -295.5442487108508
2469 -295.2668226996562
2470 -294.9868567184784
2471 -294.6813105432225
2472 -294.3193803235429
2473 -293.9270545416264
2474 -293.5090507679613
2475 -293.0321339377468
2476 -292.5128646242101
2477 -291.9174638205204
2478 -291.2700591878651
2479 -290.579635584479
2480 -289.8167931816379
2481 -288.9503822395923
2482 -288.0415764316318
2483 -287.0935268173454
2484 -286.0623418657315
2485 -284.9468635645252
2486 -283.769160920888
2487 -282.5511678915354
2488 -281.2553903201255
2489 -279.8868763717103
2490 -278.4204312013791
2491 -276.9310637407696
2492 -275.3706709961816
2493 -273.7063037188028
2494 -271.9816083493928
2495 -270.1685603953307
2496 -268.3711418783317
2497 -266.4615731652488
2498 -264.547268905469
2499 -262.5533195154041
2500 -260.6126826663861
2501 -258.6038685535055
2502 -256.6024394447473
2503 -254.5546100263508
2504 -251.9283747195486
2505 -250.0509973354532
2506 -248.1533500659129
2507 -245.7473185167106
2508 -244.1068826543999
2509 -242.0027938655554
2510 -240.5413234453457
2511 -238.7026472248678
2512 -237.4251269252828
2513 -235.7686832148206
2514 -234.7085983460278
2515 -233.4406365589228
2516 -232.6272950024299
2517 -231.6267757381033
2518 -231.0404165385367
2519 -230.3411103652487
2520 -230.0093460594355
2521 -229.7189907899589
2522 -229.6218772327379
2523 -229.6593270782476
2524 -229.8129449612141
2525 -230.1266914707957
2526 -230.494073162165
2527 -231.0350912381003
2528 -231.5875020013945
2529 -232.1971056942737
2530 -233.1365334937625
2531 -233.9033933208677
2532 -234.6978658927265
2533 -235.466175412052
2534 -236.3226810185302
2535 -237.1586863794383
2536 -237.9505822364864
2537 -238.7448331536065
2538 -239.5115114842104
2539 -240.4493404227896
2540 -241.0940888589841
2541 -241.6625006151223
2542 -242.3180112862882
2543 -242.7432897310516
2544 -243.1224867341503
2545 -243.2585647729894
2546 -243.355654573258
2547 -243.2965695257485
2548 -243.0887437789754
2549 -242.7603323664575
2550 -242.4203485586207
2551 -241.8386580202148
2552 -241.361432660112
2553 -240.607895090292
2554 -240.0116396928985
2555 -239.116983685406
2556 -238.4202656569565
2557 -237.3782049591197
2558 -236.5765664025008
2559 -235.4906895333575
2560 -234.6534387808049
2561 -233.7687286947824
2562 -232.8415574665666
2563 -231.8902320512971
2564 -230.9334089222961
2565 -229.9243209161562
2566 -228.9439150052209
2567 -227.9529794229975
2568 -226.9990714692517
2569 -226.0587641014523
2570 -225.1737282750763
2571 -224.317262295172
2572 -223.5286837799036
2573 -222.7419045883291
2574 -222.2325628973153
2575 -221.4719379782061
2576 -220.8841961906769
2577 -220.3923468573635
2578 -219.970892784292
2579 -219.6202967622763
2580 -219.4181214690041
2581 -219.2643192058532
2582 -219.2638944110237
2583 -219.2734412938665
2584 -219.4255476325005
2585 -219.6055542241738
2586 -219.9103761061461
2587 -220.2318855809421
2588 -220.6226376696432
2589 -221.0233332157759
2590 -221.5249771758881
2591 -222.0006604164021
2592 -222.5569397823805
2593 -223.0795504160424
2594 -223.6611124343993
2595 -224.1727709562722
2596 -224.7389731393164
2597 -225.1983469405122
2598 -225.6698723686236
2599 -226.027568674574
2600 -226.3650092487936
2601 -226.6032964280301
2602 -226.7926429504931
2603 -226.8596744179318
2604 -226.921458890985
2605 -226.8535510382622
2606 -226.7318022353016
2607 -226.4661327297424
2608 -226.1424350990619
2609 -225.5926755124845
2610 -225.1673659000881
2611 -224.6085599760484
2612 -223.8176876134666
2613 -223.1210818996087
2614 -222.3355849552149
2615 -221.2278073169236
2616 -220.3910678008529
2617 -219.4497329924145
2618 -218.18913919869
2619 -217.2044790988882
2620 -216.2135376144361
2621 -215.1448177705084
2622 -214.0893856212134
2623 -213.0116306514268
2624 -211.9663091058062
2625 -210.9169216569952
2626 -209.918472855772
2627 -208.8818883889949
2628 -207.9448322942077
2629 -207.0092087539644
2630 -206.2012036236907
2631 -205.3792949405084
2632 -204.697983015756
2633 -204.0656352728021
2634 -203.5761808070647
2635 -203.0385930366006
2636 -202.7486191623821
2637 -202.558696972277
2638 -202.5148307823299
2639 -202.5410031801081
2640 -202.799130170781
2641 -203.0892742630753
2642 -203.6565342755343
2643 -204.1735819556516
2644 -205.0265972784878
2645 -205.7653416539796
2646 -206.9629178658631
2647 -207.9835088983295
2648 -209.5283877615732
2649 -210.7388448612934
2650 -212.4978521003992
2651 -213.8650005042691
2652 -215.4343775016259
2653 -217.5915422688351
2654 -219.2603086281246
2655 -220.9558661836311
2656 -222.7592495370933
2657 -224.5605904446804
2658 -226.4188606149567
2659 -228.2224896846011
2660 -230.0196935523502
2661 -231.7906375411918
2662 -233.5398689718179
2663 -235.1927566412529
2664 -236.8345074929178
2665 -238.3581047897285
2666 -239.8667412455367
2667 -241.2320847954932
2668 -242.5681876461418
2669 -244.109929712527
2670 -245.1454598456137
2671 -246.1064951978621
2672 -247.2100173821981
2673 -247.8682620890735
2674 -248.5254815031811
2675 -249.184251908631
2676 -249.611319739343
2677 -249.9997921222074
2678 -250.3761910813531
2679 -250.538180322283
2680 -250.7051726290194
2681 -250.7854594552368
2682 -250.8670302867634
2683 -250.8698007361533
2684 -250.8416786256693
2685 -250.7141984260398
2686 -250.6126211842501
2687 -250.4010432922188
2688 -250.2398642499971
2689 -249.9979716981567
2690 -249.7637065575693
2691 -249.4963393047753
2692 -249.2619294621522
2693 -248.9531753451063
2694 -248.7002502825426
2695 -248.3987872100315
2696 -248.1385845355281
2697 -247.8572690432086
2698 -247.6135418006834
2699 -247.349849408037
2700 -247.1843404156346
2701 -246.9990407643354
2702 -246.8862237621128
2703 -246.7945968373025
2704 -246.7752750121597
2705 -246.7536715889674
2706 -246.811329379319
2707 -246.8976378558316
2708 -247.0489577055525
2709 -247.2156969973272
2710 -247.4595291125874
2711 -247.7202782808506
2712 -248.0863096754934
2713 -248.4539877941461
2714 -248.9136398078044
2715 -249.3744082863529
2716 -249.9337899183874
2717 -250.4818986438346
2718 -251.0863916101281
2719 -251.699178913428
2720 -252.3718286989446
2721 -253.0184337293914
2722 -253.7229435131176
2723 -254.4675966411841
2724 -255.2327011908608
2725 -256.0117621858601
2726 -256.8211078166095
2727 -257.6273530922224
2728 -258.4599890084172
2729 -259.2715137145551
2730 -260.1043022204211
2731 -260.9275190750939
2732 -261.7587913124758
2733 -262.5515490171485
2734 -263.3728722700134
2735 -263.9355364955388
2736 -264.7826312528673
2737 -265.570565690977
2738 -266.1302031382173
2739 -266.9098416451552
2740 -267.6462211551732
2741 -268.3190753824913
2742 -268.9450670076544
2743 -269.5262348519278
2744 -270.0535471337142
2745 -270.5431130601232
2746 -270.9979229313352
2747 -271.395652218551
2748 -271.779051484668
2749 -272.0983004445375
2750 -272.3963395628286
2751 -272.6802635879023
2752 -272.9088910390433
2753 -273.1061605326935
2754 -273.2690005322372
2755 -273.378490221216
2756 -273.4889730475768
2757 -273.5260019105666
2758 -273.5439572872509
2759 -273.5238029080875
2760 -273.481682275003
2761 -273.3664122076756
2762 -273.2313739582028
2763 -273.0649881010225
2764 -272.8636511546042
2765 -272.6368824273679
2766 -272.4194406500528
2767 -272.1650296698451
2768 -271.9242238753833
2769 -271.6397134921077
2770 -271.3738806015436
2771 -271.1192432532653
2772 -270.8969792312872
2773 -270.6608998355217
2774 -270.4636257123771
2775 -270.2687352706132
2776 -270.1349962321461
2777 -269.9780527973024
2778 -269.9300106338351
2779 -269.9007087662451
2780 -269.965264885329
2781 -270.0543075498092
2782 -270.2413089810909
2783 -270.4564674635113
2784 -270.756225297108
2785 -271.0705670556087
2786 -271.4812581982009
2787 -271.9287495158093
2788 -272.4296740237797
2789 -272.9465901288613
2790 -273.5358818041189
2791 -274.108857791299
2792 -274.7489291616176
2793 -275.3915630629573
2794 -276.0407530605637
2795 -276.6709835254416
2796 -277.3277973763691
2797 -277.9656243698882
2798 -278.595563845018
2799 -279.1948431161733
2800 -279.7511380445203
2801 -280.2933064579135
2802 -280.7771282718138
2803 -281.2228087166787
2804 -281.6011479067945
2805 -281.9288405243507
2806 -282.2027576374953
2807 -282.374211032459
2808 -282.4928610242711
2809 -282.5477636192567
2810 -282.5464252258543
2811 -282.4641211143251
2812 -282.3064376067495
2813 -282.0739388837984
2814 -281.7529993683459
2815 -281.3237080400394
2816 -280.8752424581635
2817 -280.3513666332532
2818 -279.7842465432868
2819 -279.1236065300388
2820 -278.4224325767639
2821 -277.6720969768104
2822 -276.8971206262755
2823 -276.0610613628828
2824 -275.216203031105
2825 -274.3623100260348
2826 -273.5331914939594
2827 -272.6838878478879
2828 -271.8748149683818
2829 -271.0679884144936
2830 -270.2743921769003
2831 -269.4902046500658
2832 -268.7588610406504
2833 -268.0612093564164
2834 -267.430660283154
2835 -266.7855104165506
2836 -266.2160989046852
2837 -265.6684629318756
2838 -265.1864853376997
2839 -264.7104044273939
2840 -264.2925443144418
2841 -263.8985734305793
2842 -263.5497385444195
2843 -263.1824194805183
2844 -262.883915529352
2845 -262.5874876093818
2846 -262.3119665663286
2847 -262.0366410775566
2848 -261.812078191461
2849 -261.5410500482535
2850 -261.2714366218535
2851 -261.0055076332166
2852 -260.7494205394568
2853 -260.4898186797174
2854 -260.2500126142813
2855 -259.9761868470094
2856 -259.7220159875877
2857 -259.4693524965203
2858 -259.1915944823617
2859 -258.8943311734163
2860 -258.588502946036
2861 -258.2754842427204
2862 -257.9790090827618
2863 -257.6413781361706
2864 -257.3325487689876
2865 -256.9962105713259
2866 -256.6438726735732
2867 -256.2619042196428
2868 -255.9069905818129
2869 -255.5091642755745
2870 -255.1022854739275
2871 -254.7243442059052
2872 -254.3376927327683
2873 -253.9393501318444
2874 -253.6050463676173
2875 -253.2676689061271
2876 -252.9286159782758
2877 -252.5963094491255
2878 -252.2403606550449
2879 -251.9180121352264
2880 -251.6006974715041
2881 -251.3025306690671
2882 -251.0379614847303
2883 -250.7512685777893
2884 -250.5042229307227
2885 -250.2459543512591
2886 -249.998103197465
2887 -249.7398974844938
2888 -249.4726534236607
2889 -249.1998765531345
2890 -248.9473043143155
2891 -248.6838981167494
2892 -248.3867805160968
2893 -248.0818683961767
2894 -247.7530264135835
2895 -247.42806143501
2896 -247.0905880594748
2897 -246.7417198525658
2898 -246.3932895320076
2899 -246.0693000482063
2900 -245.6910056776635
2901 -245.3198769618309
2902 -244.9453565675631
2903 -244.5792468650342
2904 -244.2214511810092
2905 -243.8731940290749
2906 -243.5028784017562
2907 -243.1488150912008
2908 -242.805224059421
2909 -242.4660661690411
2910 -242.1763645957124
2911 -241.8435455157934
2912 -241.5305052516874
2913 -241.2210373466107
2914 -240.8779929669788
2915 -240.5487129825791
2916 -240.2520315725511
2917 -239.9719028906721
2918 -239.6634538839021
2919 -239.3527014774629
2920 -239.0428996277584
2921 -238.7557340223148
2922 -238.4518030310539
2923 -238.151378478577
2924 -237.8707171327302
2925 -237.6031413638123
2926 -237.3650627095182
2927 -237.1674551787609
2928 -237.0096981296227
2929 -236.8993648248867
2930 -236.8056654931044
2931 -236.7168060279572
2932 -236.6569751861129
2933 -236.6364789911669
2934 -236.6113204229702
2935 -236.6545382631036
2936 -236.7315329426229
2937 -236.8843453966404
2938 -237.038813396798
2939 -237.2065254847631
2940 -237.3494193283329
2941 -237.5089607322394
2942 -237.6731559516577
2943 -237.8626561766257
2944 -238.0149729408448
2945 -238.180520833376
2946 -238.3141894121862
2947 -238.4196135098752
2948 -238.5396296660526
2949 -238.6432298619051
2950 -238.7226435649961
2951 -238.7816832972948
2952 -238.8874958096287
2953 -238.929412366227
2954 -238.9869108302266
2955 -239.073278864341
2956 -239.119858496911
2957 -239.1598832338596
2958 -239.2185836427639
2959 -239.2600528702253
2960 -239.3698190158881
2961 -239.5270058718572
2962 -239.6815854823068
2963 -239.9149196676842
2964 -240.2029371996182
2965 -240.5208000495135
2966 -240.8674018665085
2967 -241.2906263321927
2968 -241.73715558595
2969 -242.251125749359
2970 -242.7962248402569
2971 -243.3838924836598
2972 -244.0119112124297
2973 -244.6800211925846
2974 -245.3828025438468
2975 -246.0920635663167
2976 -246.8120485480435
2977 -247.5402501296253
2978 -248.2589791232463
2979 -249.0083476878279
2980 -249.7435238305915
2981 -250.4912838193661
2982 -251.1810968273742
2983 -251.8305222347361
2984 -252.4688330897077
2985 -253.0569945880999
2986 -253.6617946831937
2987 -254.25314310071
2988 -254.7732758536238
2989 -255.3326370102741
2990 -255.8362326119149
2991 -256.3287337147696
2992 -256.7348187804792
2993 -257.1626546621094
2994 -257.5220062541042
2995 -257.8677959171858
2996 -258.1783530539736
2997 -258.4679903108568
2998 -258.6880152260002
2999 -258.9315385808168
3000 -259.124431051246
3001 -259.3149962449123
3002 -259.4977694448269
3003 -259.6202145149937
3004 -259.7474194511792
3005 -259.8726916393297
3006 -260.0066698153429
3007 -260.1860222074991
3008 -260.3027554739898
3009 -260.4499805273533
3010 -260.5762485439654
3011 -260.7384843950803
3012 -260.8911140321674
3013 -261.0538170539491
3014 -261.2526154154089
3015 -261.4378888981547
3016 -261.6705786714402
3017 -261.9142902917931
3018 -262.223172291265
3019 -262.5531692291078
3020 -262.8919039501466
3021 -263.3010276526828
3022 -263.7327882710689
3023 -264.2182225739388
3024 -264.7222186124744
3025 -265.266497665683
3026 -265.8743568425783
3027 -266.5348956383179
3028 -267.2104559390765
3029 -267.9609634422204
3030 -268.7223270381805
3031 -269.4689443921037
3032 -270.2452881456621
3033 -271.0717492769193
3034 -271.9139334254071
3035 -272.7638708035662
3036 -273.5951783226115
3037 -274.4609208119919
3038 -275.2394511661782
3039 -276.0290424443468
3040 -276.7449894113696
3041 -277.4410669575057
3042 -278.0587775478137
3043 -278.636301868563
3044 -279.1591089560884
3045 -279.6041563761702
3046 -279.9896627738879
3047 -280.3317895207624
3048 -280.5375034218251
3049 -280.7157847873237
3050 -280.785968975287
3051 -280.8129905508598
3052 -280.7876090081066
3053 -280.6965122987216
3054 -280.592159238889
3055 -280.4407683441944
3056 -280.1863578994169
3057 -279.9319891790871
3058 -279.6496221247218
3059 -279.3686362911163
3060 -279.0303954264122
3061 -278.6625065082093
3062 -278.2912586782465
3063 -277.9556014537133
3064 -277.5876982990458
3065 -277.0893096205191
3066 -276.7498324229884
3067 -276.4057192663566
3068 -276.1041279790446
3069 -275.8436955178258
3070 -275.4904535809685
3071 -275.2692107374163
3072 -275.1191234852977
3073 -274.9090514199044
3074 -274.8135637071655
3075 -274.7807834316438
3076 -274.7595156274102
3077 -274.8054304660825
3078 -274.891210757163
3079 -275.1040615321239
3080 -275.294805611634
3081 -275.6279618307485
3082 -275.9119664081758
3083 -276.3929671357291
3084 -276.7937769311216
3085 -277.2654825796761
3086 -277.8915214954262
3087 -278.425998946992
3088 -279.0169561197348
3089 -279.6625849424868
3090 -280.2809497782381
3091 -280.9920678315427
3092 -281.6815935594243
3093 -282.3724354343971
3094 -283.0231522890959
3095 -283.6915471349099
3096 -284.3183660125919
3097 -284.9261680662349
3098 -285.503347543195
3099 -286.0520595991182
3100 -286.5238191192002
3101 -286.8566191927854
3102 -287.2834356530727
3103 -287.5970356905917
3104 -287.8775038604184
3105 -288.091021402459
3106 -288.1984329302119
3107 -288.2670395660824
3108 -288.2776360840876
3109 -288.2197107980286
3110 -288.0876972734803
3111 -287.9222869450674
3112 -287.6982347748582
3113 -287.4512513353271
3114 -287.1326363430215
3115 -286.7863981296962
3116 -286.3790903202112
3117 -285.9319469930167
3118 -285.4304732651545
3119 -284.880720500259
3120 -284.275537976959
3121 -283.6739791342396
3122 -283.0214679679536
3123 -282.3721843295364
3124 -281.6741256084829
3125 -280.9716497846586
3126 -280.2353268716643
3127 -279.4887486018561
3128 -278.69469378192
3129 -277.9389195598586
3130 -277.1440894096038
3131 -276.6055747101276
3132 -275.7469456385604
3133 -274.9165056841521
3134 -274.0904560877808
3135 -273.2740425516639
3136 -272.455673434045
3137 -271.6782973069459
3138 -270.9260787208206
3139 -270.1807654483817
3140 -269.465910375474
3141 -268.759688872387
3142 -268.0860807000021
3143 -267.4649015393001
3144 -266.8643361883161
3145 -266.2895823568326
3146 -265.7443301068432
3147 -265.2284132728989
3148 -264.7262174638495
3149 -264.2918965891023
3150 -263.8504247029265
3151 -263.4632139212622
3152 -263.0935087917431
3153 -262.7672092993444
3154 -262.4832125888506
3155 -262.2396001637735
3156 -262.0179970743867
3157 -261.8483841062405
3158 -261.6545183090816
3159 -261.5322904495883
3160 -261.4249180454576
3161 -261.376564225729
3162 -261.3322809503148
3163 -261.3344658680516
3164 -261.3109141948877
3165 -261.3231976758303
3166 -261.3263517162071
3167 -261.3547957637246
3168 -261.3648482557026
3169 -261.3889456570625
3170 -261.3807239010812
3171 -261.3646848883619
3172 -261.3398011769045
3173 -261.2903487755571
3174 -261.2026657145855
3175 -261.0712337057256
3176 -260.9193908249646
3177 -260.6986000967193
3178 -260.4430108284408
3179 -260.1527668539683
3180 -259.8015948188948
3181 -259.4060501775575
3182 -258.9181672744401
3183 -258.4029283157921
3184 -257.8132722683299
3185 -257.1788066902267
3186 -256.5020462793391
3187 -255.8042453137522
3188 -255.0270985669577
3189 -254.2196484220484
3190 -253.3874513837994
3191 -252.5175554068275
3192 -251.6212364312711
3193 -250.7093238699805
3194 -249.7796568396747
3195 -248.8380710409491
3196 -247.8706063295971
3197 -246.88435833776
3198 -245.8812255061066
3199 -244.8808171462759
3200 -243.8646695128235
3201 -242.8535915940246
3202 -241.8280436447451
3203 -240.7809441153806
3204 -240.0418999204911
3205 -238.9276381317316
3206 -237.8207947895829
3207 -236.7545109519967
3208 -236.0271289069818
3209 -234.9119328163732
3210 -233.8318710368499
3211 -232.7737309721627
3212 -231.7473773040163
3213 -230.7613407513907
3214 -229.8069767627711
3215 -228.8826804739845
3216 -227.9768998392698
3217 -227.0756239257426
3218 -226.240158945581
3219 -225.3944474530077
3220 -224.5640444816327
3221 -223.782346498253
3222 -223.0223544990498
3223 -222.2437854859072
3224 -221.5144656890117
3225 -220.8097900760129
3226 -220.0889489886081
3227 -219.4482258148919
3228 -218.7812381503014
3229 -218.1605951065599
3230 -217.5274635859309
3231 -216.9608356813089
3232 -216.3736285177395
3233 -215.8320269957818
3234 -215.2897165583515
3235 -214.7676477850236
3236 -214.2566029940545
3237 -213.7878027572658
3238 -213.3382792454586
3239 -212.8958723470174
3240 -212.5062603024275
3241 -212.159456515183
3242 -211.8329425749825
3243 -211.5212369909786
3244 -211.2257383102026
3245 -210.9874253430957
3246 -210.7246241592336
3247 -210.5294262874894
3248 -210.3458521928972
3249 -210.2098300999886
3250 -210.1105691460625
3251 -210.0602265658481
3252 -210.0539221506257
3253 -210.0880351489088
3254 -210.188187494427
3255 -210.3685424003581
3256 -210.5658477560688
3257 -210.799519604413
3258 -211.0741526052289
3259 -211.4806011778279
3260 -211.889119630221
3261 -212.3562918203591
3262 -212.8633497041187
3263 -213.429516254569
3264 -214.0062103142906
3265 -214.6413223898272
3266 -215.2851686261798
3267 -215.9596150820503
3268 -216.6483957540997
3269 -217.3848378018504
3270 -218.1370268145756
3271 -218.8893450663813
3272 -219.6792764848104
3273 -220.3969286892467
3274 -221.1446907886854
3275 -221.8778185950751
3276 -222.6016865115989
3277 -223.3252399033261
3278 -223.992669375967
3279 -224.6341472188563
3280 -225.2561116724277
3281 -225.8538507915068
3282 -226.3900213801922
3283 -226.8627421947564
3284 -227.270517927703
3285 -227.6466725219522
3286 -227.9678255446278
3287 -228.2421857610184
3288 -228.4421802441998
3289 -228.6156329466851
3290 -228.7160523349865
3291 -228.752411473917
3292 -228.7375622298858
3293 -228.6621495490245
3294 -228.5137028648424
3295 -228.3264436672397
3296 -228.0729932520557
3297 -227.7970633031558
3298 -227.4629222287166
3299 -227.0795635765218
3300 -226.6465014874992
3301 -226.204761501444
3302 -225.7120773834126
3303 -225.2356694713076
3304 -224.8547837210091
3305 -224.3040835786453
3306 -223.7338186178896
3307 -223.3551506437377
3308 -222.7571726387434
3309 -222.3615322444729
3310 -221.7368109381493
3311 -221.3373041026843
3312 -220.7510864021066
3313 -220.3578647223237
3314 -219.7741643742137
3315 -219.4231501418357
3316 -218.9223188660623
3317 -218.4833316864878
3318 -218.1052483197861
3319 -217.813752164453
3320 -217.5732119715757
3321 -217.4044354854379
3322 -217.2802692478479
3323 -217.2456273547481
3324 -217.2569407435849
3325 -217.339465829215
3326 -217.4692129346392
3327 -217.6545900228616
3328 -217.9102278846094
3329 -218.2160259135017
3330 -218.5536591760344
3331 -218.9606057548832
3332 -219.4084157856601
3333 -219.9382977820187
3334 -220.4776978877671
3335 -221.1132451005267
3336 -221.7316151111041
3337 -222.3940693187138
3338 -223.0638803360555
3339 -223.7537902382408
3340 -224.2392954924117
3341 -225.0403787743207
3342 -225.8047991711893
3343 -226.3296735254839
3344 -227.0800710108532
3345 -227.601840894302
3346 -228.3236925798724
3347 -228.8183928439154
3348 -229.5373645807086
3349 -229.9802069563789
3350 -230.602712418766
3351 -231.0143275030898
3352 -231.5510981034839
3353 -231.8907429456246
3354 -232.3489099753186
3355 -232.6109854895801
3356 -232.9794128548316
3357 -233.1983712087358
3358 -233.4842447821617
3359 -233.6701885174645
3360 -233.8655532394651
3361 -234.0148929200028
3362 -234.0698297617397
3363 -234.2001584458035
3364 -234.238883083595
3365 -234.2949827639106
3366 -234.371187491363
3367 -234.406346904062
3368 -234.4093915848768
3369 -234.4585621354148
3370 -234.4646986711089
3371 -234.4982000953989
3372 -234.5285841961655
3373 -234.5656952629034
3374 -234.6007710325069
3375 -234.6881795225256
3376 -234.7674342982228
3377 -234.8778177568786
3378 -234.9930448052632
3379 -235.15015521507
3380 -235.3190884706771
3381 -235.5256870613144
3382 -235.7431577813622
3383 -236.0012713758536
3384 -236.2675270332856
3385 -236.6122588675154
3386 -236.9576215287784
3387 -237.3695553066933
3388 -237.810382084757
3389 -238.2988998499401
3390 -238.8369445214146
3391 -239.4308622525898
3392 -240.0456011071318
3393 -240.7187736731239
3394 -241.408518526092
3395 -242.1592172232136
3396 -242.9122828429882
3397 -243.7362402446841
3398 -244.5824727251819
3399 -245.4780838494771
3400 -246.3842388870704
3401 -247.3202590763886
3402 -248.2317205964551
3403 -248.8802344549399
3404 -249.8612988018924
3405 -250.5544781523043
3406 -251.5870465347446
3407 -252.6047640942869
3408 -253.2553962253024
3409 -254.2476835431388
3410 -255.150931203031
3411 -256.0393017418986
3412 -256.8674936531889
3413 -257.6574631776281
3414 -258.3786605114684
3415 -259.1023028916652
3416 -259.7379953888789
3417 -260.3358267691982
3418 -260.8563000553979
3419 -261.3500134475122
3420 -261.7466052205615
3421 -262.1023951018162
3422 -262.4098262839607
3423 -262.6781470324169
3424 -262.8641551769375
3425 -263.0363059835877
3426 -263.1294701147016
3427 -263.1933429920306
3428 -263.2020233992736
3429 -263.1833712009041
3430 -263.115951423733
3431 -263.0272762930863
3432 -262.884406738404
3433 -262.7237534519871
3434 -262.5080720376388
3435 -262.280403523353
3436 -262.0028523300002
3437 -261.7200515012939
3438 -261.4161561955099
3439 -261.0999727480842
3440 -260.7564501003695
3441 -260.4192745457146
3442 -260.041569706283
3443 -259.6722369461415
3444 -259.2677171901051
3445 -258.9948063030654
3446 -258.5520148152711
3447 -258.1051880653557
3448 -257.6739427401227
3449 -257.2565272284713
3450 -256.8106958603037
3451 -256.4038718691135
3452 -255.9710719885042
3453 -255.5450623178856
3454 -255.1244356041414
3455 -254.7398451937314
3456 -254.3490907016347
3457 -253.9881697279759
3458 -253.6324122597463
3459 -253.3263344829838
3460 -252.9915448286577
3461 -252.7075823608179
3462 -252.4307502966629
3463 -252.1968422078088
3464 -251.973669657571
3465 -251.781738993737
3466 -251.606863328927
3467 -251.4665139299741
3468 -251.3085800183601
3469 -251.211647161266
3470 -251.093823533339
3471 -251.0203118306784
3472 -250.9363842377757
3473 -250.8832567133598
3474 -250.8386167173888
3475 -250.8127018560046
3476 -250.7763319039158
3477 -250.7618203109337
3478 -250.7083602173234
3479 -250.6763424558631
3480 -250.6148680929296
3481 -250.5455849735272
3482 -250.4672555876443
3483 -250.3703176844163
3484 -250.250715252848
3485 -250.1281011197349
3486 -249.9528449877575
3487 -249.7901002431838
3488 -249.579235078722
3489 -249.3760015768687
3490 -249.1192264184274
3491 -248.8638735981614
3492 -248.5496509074138
3493 -248.2546053592548
3494 -247.8961822224498
3495 -247.5268493611336
3496 -247.1269930607066
3497 -246.7270721357947
3498 -246.2519824508392
3499 -245.7708159244878
3500 -245.2695773052294
3501 -244.7794181228602
3502 -244.2391035771733
3503 -243.7330321828236
3504 -243.1363079757648
3505 -242.5848806581072
3506 -241.9745573721284
3507 -241.3877345809559
3508 -240.7897555544357
3509 -240.1745945842218
3510 -239.5482900609832
3511 -238.9714572864869
3512 -238.3846712689015
3513 -237.830666504039
3514 -237.2532108365678
3515 -236.7338597761444
3516 -236.205862185051
3517 -235.7183360437954
3518 -235.1145786699256
3519 -234.7388251650953
3520 -234.3759428098684
3521 -234.0863888397538
3522 -233.7287590660498
3523 -233.5318882788221
3524 -233.3590760984705
3525 -233.2516939708446
3526 -233.2158656237366
3527 -233.2538144263368
3528 -233.3532193820643
3529 -233.5271711114339
3530 -233.7223366854088
3531 -233.9795244413863
3532 -234.3995993253039
3533 -234.7655735362694
3534 -235.2164456502102
3535 -235.7135317563904
3536 -236.2663593972585
3537 -236.8959382558639
3538 -237.5503791541728
3539 -238.3048548281707
3540 -239.0916191168163
3541 -239.9225632990459
3542 -240.7753894894459
3543 -241.6812165455806
3544 -242.5789792820445
3545 -243.4730861498012
3546 -244.3255175529093
3547 -245.2059471844969
3548 -246.0308269114108
3549 -246.8938101465841
3550 -247.6795764177495
3551 -248.6374753299862
3552 -249.292791205896
3553 -249.8614264567984
3554 -250.5384402626352
3555 -250.981929300668
3556 -251.4225147036396
3557 -251.7031322650251
3558 -251.8876751557998
3559 -251.9749395364617
3560 -251.9926684871986
3561 -251.9634617137077
3562 -251.8002227797757
3563 -251.6409268402849
3564 -251.3149450341974
3565 -251.0399327019236
3566 -250.5723287970692
3567 -250.2044902978142
3568 -249.5975796478319
3569 -249.124339594201
3570 -248.5549973009934
3571 -247.8065730628173
3572 -247.1707871840398
3573 -246.5182123857979
3574 -245.788852975451
3575 -245.0223449144754
3576 -244.1817085113335
3577 -243.3439661499174
3578 -242.4249631756832
3579 -241.4767767699371
3580 -240.4973432405413
3581 -239.5075014692406
3582 -238.4817304044299
3583 -237.4779124628378
3584 -236.7162284241467
3585 -235.6032345644633
3586 -234.4785063381302
3587 -233.726733139533
3588 -232.5574312916959
3589 -231.4650559683478
3590 -230.344810317168
3591 -229.2981998554075
3592 -228.2603903346185
3593 -227.294603395717
3594 -226.3198652155431
3595 -225.4264648937663
3596 -224.557937932539
3597 -223.7722478527192
3598 -223.0123876759173
3599 -222.3283932283495
3600 -221.6707460355213
3601 -221.0798439539789
3602 -220.5420923304357
3603 -220.0836029783206
3604 -219.6760425455708
3605 -219.371332039546
3606 -219.0970082845063
3607 -218.9384699040272
3608 -218.8206456495994
3609 -218.8241311447347
3610 -218.8556255035459
3611 -218.9881672721527
3612 -219.1674472117504
3613 -219.4688834199295
3614 -219.7791505471385
3615 -220.1736916735446
3616 -220.6077518103971
3617 -221.1015326831537
3618 -221.5972251778037
3619 -222.1633180356467
3620 -222.731644303387
3621 -223.3529771724976
3622 -223.9488157011262
3623 -224.5834258835093
3624 -225.1875254546167
3625 -225.820150520469
3626 -226.4270910606167
3627 -227.0414219455414
3628 -227.5881967740715
3629 -228.1521009545226
3630 -228.6454798918113
3631 -229.1270861581126
3632 -229.540507530693
3633 -229.9582980727759
3634 -230.2952271327914
3635 -230.5915811001083
3636 -230.813827184865
3637 -231.032170664106
3638 -231.1632364682306
3639 -231.2844416483831
3640 -231.3270392897359
3641 -231.3438474478947
3642 -231.2946691670878
3643 -231.2294969402028
3644 -231.1303400968848
3645 -231.0121615003646
3646 -230.8469725157869
3647 -230.7115187482307
3648 -230.5187577954122
3649 -230.3575650507878
3650 -230.1578420127979
3651 -229.9787179806732
3652 -229.7806716451987
3653 -229.6209738170147
3654 -229.4502330702703
3655 -229.3382370644726
3656 -229.2127717073011
3657 -229.1449742205155
3658 -229.0825436542397
3659 -229.0685755654955
3660 -229.0342651328741
3661 -229.082337692244
3662 -229.1204775723781
3663 -229.2413736821611
3664 -229.3749748157896
3665 -229.5959413483235
3666 -229.7899146163813
3667 -230.055843467863
3668 -230.3167646463889
3669 -230.6381574424583
3670 -230.9458136019785
3671 -231.3423566068419
3672 -231.7263467016896
3673 -232.1461785894978
3674 -232.569227118035
3675 -233.0362865644556
3676 -233.4966275161164
3677 -233.9973912644184
3678 -234.4975452277716
3679 -235.0387863320053
3680 -235.5783177911306
3681 -236.1564453280393
3682 -236.7295148787533
3683 -237.3167753874684
3684 -237.905411892405
3685 -238.5193923949008
3686 -239.0802545426545
3687 -239.68602143825
3688 -240.2914035408721
3689 -240.9102621809461
3690 -241.318222473748
3691 -241.9785743470393
3692 -242.5965971439695
3693 -243.2145721313437
3694 -243.795116956164
3695 -244.2125840303544
3696 -244.8189910058073
3697 -245.4543264175085
3698 -246.0203566226716
3699 -246.4074838062464
3700 -246.9835539507317
3701 -247.5198837328726
3702 -247.8451068674112
3703 -248.3104888012624
3704 -248.7250734635402
3705 -249.0072712918577
3706 -249.3881522021651
3707 -249.628688086531
3708 -249.9299377304183
3709 -250.1133179920559
3710 -250.3434447183218
3711 -250.4813973733324
3712 -250.6420229767674
3713 -250.73108810673
3714 -250.7982554838905
3715 -250.8295008405415
3716 -250.8244083763057
3717 -250.806735918097
3718 -250.746469907984
3719 -250.6601280124946
3720 -250.5460048421827
3721 -250.4242654551938
3722 -250.2324778461269
3723 -250.0981328496767
3724 -249.9276741555261
3725 -249.6942412019988
3726 -249.5213231835408
3727 -249.3454458295183
3728 -249.0713532447339
3729 -248.8963603045608
3730 -248.6402900938031
3731 -248.4915352453863
3732 -248.2679602752602
3733 -248.0805485223654
3734 -247.955442799752
3735 -247.7991667771776
3736 -247.6523129820772
3737 -247.5576884629282
3738 -247.4701194819409
3739 -247.4442446734971
3740 -247.4417827056862
3741 -247.4759349473813
3742 -247.5116486108665
3743 -247.6037526935427
3744 -247.7018992800557
3745 -247.8355585591654
3746 -247.979303222996
3747 -248.1328704050338
3748 -248.2895469779122
3749 -248.4685218228781
3750 -248.653896435676
3751 -248.8507562636892
3752 -249.0546051875811
3753 -249.2560828074005
3754 -249.4575908841023
3755 -249.6500158948525
3756 -249.7847136750237
3757 -249.991475566315
3758 -250.161134641455
3759 -250.3294765904145
3760 -250.441791770931
3761 -250.6343895266464
3762 -250.7769690234224
3763 -250.9012484548711
3764 -251.0905889348747
3765 -251.2679650272794
3766 -251.4365041533819
3767 -251.582155978963
3768 -251.8020389090881
3769 -252.0416486646825
3770 -252.2835514606462
3771 -252.5633537545351
3772 -252.8615329257403
3773 -253.1972023215698
3774 -253.5860000821109
3775 -253.9960177787756
3776 -254.435218517433
3777 -254.9285735913646
3778 -255.4246088122347
3779 -255.9465436478686
3780 -256.4952150945911
3781 -257.0885695230041
3782 -257.6968568354557
3783 -258.3104322645795
3784 -258.900235714501
3785 -259.4934610148962
3786 -259.9076856960042
3787 -260.5226651734724
3788 -261.0850417125244
3789 -261.4506142253256
3790 -261.970793456372
3791 -262.2956858371368
3792 -262.716233586905
3793 -262.9574906504284
3794 -263.2555718670543
3795 -263.4735638602448
3796 -263.5772149290766
3797 -263.6426254997465
3798 -263.6294557694557
3799 -263.5314153220176
3800 -263.3627654613643
3801 -263.1217678020037
3802 -262.8313694099261
3803 -262.469095603139
3804 -262.0542997369226
3805 -261.5976805775895
3806 -261.0907220029841
3807 -260.569427787031
3808 -260.0124581740289
3809 -259.4376622892833
3810 -258.8325338244146
3811 -258.2120585064454
3812 -257.570767656156
3813 -256.9211245814164
3814 -256.2721481649799
3815 -255.6426607170299
3816 -255.0011198136114
3817 -254.3918032210871
3818 -253.7910671260796
3819 -253.2240467582766
3820 -252.6800703402641
3821 -252.1469292631674
3822 -251.6347488119399
3823 -251.1767675875804
3824 -250.7611919038499
3825 -250.4050333640221
3826 -250.0098862302247
3827 -249.7729249050465
3828 -249.5227508626771
3829 -249.3711808451028
3830 -249.2587375419151
3831 -249.2326631367113
3832 -249.2446793091633
3833 -249.3139910579062
3834 -249.4882831245308
3835 -249.6534138264818
3836 -249.9797294830709
3837 -250.2605963984814
3838 -250.7486430825328
3839 -251.1644460327595
3840 -251.7669166619059
3841 -252.2501323116568
3842 -252.8346151615697
3843 -253.432264741302
3844 -254.027954574643
3845 -254.6661904596982
3846 -255.3120914571427
3847 -255.9107485376092
3848 -256.5026217412938
3849 -257.0740215668335
3850 -257.7496681466446
3851 -258.2233044291638
3852 -258.625771751328
3853 -259.0323832317582
3854 -259.2525650304416
3855 -259.4078194759392
3856 -259.4958386410552
3857 -259.5020535198544
3858 -259.3598976449091
3859 -259.1602322468792
3860 -258.761369308182
3861 -258.4047226462607
3862 -257.8342797303083
3863 -257.31495269612
3864 -256.720512208724
3865 -255.8281825565412
3866 -255.0923941621184
3867 -254.2973429634269
3868 -253.4391189105265
3869 -252.4971384395168
3870 -251.5194760431541
3871 -250.4909137064446
3872 -249.3803233651127
3873 -248.2477981717315
3874 -247.0877182300563
3875 -245.8708257805694
3876 -244.6650314367213
3877 -243.4059764921404
3878 -242.1719398952945
3879 -240.9538027891039
3880 -239.7595879141279
3881 -238.5478725658779
3882 -237.3698774319088
3883 -236.2053549658595
3884 -235.0790829951951
3885 -233.9543086626208
3886 -232.8607146898182
3887 -231.8126004095107
3888 -230.7987991968064
3889 -229.5707729177206
3890 -228.7350152127201
3891 -227.937589786828
3892 -226.9869330232597
3893 -226.3186157737084
3894 -225.6921709261634
3895 -224.9376457105995
3896 -224.4467621349518
3897 -223.9832039293209
3898 -223.4511802627663
3899 -223.0951406552266
3900 -222.7924009965648
3901 -222.4966006248913
3902 -222.2394533050221
3903 -222.0111578042874
3904 -221.8274155298432
3905 -221.6570995690739
3906 -221.5216063666708
3907 -221.4039311996061
3908 -221.334965015556
3909 -221.282289811454
3910 -221.2328922168083
3911 -221.2291063569826
3912 -221.2540454999321
3913 -221.2826755316716
3914 -221.3471687842436
3915 -221.4103362862824
3916 -221.5055588096492
3917 -221.5874007448625
3918 -221.713888792795
3919 -221.836640756812
3920 -221.9529589961862
3921 -222.0899801855118
3922 -222.2404387826707
3923 -222.3713046529973
3924 -222.5432677086537
3925 -222.7032272303877
3926 -222.8970635503936
3927 -223.0850183009796
3928 -223.2960398277682
3929 -223.5326418502004
3930 -223.7775407570284
3931 -224.0140832426294
3932 -224.271769386699
3933 -224.5330751812009
3934 -224.8263788464306
3935 -225.144389322032
3936 -225.4842101529669
3937 -225.8535016112859
3938 -226.2436138176523
3939 -226.6316647988484
3940 -227.0682606090829
3941 -227.4917719375209
3942 -227.9139883858053
3943 -228.2958988268697
3944 -228.7232222439911
3945 -229.124741990154
3946 -229.5237406311593
3947 -229.9156668050087
3948 -230.2672314634752
3949 -230.5647863279374
3950 -230.8471312837443
3951 -231.0709868723421
3952 -231.2765293120807
3953 -231.4461769781866
3954 -231.5964554551251
3955 -231.6652700888746
3956 -231.6838232993192
3957 -231.6265173830975
3958 -231.5279152889679
3959 -231.3483999320714
3960 -231.1237651578136
3961 -230.702191154117
3962 -230.3534870775439
3963 -229.9315047933407
3964 -229.4547537479922
3965 -228.7412846423847
3966 -228.2035298968644
3967 -227.5921960044366
3968 -226.9463446803791
3969 -226.0507666988632
3970 -225.3936492345859
3971 -224.6627149128766
3972 -223.9266624706966
3973 -223.1633954816038
3974 -222.4364200370612
3975 -221.6770272865225
3976 -220.9687183730042
3977 -220.2876038728622
3978 -219.6105740959657
3979 -218.9719195289362
3980 -218.4252726042806
3981 -217.8991974325962
3982 -217.4617926998938
3983 -217.0559933757521
3984 -216.7464741359012
3985 -216.4434555883925
3986 -216.2822498989444
3987 -216.0317448445007
3988 -215.9262880292658
3989 -215.8184097337648
3990 -215.8228673570084
3991 -215.8791868281607
3992 -215.9908831811651
3993 -216.1005784544958
3994 -216.2532487103875
3995 -216.4394347407473
3996 -216.6696222789202
3997 -216.9127756670019
3998 -217.1922902374791
3999 -217.453848222226
4000 -217.7715486277601
4001 -218.0790507585883
4002 -218.4299784754908
4003 -218.7255178227692
4004 -219.0447271319221
4005 -219.3049370820487
4006 -219.5757508221307
4007 -219.7240989994996
4008 -219.9851022839625
4009 -220.1740686066979
4010 -220.3028177850654
4011 -220.4421673827472
4012 -220.5388165695223
4013 -220.6140256397526
4014 -220.6502876136694
4015 -220.6523043679926
4016 -220.6389460148703
4017 -220.5414869491554
4018 -220.4565589075261
4019 -220.255733785752
4020 -220.1097134529045
4021 -219.8345458032972
4022 -219.5267859918771
4023 -219.2577551810459
4024 -218.8458071074595
4025 -218.3757651302346
4026 -217.8769953474529
4027 -217.4927431553978
4028 -216.9576449921892
4029 -216.379086959035
4030 -215.8080277062209
4031 -215.3876809886814
4032 -214.8449394201839
4033 -214.2714031821747
4034 -213.9153406488172
4035 -213.390180508066
4036 -212.9053216204065
4037 -212.5917269659052
4038 -212.1984381484502
4039 -211.8075846050904
4040 -211.5084638365664
4041 -211.3123365132624
4042 -211.1070642782021
4043 -210.9611950645429
4044 -210.8959354939358
4045 -210.8981243793556
4046 -210.9675438966137
4047 -211.0877853559118
4048 -211.2947598687588
4049 -211.550788522197
4050 -211.9012169829485
4051 -212.2935244649311
4052 -212.7624804962688
4053 -213.2623679075256
4054 -213.796856617448
4055 -214.3622572910523
4056 -214.9646097851222
4057 -215.5734240631402
4058 -216.2268344480594
4059 -216.8977134852422
4060 -217.5625531889051
4061 -218.2232155342728
4062 -218.8815547672004
4063 -219.5238819106057
4064 -220.1788575090088
4065 -220.7927972130364
4066 -221.409958609492
4067 -221.9847347658178
4068 -222.5287448899583
4069 -223.0337109197543
4070 -223.5366878507866
4071 -223.8489604091257
4072 -224.304173432656
4073 -224.7023136763134
4074 -225.0937767421046
4075 -225.4347288363798
4076 -225.7534086994224
4077 -226.0246109848102
4078 -226.258812081491
4079 -226.4307537273563
4080 -226.6232175899574
4081 -226.7487863703593
4082 -226.8563553586046
4083 -226.9236640839957
4084 -226.9702437082101
4085 -227.006498182696
4086 -227.0053876179974
4087 -226.975985089005
4088 -226.9586169589234
4089 -226.93083706898
4090 -226.8842158485925
4091 -226.8573182685694
4092 -226.8399063651609
4093 -226.8185681362862
4094 -226.836327698891
4095 -226.8440542802884
4096 -226.8610544215229
4097 -226.8837280277476
4098 -226.9618930818929
4099 -227.0464900647592
4100 -227.1611888328017
4101 -227.3007809027261
4102 -227.4299732371116
4103 -227.65276587612
4104 -227.929414064605
4105 -228.213310558141
4106 -228.5973688112468
4107 -228.9636310889506
4108 -229.3928398010364
4109 -229.8568144367191
4110 -230.3528205150315
4111 -230.8654051059249
4112 -231.4538106449473
4113 -232.0507388200088
4114 -232.7089209139411
4115 -233.3712874103179
4116 -234.0544718256881
4117 -234.7640026747372
4118 -235.4476784686477
4119 -236.1253295061623
4120 -236.8147358338135
4121 -237.5295582101683
4122 -238.2215247453957
4123 -238.8880171797605
4124 -239.5381572327961
4125 -240.1550017997395
4126 -240.7609520421168
4127 -241.3650664576349
4128 -241.9499340643627
4129 -242.5223276640589
4130 -243.0424607958591
4131 -243.5167597415717
4132 -243.9730902896754
4133 -244.3458109555682
4134 -244.7281629496225
4135 -245.0309738693936
4136 -245.3047539472877
4137 -245.5050868441459
4138 -245.68406735378
4139 -245.8043925522213
4140 -245.9090257948303
4141 -245.9558494816528
4142 -245.9847060744054
4143 -245.9621306325977
4144 -245.903272884687
4145 -245.8009212176435
4146 -245.6616269889155
4147 -245.5116228355057
4148 -245.3216820850009
4149 -245.0934835974565
4150 -244.8705397745728
4151 -244.6345338384356
4152 -244.3961457159554
4153 -244.1979372542878
4154 -243.9226748669328
4155 -243.657211572809
4156 -243.4150232866584
4157 -243.2334299810302
4158 -242.9940376926931
4159 -242.8013223710014
4160 -242.6419812614824
4161 -242.4908607711046
4162 -242.3993183633238
4163 -242.3346709361972
4164 -242.3207746484769
4165 -242.3504435647528
4166 -242.4359213603222
4167 -242.5662858242051
4168 -242.7185042946529
4169 -242.9162747423365
4170 -243.1493780515704
4171 -243.4249990171967
4172 -243.7469980149104
4173 -244.0929493878912
4174 -244.4440620834096
4175 -244.8140573315062
4176 -245.21575627844
4177 -245.6015563161858
4178 -246.0086543910425
4179 -246.4224399324571
4180 -246.8093368481029
4181 -247.1954954800759
4182 -247.577770101525
4183 -247.8575828749806
4184 -248.2856488337175
4185 -248.5760873349271
4186 -248.9932041855566
4187 -249.260639704265
4188 -249.6439676857644
4189 -249.9026044006654
4190 -250.2563182502595
4191 -250.4880657736752
4192 -250.7994768774849
4193 -250.9775216414812
4194 -251.2044736444661
4195 -251.353349369518
4196 -251.5839186732584
4197 -251.7079462016159
4198 -251.8707756328628
4199 -251.9728817812353
4200 -252.0947202331011
4201 -252.1560855015454
4202 -252.2512689255202
4203 -252.3197103380221
4204 -252.4051255214214
4205 -252.4719674527273
4206 -252.6152082199657
4207 -252.6979118923559
4208 -252.8413603222902
4209 -252.9487575745286
4210 -253.1345320319963
4211 -253.2939068812913
4212 -253.5752787930508
4213 -253.7848520327628
4214 -254.1665952300081
4215 -254.4408386593178
4216 -254.9183538504936
4217 -255.3947271653915
4218 -255.7650803720633
4219 -256.3668961632732
4220 -257.0123384824248
4221 -257.6931378181771
4222 -258.3959832967125
4223 -259.1168713796206
4224 -259.8565856874995
4225 -260.6057829567819
4226 -261.3733342148055
4227 -262.1538678308805
4228 -262.9055996966997
4229 -263.6509059838349
4230 -264.3944568542157
4231 -265.0771932243006
4232 -265.744174478672
4233 -266.3702941311436
4234 -266.9693000812284
4235 -267.4957701056467
4236 -267.9856708645525
4237 -268.3964585005353
4238 -268.7693288239415
4239 -269.0670811924123
4240 -269.3153192468034
4241 -269.5229077412229
4242 -269.6628001941838
4243 -269.7743234439621
4244 -269.8315029771088
4245 -269.8549611707697
4246 -269.8238156568461
4247 -269.7645886612142
4248 -269.6459438195637
4249 -269.4986693888096
4250 -269.3104468099506
4251 -269.1135563201559
4252 -268.8891450899339
4253 -268.6350099148201
4254 -268.3485004159841
4255 -268.0554134028501
4256 -267.7625520140432
4257 -267.4658563700432
4258 -267.1566573935698
4259 -266.862842208624
4260 -266.5476054187873
4261 -266.2663927948514
4262 -265.9690533902706
4263 -265.6888903598716
4264 -265.3989719884706
4265 -265.1329243745681
4266 -264.938527872858
4267 -264.6548099008558
4268 -264.3836992200058
4269 -264.1333518993159
4270 -263.9077593243736
4271 -263.710744449701
4272 -263.5155650203026
4273 -263.3085417811062
4274 -263.1215045230618
4275 -262.9437890597936
4276 -262.7590572239787
4277 -262.60799045069
4278 -262.4417687086255
4279 -262.2991506136606
4280 -262.1609778109351
4281 -262.0471645251491
4282 -261.9447231857162
4283 -261.8761766854277
4284 -261.7962714717986
4285 -261.7417726686702
4286 -261.6896446346535
4287 -261.6471555343284
4288 -261.6366561110476
4289 -261.6393805270478
4290 -261.6479135924659
4291 -261.6640876833574
4292 -261.7153060605205
4293 -261.7871345706105
4294 -261.8688090003758
4295 -261.9740506766022
4296 -262.0940231019265
4297 -262.240324253076
4298 -262.4086730926492
4299 -262.5934092669202
4300 -262.81156826054
4301 -262.9699153685118
4302 -263.2575572464533
4303 -263.5380619308337
4304 -263.8193446322331
4305 -264.0607127840209
4306 -264.4251871110105
4307 -264.8075738195749
4308 -265.0652762196152
4309 -265.4625358496208
4310 -265.8520792565329
4311 -266.2663379711787
4312 -266.5617792270275
4313 -266.9855712748043
4314 -267.3974990084333
4315 -267.8240604783296
4316 -268.2139651395335
4317 -268.4618303812206
4318 -268.8381048778637
4319 -269.195099614283
4320 -269.4959359237477
4321 -269.7693612638338
4322 -270.020333542234
4323 -270.2476382820023
4324 -270.4534827594691
4325 -270.6235165610843
4326 -270.742855985207
4327 -270.8279667431483
4328 -270.8604048674852
4329 -270.853633009279
4330 -270.8372122441424
4331 -270.79430001111
4332 -270.7074943790239
4333 -270.5613675824146
4334 -270.3577894770824
4335 -270.1163366252068
4336 -269.8361201393104
4337 -269.6384856257356
4338 -269.2945545531284
4339 -268.9329376295531
4340 -268.5534483465291
4341 -268.148686752119
4342 -267.8760243707855
4343 -267.4471035899251
4344 -267.0214581839811
4345 -266.6246100268188
4346 -266.2150646242143
4347 -265.8275849731904
4348 -265.4552698365438
4349 -265.102116014686
4350 -264.8083324148985
4351 -264.5273462227684
4352 -264.2910380073533
4353 -264.105448754426
4354 -263.9615295294274
4355 -263.855759355422
4356 -263.7884087966958
4357 -263.7756988239716
4358 -263.8128272915429
4359 -263.8847361890263
4360 -264.0277940255696
4361 -264.2043591864764
4362 -264.4492440282554
4363 -264.742571551015
4364 -265.0985397739166
4365 -265.4835516603971
4366 -265.9322660464316
4367 -266.4074212547383
4368 -266.9007130984032
4369 -267.4458045348472
4370 -268.0289013628657
4371 -268.5849904251937
4372 -269.1774546123998
4373 -269.7519169721688
4374 -270.3267076674795
4375 -270.874188390516
4376 -271.42845322781
4377 -271.9807903098429
4378 -272.4997305823434
4379 -272.9789103226359
4380 -273.444295880544
4381 -273.8687170277553
4382 -274.2583667670081
4383 -274.6042168577616
4384 -274.9247413948727
4385 -275.1824846272336
4386 -275.4002543586516
4387 -275.5687766672177
4388 -275.6896784865553
4389 -275.7664795920796
4390 -275.8111052607751
4391 -275.7900937678307
4392 -275.7459097273834
4393 -275.6537314767456
4394 -275.5121800216757
4395 -275.3296100777467
4396 -275.0864176061311
4397 -274.8282365147901
4398 -274.5358030544662
4399 -274.1947974598569
4400 -273.8281267543192
4401 -273.4111483592266
4402 -273.1120291669571
4403 -272.590956101099
4404 -272.066178813241
4405 -271.6710548045203
4406 -271.0650315397215
4407 -270.4204002761976
4408 -269.9760056590451
4409 -269.2764091013207
4410 -268.5758999313518
4411 -267.863477139523
4412 -267.1730978211618
4413 -266.4917743656894
4414 -265.818207520462
4415 -265.1153886946329
4416 -264.4602011077733
4417 -263.8135899233863
4418 -263.2138056964758
4419 -262.6397859444303
4420 -262.1116285170057
4421 -261.6270577553657
4422 -261.1712331920933
4423 -260.7693213723095
4424 -260.4176409145129
4425 -260.1051302640807
4426 -259.851838819476
4427 -259.650016361618
4428 -259.5095843562259
4429 -259.4218007510962
4430 -259.3933405562292
4431 -259.4265037196391
4432 -259.5144461460044
4433 -259.6355293887098
4434 -259.823003360355
4435 -260.0418919098028
4436 -260.2163557572138
4437 -260.5029717075569
4438 -260.835338056413
4439 -261.088224988574
4440 -261.5031585998108
4441 -261.7991461560605
4442 -262.2515656451493
4443 -262.5612996170851
4444 -263.041320800774
4445 -263.354651725906
4446 -263.8484655119739
4447 -264.1764675721814
4448 -264.6585652277278
4449 -264.9551756785253
4450 -265.3958900630415
4451 -265.6692300635896
4452 -266.0861012986322
4453 -266.3303750122005
4454 -266.7042308570331
4455 -266.9904423672682
4456 -267.1899698768794
4457 -267.433354156256
4458 -267.6155769817599
4459 -267.7646103217978
4460 -267.884179198866
4461 -267.9594813483978
4462 -268.0178145363054
4463 -268.0277745941341
4464 -268.0041641206761
4465 -267.9469158375177
4466 -267.8494734433214
4467 -267.7378386672607
4468 -267.6138041602146
4469 -267.4559126412054
4470 -267.2969189390558
4471 -267.1005629942856
4472 -266.9097435517925
4473 -266.6952284911567
4474 -266.5052274454133
4475 -266.2682576796777
4476 -266.0779748228444
4477 -265.8504759250467
4478 -265.7056163616392
4479 -265.4993653614436
4480 -265.3274483814257
4481 -265.2126940045686
4482 -265.0845607781488
4483 -264.9750964036137
4484 -264.9087980200088
4485 -264.8275464585192
4486 -264.7945516054033
4487 -264.7781247773302
4488 -264.8000401588351
4489 -264.8469578491336
4490 -264.954992630236
4491 -265.0686662019012
4492 -265.2154083530389
4493 -265.3693540684624
4494 -265.5792858397206
4495 -265.7799225450867
4496 -265.9960015844882
4497 -266.2308113807176
4498 -266.4897247265729
4499 -266.738101933776
4500 -266.9981371704395
4501 -267.2454814070879
4502 -267.4996073924646
4503 -267.7527517457684
4504 -268.0151930888027
4505 -268.2455441293974
4506 -268.4842163486319
4507 -268.6962265836175
4508 -268.9144246326924
4509 -269.0817399183884
4510 -269.2547273906461
4511 -269.3782034467779
4512 -269.4957640783065
4513 -269.5988679179665
4514 -269.6545983835856
4515 -269.6944122515731
4516 -269.7201983445615
4517 -269.7105945790968
4518 -269.6873565304801
4519 -269.6151991270819
4520 -269.5402719213973
4521 -269.4118225797543
4522 -269.2850021513343
4523 -269.1233596001364
4524 -268.9680687888898
4525 -268.7858160598175
4526 -268.5904410280399
4527 -268.3849275730051
4528 -268.17521693768
4529 -267.9499684593397
4530 -267.7432174032031
4531 -267.521982829916
4532 -267.3175738170935
4533 -267.0949246282649
4534 -266.8978656554393
4535 -266.6756650076299
4536 -266.4806417491652
4537 -266.2696251302019
4538 -266.0824923997563
4539 -265.8560016380222
4540 -265.6556898416103
4541 -265.4928177307595
4542 -265.2635385733171
4543 -265.0489276122881
4544 -264.8359944977592
4545 -264.6097899192789
4546 -264.3957946649963
4547 -264.1779335552809
4548 -263.9648593443812
4549 -263.7419185045709
4550 -263.5409603436507
4551 -263.304977406576
4552 -263.1027878584542
4553 -262.8985120159796
4554 -262.7176881296861
4555 -262.5094771428544
4556 -262.3421562357757
4557 -262.1681218801874
4558 -262.0499396966434
4559 -261.8982234892241
4560 -261.7865094766368
4561 -261.6781769019705
4562 -261.6021615310493
4563 -261.510742292963
4564 -261.4345796630849
4565 -261.3530527668307
4566 -261.3024127283965
4567 -261.257011696996
4568 -261.2718355652812
4569 -261.2783378699954
4570 -261.3223471726741
4571 -261.3731376233113
4572 -261.4597853720791
4573 -261.5448352963869
4574 -261.6973681721141
4575 -261.830172478694
4576 -262.0500244931542
4577 -262.2811422044869
4578 -262.5529212141018
4579 -262.8209224017199
4580 -263.1714746045935
4581 -263.5187112890794
4582 -263.8197727947788
4583 -264.2901489735303
4584 -264.8173823267198
4585 -265.1833547730701
4586 -265.834304617287
4587 -266.4893065045275
4588 -266.9588685539866
4589 -267.6837449121987
4590 -268.237080823743
4591 -269.0670183784106
4592 -269.6658421125113
4593 -270.5718829582669
4594 -271.214077794691
4595 -272.1523854867719
4596 -272.823096657239
4597 -273.7929104591764
4598 -274.7705401456737
4599 -275.373712508389
4600 -276.3026763347322
4601 -277.1572014755114
4602 -277.979303462646
4603 -278.7000488901058
4604 -279.3898297136394
4605 -279.988346511812
4606 -280.5562396176167
4607 -281.0394001894715
4608 -281.4594380782018
4609 -281.7865965755055
4610 -282.0763760355765
4611 -282.2796563499028
4612 -282.4338040475993
4613 -282.5038903922367
4614 -282.5285264344775
4615 -282.4587322870913
4616 -282.3683671072853
4617 -282.204929170609
4618 -282.0054631000621
4619 -281.7028635857506
4620 -281.3792174041756
4621 -280.9907310579554
4622 -280.5758829231789
4623 -280.0872638351096
4624 -279.5848257996169
4625 -279.0506829150888
4626 -278.5056110063961
4627 -277.91704402261
4628 -277.3503663601454
4629 -276.760790446684
4630 -276.1815374098872
4631 -275.5834898466284
4632 -275.0336047455284
4633 -274.4286862098865
4634 -273.8911541882935
4635 -273.328441362554
4636 -272.8268212118392
4637 -272.3226160021308
4638 -271.8970749137045
4639 -271.4617705158321
4640 -271.06041962941
4641 -270.545833341
4642 -270.2362841503269
4643 -269.8617680945239
4644 -269.6358510025576
4645 -269.3241951978094
4646 -269.1705305760099
4647 -268.9391130425772
4648 -268.8400204431931
4649 -268.7029917329286
4650 -268.6684685447552
4651 -268.6281154147285
4652 -268.64579151187
4653 -268.6481985407931
4654 -268.6979722390723
4655 -268.7213697794289
4656 -268.804915129537
4657 -268.846020324012
4658 -268.9323268422536
4659 -269.0116546346756
4660 -269.1251311549553
4661 -269.2451488557077
4662 -269.3852914908408
4663 -269.519798085412
4664 -269.6818628772469
4665 -269.8304657449477
4666 -270.0245540186537
4667 -270.1883263869702
4668 -270.4049520757829
4669 -270.5775653463335
4670 -270.7796544571883
4671 -270.9365224410623
4672 -271.0841156579022
4673 -271.308325117146
4674 -271.5311102873122
4675 -271.6781310900599
4676 -271.9292874216007
4677 -272.0711055254579
4678 -272.2599826249157
4679 -272.3991041119478
4680 -272.591088626278
4681 -272.6616144493432
4682 -272.7854393493939
4683 -272.8385671152186
4684 -272.9178542130352
4685 -272.9308737379259
4686 -272.9651723760351
4687 -272.9339986235786
4688 -272.9072651108229
4689 -272.8657122693955
4690 -272.8348002574313
4691 -272.7447849899879
4692 -272.6489349803787
4693 -272.5425278001143
4694 -272.4512202788194
4695 -272.3516099765682
4696 -272.2687433663555
4697 -272.1879730244881
4698 -272.1102796063462
4699 -272.0410229100253
4700 -272.0021125778028
4701 -271.9625187549534
4702 -271.8994270578523
4703 -271.88524406383
4704 -271.8749194399457
4705 -271.8877021300265
4706 -271.9262419661071
4707 -271.9761962969529
4708 -272.0642471318553
4709 -272.1126381863639
4710 -272.2330017932045
4711 -272.3448115236193
4712 -272.4880865681008
4713 -272.5882368283641
4714 -272.8080860057285
4715 -273.0448780834478
4716 -273.33814771559
4717 -273.6403103827454
4718 -273.993323556653
4719 -274.3530810678914
4720 -274.7240032985952
4721 -275.098294767677
4722 -275.5160890112278
4723 -275.8917495369118
4724 -276.3228506652694
4725 -276.7301352029406
4726 -277.1203097493736
4727 -277.4835373375463
4728 -277.8353420981239
4729 -278.1416354620368
4730 -278.4254137525253
4731 -278.6764132404221
4732 -278.8986016685004
4733 -279.0223641550535
4734 -279.1102996039821
4735 -279.0779047343643
4736 -279.0147499220565
4737 -278.8491375379887
4738 -278.6437285816895
4739 -278.3567656897546
4740 -277.9400865279069
4741 -277.3385593189549
4742 -276.8503672640155
4743 -276.2325155350636
4744 -275.5269619132579
4745 -274.5013277548533
4746 -273.695624514476
4747 -272.7837785156742
4748 -271.8503954326898
4749 -270.8146036614456
4750 -269.7463845084242
4751 -268.5987298807991
4752 -267.4250007561952
4753 -266.148599730463
4754 -264.8779597823152
4755 -263.5565265319728
4756 -262.2368288888359
4757 -260.8904183918675
4758 -259.5595803187444
4759 -258.2479411833179
4760 -256.9653415278725
4761 -255.6631974091808
4762 -254.4296997574879
4763 -253.2038632784799
4764 -252.0584140575999
4765 -250.9541428278623
4766 -249.9403632829948
4767 -249.0040853326712
4768 -248.1579749455632
4769 -247.1968982094731
4770 -246.6261115211991
4771 -246.1123936777433
4772 -245.640703342914
4773 -245.3557686628745
4774 -245.1760082009933
4775 -245.1211649107406
4776 -245.2150395129266
4777 -245.3888304554015
4778 -245.6650132273609
4779 -246.1269264919005
4780 -246.6184507714778
4781 -247.1895810301089
4782 -248.0621458357353
4783 -248.7982503122562
4784 -249.6270397505458
4785 -250.5234478167874
4786 -251.4760874128908
4787 -252.4529477398293
4788 -253.5008190607668
4789 -254.5357558633754
4790 -255.5857704181469
4791 -256.6445443872838
4792 -257.6692444253251
4793 -258.6333505700272
4794 -259.56032811907
4795 -260.4254413585401
4796 -261.2264961889762
4797 -261.9649407457722
4798 -262.6288920385108
4799 -263.1867084865098
4800 -263.8175175017049
4801 -264.1886375821837
4802 -264.5052471915965
4803 -264.6745078951099
4804 -264.7683948790601
4805 -264.7477722921347
4806 -264.61661743709
4807 -264.4056231091949
4808 -264.0526177715032
4809 -263.6945314880833
4810 -263.1573160513919
4811 -262.6655331559555
4812 -261.97073456573
4813 -261.3846735624294
4814 -260.7526703792392
4815 -260.0397624991894
4816 -259.2868182566619
4817 -258.4868191702593
4818 -257.6694002750489
4819 -256.8044464978994
4820 -255.9150467923927
4821 -254.9989266102996
4822 -254.1092168368813
4823 -253.2109452267899
4824 -252.3099003087001
4825 -251.4036339568852
4826 -250.532070000297
4827 -249.6660495843135
4828 -248.8428224311101
4829 -248.0288177780964
4830 -247.2596631784549
4831 -246.5401595767664
4832 -245.8699129197492
4833 -245.2128770055556
4834 -244.6122385234862
4835 -244.077381687034
4836 -243.5780115611018
4837 -243.1461376168379
4838 -242.6779097313944
4839 -242.393900626063
4840 -242.183520844947
4841 -241.995173022326
4842 -241.9362985689477
4843 -241.9421175965018
4844 -242.0270832203204
4845 -242.2090212972871
4846 -242.4166639293364
4847 -242.7078314087745
4848 -243.0736112085734
4849 -243.5359723596559
4850 -244.0693198836885
4851 -244.6886427730942
4852 -245.3497598043006
4853 -246.0825452136612
4854 -246.8852495613077
4855 -247.7657993648654
4856 -248.6910491412161
4857 -249.6758104447996
4858 -250.6802668212284
4859 -251.7311391609377
4860 -252.4778394698815
4861 -253.6560624100583
4862 -254.8072979153
4863 -255.954569423416
4864 -257.0610790424524
4865 -258.179558118459
4866 -259.2246131036524
4867 -260.2510515023432
4868 -261.197958549718
4869 -262.1429133539416
4870 -262.9893576923216
4871 -263.808267164672
4872 -264.5144447466748
4873 -265.1820468069393
4874 -265.7655138034305
4875 -266.2911644872437
4876 -266.7261233152459
4877 -267.2004074475958
4878 -267.4670279205409
4879 -267.6902269340909
4880 -267.8099759106127
4881 -267.919313142904
4882 -267.9141149787662
4883 -267.8738182563738
4884 -267.7738254258763
4885 -267.6283210486458
4886 -267.3948782017509
4887 -267.1394575530314
4888 -266.8186137332697
4889 -266.4942872700253
4890 -266.125206743705
4891 -265.7405880975592
4892 -265.3025508691234
4893 -264.8783883428025
4894 -264.4150458330028
4895 -263.9628415333877
4896 -263.5043542525881
4897 -263.066481440088
4898 -262.5932258419803
4899 -262.1480811488875
4900 -261.6976228443069
4901 -261.2736153448907
4902 -260.8657673748284
4903 -260.491965368936
4904 -260.1321289071549
4905 -259.8074234191378
4906 -259.4948741023253
4907 -259.2062236329444
4908 -258.930857776715
4909 -258.704828341241
4910 -258.4909285659048
4911 -258.3302793973241
4912 -258.2129104983584
4913 -258.1129734872742
4914 -258.0442174634242
4915 -257.998781947594
4916 -257.9653544121884
4917 -257.9670490826119
4918 -257.9752374896005
4919 -258.0445611660572
4920 -258.1044015446085
4921 -258.1894058038511
4922 -258.2682832679166
4923 -258.3642909727823
4924 -258.4574630059321
4925 -258.577287922505
4926 -258.6627988157952
4927 -258.7759340018823
4928 -258.8386193577819
4929 -258.9051476618943
4930 -258.9384329849244
4931 -258.9915228001487
4932 -259.0299599499756
4933 -259.0648487066062
4934 -259.0663695617312
4935 -259.068912432889
4936 -259.0108733150396
4937 -258.977187498183
4938 -258.8885844706824
4939 -258.7884668396996
4940 -258.652911534479
4941 -258.5304864280889
4942 -258.3633716203972
4943 -258.1987560469578
4944 -257.9849960198394
4945 -257.785332579745
4946 -257.578316216094
4947 -257.3902974670522
4948 -257.1795967206479
4949 -257.0076706654172
4950 -256.8047887184517
4951 -256.6372579649282
4952 -256.4586227308509
4953 -256.3068199913151
4954 -256.1502220859493
4955 -256.0369781391032
4956 -255.9494908942152
4957 -255.9018549354999
4958 -255.8272599360341
4959 -255.8165451976216
4960 -255.7462821338821
4961 -255.748604217149
4962 -255.7424329567894
4963 -255.7917610830543
4964 -255.8021183219809
4965 -255.8791233321779
4966 -255.9473891743485
4967 -256.0296345360831
4968 -256.1081246445484
4969 -256.2393552255987
4970 -256.3582670169993
4971 -256.5038719381168
4972 -256.6557929905222
4973 -256.8301769297525
4974 -256.9929562474151
4975 -257.2250851940245
4976 -257.4191898565108
4977 -257.631238737798
4978 -257.8298043452946
4979 -258.0664760865837
4980 -258.2700778229757
4981 -258.5239489601783
4982 -258.7354292085803
4983 -258.9779823502019
4984 -259.2043053962966
4985 -259.4702488767919
4986 -259.6977773952303
4987 -259.9408486116732
4988 -260.1665845658175
4989 -260.4178768266108
4990 -260.5903991991536
4991 -260.8703563804495
4992 -261.0822604589526
4993 -261.3241645993371
4994 -261.4920979061221
4995 -261.6491735989956
4996 -261.8249129294637
4997 -261.9753332251115
4998 -262.0977515740652
4999 -262.2042891787959
5000 -262.2499663450799
5001 -262.3152217740322
5002 -262.3486503186879
5003 -262.3652185092548
5004 -262.3403079808173
5005 -262.3124422323439
5006 -262.2513673811021
5007 -262.2235301889093
5008 -262.1297616765521
5009 -262.0689444821893
5010 -261.9570764142749
5011 -261.8593861941525
5012 -261.7447582027177
5013 -261.6799492342869
5014 -261.5890632313666
5015 -261.5267950033758
5016 -261.4517410715686
5017 -261.4171959698829
5018 -261.3911002453551
5019 -261.3811717178233
5020 -261.3764380038083
5021 -261.4283937829147
5022 -261.4562561534833
5023 -261.5068636990633
5024 -261.5459735693034
5025 -261.6361790741721
5026 -261.7161987736681
5027 -261.8240879053257
5028 -261.8936011228576
5029 -261.9953915401873
5030 -262.0659144462793
5031 -262.1684672576026
5032 -262.2365514501329
5033 -262.328521054242
5034 -262.3525085442487
5035 -262.4014235848551
5036 -262.392502993003
5037 -262.3818888900829
5038 -262.3238741149917
5039 -262.2417138066454
5040 -262.0924163581781
5041 -261.9340735111381
5042 -261.7122465662848
5043 -261.497923168693
5044 -261.2008467308909
5045 -260.9014444905486
5046 -260.5345390365956
5047 -260.1359626804543
5048 -259.6939680856875
5049 -259.2512360248768
5050 -258.7722914385056
5051 -258.2475285306272
5052 -257.6926691558891
5053 -257.1317746977954
5054 -256.5540319826596
5055 -255.9931860969748
5056 -255.3511075294615
5057 -254.9446137674701
5058 -254.2640806740671
5059 -253.6208215669458
5060 -252.9464454963599
5061 -252.3031933264901
5062 -251.613450137799
5063 -250.9654918408388
5064 -250.2877532962269
5065 -249.6369378006697
5066 -248.9774412230304
5067 -248.3211197782681
5068 -247.6627057531591
5069 -247.0506608342831
5070 -246.4042412612377
5071 -245.796864177487
5072 -245.1871008204249
5073 -244.596442138451
5074 -244.0039050979593
5075 -243.4412128952144
5076 -242.8629724070944
5077 -242.3344295863087
5078 -241.7849794959849
5079 -241.2912682402582
5080 -240.7707781442167
5081 -240.26898660188
5082 -239.7896446206842
5083 -239.3651810025336
5084 -238.9270388048633
5085 -238.5338424308843
