"moment_x-rfile"
"Iteration" "moment_x"
("Iteration" "moment_x")
1 -22648.05626404061
2 -21906.10784868382
3 -19385.8327414762
4 -17148.25330342227
5 -14688.30244016373
6 -12475.19123076089
7 -10307.77276859331
8 -8472.746486939437
9 -6847.966441008491
10 -5230.720691740368
11 -3691.010289556473
12 -2531.069779305094
13 -1652.981136094032
14 -1128.732373368957
15 -801.8650287566799
16 -709.6447021811728
17 -792.3315677937061
18 -1023.670732224722
19 -1375.007564395106
20 -1758.433048547579
21 -2153.420673241411
22 -2593.6034823698
23 -2990.126205871221
24 -3449.509179523514
25 -3808.596174535126
26 -4139.821135912608
27 -4403.312958520477
28 -4594.073440612312
29 -4709.185596805741
30 -4808.093871598201
31 -4843.56755306972
32 -4877.046718345051
33 -4877.330439173468
34 -4879.698360602061
35 -4866.122665085612
36 -4858.111151164532
37 -4842.779581071704
38 -4827.689076846059
39 -4811.474657803988
40 -4797.154972869924
41 -4785.602471359644
42 -4778.300702107612
43 -4776.063832375829
44 -4774.559301260662
45 -4778.69268041419
46 -4782.675906450521
47 -4793.766900042507
48 -4801.289656218449
49 -4814.888461985516
50 -4826.455471845038
51 -4839.882367244404
52 -4851.749966133902
53 -4868.017952608462
54 -4886.375499667168
55 -4902.120912199759
56 -4919.662034065879
57 -4938.150207848816
58 -4952.451596159653
59 -4967.227107345823
60 -4978.053532899406
61 -4989.53013182109
62 -4996.928540472305
63 -5003.778803116501
64 -5009.39269130002
65 -5014.27658312124
66 -5016.694187231757
67 -5020.431704723352
68 -5021.971257526767
69 -5024.638134724225
70 -5024.9875215466
71 -5027.170641324534
72 -5027.148982650782
73 -5028.931294244609
74 -5028.473458944237
75 -5029.78413858859
76 -5028.960884229949
77 -5029.739716636477
78 -5028.491870318615
79 -5028.772104159885
80 -5027.156360684912
81 -5026.84312542491
82 -5023.967463764392
83 -5023.707700034614
84 -5020.775605717216
85 -5020.241192471087
86 -5017.105960365501
87 -5016.438626207862
88 -5014.08144874556
89 -5013.439032716869
90 -5011.028036501719
91 -5010.227648229057
92 -5007.844803222244
93 -5006.947213751894
94 -5004.501481272386
95 -5003.302315493292
96 -5000.758117127694
97 -4999.385081814643
98 -4996.633049485854
99 -4995.008235494347
100 -4992.142747426312
101 -4990.221886181298
102 -4987.189963176524
103 -4984.966175982208
104 -4981.813041068841
105 -4979.291821395277
106 -4975.969740042345
107 -4973.163975878781
108 -4969.737184328243
109 -4966.65362338448
110 -4963.130811996732
111 -4959.890583544639
112 -4956.35446647055
113 -4953.095121819048
114 -4949.529567744
115 -4946.142552872569
116 -4942.549559666943
117 -4939.183159478986
118 -4935.45980605762
119 -4932.048793688347
120 -4928.194367476402
121 -4924.794285421182
122 -4920.957714106667
123 -4917.636751809334
124 -4913.873497876373
125 -4910.623461807107
126 -4906.924529175484
127 -4903.825971991329
128 -4900.182253959874
129 -4897.247894380358
130 -4893.690564509788
131 -4890.910687080807
132 -4887.435612166146
133 -4884.778876053154
134 -4881.412687502882
135 -4878.877982395907
136 -4875.647229172693
137 -4873.211121151888
138 -4869.991849037121
139 -4867.777390726668
140 -4864.543624237882
141 -4862.403704963764
142 -4859.157676913492
143 -4857.095005176491
144 -4854.104523080068
145 -4852.247810386659
146 -4849.217528514647
147 -4847.468241106411
148 -4844.553828540692
149 -4842.995945015034
150 -4840.213457493004
151 -4838.875418676481
152 -4836.240361828331
153 -4834.974395908342
154 -4832.50787527537
155 -4831.436084544587
156 -4829.093179807212
157 -4828.18015522521
158 -4826.048686437103
159 -4825.264480233939
160 -4823.215991143875
161 -4822.525918583469
162 -4820.633581310432
163 -4820.070394436198
164 -4818.338035877175
165 -4817.967001532319
166 -4816.411630445602
167 -4816.175533599186
168 -4814.700331988408
169 -4814.52669529991
170 -4813.118683946629
171 -4813.081466668164
172 -4811.83339794034
173 -4811.912974624333
174 -4810.796100644121
175 -4811.016546073224
176 -4809.943675572801
177 -4810.25392390837
178 -4809.315501774527
179 -4809.662195827847
180 -4808.846492304503
181 -4809.252108091924
182 -4808.476189048186
183 -4808.960438664729
184 -4808.283617701742
185 -4808.81350095986
186 -4808.195129610451
187 -4808.857347763364
188 -4808.252232960482
189 -4808.910897230699
190 -4808.379816931739
191 -4809.139608409663
192 -4808.585194815037
193 -4809.353428042392
194 -4808.842344909083
195 -4809.605605927552
196 -4809.129037888315
197 -4809.908860607929
198 -4809.445331215427
199 -4810.213714287166
200 -4809.768179782429
201 -4810.547332984558
202 -4810.034563117411
203 -4810.78011456539
204 -4810.236014539609
205 -4810.961912458692
206 -4810.354953465753
207 -4810.987173712386
208 -4810.328779703624
209 -4810.940660275953
210 -4810.229155781625
211 -4810.830973045684
212 -4809.991480356644
213 -4810.51384663416
214 -4809.568341662252
215 -4810.01869809562
216 -4808.95676264152
217 -4809.294734716077
218 -4808.125446347486
219 -4808.333839859302
220 -4807.026535603703
221 -4807.06790293431
222 -4805.63902633154
223 -4805.60422576847
224 -4804.067438097909
225 -4803.839561866111
226 -4802.102365100792
227 -4801.758721142073
228 -4799.90520697324
229 -4799.365768833572
230 -4797.397398441484
231 -4796.704695716559
232 -4794.607438023289
233 -4793.817310222238
234 -4791.617479404024
235 -4790.70942419429
236 -4788.465437726067
237 -4787.357972921359
238 -4785.071054798197
239 -4783.925102502666
240 -4781.587902024969
241 -4780.28563530259
242 -4777.924486050397
243 -4776.602310502364
244 -4774.261992835814
245 -4772.891485419901
246 -4770.509823184606
247 -4769.141899525996
248 -4766.879925149932
249 -4765.546408107423
250 -4763.284215021155
251 -4761.966343599511
252 -4759.817530941144
253 -4758.572623319388
254 -4756.518293090437
255 -4755.336327543091
256 -4753.409228921841
257 -4752.290678479331
258 -4750.516218723094
259 -4749.559825445122
260 -4747.892776604235
261 -4747.02644744662
262 -4745.573763637548
263 -4744.841879353544
264 -4743.518644473354
265 -4742.941944688179
266 -4741.799808831693
267 -4741.349853320049
268 -4740.368084059741
269 -4740.066219958181
270 -4739.280727566765
271 -4739.106860710603
272 -4738.475669259385
273 -4738.436642325678
274 -4737.94644900194
275 -4738.08849154906
276 -4737.750252898169
277 -4738.025081187255
278 -4737.828429187451
279 -4738.171841678841
280 -4738.155767307641
281 -4738.637453627501
282 -4738.699029148474
283 -4739.3748324642
284 -4739.557702366389
285 -4740.336674038384
286 -4740.608627751003
287 -4741.491855674592
288 -4741.827079210452
289 -4742.764626346588
290 -4743.116323700876
291 -4744.131002216436
292 -4744.623805045691
293 -4745.697275235712
294 -4746.228991604359
295 -4747.415312827346
296 -4747.986522022135
297 -4749.185394477199
298 -4749.73448906296
299 -4751.043934840586
300 -4751.635270283915
301 -4753.018914253561
302 -4753.603243657573
303 -4755.03612540962
304 -4755.70411478297
305 -4757.194052542112
306 -4757.772755521793
307 -4759.349417330332
308 -4760.030708933614
309 -4761.644286189522
310 -4762.321222456403
311 -4764.042005259424
312 -4764.732097523172
313 -4766.435630204703
314 -4767.131741836317
315 -4768.945640189728
316 -4769.686060821594
317 -4771.470086293099
318 -4772.2839287005
319 -4774.161574824443
320 -4775.028278720064
321 -4776.86907991568
322 -4777.776860692328
323 -4779.712094679373
324 -4780.67472132998
325 -4782.589323443159
326 -4783.64696040291
327 -4785.598744081611
328 -4786.666948499028
329 -4788.623989830972
330 -4789.717512894304
331 -4791.698306712408
332 -4792.777951313621
333 -4794.756773766572
334 -4795.939301299643
335 -4797.963361165012
336 -4799.135588140614
337 -4801.129839300615
338 -4802.331897770767
339 -4804.39210103757
340 -4805.575299818121
341 -4807.638106077889
342 -4808.822852400198
343 -4810.920933100313
344 -4812.128500928053
345 -4814.245908645091
346 -4815.492123407505
347 -4817.688720308012
348 -4818.936987449517
349 -4821.114184740499
350 -4822.448416684552
351 -4824.65990693638
352 -4825.927866694466
353 -4828.143198562251
354 -4829.453163200182
355 -4831.688302894958
356 -4833.04080002251
357 -4835.266032346138
358 -4836.611631824264
359 -4838.939771474143
360 -4840.173833180696
361 -4842.523673414657
362 -4843.773818238979
363 -4846.117798155276
364 -4847.387696522591
365 -4849.714575269731
366 -4850.942954284857
367 -4853.301606011778
368 -4854.524736761472
369 -4856.951009093078
370 -4858.124219865628
371 -4860.503184861667
372 -4861.701270105186
373 -4864.04055159797
374 -4865.253899466335
375 -4867.706943010081
376 -4868.849943203275
377 -4871.291687884819
378 -4872.429348954144
379 -4874.845597021878
380 -4876.064459421022
381 -4878.516063517343
382 -4879.613334737759
383 -4882.117690613933
384 -4883.207445024458
385 -4885.653708361939
386 -4886.691129147515
387 -4889.178766011037
388 -4890.249427031552
389 -4892.713284153271
390 -4893.753116347231
391 -4896.211335804556
392 -4897.235840697438
393 -4899.599913234309
394 -4900.67415545186
395 -4903.068177098018
396 -4904.150788022498
397 -4906.485829867172
398 -4907.498500089282
399 -4909.820572980621
400 -4910.889465663312
401 -4913.199662360122
402 -4914.2252585123
403 -4916.557331113687
404 -4917.546867245585
405 -4919.831790302463
406 -4920.81575318613
407 -4923.090460634126
408 -4924.0663128139
409 -4926.324125274788
410 -4927.315147465034
411 -4929.563784217406
412 -4930.542812261925
413 -4932.738459821637
414 -4933.746958558645
415 -4935.928372923489
416 -4936.896898032141
417 -4939.033154063446
418 -4939.981227618498
419 -4942.133191311781
420 -4943.066215052982
421 -4945.144940761327
422 -4946.110360560349
423 -4948.146830668686
424 -4949.049903403417
425 -4951.081829113641
426 -4952.013882384364
427 -4954.005175333217
428 -4954.909579763559
429 -4956.909486545175
430 -4957.866867965217
431 -4959.85773336082
432 -4960.707697818533
433 -4962.698075244019
434 -4963.561097826616
435 -4965.51616460336
436 -4966.377035773528
437 -4968.262764299488
438 -4969.097850716093
439 -4971.006845130541
440 -4971.804221485483
441 -4973.682681576987
442 -4974.475939483486
443 -4976.347975406356
444 -4977.166924608263
445 -4978.991223173184
446 -4979.767945944642
447 -4981.614216858129
448 -4982.33729390463
449 -4984.167616819819
450 -4984.904756342815
451 -4986.721113162443
452 -4987.40322098141
453 -4989.18782658197
454 -4989.892287659657
455 -4991.656347830039
456 -4992.346967341426
457 -4994.049824345768
458 -4994.768176789069
459 -4996.512492894212
460 -4997.239027299113
461 -4998.979698170675
462 -4999.652946675542
463 -5001.372307946644
464 -5002.034530033357
465 -5003.691522175734
466 -5004.293025172893
467 -5005.927779608118
468 -5006.563721192973
469 -5008.178932657035
470 -5008.810561036452
471 -5010.43928551591
472 -5011.021188571038
473 -5012.643341195208
474 -5013.171397170297
475 -5014.776704907077
476 -5015.338809632599
477 -5016.927867279608
478 -5017.447479778182
479 -5019.042159136477
480 -5019.537259420824
481 -5021.121987618689
482 -5021.56892408645
483 -5023.106770659048
484 -5023.544630337845
485 -5025.122872644604
486 -5025.545635517767
487 -5027.09206783653
488 -5027.45241961928
489 -5029.014087188648
490 -5029.332838863801
491 -5030.923075531295
492 -5031.280840794979
493 -5032.849397756633
494 -5033.17202025064
495 -5034.766187908929
496 -5035.024335253848
497 -5036.616048964448
498 -5036.829725378238
499 -5038.3969232594
500 -5038.659422182365
501 -5040.224487311272
502 -5040.380172669348
503 -5041.92720648302
504 -5042.116743834481
505 -5043.682582052032
506 -5043.797837405903
507 -5045.368454137782
508 -5045.478820480388
509 -5047.014497935219
510 -5047.036291644133
511 -5048.549322610042
512 -5048.605416950886
513 -5050.156519452947
514 -5050.194106878124
515 -5051.735384600944
516 -5051.743854569745
517 -5053.231781704028
518 -5053.238294129312
519 -5054.711403209532
520 -5054.67730315551
521 -5056.160390561525
522 -5056.056020842277
523 -5057.547681751395
524 -5057.497659531663
525 -5058.918313239593
526 -5058.826887376023
527 -5060.339376760084
528 -5060.182801987613
529 -5061.676534159882
530 -5061.554128320095
531 -5063.017909657955
532 -5062.822226386772
533 -5064.321111252538
534 -5064.108962731638
535 -5065.622327882183
536 -5065.402919423627
537 -5066.856453160171
538 -5066.652607978021
539 -5068.134043025442
540 -5067.854762401775
541 -5069.320814400974
542 -5069.091308811749
543 -5070.502585280316
544 -5070.234716277141
545 -5071.692186451773
546 -5071.40653428265
547 -5072.820135069311
548 -5072.539440761728
549 -5073.894269622575
550 -5073.625016359845
551 -5075.00875501089
552 -5074.708732616784
553 -5076.063544348267
554 -5075.793686337404
555 -5077.087833382776
556 -5076.85184763604
557 -5078.140636755837
558 -5077.904006952662
559 -5079.190154512224
560 -5078.939549960163
561 -5080.180289191537
562 -5079.924270582945
563 -5081.14178496256
564 -5080.964837464918
565 -5082.150586457256
566 -5081.913167495803
567 -5083.051262778869
568 -5082.847839313842
569 -5083.984700405515
570 -5083.794892176315
571 -5084.926440528314
572 -5084.734690068387
573 -5085.773262884082
574 -5085.640546187247
575 -5086.68999956937
576 -5086.512482646661
577 -5087.534864935417
578 -5087.387877651807
579 -5088.367038141625
580 -5088.254665872052
581 -5089.266420971926
582 -5089.148813883799
583 -5090.098361596278
584 -5089.983918248661
585 -5090.940978009445
586 -5090.802720080573
587 -5091.738423896719
588 -5091.625327855789
589 -5092.572778580238
590 -5092.416616597945
591 -5093.318750160999
592 -5093.177124201313
593 -5094.07030795176
594 -5093.908783489038
595 -5094.769275115823
596 -5094.636661305924
597 -5095.527861789331
598 -5095.348712846243
599 -5096.234860066491
600 -5096.123882708486
601 -5097.002276939293
602 -5096.819322057241
603 -5097.754003400099
604 -5097.556452499609
605 -5098.459856566141
606 -5098.247289045868
607 -5099.142356582523
608 -5098.940038011553
609 -5099.867123942912
610 -5099.639376477096
611 -5100.527289051677
612 -5100.290523277027
613 -5101.222050266148
614 -5100.916930797904
615 -5101.777701209964
616 -5101.497299283156
617 -5102.403964057728
618 -5102.190143489646
619 -5103.05853299443
620 -5102.838134451135
621 -5103.674127436758
622 -5103.490457751841
623 -5104.324326976499
624 -5104.114786491117
625 -5104.931358545194
626 -5104.683106324602
627 -5105.512783163445
628 -5105.297953786174
629 -5106.100117200826
630 -5105.845880013787
631 -5106.639884803
632 -5106.409210621388
633 -5107.159812520811
634 -5106.963679024387
635 -5107.731528529343
636 -5107.561239759432
637 -5108.310229380231
638 -5108.137104288068
639 -5108.818363919391
640 -5108.6785495576
641 -5109.414935260553
642 -5109.275382596174
643 -5109.982309075498
644 -5109.859536185116
645 -5110.517828213174
646 -5110.376435216585
647 -5111.093694117623
648 -5110.877275008278
649 -5111.596202060144
650 -5111.361692662555
651 -5112.063634096895
652 -5111.816290752388
653 -5112.560579759604
654 -5112.279832993961
655 -5113.050423872289
656 -5112.743913253753
657 -5113.513440425536
658 -5113.230714274413
659 -5114.003289307535
660 -5113.700970416508
661 -5114.444874761321
662 -5114.183911872142
663 -5114.953260385389
664 -5114.685719774789
665 -5115.467166590016
666 -5115.165854616884
667 -5115.966566403045
668 -5115.670881295852
669 -5116.430202615426
670 -5116.136967989602
671 -5116.872869384699
672 -5116.560497246202
673 -5117.324938237718
674 -5116.917896981711
675 -5117.675924042794
676 -5117.335140190842
677 -5118.095928014763
678 -5117.691404287943
679 -5118.495950013032
680 -5118.088163465646
681 -5118.936620104604
682 -5118.481675054806
683 -5119.391523606835
684 -5118.959477466891
685 -5119.800119087924
686 -5119.311564557545
687 -5120.166234762344
688 -5119.696900101571
689 -5120.600947094082
690 -5120.130803714198
691 -5121.024344986754
692 -5120.521150470892
693 -5121.466710189131
694 -5120.936118608829
695 -5121.860972167483
696 -5121.366695640682
697 -5122.25533316272
698 -5121.690184213378
699 -5122.612479569614
700 -5122.095247554796
701 -5122.981599578502
702 -5122.406751693504
703 -5123.366298765363
704 -5122.791874020252
705 -5123.652264981221
706 -5123.136917680224
707 -5124.019785568525
708 -5123.48992627347
709 -5124.366834577836
710 -5123.864200942114
711 -5124.74345592678
712 -5124.219764558643
713 -5125.085715376793
714 -5124.593047668895
715 -5125.460214871882
716 -5124.947469502174
717 -5125.756318945383
718 -5125.286020503158
719 -5126.105741052706
720 -5125.628283371592
721 -5126.440405566896
722 -5125.976933392786
723 -5126.791993491174
724 -5126.306158804157
725 -5127.083655998917
726 -5126.633092937564
727 -5127.424730154429
728 -5126.967947273529
729 -5127.712091673427
730 -5127.331593711266
731 -5128.072798381111
732 -5127.646898582821
733 -5128.355329845562
734 -5127.915347720219
735 -5128.655289067487
736 -5128.220587798432
737 -5128.943047947672
738 -5128.542319730902
739 -5129.26487911343
740 -5128.767851306547
741 -5129.506065736641
742 -5129.101609080513
743 -5129.836336120066
744 -5129.356022384601
745 -5130.103649596023
746 -5129.686855758868
747 -5130.447630374952
748 -5129.990827996899
749 -5130.743598495619
750 -5130.291070686079
751 -5131.062854912504
752 -5130.602185444428
753 -5131.349181592839
754 -5130.872840071222
755 -5131.589527209706
756 -5131.164515560584
757 -5131.881727447624
758 -5131.410688400402
759 -5132.162421595643
760 -5131.662025915363
761 -5132.401767782235
762 -5131.920743562635
763 -5132.675783673176
764 -5132.139280412727
765 -5132.923560701262
766 -5132.436426940894
767 -5133.23081406006
768 -5132.718701265979
769 -5133.545153680532
770 -5132.997799337275
771 -5133.833693040941
772 -5133.228816084341
773 -5134.034250951396
774 -5133.491794941182
775 -5134.339479782803
776 -5133.754404037601
777 -5134.608171980775
778 -5133.96366763787
779 -5134.845713305795
780 -5134.216805469931
781 -5135.094241094413
782 -5134.407102031692
783 -5135.301290507944
784 -5134.621192480117
785 -5135.52452494089
786 -5134.89183452267
787 -5135.782969754603
788 -5135.077763346131
789 -5135.98308684397
790 -5135.293955369212
791 -5136.184296098459
792 -5135.503363765353
793 -5136.404178923088
794 -5135.719184191133
795 -5136.595007313298
796 -5135.944816385889
797 -5136.847433625423
798 -5136.192569500439
799 -5137.149576966687
800 -5136.476514521367
801 -5137.338741427276
802 -5136.666508849193
803 -5137.587042539029
804 -5136.893190948505
805 -5137.775985698106
806 -5137.124420615707
807 -5137.995722410968
808 -5137.384664008688
809 -5138.230543423732
810 -5137.590901067956
811 -5138.434037107656
812 -5137.83605568533
813 -5138.6329932267
814 -5138.015568201953
815 -5138.780069878039
816 -5138.199422012818
817 -5139.009484321097
818 -5138.384336091644
819 -5139.183932902703
820 -5138.620691052206
821 -5139.419881842461
822 -5138.823965046029
823 -5139.632208276242
824 -5138.976220391753
825 -5139.806579070788
826 -5139.207009032991
827 -5139.987857735937
828 -5139.352407309414
829 -5140.18765053403
830 -5139.512501000869
831 -5140.341280930689
832 -5139.714005120855
833 -5140.546554661167
834 -5139.94396894872
835 -5140.778527666237
836 -5140.061035653564
837 -5140.897005231463
838 -5140.255022774767
839 -5141.070863277301
840 -5140.420979337113
841 -5141.258874557537
842 -5140.566423491031
843 -5141.440025860678
844 -5140.7566667002
845 -5141.612044733432
846 -5140.909570004073
847 -5141.7971493604
848 -5141.07954006906
849 -5141.961468941018
850 -5141.284866030681
851 -5142.165341529372
852 -5141.43062737602
853 -5142.352823793713
854 -5141.585260897364
855 -5142.529355001015
856 -5141.712606327397
857 -5142.659161404804
858 -5141.840337912879
859 -5142.813209785272
860 -5142.038126227298
861 -5142.99374618127
862 -5142.160572918784
863 -5143.146626315401
864 -5142.286500539813
865 -5143.276917796542
866 -5142.435341323977
867 -5143.406245655902
868 -5142.562564007283
869 -5143.534525986858
870 -5142.73744467385
871 -5143.701135139724
872 -5142.894576281979
873 -5143.871536939112
874 -5143.102445958747
875 -5144.072105382964
876 -5143.246109446894
877 -5144.16964384807
878 -5143.368222152019
879 -5144.294780766973
880 -5143.489845450951
881 -5144.429499715308
882 -5143.622601016416
883 -5144.581599125594
884 -5143.752242985819
885 -5144.639179246214
886 -5143.917199510646
887 -5144.829261634524
888 -5144.001934158749
889 -5144.905333461456
890 -5144.125319783258
891 -5144.990448575131
892 -5144.252707621627
893 -5145.128437001618
894 -5144.460337328047
895 -5145.312664733708
896 -5144.600113224983
897 -5145.404490282549
898 -5144.730511295169
899 -5145.521745733753
900 -5144.864789293079
901 -5145.667990284175
902 -5145.013177512074
903 -5145.794730329039
904 -5145.076154164276
905 -5145.868931669366
906 -5145.241728234184
907 -5146.000085784125
908 -5145.266662828664
909 -5146.030458721641
910 -5145.367561209648
911 -5146.148748772811
912 -5145.484927732473
913 -5146.281574515622
914 -5145.640703314456
915 -5146.408485679849
916 -5145.755910544137
917 -5146.548007513711
918 -5145.870405909083
919 -5146.655590451735
920 -5145.965679505717
921 -5146.724536840637
922 -5146.063048221082
923 -5146.840553424852
924 -5146.1402914924
925 -5146.934309185274
926 -5146.298182207942
927 -5147.088293827293
928 -5146.373640884498
929 -5147.204882089342
930 -5146.501475299721
931 -5147.31461005143
932 -5146.551054048711
933 -5147.392336893554
934 -5146.631045987519
935 -5147.507432642958
936 -5146.779864050435
937 -5147.659485269449
938 -5146.874705274835
939 -5147.750722371904
940 -5146.996504555758
941 -5147.898982158847
942 -5147.078539506599
943 -5148.010012240853
944 -5147.161936340098
945 -5148.071482710229
946 -5147.24171650586
947 -5148.14983623673
948 -5147.313556061973
949 -5148.242405042963
950 -5147.385301904678
951 -5148.286052121784
952 -5147.420911836647
953 -5148.348019973592
954 -5147.507465656441
955 -5148.415143658296
956 -5147.589461170473
957 -5148.509143725765
958 -5147.694832118556
959 -5148.655965942666
960 -5147.849549514693
961 -5148.775174887928
962 -5147.937525621442
963 -5148.843831302485
964 -5148.048247404255
965 -5148.961344598878
966 -5148.160360094787
967 -5149.040681787727
968 -5148.235451798472
969 -5149.092136212077
970 -5148.30461664779
971 -5149.147762471158
972 -5148.411970257644
973 -5149.206498159411
974 -5148.447852473853
975 -5149.269297119383
976 -5148.58532350199
977 -5149.422053651526
978 -5148.700448459772
979 -5149.502119258089
980 -5148.75812237012
981 -5149.528621812703
982 -5148.873046248536
983 -5149.652378791844
984 -5148.89877641787
985 -5149.629911716338
986 -5148.942651678526
987 -5149.711051080283
988 -5149.031196900324
989 -5149.746093533038
990 -5149.085391096272
991 -5149.850661793044
992 -5149.153403690991
993 -5149.88279056613
994 -5149.177562104435
995 -5149.936898840155
996 -5149.238421390091
997 -5150.006465756512
998 -5149.342148061893
999 -5150.103673482571
1000 -5149.419132379016
1001 -5150.191041548936
1002 -5149.529233095215
1003 -5150.303782405567
1004 -5149.589354472859
1005 -5150.362743006062
1006 -5149.698216471036
1007 -5150.51098896731
1008 -5149.782260924113
1009 -5150.583678062141
1010 -5149.851770787327
1011 -5150.699214090994
1012 -5149.868815144729
1013 -5150.685301454192
1014 -5149.913736862332
1015 -5150.755561618013
1016 -5149.939191203464
1017 -5150.804916633928
1018 -5149.91154420583
1019 -5150.800060082268
1020 -5150.003374979833
1021 -5150.887541914392
1022 -5150.043340743779
1023 -5150.946606264424
1024 -5150.123095704629
1025 -5151.029025097001
1026 -5150.175906609252
1027 -5151.024206197173
1028 -5150.243248693051
1029 -5151.134547393852
1030 -5150.338862532055
1031 -5151.255440337133
1032 -5150.373753974874
1033 -5151.285074461379
1034 -5150.398388973546
1035 -5151.305560201336
1036 -5150.38063367569
1037 -5151.309685051648
1038 -5150.466116821033
1039 -5151.378394151485
1040 -5150.519210606268
1041 -5151.414224431729
1042 -5150.543239846844
1043 -5151.442523999119
1044 -5150.602239689153
1045 -5151.429833678884
1046 -5150.662214347949
1047 -5151.540283954026
1048 -5150.765412192861
1049 -5151.617367194756
1050 -5150.805613501585
1051 -5151.665679628054
1052 -5150.870992929949
1053 -5151.690993989124
1054 -5150.911696754324
1055 -5151.763563023119
1056 -5150.943393336475
1057 -5151.736547152516
1058 -5151.021720515214
1059 -5151.779961814977
1060 -5151.03059878035
1061 -5151.806163892961
1062 -5151.141458588067
1063 -5151.903002088083
1064 -5151.172596793927
1065 -5151.939152491384
1066 -5151.243110244137
1067 -5151.966090610811
1068 -5151.299469300652
1069 -5152.046339415266
1070 -5151.329909736412
1071 -5152.072486757042
1072 -5151.322973966237
1073 -5152.052928725575
1074 -5151.319230456657
1075 -5152.086012094758
1076 -5151.362336583731
1077 -5152.091252471419
1078 -5151.3958209427
1079 -5152.141642087241
1080 -5151.420351822425
1081 -5152.149644593065
1082 -5151.420742448074
1083 -5152.206583746344
1084 -5151.510805135342
1085 -5152.270759427821
1086 -5151.573222536416
1087 -5152.335518204231
1088 -5151.616309543612
1089 -5152.350714900114
1090 -5151.644290970179
1091 -5152.42184348295
1092 -5151.698097387446
1093 -5152.443593884767
1094 -5151.729546328178
1095 -5152.495767775411
1096 -5151.755947298612
1097 -5152.511447378532
1098 -5151.712791985668
1099 -5152.509449917445
1100 -5151.768898080561
1101 -5152.595861973234
1102 -5151.805703416286
1103 -5152.638471338852
1104 -5151.807306118811
1105 -5152.649049818779
1106 -5151.843574052476
1107 -5152.685871556263
1108 -5151.915904728728
1109 -5152.797518090327
1110 -5151.906175912944
1111 -5152.815334932449
1112 -5151.967696131053
1113 -5152.866179652097
1114 -5152.004461280104
1115 -5152.922288071901
1116 -5152.070027239949
1117 -5152.959963819017
1118 -5152.103899896424
1119 -5152.942293962128
1120 -5152.099786889758
1121 -5152.966562120849
1122 -5152.109821663549
1123 -5153.048119404873
1124 -5152.167100753633
1125 -5153.009954616759
1126 -5152.134216940093
1127 -5153.025309999983
1128 -5152.152693045316
1129 -5153.053937899987
1130 -5152.127490560818
1131 -5153.022519484506
1132 -5152.194847364906
1133 -5153.074979615533
1134 -5152.192552202532
1135 -5153.109596945055
1136 -5152.222270097718
1137 -5153.127090556329
1138 -5152.225199538208
1139 -5153.143406422136
1140 -5152.2144572965
1141 -5153.179252621291
1142 -5152.292419208688
1143 -5153.201180271933
1144 -5152.338765950015
1145 -5153.245978420154
1146 -5152.38800313272
1147 -5153.292969257419
1148 -5152.406124272538
1149 -5153.288010466424
1150 -5152.459817411285
1151 -5153.380099831485
1152 -5152.488717779633
1153 -5153.415180310381
1154 -5152.562981161528
1155 -5153.468475470901
1156 -5152.528388416652
1157 -5153.390854311593
1158 -5152.487089425593
1159 -5153.428852130659
1160 -5152.492655120436
1161 -5153.419290444297
1162 -5152.466750302084
1163 -5153.438586284459
1164 -5152.503502061764
1165 -5153.472229091793
1166 -5152.53544734521
1167 -5153.485088655208
1168 -5152.543120825071
1169 -5153.52271197856
1170 -5152.549868713802
1171 -5153.55790776962
1172 -5152.581714004606
1173 -5153.532981332085
1174 -5152.579705864703
1175 -5153.609053844799
1176 -5152.581453562793
1177 -5153.639082788418
1178 -5152.674031403299
1179 -5153.668159100259
1180 -5152.696614260307
1181 -5153.738944616945
1182 -5152.710520778589
1183 -5153.742632899815
1184 -5152.68689225144
1185 -5153.702033404184
1186 -5152.735150094118
1187 -5153.792265165501
1188 -5152.702261110662
1189 -5153.746949802621
1190 -5152.747802256215
1191 -5153.767903986763
1192 -5152.736129082538
1193 -5153.809297425603
1194 -5152.764178074071
1195 -5153.851836182004
1196 -5152.854245355446
1197 -5153.890357313555
1198 -5152.853150762769
1199 -5153.950549421427
1200 -5152.895460169115
1201 -5153.940839362733
1202 -5152.890567401523
1203 -5153.940773612605
1204 -5152.881396527562
1205 -5153.950384254048
1206 -5152.888053741241
1207 -5153.944340615236
1208 -5152.883885617464
1209 -5153.946687835008
1210 -5152.893514591782
1211 -5153.972835049563
1212 -5152.916048266421
1213 -5153.998447112631
1214 -5152.990487715952
1215 -5154.025812399687
1216 -5152.95198442408
1217 -5154.010824141077
1218 -5153.010640718775
1219 -5154.063755176786
1220 -5153.022580079247
1221 -5154.060944750448
1222 -5153.013681962222
1223 -5154.087237801378
1224 -5152.976473381901
1225 -5154.073296618583
1226 -5153.014458219685
1227 -5154.113876686486
1228 -5153.085427505249
1229 -5154.164945266852
1230 -5153.067014944129
1231 -5154.14549270152
1232 -5153.130240781418
1233 -5154.171415197055
1234 -5153.088829769193
1235 -5154.208547904239
1236 -5153.174539337994
1237 -5154.222467495545
1238 -5153.194924557938
1239 -5154.231641147514
1240 -5153.182816357664
1241 -5154.239867758617
1242 -5153.17980472668
1243 -5154.259001725963
1244 -5153.207657435515
1245 -5154.254162091584
1246 -5153.223008746235
1247 -5154.292111289913
1248 -5153.23082839109
1249 -5154.271305424052
1250 -5153.298854172285
1251 -5154.299985129858
1252 -5153.212112930788
1253 -5154.266130040351
1254 -5153.21045904144
1255 -5154.285999032249
1256 -5153.214198426846
1257 -5154.268360547912
1258 -5153.250760388849
1259 -5154.327737925054
1260 -5153.309652866862
1261 -5154.394270401169
1262 -5153.313698320278
1263 -5154.353026157282
1264 -5153.312832727697
1265 -5154.356274665318
1266 -5153.260439238268
1267 -5154.320781607291
1268 -5153.25467079357
1269 -5154.28513441912
1270 -5153.288613020458
1271 -5154.348052118401
1272 -5153.28017981377
1273 -5154.344825371266
1274 -5153.305355038746
1275 -5154.364522083285
1276 -5153.323762662947
1277 -5154.40011956464
1278 -5153.380112218066
1279 -5154.43293792343
1280 -5153.362419987307
1281 -5154.395850605371
1282 -5153.394100358933
1283 -5154.406099407806
1284 -5153.32949171557
1285 -5154.40854602206
1286 -5153.398365455639
1287 -5154.400338015164
1288 -5153.331729514576
1289 -5154.421554371099
1290 -5153.395434569348
1291 -5154.451393712098
1292 -5153.435614290383
1293 -5154.45425948574
1294 -5153.381864325145
1295 -5154.410264364747
1296 -5153.410354011111
1297 -5154.426518873317
1298 -5153.433557283955
1299 -5154.491124916728
1300 -5153.437208377261
1301 -5154.470204613976
1302 -5153.403702509407
1303 -5154.461788743258
1304 -5153.392218229047
1305 -5154.425213945236
1306 -5153.322242061333
1307 -5154.402667448325
1308 -5153.311517133805
1309 -5154.386553625208
1310 -5153.352000693968
1311 -5154.36129141297
1312 -5153.326641484625
1313 -5154.408186386217
1314 -5153.356040364085
1315 -5154.389590858933
1316 -5153.394393983122
1317 -5154.461295478014
1318 -5153.459999599348
1319 -5154.50844865342
1320 -5153.46878822448
1321 -5154.538012949723
1322 -5153.470829657917
1323 -5154.520187136892
1324 -5153.490398796554
1325 -5154.583906841127
1326 -5153.468904704812
1327 -5154.519672500907
1328 -5153.456677055311
1329 -5154.488509573189
1330 -5153.418461044535
1331 -5154.47427109963
1332 -5153.377156450927
1333 -5154.398603251374
1334 -5153.42437050207
1335 -5154.43956129255
1336 -5153.39144005287
1337 -5154.442824217052
1338 -5153.400660140201
1339 -5154.44032681523
1340 -5153.418255479705
1341 -5154.434099706068
1342 -5153.429761165678
1343 -5154.469114212729
1344 -5153.437055419929
1345 -5154.475294873318
1346 -5153.466344848101
1347 -5154.49277673857
1348 -5153.456440475815
1349 -5154.543549540323
1350 -5153.455856324613
1351 -5154.51044326305
1352 -5153.445658927209
1353 -5154.490460822649
1354 -5153.472035339846
1355 -5154.545860724844
1356 -5153.462084477808
1357 -5154.531825464188
1358 -5153.461652570906
1359 -5154.482918091197
1360 -5153.423180481647
1361 -5154.467846564846
1362 -5153.449548191609
1363 -5154.486618170843
1364 -5153.427077540176
1365 -5154.484280691014
1366 -5153.478229396426
1367 -5154.536545970419
1368 -5153.468359421744
1369 -5154.514357207079
1370 -5153.454258558957
1371 -5154.493451919362
1372 -5153.450921976361
1373 -5154.515596481177
1374 -5153.455278442744
1375 -5154.526100269722
1376 -5153.507159544447
1377 -5154.579005416076
1378 -5153.558091858431
1379 -5154.624547663671
1380 -5153.567611908696
1381 -5154.611154100668
1382 -5153.553482045041
1383 -5154.590741317816
1384 -5153.463317344495
1385 -5154.544031501528
1386 -5153.482003894253
1387 -5154.546231461296
1388 -5153.46120207931
1389 -5154.518946990603
1390 -5153.425958554069
1391 -5154.500138770852
1392 -5153.454202520667
1393 -5154.509613462888
1394 -5153.478285220465
1395 -5154.522402886179
1396 -5153.499137478281
1397 -5154.576182182768
1398 -5153.530353739893
1399 -5154.586876111533
1400 -5153.569989883244
1401 -5154.596038558866
1402 -5153.556204309649
1403 -5154.599203188297
1404 -5153.569076666011
1405 -5154.645874578682
1406 -5153.605579461486
1407 -5154.647907329469
1408 -5153.651908035608
1409 -5154.704218558118
1410 -5153.679830990775
1411 -5154.695641324105
1412 -5153.665990962206
1413 -5154.70557667391
1414 -5153.667153338251
1415 -5154.736202437042
1416 -5153.6917267371
1417 -5154.721414568751
1418 -5153.64334401781
1419 -5154.694443087045
1420 -5153.656744979114
1421 -5154.709122848377
1422 -5153.61503472861
1423 -5154.6680950312
1424 -5153.661495878841
1425 -5154.661243505709
1426 -5153.640841977811
1427 -5154.669128284982
1428 -5153.66757477986
1429 -5154.722187661458
1430 -5153.659349303309
1431 -5154.6790565996
1432 -5153.644287199926
1433 -5154.637416927088
1434 -5153.586280199615
1435 -5154.637406370729
1436 -5153.592243874123
1437 -5154.645814634498
1438 -5153.629196672059
1439 -5154.673889134782
1440 -5153.621827008861
1441 -5154.666181317519
1442 -5153.709024833219
1443 -5154.735239806445
1444 -5153.685448803423
1445 -5154.712176599792
1446 -5153.742155433468
1447 -5154.800935630297
1448 -5153.744273285753
1449 -5154.816287550397
1450 -5153.773711253604
1451 -5154.854630905276
1452 -5153.79890459553
1453 -5154.854048772988
1454 -5153.788207473948
1455 -5154.841326701668
1456 -5153.798809681693
1457 -5154.8516095038
1458 -5153.809011866605
1459 -5154.834712779716
1460 -5153.814198426468
1461 -5154.842054981359
1462 -5153.805960164654
1463 -5154.837719583462
1464 -5153.751052607067
1465 -5154.814486687648
1466 -5153.771880263388
1467 -5154.835063781401
1468 -5153.727189056
1469 -5154.795088465235
1470 -5153.751266774237
1471 -5154.80758420664
1472 -5153.741570047006
1473 -5154.780759241347
1474 -5153.764242754612
1475 -5154.842118025998
1476 -5153.734949190377
1477 -5154.810950302946
1478 -5153.751998463055
1479 -5154.82539295797
1480 -5153.804338530713
1481 -5154.866856697671
1482 -5153.808796780666
1483 -5154.855120102255
1484 -5153.843694826785
1485 -5154.867294231879
1486 -5153.848236271142
1487 -5154.914731044134
1488 -5153.848535243937
1489 -5154.933492499486
1490 -5153.875318585706
1491 -5154.928286237384
1492 -5153.845505389517
1493 -5154.896046485139
1494 -5153.839046180748
1495 -5154.882695664114
1496 -5153.821119723136
1497 -5154.820444031244
1498 -5153.831539248642
1499 -5154.900271512219
1500 -5153.82133637371
1501 -5154.895162397164
1502 -5153.898060725088
1503 -5154.940756314099
1504 -5153.894046936565
1505 -5154.93180085468
1506 -5153.888620830501
1507 -5154.958278449283
1508 -5153.869381776267
1509 -5154.91351712542
1510 -5153.908637844914
1511 -5154.999525251692
1512 -5153.954788503824
1513 -5155.057235049883
1514 -5153.948553747557
1515 -5155.012870038345
1516 -5153.983926207507
1517 -5155.024130066725
1518 -5153.954788360937
1519 -5155.007822416316
1520 -5153.971312789299
1521 -5154.960344602454
1522 -5153.920209555501
1523 -5154.943758064845
1524 -5153.927956278289
1525 -5154.968338469314
1526 -5153.899043695917
1527 -5154.93952355868
1528 -5153.925015180021
1529 -5154.962756591923
1530 -5153.917853799038
1531 -5154.967979620686
1532 -5153.909827056684
1533 -5154.980583275266
1534 -5153.956515805771
1535 -5155.037221433606
1536 -5153.943530362616
1537 -5155.032172570699
1538 -5153.971008349208
1539 -5155.032840435979
1540 -5153.931142916344
1541 -5154.999272696929
1542 -5153.968746213786
1543 -5155.02091785456
1544 -5153.92487605509
1545 -5154.993722630534
1546 -5153.967232980222
1547 -5155.025676560248
1548 -5153.967802624225
1549 -5155.038088682182
1550 -5154.018622103585
1551 -5155.05727746577
1552 -5154.019574515556
1553 -5155.058403298041
1554 -5154.012318046273
1555 -5155.042023985476
1556 -5153.999971034416
1557 -5155.016318435996
1558 -5153.967189655683
1559 -5154.994914426149
1560 -5153.954051400753
1561 -5154.995444898331
1562 -5153.930761020883
1563 -5154.968373876668
1564 -5154.008361469791
1565 -5155.046189946866
1566 -5153.988885142009
1567 -5155.010716173062
1568 -5153.999159953699
1569 -5155.054112072308
1570 -5154.045619699296
1571 -5155.110634377416
1572 -5154.057074817254
1573 -5155.091549635822
1574 -5153.984325756714
1575 -5155.028106490051
1576 -5154.014194551007
1577 -5155.060751884591
1578 -5153.99245075161
1579 -5155.028531750842
1580 -5153.952217095005
1581 -5155.01061462524
1582 -5153.998176193395
1583 -5155.035531673393
1584 -5154.026434757831
1585 -5155.076810395114
1586 -5154.029349518661
1587 -5155.055407541311
1588 -5154.068342879978
1589 -5155.102283556036
1590 -5154.027222675847
1591 -5155.069146695765
1592 -5154.062700221855
1593 -5155.106457142328
1594 -5154.078193182302
1595 -5155.126705175232
1596 -5154.099246824494
1597 -5155.149890639853
1598 -5154.036055036768
1599 -5155.08352813676
1600 -5154.013355977788
1601 -5155.102260359444
1602 -5154.013784452611
1603 -5155.083039862215
1604 -5154.053769918543
1605 -5155.094657174382
1606 -5154.022565041553
1607 -5155.107283645261
1608 -5154.042936335971
1609 -5155.120212057119
1610 -5154.02350123031
1611 -5155.052798769683
1612 -5154.020764269333
1613 -5155.093857007146
1614 -5154.069153392295
1615 -5155.097009353155
1616 -5154.03278332965
1617 -5155.072129063304
1618 -5154.045673432094
1619 -5155.079864146907
1620 -5154.036392312459
1621 -5155.068805193522
1622 -5154.013148226201
1623 -5155.061158750699
1624 -5154.011036770618
1625 -5155.049021084869
1626 -5153.983000527822
1627 -5154.999058011073
1628 -5153.977931852093
1629 -5155.010935163161
1630 -5154.037837303158
1631 -5155.080854040137
1632 -5154.067890122214
1633 -5155.126011936115
1634 -5154.064927706551
1635 -5155.11423081913
1636 -5154.050430169958
1637 -5155.078387861529
1638 -5154.105970907886
1639 -5155.13979725946
1640 -5154.063506467791
1641 -5155.089459305475
1642 -5154.037400053173
1643 -5155.116305080856
1644 -5154.063399569603
1645 -5155.156432379896
1646 -5154.097731476237
1647 -5155.12398460413
1648 -5154.094872799712
1649 -5155.133415232115
1650 -5154.068525240143
1651 -5155.089798788116
1652 -5154.064983973841
1653 -5155.126664079409
1654 -5154.066098493869
1655 -5155.132505674747
1656 -5154.104938925464
1657 -5155.153469413145
1658 -5154.05395273353
1659 -5155.092556174906
1660 -5154.081325057419
1661 -5155.149354769839
1662 -5154.05905982229
1663 -5155.111925614558
1664 -5154.038228718395
1665 -5155.102354368744
1666 -5154.110985218255
1667 -5155.149354998408
1668 -5154.086620930286
1669 -5155.133475491327
1670 -5154.063659858493
1671 -5155.096244002225
1672 -5154.037752843796
1673 -5155.061915134203
1674 -5154.012847712229
1675 -5155.030559625992
1676 -5154.030362801514
1677 -5155.035017785395
1678 -5154.048172906956
1679 -5155.076960424733
1680 -5154.038622447582
1681 -5155.084435008369
1682 -5154.06134599781
1683 -5155.071692347155
1684 -5153.984253868154
1685 -5155.000407235808
1686 -5154.006666272809
1687 -5155.049279686004
1688 -5153.99316183972
1689 -5155.021522879188
1690 -5153.997559951991
1691 -5155.038841223332
1692 -5154.013487143626
1693 -5155.077206956226
1694 -5154.050846983936
1695 -5155.086637569066
1696 -5154.04901414571
1697 -5155.111146663227
1698 -5154.043218061777
1699 -5155.107555299104
1700 -5154.038434917661
1701 -5155.040584234519
1702 -5153.993307131682
1703 -5155.031687179197
1704 -5153.988923104546
1705 -5155.013253904836
1706 -5153.964690940021
1707 -5154.977633818402
1708 -5154.022934755976
1709 -5155.096436427698
1710 -5154.050506352486
1711 -5155.091844677137
1712 -5154.015293269638
1713 -5155.022912193408
1714 -5154.023632878101
1715 -5155.079243924448
1716 -5154.032889600239
1717 -5155.099338332704
1718 -5154.050524781956
1719 -5155.074688660417
1720 -5154.082232027446
1721 -5155.130225797251
1722 -5154.062308437829
1723 -5155.123043739501
1724 -5154.087808720235
1725 -5155.093165309294
1726 -5154.037742469789
1727 -5155.101456347576
1728 -5153.986685031008
1729 -5155.109918314719
1730 -5154.053477739896
1731 -5155.081560700035
1732 -5154.031552973068
1733 -5155.07821352561
1734 -5154.05595972016
1735 -5155.095565280808
1736 -5154.026815326093
1737 -5155.045509920614
1738 -5154.005775971891
1739 -5155.056090350896
1740 -5154.023201709925
1741 -5155.086188738247
1742 -5154.053517071655
1743 -5155.064539139464
1744 -5154.051253744825
1745 -5155.109029161402
1746 -5154.076188606382
1747 -5155.086413280051
1748 -5154.027493609394
1749 -5155.055915519441
1750 -5154.017300436763
1751 -5155.042356923733
1752 -5154.015175272238
1753 -5155.08096469348
1754 -5154.037921547477
1755 -5155.059764482722
1756 -5154.088698740235
1757 -5155.128252179701
1758 -5154.103942824605
1759 -5155.159265905272
1760 -5154.061331076819
1761 -5155.112033558872
1762 -5154.070076539689
1763 -5155.124377192456
1764 -5154.018516967079
1765 -5155.119178129627
1766 -5154.065197298905
1767 -5155.112193125115
1768 -5154.054397228674
1769 -5155.125407229623
1770 -5154.089677990727
1771 -5155.128569731495
1772 -5154.113119383866
1773 -5155.137488930179
1774 -5154.135280403819
1775 -5155.160239407975
1776 -5154.097589672905
1777 -5155.144347871355
1778 -5154.072479944361
1779 -5155.085920389281
1780 -5154.046154200423
1781 -5155.077735554018
1782 -5154.023671000463
1783 -5155.075423291391
1784 -5154.052395825317
1785 -5155.097663362532
1786 -5154.072815677553
1787 -5155.139694426435
1788 -5154.124903679495
1789 -5155.157087236473
1790 -5154.10226262199
1791 -5155.081165733345
1792 -5154.013118503455
1793 -5155.068690293527
1794 -5154.054165396459
1795 -5155.073181964731
1796 -5154.034431427865
1797 -5155.09323724111
1798 -5154.09481800887
1799 -5155.170141609204
1800 -5154.082791791248
1801 -5155.149463528443
1802 -5154.148760512092
1803 -5155.162746426608
1804 -5154.136268539922
1805 -5155.142081948504
1806 -5154.154646344626
1807 -5155.191995639229
1808 -5154.131393605403
1809 -5155.127226986931
1810 -5154.104018953264
1811 -5155.148499042967
1812 -5154.098190457614
1813 -5155.166280707562
1814 -5154.109466203411
1815 -5155.147923175487
1816 -5154.10269489504
1817 -5155.161013315795
1818 -5154.113911763143
1819 -5155.186870693756
1820 -5154.125003661177
1821 -5155.145734510934
1822 -5154.174871923624
1823 -5155.213924512076
1824 -5154.13596453314
1825 -5155.199639958727
1826 -5154.18206397086
1827 -5155.213530859032
1828 -5154.142873885933
1829 -5155.183427570024
1830 -5154.099206069792
1831 -5155.160567745543
1832 -5154.110081019459
1833 -5155.180739539585
1834 -5154.112322829523
1835 -5155.159095309587
1836 -5154.129006015395
1837 -5155.144619259035
1838 -5154.12451568301
1839 -5155.166487832296
1840 -5154.12426983586
1841 -5155.158023390395
1842 -5154.119407145602
1843 -5155.139582736519
1844 -5154.096888224842
1845 -5155.156057958537
1846 -5154.118279321093
1847 -5155.215759853947
1848 -5154.160440303946
1849 -5155.210769525598
1850 -5154.162079967147
1851 -5155.202085509612
1852 -5154.086210021766
1853 -5155.167138384581
1854 -5154.120096496513
1855 -5155.158111059729
1856 -5154.127840782728
1857 -5155.17653309087
1858 -5154.13753414291
1859 -5155.192934805549
1860 -5154.143553442476
1861 -5155.18552052089
1862 -5154.151028196114
1863 -5155.166745017548
1864 -5154.105040842938
1865 -5155.189623905044
1866 -5154.122523821366
1867 -5155.16065082152
1868 -5154.12338506396
1869 -5155.188580402842
1870 -5154.150644350983
1871 -5155.201079718175
1872 -5154.099772133739
1873 -5155.1817716078
1874 -5154.166227148304
1875 -5155.18281633875
1876 -5154.127185488566
1877 -5155.173027134764
1878 -5154.132252425375
1879 -5155.148841971944
1880 -5154.074706690795
1881 -5155.105745112933
1882 -5154.058254770566
1883 -5155.07397456252
1884 -5154.015338868679
1885 -5155.092918471396
1886 -5154.052147353547
1887 -5155.085424027483
1888 -5154.055265725172
1889 -5155.105584667417
1890 -5154.111486004372
1891 -5155.134308314212
1892 -5154.050737440385
1893 -5155.118256699874
1894 -5154.083281662418
1895 -5155.142802758646
1896 -5154.104682732985
1897 -5155.167951577476
1898 -5154.149672697096
1899 -5155.194790796418
1900 -5154.148197911402
1901 -5155.159363296551
1902 -5154.152565278792
1903 -5155.146228408102
1904 -5154.140014663103
1905 -5155.15389257782
1906 -5154.110776363866
1907 -5155.10273915106
1908 -5154.097779525268
1909 -5155.136935876006
1910 -5154.079915574202
1911 -5155.114613748829
1912 -5154.06331171561
1913 -5155.111852595466
1914 -5154.046031942655
1915 -5155.090593381905
1916 -5154.070698234786
1917 -5155.105096281037
1918 -5154.100803953414
1919 -5155.122322601555
1920 -5154.08790428682
1921 -5155.127701933618
1922 -5154.130261611532
1923 -5155.127850759515
1924 -5154.05379687288
1925 -5155.097702113963
1926 -5154.081799673711
1927 -5155.103589408961
1928 -5154.078090410037
1929 -5155.086082754266
1930 -5154.066699877321
1931 -5155.088564337089
1932 -5154.066230471084
1933 -5155.104097608726
1934 -5154.107765901805
1935 -5155.119708194782
1936 -5154.075227332982
1937 -5155.144316526934
1938 -5154.128844282836
1939 -5155.186013018561
1940 -5154.118187590106
1941 -5155.122546166128
1942 -5154.136304436962
1943 -5155.182714793094
1944 -5154.11895687748
1945 -5155.158236329033
1946 -5154.104539713526
1947 -5155.14528747568
1948 -5154.091812621969
1949 -5155.153802630269
1950 -5154.156563166125
1951 -5155.200904143944
1952 -5154.115579646208
1953 -5155.14515865121
1954 -5154.116294504882
1955 -5155.129614927997
1956 -5154.07081053977
1957 -5155.129119629876
1958 -5154.106427325765
1959 -5155.120186401934
1960 -5154.120585620624
1961 -5155.115601349502
1962 -5154.070507193165
1963 -5155.086935217552
1964 -5154.077501722126
1965 -5155.0828199645
1966 -5154.094496993837
1967 -5155.085421751812
1968 -5154.083420460847
1969 -5155.104082255705
1970 -5154.07364389556
1971 -5155.066027929597
1972 -5154.007960039777
1973 -5155.029973894363
1974 -5154.039131440852
1975 -5155.08225079964
1976 -5154.019340790715
1977 -5155.090171159252
1978 -5154.005638021933
1979 -5155.080966388825
1980 -5154.079275239995
1981 -5155.127826793568
1982 -5154.120203571312
1983 -5155.138005444849
1984 -5154.155405077768
1985 -5155.216961084711
1986 -5154.220396412125
1987 -5155.247714767323
1988 -5154.204832927393
1989 -5155.228934893732
1990 -5154.176831495792
1991 -5155.217992488907
1992 -5154.115457065961
1993 -5155.158140042306
1994 -5154.092983286434
1995 -5155.120307881761
1996 -5154.077212680621
1997 -5155.100696409753
1998 -5154.085889222763
1999 -5155.13262251757
2000 -5154.053272620624
2001 -5155.132585156191
2002 -5154.093388931036
2003 -5155.158117051535
2004 -5154.109443754206
2005 -5155.185805402834
2006 -5154.180017350311
2007 -5155.177926389707
2008 -5154.123139538889
2009 -5155.155800168845
2010 -5154.133454734214
2011 -5155.114941423419
2012 -5154.083044280474
2013 -5155.084913399609
2014 -5154.082484798161
2015 -5155.103571639383
2016 -5154.030651905554
2017 -5155.088714303359
2018 -5154.068093632241
2019 -5155.078597643961
2020 -5154.042911128185
2021 -5155.065017972979
2022 -5154.086292649184
2023 -5155.099953309825
2024 -5154.083209201766
2025 -5155.095154108501
2026 -5154.079048364008
2027 -5155.132591499661
2028 -5154.082525232143
2029 -5155.17617441426
2030 -5154.196936981541
2031 -5155.223861697399
2032 -5154.199340754591
2033 -5155.210722801332
2034 -5154.181928580471
2035 -5155.223073270594
2036 -5154.150043186944
2037 -5155.196617094859
2038 -5154.199828985039
2039 -5155.240380803109
2040 -5154.154974917354
2041 -5155.232606569203
2042 -5154.206111505971
2043 -5155.203672414842
2044 -5154.132838641966
2045 -5155.156028645768
2046 -5154.133168775013
2047 -5155.170502455928
2048 -5154.140294259581
2049 -5155.173382659839
2050 -5154.16430027403
2051 -5155.235393477194
2052 -5154.191005054479
2053 -5155.225542606467
2054 -5154.160396153598
2055 -5155.181114933972
2056 -5154.090702046471
2057 -5155.152268365538
2058 -5154.097173276336
2059 -5155.14680283102
2060 -5154.074005982856
2061 -5155.149435510778
2062 -5154.112597389725
2063 -5155.200395242568
2064 -5154.16594899197
2065 -5155.244561630266
2066 -5154.212378125232
2067 -5155.221047113856
2068 -5154.183554664296
2069 -5155.249064712433
2070 -5154.194563492531
2071 -5155.233238916236
2072 -5154.145917551118
2073 -5155.180550175643
2074 -5154.122886206645
2075 -5155.216859068078
2076 -5154.156188338641
2077 -5155.20854788202
2078 -5154.224623689287
2079 -5155.206652526899
2080 -5154.166599658583
2081 -5155.238235649601
2082 -5154.186317545451
2083 -5155.225251330213
2084 -5154.180283904338
2085 -5155.220623710265
2086 -5154.159432386949
2087 -5155.226990146286
2088 -5154.142737794347
2089 -5155.229724163632
2090 -5154.167903890453
2091 -5155.207113249522
2092 -5154.201330837097
2093 -5155.271291983516
2094 -5154.223782005798
2095 -5155.257829852453
2096 -5154.250603085094
2097 -5155.278302947832
2098 -5154.222332117564
2099 -5155.305934811079
2100 -5154.246758533887
2101 -5155.298774207111
2102 -5154.221140555004
2103 -5155.269500825017
2104 -5154.197855135068
2105 -5155.240911960661
2106 -5154.230324148995
2107 -5155.261934700256
2108 -5154.189327347267
2109 -5155.217365522912
2110 -5154.258583028929
2111 -5155.291513608001
2112 -5154.265691140348
2113 -5155.323038087869
2114 -5154.280382847538
2115 -5155.312010182802
2116 -5154.234970009906
2117 -5155.218608434963
2118 -5154.185287826441
2119 -5155.20500857197
2120 -5154.162373966346
2121 -5155.188608305615
2122 -5154.126424922719
2123 -5155.189938419613
2124 -5154.137468064279
2125 -5155.2090992475
2126 -5154.183522025766
2127 -5155.212728168236
2128 -5154.205749577181
2129 -5155.267111184016
2130 -5154.248435398039
2131 -5155.291249039014
2132 -5154.245468656315
2133 -5155.258114024154
2134 -5154.215245990636
2135 -5155.279921093648
2136 -5154.177305356821
2137 -5155.240048406891
2138 -5154.182329777424
2139 -5155.214384755976
2140 -5154.184404883578
2141 -5155.258944536109
2142 -5154.209402467968
2143 -5155.266950866702
2144 -5154.21582843214
2145 -5155.229944146183
2146 -5154.222404632328
2147 -5155.274248663198
2148 -5154.196786648877
2149 -5155.22279253229
2150 -5154.151396878678
2151 -5155.15242111808
2152 -5154.145679956083
2153 -5155.21973542187
2154 -5154.141171503635
2155 -5155.202199084193
2156 -5154.189207910216
2157 -5155.22379381435
2158 -5154.209701184987
2159 -5155.304990797219
2160 -5154.262700458196
2161 -5155.306733820712
2162 -5154.240190650711
2163 -5155.290143719217
2164 -5154.271558944397
2165 -5155.310787390103
2166 -5154.230507349021
2167 -5155.245006399821
2168 -5154.18709197829
2169 -5155.196249673128
2170 -5154.188041251335
2171 -5155.213327911741
2172 -5154.16547396544
2173 -5155.227223355484
2174 -5154.192498683859
2175 -5155.208664459487
2176 -5154.202576227333
2177 -5155.201762462922
2178 -5154.184999622186
2179 -5155.255957416692
2180 -5154.188981899089
2181 -5155.203588243051
2182 -5154.165753639635
2183 -5155.220546797369
2184 -5154.145704925373
2185 -5155.217247368896
2186 -5154.152671305113
2187 -5155.202817357579
2188 -5154.211253430367
2189 -5155.255563736718
2190 -5154.260811280498
2191 -5155.292364531218
2192 -5154.227533932085
2193 -5155.248535763446
2194 -5154.259976576443
2195 -5155.31403960546
2196 -5154.253654948966
2197 -5155.28512594392
2198 -5154.220547985097
2199 -5155.251231911078
2200 -5154.181641745907
2201 -5155.193143429417
2202 -5154.137564896393
2203 -5155.190433009225
2204 -5154.116305858748
2205 -5155.181791942272
2206 -5154.149827366293
2207 -5155.233861126019
2208 -5154.194667802449
2209 -5155.226900535925
2210 -5154.172936209937
2211 -5155.21686319671
2212 -5154.145639387351
2213 -5155.146985924365
2214 -5154.195484985501
2215 -5155.245328627543
2216 -5154.189482630541
2217 -5155.24007288179
2218 -5154.220714736733
2219 -5155.310730108376
2220 -5154.192173898409
2221 -5155.281577156181
2222 -5154.236763299221
2223 -5155.248432861174
2224 -5154.213804285559
2225 -5155.223211795706
2226 -5154.197907760291
2227 -5155.22565727954
2228 -5154.121996132798
2229 -5155.145688876271
2230 -5154.127315269087
2231 -5155.166053699278
2232 -5154.17579776579
2233 -5155.22031378482
2234 -5154.18814025655
2235 -5155.211819113427
2236 -5154.220366057396
2237 -5155.236522370213
2238 -5154.228128918567
2239 -5155.235735399789
2240 -5154.169325601696
2241 -5155.207488889185
2242 -5154.177702167889
2243 -5155.204482006818
2244 -5154.165124041137
2245 -5155.224379697788
2246 -5154.144105862163
2247 -5155.163136393041
2248 -5154.138339020948
2249 -5155.152013033574
2250 -5154.137520311871
2251 -5155.184344163936
2252 -5154.167696262763
2253 -5155.178317274786
2254 -5154.139427264087
2255 -5155.160777950356
2256 -5154.095294888997
2257 -5155.169001116644
2258 -5154.149766658331
2259 -5155.167262091999
2260 -5154.107324988286
2261 -5155.154547979305
2262 -5154.157636971659
2263 -5155.193789408144
2264 -5154.167074767368
2265 -5155.199469841223
2266 -5154.182078990283
2267 -5155.258731597999
2268 -5154.177868010457
2269 -5155.227085794594
2270 -5154.186450549682
2271 -5155.196030321794
2272 -5154.142778997566
2273 -5155.200852774586
2274 -5154.144844442446
2275 -5155.135474681832
2276 -5154.113295688094
2277 -5155.094728235118
2278 -5154.087833237189
2279 -5155.129660207277
2280 -5154.117852336474
2281 -5155.143651459226
2282 -5154.115234227982
2283 -5155.17681968261
2284 -5154.12024656938
2285 -5155.155179339037
2286 -5154.153247190839
2287 -5155.199633047082
2288 -5154.141027283714
2289 -5155.142868230972
2290 -5154.123124995287
2291 -5155.169948030609
2292 -5154.072962146463
2293 -5155.121150372911
2294 -5154.136327071374
2295 -5155.144629932558
2296 -5154.13190474981
2297 -5155.168918577965
2298 -5154.144571652013
2299 -5155.186669578301
2300 -5154.09661161182
2301 -5155.106222920257
2302 -5154.122327766116
2303 -5155.172328779312
2304 -5154.111979789661
2305 -5155.168661600736
2306 -5154.103886403243
2307 -5155.109177212898
2308 -5154.072382697117
2309 -5155.095319855246
2310 -5154.001605904045
2311 -5155.094234436283
2312 -5154.017033705275
2313 -5155.030971304358
2314 -5154.026334853503
2315 -5155.095585337455
2316 -5154.089433551647
2317 -5155.142788299401
2318 -5154.125548434698
2319 -5155.178794018956
2320 -5154.154084223992
2321 -5155.20750592688
2322 -5154.192739833431
2323 -5155.202058179359
2324 -5154.175588884792
2325 -5155.201011711677
2326 -5154.140136201483
2327 -5155.210057130107
2328 -5154.162035158849
2329 -5155.190226746315
2330 -5154.116039456112
2331 -5155.145474825157
2332 -5154.127595162067
2333 -5155.183762462692
2334 -5154.180427785968
2335 -5155.189841896391
2336 -5154.077033939981
2337 -5155.058019509762
2338 -5154.002576232565
2339 -5155.042640139234
2340 -5153.990183327305
2341 -5155.044234848551
2342 -5153.99661294284
2343 -5155.007289258664
2344 -5153.993077324098
2345 -5155.056517662486
2346 -5154.038558051118
2347 -5155.11064501948
2348 -5154.091417862099
2349 -5155.106459358854
2350 -5154.149265374775
2351 -5155.233852869476
2352 -5154.165360096637
2353 -5155.20073776665
2354 -5154.170192438347
2355 -5155.19274974671
2356 -5154.142027334788
2357 -5155.178239471084
2358 -5154.152790025218
2359 -5155.182598685485
2360 -5154.140780503431
2361 -5155.121346522121
2362 -5154.102550465385
2363 -5155.122573039283
2364 -5154.108614117155
2365 -5155.128759638789
2366 -5154.077667068319
2367 -5155.070043351021
2368 -5154.040093935548
2369 -5155.058541665373
2370 -5154.046681080534
2371 -5155.091463938392
2372 -5154.035185241014
2373 -5155.077331054479
2374 -5154.023500985714
2375 -5155.084943541915
2376 -5154.019430959657
2377 -5155.068174164583
2378 -5154.083284655801
2379 -5155.129519539871
2380 -5154.095342489914
2381 -5155.144843584596
2382 -5154.125067269179
2383 -5155.15065762221
2384 -5154.117206112418
2385 -5155.154668647916
2386 -5154.085223491223
2387 -5155.135281087019
2388 -5154.07226548058
2389 -5155.105213225671
2390 -5154.088843398691
2391 -5155.112997151768
2392 -5154.019145284599
2393 -5155.07213482864
2394 -5154.023280081445
2395 -5155.08204651207
2396 -5154.022239915284
2397 -5155.0330733275
2398 -5154.061700216333
2399 -5155.07938308149
2400 -5154.026581005059
2401 -5155.051875561967
2402 -5154.002780547179
2403 -5155.043349879616
2404 -5153.988295916689
2405 -5155.015853147053
2406 -5154.006444005794
2407 -5155.058399749975
2408 -5154.102352434136
2409 -5155.131327416992
2410 -5154.108248675187
2411 -5155.190371243408
2412 -5154.115144646945
2413 -5155.157723438915
2414 -5154.15558286344
2415 -5155.165169507899
2416 -5154.091588756974
2417 -5155.105232233765
2418 -5154.048484235539
2419 -5155.073972652594
2420 -5154.032709280281
2421 -5155.040070431976
2422 -5154.027162570097
2423 -5155.050293990617
2424 -5154.024886098433
2425 -5155.069620786133
2426 -5154.0658665875
2427 -5155.058546221532
2428 -5154.040504659325
2429 -5155.070372327454
2430 -5154.060281566366
2431 -5155.068633510429
2432 -5154.068406443123
2433 -5155.055856733868
2434 -5154.059441833664
2435 -5155.099329429195
2436 -5154.035390207541
2437 -5155.08080871098
2438 -5154.023572203112
2439 -5155.042094547227
2440 -5154.056638775043
2441 -5155.097407159087
2442 -5154.099053071963
2443 -5155.119906282707
2444 -5154.090790734104
2445 -5155.114570469451
2446 -5154.096954897818
2447 -5155.100749709382
2448 -5154.048208629581
2449 -5155.107591745513
2450 -5154.029320105827
2451 -5155.068947710371
2452 -5154.028387259556
2453 -5155.050332952635
2454 -5154.061591510509
2455 -5155.059371433666
2456 -5153.968836723096
2457 -5154.997856572915
2458 -5153.991337919527
2459 -5155.030730691424
2460 -5154.039609831074
2461 -5155.06308967952
2462 -5154.1036473039
2463 -5155.104635713725
2464 -5154.085375000858
2465 -5155.082715713786
2466 -5154.073487091196
2467 -5155.106820403393
2468 -5154.127087479229
2469 -5155.148256108961
2470 -5154.102514726553
2471 -5155.13565834645
2472 -5154.095155822966
2473 -5155.132424510043
2474 -5154.096643114068
2475 -5155.158983331519
2476 -5154.089854552528
2477 -5155.083405659499
2478 -5154.049211967316
2479 -5155.080461857173
2480 -5154.035710672616
2481 -5155.072948614881
2482 -5154.064451763157
2483 -5155.123676262452
2484 -5154.083049424197
2485 -5155.111781898167
2486 -5154.077186626629
2487 -5155.109241150593
2488 -5154.069339975592
2489 -5155.07362696352
2490 -5154.064425369658
2491 -5155.085211500732
2492 -5154.073373213923
2493 -5155.078360870798
2494 -5154.052198144277
2495 -5155.076892032888
2496 -5154.032957614382
2497 -5155.090940535471
2498 -5154.04965315455
2499 -5155.07792431606
2500 -5154.015352123055
2501 -5155.062181539012
2502 -5154.038207184914
2503 -5155.119710552198
2504 -5154.05519970053
2505 -5155.075627070522
2506 -5154.060527057056
2507 -5155.119763022961
2508 -5154.066658984166
2509 -5155.116732951322
2510 -5154.077471936188
2511 -5155.105265018489
2512 -5154.063116012683
2513 -5155.066808863701
2514 -5154.047390165367
2515 -5155.069698558466
2516 -5154.115612743552
2517 -5155.111858422883
2518 -5154.08434042585
2519 -5155.103584108946
2520 -5154.068764167266
2521 -5155.098625254946
2522 -5154.056261553868
2523 -5155.111301702152
2524 -5154.0744158287
2525 -5155.085693232561
2526 -5154.088581339643
2527 -5155.093770569289
2528 -5154.09115787303
2529 -5155.122317542206
2530 -5154.09699150386
2531 -5155.156282150966
2532 -5154.094526097576
2533 -5155.083724744918
2534 -5154.043932865216
2535 -5155.077738095042
2536 -5154.05975443806
2537 -5155.115742780942
2538 -5154.036381721184
2539 -5155.058431060717
2540 -5154.01096260476
2541 -5155.035472664944
2542 -5153.986007058804
2543 -5155.044229866265
2544 -5154.011402207601
2545 -5155.026912240268
2546 -5154.045246426742
2547 -5155.042432383878
2548 -5154.047423982995
2549 -5155.047571575358
2550 -5154.082170198892
2551 -5155.122402748596
2552 -5154.068529705263
2553 -5155.072671887046
2554 -5154.083934410971
2555 -5155.126342145686
2556 -5154.07017226266
2557 -5155.088405096816
2558 -5154.061756054925
2559 -5155.050495987425
2560 -5154.036822832085
2561 -5155.05205718103
2562 -5154.020119346924
2563 -5155.045090070218
2564 -5153.999179588494
2565 -5155.030038043872
2566 -5154.026047814979
2567 -5155.050895014119
2568 -5153.998864046714
2569 -5155.023280163986
2570 -5153.950300347512
2571 -5155.032736544076
2572 -5154.008804817428
2573 -5155.041617911316
2574 -5154.07311464703
2575 -5155.129612928368
2576 -5154.055566303195
2577 -5155.086131342337
2578 -5154.098898214103
2579 -5155.148943491865
2580 -5154.064914135656
2581 -5155.129050722665
2582 -5154.076465200199
2583 -5155.104570779174
2584 -5154.038754531457
2585 -5155.083021381476
2586 -5154.061209318252
2587 -5155.127462551318
2588 -5154.057672708861
2589 -5155.112910789704
2590 -5154.098350212223
2591 -5155.153361371116
2592 -5154.07260466871
2593 -5155.07835833904
2594 -5154.069689142934
2595 -5155.095053708256
2596 -5154.039664449984
2597 -5155.010948302279
2598 -5153.992754395957
2599 -5155.013859728328
2600 -5154.015198136881
2601 -5155.036265728235
2602 -5153.98723287583
2603 -5155.055681260056
2604 -5154.0121280148
2605 -5155.059540259283
2606 -5154.069879698234
2607 -5155.08471939324
2608 -5154.046432878208
2609 -5155.12006708943
2610 -5154.059374496378
2611 -5155.106810452844
2612 -5154.111353510863
2613 -5155.106500385047
2614 -5154.138774619848
2615 -5155.14796833775
2616 -5154.096632063836
2617 -5155.135998602754
2618 -5154.082442037575
2619 -5155.096205201038
2620 -5154.005133143949
2621 -5155.043488363572
2622 -5153.974525614717
2623 -5155.018190933244
2624 -5153.916409078889
2625 -5154.95612291422
2626 -5153.901754341663
2627 -5154.982211627945
2628 -5153.944457615447
2629 -5154.983818485881
2630 -5153.97664118674
2631 -5155.008408894873
2632 -5153.993608158364
2633 -5155.021229219507
2634 -5154.005672061717
2635 -5155.068531537421
2636 -5154.0863925798
2637 -5155.129101850799
2638 -5154.111316614306
2639 -5155.153939664735
2640 -5154.126053708343
2641 -5155.140707758181
2642 -5154.059179020831
2643 -5155.104344293935
2644 -5154.061122861309
2645 -5155.074537434316
2646 -5154.107618625019
2647 -5155.081436857008
2648 -5154.104455953181
2649 -5155.093767552581
2650 -5154.072731416377
2651 -5155.103767532139
2652 -5154.078029888688
2653 -5155.102366336162
2654 -5154.099045535978
2655 -5155.115086890534
2656 -5154.051443113294
2657 -5155.083641305613
2658 -5154.04723745889
2659 -5155.087037994758
2660 -5154.042880730095
2661 -5155.062659718961
2662 -5153.98436543655
2663 -5155.050325262403
2664 -5154.030489562023
2665 -5155.057468650176
2666 -5153.999626145108
2667 -5155.052003530597
2668 -5154.010058524011
2669 -5155.051896753897
2670 -5154.016856832961
2671 -5155.034009956934
2672 -5153.979075697732
2673 -5154.994454407201
2674 -5154.000663107978
2675 -5155.075869926633
2676 -5154.018519363736
2677 -5155.067475998489
2678 -5154.029781154638
2679 -5155.080390028455
2680 -5154.062342398108
2681 -5155.103674320604
2682 -5154.057573664468
2683 -5155.155104911447
2684 -5154.030399667588
2685 -5155.08335718282
2686 -5154.033814299032
2687 -5155.120109285661
2688 -5154.02310784324
2689 -5155.126717708225
2690 -5154.093404076873
2691 -5155.142054027981
2692 -5154.131389396963
2693 -5155.151357424766
2694 -5154.099323818961
2695 -5155.151969306885
2696 -5154.077129427939
2697 -5155.028591105042
2698 -5154.080252612399
2699 -5155.161265303712
2700 -5154.099153086392
2701 -5155.138340312589
2702 -5154.065728259059
2703 -5155.093402445943
2704 -5154.036610285471
2705 -5155.066294392983
2706 -5154.030112700565
2707 -5155.066092646532
2708 -5154.005708913131
2709 -5155.030033899958
2710 -5154.004271100112
2711 -5155.059977533285
2712 -5154.037819272523
2713 -5155.090592066019
2714 -5154.072176712243
2715 -5155.103193083956
2716 -5154.102428135277
2717 -5155.133998688615
2718 -5154.114477448764
2719 -5155.11695178607
2720 -5154.077545215184
2721 -5155.113981473785
2722 -5154.045069017636
2723 -5155.130507440314
2724 -5154.049852098014
2725 -5155.06505026062
2726 -5154.012223787201
2727 -5155.051300617855
2728 -5154.019621520697
2729 -5155.025168600319
2730 -5154.014629077498
2731 -5155.039539994636
2732 -5154.035648099006
2733 -5155.037621955709
2734 -5154.042663347293
2735 -5155.071308619568
2736 -5154.026759889949
2737 -5155.076181876966
2738 -5154.054243209024
2739 -5155.094259521502
2740 -5154.06894480524
2741 -5155.094454534214
2742 -5154.049991550356
2743 -5155.087213877652
2744 -5154.052385405456
2745 -5155.053566200148
2746 -5154.058437881761
2747 -5155.124873404021
2748 -5154.045341111007
2749 -5155.068202461269
2750 -5154.048424734669
2751 -5155.063382482272
2752 -5154.068399913568
2753 -5155.104986317918
2754 -5154.055847780144
2755 -5155.106573523402
2756 -5154.106674959755
2757 -5155.114263847917
2758 -5154.0705173419
2759 -5155.118419886002
2760 -5154.076753446809
2761 -5155.100449187246
2762 -5154.074049753895
2763 -5155.062797827092
2764 -5154.036242459687
2765 -5155.081394001532
2766 -5154.007468348177
2767 -5154.984709487737
2768 -5154.00038944846
2769 -5155.012585128867
2770 -5154.006745529589
2771 -5155.035264997616
2772 -5153.981938746276
2773 -5155.016204524119
2774 -5153.978921845453
2775 -5155.015578628263
2776 -5153.97040780619
2777 -5155.033038100433
2778 -5154.026121676278
2779 -5155.073576395518
2780 -5154.068924366049
2781 -5155.06631132606
2782 -5154.085020100661
2783 -5155.09089171124
2784 -5154.11249428903
2785 -5155.102129741127
2786 -5154.143682932962
2787 -5155.08984336044
2788 -5154.063508805682
2789 -5155.088589358537
2790 -5154.043329298117
2791 -5155.065562259441
2792 -5154.034423235089
2793 -5155.071769726538
2794 -5154.040501399627
2795 -5155.097369182914
2796 -5154.003638673147
2797 -5155.058726908994
2798 -5154.047837391126
2799 -5155.059396609795
2800 -5154.025927956811
2801 -5155.053574714609
2802 -5154.019274304816
2803 -5155.070237940902
2804 -5154.029417155328
2805 -5155.113440343785
2806 -5154.067845797619
2807 -5155.152104929047
2808 -5154.093813091677
2809 -5155.160455834106
2810 -5154.099701312079
2811 -5155.128286381378
2812 -5154.08479987081
2813 -5155.160874601786
2814 -5154.118990509135
2815 -5155.131579900651
2816 -5154.087376083498
2817 -5155.106944247168
2818 -5154.086461498091
2819 -5155.113935167845
2820 -5154.054898080733
2821 -5155.082011398433
2822 -5154.038223656151
2823 -5155.087107648271
2824 -5154.0025879725
2825 -5155.064415962051
2826 -5154.055589384125
2827 -5155.099956473719
2828 -5154.021242743337
2829 -5155.037461940411
2830 -5154.028820417114
2831 -5155.068975919738
2832 -5154.043917809057
2833 -5155.088204885515
2834 -5154.04893024835
2835 -5155.06287354289
2836 -5154.044896869288
2837 -5155.081135210698
2838 -5154.037205712484
2839 -5155.083219246539
2840 -5154.064035629744
2841 -5155.086183025658
2842 -5154.068114285472
2843 -5155.113709540005
2844 -5154.070422872599
2845 -5155.096383990272
2846 -5154.057294623803
2847 -5155.066577964073
2848 -5154.059158722253
2849 -5155.073148846065
2850 -5154.012752245097
2851 -5155.028065128005
2852 -5153.946597593828
2853 -5154.959872256707
2854 -5153.950395557858
2855 -5155.011899278245
2856 -5153.975279375245
2857 -5154.986254632072
2858 -5153.997662263054
2859 -5155.046909012927
2860 -5154.014639050183
2861 -5155.064029918118
2862 -5154.067837405296
2863 -5155.066164917125
2864 -5154.130590549893
2865 -5155.068381861155
2866 -5154.102126176575
2867 -5155.120687182792
2868 -5154.116285675574
2869 -5155.141998749557
2870 -5154.120713466019
2871 -5155.13274449148
2872 -5154.062133378868
2873 -5155.080199032893
2874 -5154.034347419103
2875 -5155.098584621537
2876 -5154.057694928278
2877 -5155.064934459254
2878 -5154.005723983646
2879 -5155.034549876915
2880 -5154.009411186064
2881 -5155.032409332009
2882 -5153.997885287449
2883 -5154.990304202732
2884 -5153.95462736004
2885 -5155.026768023779
2886 -5153.934810974636
2887 -5154.980739429452
2888 -5153.960733698666
2889 -5154.987977670045
2890 -5153.954129316445
2891 -5155.019327311377
2892 -5153.961236983051
2893 -5155.024765487845
2894 -5153.999392699588
2895 -5155.051794094768
2896 -5154.028889488222
2897 -5155.091106716955
2898 -5154.068513675273
2899 -5155.123011635072
2900 -5154.122423361729
2901 -5155.099245183425
2902 -5154.121720125319
2903 -5155.178066427381
2904 -5154.118369304354
2905 -5155.159493397718
2906 -5154.09051802137
2907 -5155.128056124019
2908 -5154.054051639751
2909 -5155.096341720181
2910 -5154.043706665299
2911 -5155.098960508113
2912 -5154.027594095734
2913 -5155.05725483963
2914 -5153.998606311832
2915 -5155.052448850383
2916 -5154.006959944525
2917 -5155.052183718499
2918 -5154.031923788685
2919 -5155.051208007008
2920 -5154.066617322415
2921 -5155.080179675325
2922 -5154.059327983066
2923 -5155.084714523499
2924 -5154.062272739314
2925 -5155.073946827461
2926 -5154.063304302021
2927 -5155.089185506896
2928 -5154.073884076965
2929 -5155.047174503689
2930 -5154.062251504224
2931 -5155.046377602381
2932 -5154.032702608826
2933 -5155.051497526611
2934 -5154.070863082718
2935 -5155.064157092701
2936 -5154.089319312526
2937 -5155.084737486272
2938 -5154.043323563112
2939 -5155.109852365421
2940 -5154.095799107573
2941 -5155.120207204306
2942 -5154.08651371067
2943 -5155.119599873756
2944 -5154.04349610186
2945 -5155.118992176433
2946 -5154.047715259331
2947 -5155.06956508636
2948 -5154.066535546429
2949 -5155.076360211026
2950 -5154.074125152197
2951 -5155.14692327941
2952 -5154.071559275908
2953 -5155.117050089268
2954 -5154.040791318955
2955 -5155.089557727172
2956 -5154.012902586825
2957 -5155.072820047959
2958 -5154.015024104395
2959 -5155.096080018074
2960 -5154.022677978192
2961 -5155.069182787382
2962 -5154.012053159342
2963 -5155.059775943645
2964 -5154.062046004438
2965 -5155.107363450926
2966 -5154.065513391621
2967 -5155.09167491371
2968 -5154.064628878964
2969 -5155.077979340009
2970 -5154.033244079239
2971 -5155.081473562071
2972 -5154.046857246381
2973 -5155.052144204959
2974 -5154.04770558871
2975 -5155.094299217923
2976 -5154.059326395035
2977 -5155.057831766286
2978 -5154.038863193922
2979 -5155.038098809856
2980 -5154.095784892759
2981 -5155.101710960267
2982 -5154.057839245604
2983 -5155.075945502497
2984 -5154.093853793449
2985 -5155.09253808215
2986 -5154.03568529323
2987 -5155.067663196407
2988 -5154.056935543553
2989 -5155.090311612899
2990 -5154.085082323018
2991 -5155.124142663617
2992 -5154.039341149925
2993 -5155.037251680784
2994 -5154.059116060095
2995 -5155.05976360184
2996 -5154.014659075528
2997 -5155.042850734478
2998 -5153.995924835584
2999 -5155.094029819395
3000 -5154.017574263961
3001 -5155.068769801472
3002 -5154.039334715148
3003 -5155.110943173683
3004 -5154.021582163143
3005 -5155.06848919692
3006 -5154.01338854907
3007 -5155.029043275477
3008 -5154.013395596814
3009 -5155.009004629351
3010 -5154.006963008617
3011 -5155.062767602555
3012 -5154.051641261607
3013 -5155.053722821684
3014 -5154.047283243466
3015 -5155.096329477307
3016 -5154.036417307284
3017 -5155.05670311723
3018 -5154.034827893232
3019 -5155.093579098289
3020 -5154.058907093921
3021 -5155.1060672173
3022 -5154.11705211719
3023 -5155.199609897947
3024 -5154.117522082063
3025 -5155.146273856585
3026 -5154.111191069482
3027 -5155.129434018103
3028 -5154.07165677508
3029 -5155.091998393111
3030 -5154.036799651642
3031 -5155.072062917118
3032 -5154.033974835688
3033 -5155.031699678876
3034 -5154.011414871368
3035 -5155.084357840352
3036 -5154.059817634008
3037 -5155.104114662308
3038 -5154.073257472573
3039 -5155.079512585175
3040 -5154.066141297161
3041 -5155.096347532813
3042 -5154.043706558002
3043 -5155.048377908611
3044 -5154.036564154339
3045 -5155.060025561187
3046 -5154.035798543809
3047 -5155.040361681023
3048 -5154.060247494279
3049 -5155.03563393561
3050 -5154.08328536863
3051 -5155.046735953717
3052 -5154.059893870642
3053 -5155.086546699289
3054 -5154.076099526555
3055 -5155.082976486893
3056 -5154.080153665608
3057 -5155.072095102692
3058 -5154.018809413164
3059 -5155.085375871303
3060 -5154.009008734183
3061 -5155.04057025672
3062 -5153.968994233156
3063 -5155.026878015865
3064 -5154.008165122514
3065 -5155.075702353809
3066 -5153.979815958157
3067 -5155.062403776753
3068 -5154.019723164958
3069 -5155.068902246509
3070 -5153.999083787899
3071 -5155.084032080864
3072 -5154.020958919266
3073 -5155.087457035411
3074 -5154.049259023875
3075 -5155.056295769009
3076 -5154.059927845547
3077 -5155.098813297847
3078 -5154.049770670102
3079 -5155.090930438041
3080 -5154.038522320127
3081 -5155.060105892694
3082 -5154.030709871501
3083 -5155.112952472611
3084 -5154.025106352412
3085 -5155.088469924141
3086 -5154.088367381923
3087 -5155.117026196088
3088 -5154.035610871419
3089 -5155.071311021754
3090 -5154.050977601153
3091 -5155.065306107243
3092 -5153.993796501408
3093 -5155.003669602153
3094 -5154.029558693786
3095 -5155.081339287241
3096 -5154.045511537088
3097 -5155.080055929538
3098 -5154.085334642156
3099 -5155.113781383699
3100 -5154.058142056195
3101 -5155.081421393666
3102 -5154.040944358809
3103 -5155.109179040265
3104 -5154.008089507437
3105 -5155.089995699036
3106 -5154.021008284381
3107 -5155.059188104748
3108 -5154.048441644836
3109 -5155.062744968756
3110 -5154.012129105015
3111 -5155.029740611089
3112 -5154.014593327563
3113 -5155.029428073493
3114 -5154.041016068941
3115 -5155.048400386168
3116 -5154.037954764533
3117 -5155.076088191313
3118 -5154.112290172587
3119 -5155.148876678012
3120 -5154.072991073024
3121 -5155.126267022739
3122 -5154.070514900849
3123 -5155.122987285071
3124 -5154.044940973013
3125 -5155.139774590207
3126 -5154.108183426843
3127 -5155.121656731038
3128 -5154.116089643145
3129 -5155.130949534844
3130 -5154.089852245938
3131 -5155.161573427333
3132 -5154.099256218685
3133 -5155.129932951213
3134 -5154.040551976982
3135 -5155.101052659137
3136 -5154.046925049231
3137 -5155.082729991244
3138 -5154.038903202268
3139 -5155.04839860332
3140 -5154.025290829156
3141 -5155.077224421681
3142 -5154.009044422034
3143 -5155.096192724963
3144 -5154.014261707259
3145 -5155.065114367689
3146 -5154.058084475626
3147 -5155.116009852741
3148 -5154.0552674963
3149 -5155.154891854863
3150 -5154.089392208049
3151 -5155.1106773542
3152 -5154.054285840395
3153 -5155.099495180894
3154 -5154.048696838109
3155 -5155.105344711978
3156 -5154.037901955103
3157 -5155.070512620806
3158 -5154.032190941902
3159 -5155.036318310639
3160 -5153.987118991431
3161 -5155.052112331136
3162 -5154.015747860405
3163 -5155.073275479258
3164 -5153.970527630417
3165 -5155.054839465949
3166 -5154.011246456375
3167 -5155.084148519952
3168 -5154.049800099503
3169 -5155.105595445924
3170 -5154.057157179268
3171 -5155.100616116723
3172 -5154.054844313516
3173 -5155.0845529734
3174 -5154.059949692439
3175 -5155.105975740496
3176 -5154.098822831551
3177 -5155.116507943632
3178 -5154.099913925546
3179 -5155.194149179686
3180 -5154.101388232509
3181 -5155.153971178948
3182 -5154.081055968918
3183 -5155.145741409785
3184 -5154.052351192417
3185 -5155.126267308188
3186 -5154.018465440437
3187 -5155.049569712261
3188 -5154.000318703544
3189 -5155.06667542313
3190 -5154.038095517775
3191 -5155.119658154026
3192 -5154.079497371175
3193 -5155.110569527583
3194 -5154.072762683832
3195 -5155.135431021324
3196 -5154.057762403368
3197 -5155.110936542244
3198 -5154.035706606667
3199 -5155.092690112352
3200 -5154.021864034818
3201 -5155.058272119471
3202 -5154.024271454437
3203 -5155.131599276295
3204 -5154.039041538225
3205 -5155.084234164318
3206 -5154.013261652289
3207 -5155.067487968806
3208 -5154.018905908829
3209 -5155.085902076363
3210 -5154.045247792727
3211 -5155.09130653703
3212 -5154.032870906714
3213 -5155.086085349843
3214 -5154.082710832231
3215 -5155.156191725609
3216 -5154.068261329684
3217 -5155.131951802244
3218 -5154.056621768907
3219 -5155.099538183419
3220 -5154.050602494379
3221 -5155.086268359837
3222 -5154.052563026372
3223 -5155.090957165106
3224 -5154.019747952728
3225 -5155.052654995485
3226 -5154.002586187717
3227 -5155.077357288422
3228 -5154.017696528254
3229 -5155.138626288456
3230 -5154.071513280841
3231 -5155.137918256546
3232 -5154.094784528493
3233 -5155.162358526508
3234 -5154.053161472971
3235 -5155.116634353265
3236 -5154.026949623484
3237 -5155.083200566126
3238 -5154.025188525139
3239 -5155.135946149047
3240 -5154.060737210178
3241 -5155.095313794081
3242 -5154.059562797413
3243 -5155.141170699981
3244 -5154.035230793585
3245 -5155.121703650465
3246 -5154.076639032882
3247 -5155.129205723728
3248 -5154.088477800951
3249 -5155.124001302553
3250 -5154.044792442834
3251 -5155.069958861717
3252 -5154.087235441276
3253 -5155.122058871189
3254 -5154.058749276726
3255 -5155.126800891138
3256 -5154.13591053089
3257 -5155.149899116861
3258 -5154.107654555127
3259 -5155.10386834383
3260 -5154.102130288812
3261 -5155.132477840898
3262 -5154.117451018131
3263 -5155.183380766547
3264 -5154.124693140634
3265 -5155.154041282719
3266 -5154.068745135321
3267 -5155.082038145193
3268 -5154.021439895535
3269 -5155.071106460617
3270 -5153.988355117491
3271 -5155.074651953155
3272 -5154.01067973488
3273 -5155.030398991985
3274 -5154.003042672971
3275 -5155.108508205549
3276 -5154.033586674172
3277 -5155.074630460243
3278 -5154.105185018393
3279 -5155.128528217069
3280 -5154.112940932228
3281 -5155.173840484349
3282 -5154.084814979222
3283 -5155.13477764135
3284 -5154.076448592742
3285 -5155.094713114242
3286 -5154.0308559657
3287 -5155.139083423138
3288 -5154.011737395653
3289 -5155.040208467135
3290 -5154.004287349044
3291 -5155.047171510656
3292 -5154.040905041185
3293 -5155.102194356875
3294 -5154.055484199
3295 -5155.128897951135
3296 -5154.073836303035
3297 -5155.106075233463
3298 -5154.073542523
3299 -5155.101994891489
3300 -5154.039888425964
3301 -5155.097997614028
3302 -5154.043474516628
3303 -5155.130109128928
3304 -5154.08926856205
3305 -5155.174857427381
3306 -5154.1270840737
3307 -5155.228961829309
3308 -5154.101446928372
3309 -5155.12841824119
3310 -5154.090492829683
3311 -5155.098807804034
3312 -5154.020032400145
3313 -5155.077600892485
3314 -5153.99980592736
3315 -5155.042163991227
3316 -5154.060320180399
3317 -5155.121729414765
3318 -5154.079830531742
3319 -5155.120348466064
3320 -5154.025641410286
3321 -5155.094084664764
3322 -5154.048254994012
3323 -5155.151134065611
3324 -5154.022482014129
3325 -5155.09206492416
3326 -5154.054828013608
3327 -5155.093384980688
3328 -5154.029023950765
3329 -5155.068576596871
3330 -5154.053653423703
3331 -5155.08640208861
3332 -5154.007448361063
3333 -5155.073270864593
3334 -5154.008695582872
3335 -5155.082480925842
3336 -5154.065198960958
3337 -5155.1294295791
3338 -5154.093847943815
3339 -5155.137355419215
3340 -5154.06859003204
3341 -5155.117402667724
3342 -5154.098702024814
3343 -5155.147918098672
3344 -5154.085648013136
3345 -5155.108783545839
3346 -5154.04788563749
3347 -5155.124076411807
3348 -5154.02365574619
3349 -5155.042709631683
3350 -5154.01866028944
3351 -5155.086011318572
3352 -5154.037090867904
3353 -5155.073205828551
3354 -5154.059469880728
3355 -5155.139779699011
3356 -5154.065150264237
3357 -5155.129629512227
3358 -5154.133980313107
3359 -5155.167155571376
3360 -5154.145338812242
3361 -5155.15783563205
3362 -5154.146227613969
3363 -5155.156574513482
3364 -5154.081316284875
3365 -5155.115492645866
3366 -5154.076876435473
3367 -5155.12969337073
3368 -5154.058800151413
3369 -5155.08524404161
3370 -5154.032968496038
3371 -5155.124839397849
3372 -5154.019870112558
3373 -5155.063689898526
3374 -5154.02882876227
3375 -5155.043040574574
3376 -5153.960479333576
3377 -5155.014749943344
3378 -5153.936487343327
3379 -5154.986826908689
3380 -5153.947793078919
3381 -5154.997024098528
3382 -5153.962859386266
3383 -5155.041730962791
3384 -5153.974104417212
3385 -5155.065772962946
3386 -5154.025467859314
3387 -5155.067674858538
3388 -5154.038500126212
3389 -5155.103566987143
3390 -5154.039866185808
3391 -5155.104806532911
3392 -5154.04110466756
3393 -5155.092822181852
3394 -5154.125083368609
3395 -5155.207436688187
3396 -5154.159366097503
3397 -5155.233126323928
3398 -5154.160875762185
3399 -5155.218098982328
3400 -5154.102532420011
3401 -5155.172884416658
3402 -5154.071210849261
3403 -5155.127731525419
3404 -5154.012150440757
3405 -5155.067254608653
3406 -5154.02806307067
3407 -5155.082591249555
3408 -5154.035799430655
3409 -5155.091136946878
3410 -5154.009859329397
3411 -5155.067942515004
3412 -5154.003876173639
3413 -5155.091226986799
3414 -5153.999467843035
3415 -5155.101843255556
3416 -5154.037523323575
3417 -5155.071980059243
3418 -5154.018401542521
3419 -5155.100538534064
3420 -5154.052132003702
3421 -5155.087662086022
3422 -5154.014463100382
3423 -5155.064241966696
3424 -5154.007706944012
3425 -5155.100938261891
3426 -5154.017834039849
3427 -5155.061658908367
3428 -5154.03603558805
3429 -5155.053141803513
3430 -5154.001377496938
3431 -5155.101745373127
3432 -5153.989969436072
3433 -5155.065060365178
3434 -5153.968508753575
3435 -5155.049889350887
3436 -5153.964529848155
3437 -5155.058499512004
3438 -5154.057822592841
3439 -5155.117883444937
3440 -5154.039096125514
3441 -5155.074687313025
3442 -5154.033967694959
3443 -5155.100873781564
3444 -5154.031885214552
3445 -5155.103269132816
3446 -5154.045438958389
3447 -5155.116398374411
3448 -5154.034372027681
3449 -5155.104595191044
3450 -5154.027041369545
3451 -5155.095439948836
3452 -5154.01439538638
3453 -5155.039006273453
3454 -5153.984616633605
3455 -5155.056657293064
3456 -5153.966233525915
3457 -5155.034020783103
3458 -5154.003953422482
3459 -5155.097955265569
3460 -5154.035297904526
3461 -5155.114655808013
3462 -5154.028832481747
3463 -5155.092873958512
3464 -5154.018766451252
3465 -5155.043338473198
3466 -5153.979072153129
3467 -5155.075516400912
3468 -5154.019305621014
3469 -5155.059934186994
3470 -5154.034649770265
3471 -5155.10573760197
3472 -5154.055968327194
3473 -5155.101226752305
3474 -5154.055121589686
3475 -5155.094633691134
3476 -5154.000346423885
3477 -5155.025622828585
3478 -5153.986927224264
3479 -5155.056707257461
3480 -5153.986215884068
3481 -5155.040104880731
3482 -5153.985000334595
3483 -5155.050335585335
3484 -5154.003888197775
3485 -5155.063848902299
3486 -5154.064501575143
3487 -5155.114749258472
3488 -5154.057776578357
3489 -5155.067789306841
3490 -5154.040612725132
3491 -5155.126197186883
3492 -5154.019411754636
3493 -5155.124288440933
3494 -5154.061892208942
3495 -5155.114979028716
3496 -5154.008121655681
3497 -5155.071873563868
3498 -5154.036579510779
3499 -5155.09621468737
3500 -5154.032415253031
3501 -5155.082682132361
3502 -5154.077259204618
3503 -5155.149201720812
3504 -5154.04158843973
3505 -5155.128418594125
3506 -5154.088797225005
3507 -5155.09953977865
3508 -5154.065931200226
3509 -5155.10985640237
3510 -5154.074690236585
3511 -5155.137381118581
3512 -5154.098057297204
3513 -5155.118102816621
3514 -5154.012469982362
3515 -5155.086614355605
3516 -5154.040465880401
3517 -5155.112805952315
3518 -5154.028162149179
3519 -5155.07752415717
3520 -5154.042124362014
3521 -5155.102458670719
3522 -5154.0144132115
3523 -5155.122763247899
3524 -5154.099317518647
3525 -5155.168464110488
3526 -5154.086061522355
3527 -5155.159187726771
3528 -5154.157379256629
3529 -5155.16566527795
3530 -5154.132127860475
3531 -5155.203934419004
3532 -5154.137601285599
3533 -5155.15831327442
3534 -5154.093523028956
3535 -5155.144274519208
3536 -5154.064674554643
3537 -5155.119231941348
3538 -5154.01392974961
3539 -5155.114849352526
3540 -5154.053658928267
3541 -5155.14083123642
3542 -5154.049772232215
3543 -5155.118728440782
3544 -5154.059579598217
3545 -5155.106564437456
3546 -5154.039730067259
3547 -5155.105004407922
3548 -5154.052858949301
3549 -5155.104130115064
3550 -5154.092074516918
3551 -5155.118182807356
3552 -5154.06331322146
3553 -5155.109881666382
3554 -5154.032315376644
3555 -5155.062055007056
3556 -5153.990345790929
3557 -5155.060865774363
3558 -5153.954228430657
3559 -5155.051471457713
3560 -5154.007974392811
3561 -5155.06452234
3562 -5154.000759725845
3563 -5155.13087606694
3564 -5154.079057670948
3565 -5155.121932143705
3566 -5154.079287112919
3567 -5155.111225283244
3568 -5154.061191115452
3569 -5155.140333864912
3570 -5154.083462554252
3571 -5155.146097124983
3572 -5154.080510239478
3573 -5155.146687782798
3574 -5154.122276224973
3575 -5155.186665744944
3576 -5154.069452112501
3577 -5155.106051481184
3578 -5154.016264640293
3579 -5155.090756533392
3580 -5154.027241493614
3581 -5155.095965394214
3582 -5154.069366783772
3583 -5155.126778707175
3584 -5154.028780697666
3585 -5155.084966761845
3586 -5154.072124114987
3587 -5155.129136348603
3588 -5154.051835369856
3589 -5155.141579170266
3590 -5154.088450167174
3591 -5155.140053112224
3592 -5154.084635756436
3593 -5155.106579876644
3594 -5154.073386116686
3595 -5155.101056878031
3596 -5154.085378586738
3597 -5155.095602707568
3598 -5154.04068644861
3599 -5155.088784510099
3600 -5154.02625256466
3601 -5155.052228367219
3602 -5154.004991686907
3603 -5155.065073365198
3604 -5153.987271088389
3605 -5155.042329520417
3606 -5153.993399969211
3607 -5155.036783195264
3608 -5153.980922000033
3609 -5155.026852216874
3610 -5153.962380786566
3611 -5155.050268850329
3612 -5154.02973979414
3613 -5155.09899469539
3614 -5154.079858891883
3615 -5155.115533059437
3616 -5154.112119154906
3617 -5155.187704927229
3618 -5154.150220682027
3619 -5155.209919447181
3620 -5154.108670369452
3621 -5155.173804796189
3622 -5154.056942135938
3623 -5155.194138718103
3624 -5154.101599318906
3625 -5155.171737161089
3626 -5154.087347617415
3627 -5155.139485351073
3628 -5154.084029721752
3629 -5155.162193931877
3630 -5154.103773950945
3631 -5155.125862546154
3632 -5154.043513647853
3633 -5155.085154019283
3634 -5154.031792721667
3635 -5155.102836777539
3636 -5154.020489757891
3637 -5155.089003808701
3638 -5154.041437004027
3639 -5155.069302746207
3640 -5154.01336573402
3641 -5155.106188717708
3642 -5154.024245221593
3643 -5155.083855878932
3644 -5154.056757425065
3645 -5155.098238783567
3646 -5154.087536556154
3647 -5155.187950924315
3648 -5154.121504124188
3649 -5155.16623627275
3650 -5154.102069414512
3651 -5155.142383330571
3652 -5154.070523675845
3653 -5155.116788409196
3654 -5154.102407515507
3655 -5155.157820769457
3656 -5154.118475019167
3657 -5155.153708563708
3658 -5154.080384925011
3659 -5155.177081071982
3660 -5154.101988178197
3661 -5155.152259290974
3662 -5154.053466129786
3663 -5155.084834846505
3664 -5154.049116296631
3665 -5155.095526954153
3666 -5154.068387400921
3667 -5155.127472045927
3668 -5154.038569367613
3669 -5155.090809422905
3670 -5154.047213979276
3671 -5155.126916005231
3672 -5154.025328677258
3673 -5155.094483548908
3674 -5154.073647687131
3675 -5155.150822084999
3676 -5154.050833013479
3677 -5155.133688773418
3678 -5154.11897708975
3679 -5155.167398507444
3680 -5154.094969723158
3681 -5155.142187099415
3682 -5154.086873113566
3683 -5155.169208839388
3684 -5154.153342651601
3685 -5155.205348007068
3686 -5154.140587481435
3687 -5155.156359531575
3688 -5154.066783420387
3689 -5155.120029870077
3690 -5154.030252674697
3691 -5155.058505018927
3692 -5154.017835924436
3693 -5155.080298139037
3694 -5154.008529340413
3695 -5155.076266476
3696 -5154.015077587185
3697 -5155.055105612321
3698 -5154.028221575428
3699 -5155.058852860151
3700 -5153.962410895628
3701 -5155.025181048752
3702 -5154.013522611321
3703 -5155.101306776105
3704 -5154.029357277948
3705 -5155.112351061519
3706 -5154.045812466919
3707 -5155.101537233577
3708 -5154.019282960749
3709 -5155.119826073663
3710 -5154.038825957438
3711 -5155.059882860448
3712 -5153.981751034927
3713 -5155.082543261711
3714 -5154.087609511786
3715 -5155.132796255707
3716 -5154.095347651198
3717 -5155.098102997424
3718 -5154.119761825596
3719 -5155.194600724609
3720 -5154.113659422331
3721 -5155.148191114508
3722 -5154.080713006087
3723 -5155.118685848441
3724 -5154.054806163799
3725 -5155.106701312136
3726 -5154.032191657138
3727 -5155.095840604191
3728 -5154.042092951264
3729 -5155.087577660305
3730 -5154.037249243846
3731 -5155.07300645148
3732 -5154.031483428608
3733 -5155.059225223019
3734 -5154.026881803144
3735 -5155.044903261512
3736 -5153.993402211443
3737 -5155.057639616304
3738 -5154.032215257257
3739 -5155.067067106398
3740 -5154.032238452964
3741 -5155.061812141492
3742 -5154.053330322132
3743 -5155.129561181615
3744 -5154.019493352255
3745 -5155.09659465507
3746 -5154.028128620512
3747 -5155.088218874145
3748 -5154.027395541795
3749 -5155.088697929006
3750 -5154.02972462461
3751 -5155.096425074763
3752 -5154.025394736352
3753 -5155.087119402652
3754 -5154.001429208161
3755 -5155.138467888258
3756 -5154.105921301176
3757 -5155.175800401706
3758 -5154.118466065163
3759 -5155.171868001938
3760 -5154.103857528428
3761 -5155.1533704253
3762 -5154.067446441895
3763 -5155.119309207018
3764 -5154.057538068169
3765 -5155.147930780796
3766 -5154.064376904219
3767 -5155.151905864924
3768 -5154.019041080738
3769 -5155.110127499765
3770 -5154.052165781324
3771 -5155.092600234951
3772 -5154.029999522862
3773 -5155.107076354276
3774 -5154.085012295159
3775 -5155.119442966356
3776 -5154.040941069718
3777 -5155.070328721398
3778 -5154.051205797124
3779 -5155.114195429144
3780 -5154.026119293369
3781 -5155.085481846379
3782 -5154.070724604318
3783 -5155.083238791704
3784 -5154.042379556037
3785 -5155.109488968365
3786 -5154.063426225085
3787 -5155.133652752171
3788 -5154.061983415592
3789 -5155.137124518965
3790 -5154.078509387498
3791 -5155.14471613092
3792 -5154.123359141711
3793 -5155.178112394049
3794 -5154.14640546906
3795 -5155.182797101234
3796 -5154.100822872195
3797 -5155.147530516855
3798 -5154.09305089645
3799 -5155.141019509295
3800 -5154.04523269441
3801 -5155.100946088136
3802 -5154.100225894459
3803 -5155.1577588759
3804 -5154.049597257532
3805 -5155.13981235945
3806 -5154.060567185315
3807 -5155.09629324967
3808 -5154.015110945416
3809 -5155.067127432288
3810 -5154.046269752997
3811 -5155.075860515255
3812 -5154.050902883802
3813 -5155.077476890751
3814 -5154.030926498885
3815 -5155.097879420141
3816 -5154.027913585315
3817 -5155.06390641028
3818 -5154.060032431188
3819 -5155.092299274579
3820 -5154.049425067101
3821 -5155.07651220984
3822 -5154.086959767174
3823 -5155.091206792883
3824 -5154.049811523078
3825 -5155.058787576057
3826 -5154.005861883159
3827 -5155.06405484194
3828 -5154.040542222397
3829 -5155.111285352207
3830 -5154.064474072688
3831 -5155.115653079731
3832 -5154.059918992251
3833 -5155.163652197261
3834 -5154.084830711308
3835 -5155.144468446965
3836 -5154.09740199038
3837 -5155.158010822813
3838 -5154.082328200328
3839 -5155.156878036761
3840 -5154.070289204871
3841 -5155.088128592703
3842 -5154.0913450707
3843 -5155.093845212793
3844 -5154.08427496703
3845 -5155.118467543427
3846 -5154.101384792303
3847 -5155.124139000508
3848 -5154.01505009585
3849 -5155.08007269802
3850 -5153.992533602195
3851 -5155.08074476424
3852 -5154.018095621338
3853 -5155.08312491207
3854 -5154.060570920629
3855 -5155.08510477969
3856 -5154.047265870014
3857 -5155.081983262953
3858 -5154.011057180332
3859 -5155.078475365524
3860 -5154.042713098039
3861 -5155.119428275925
3862 -5154.067254098443
3863 -5155.116210228963
3864 -5154.049418002972
3865 -5155.109532879243
3866 -5154.034275476017
3867 -5155.109226048357
3868 -5154.01508336324
3869 -5155.107968063996
3870 -5154.083488125207
3871 -5155.1278254177
3872 -5154.07892221485
3873 -5155.139661267347
3874 -5154.121801240118
3875 -5155.160277693362
3876 -5154.080096569002
3877 -5155.127466357694
3878 -5154.091749767103
3879 -5155.132379886068
3880 -5154.066161112735
3881 -5155.124637505656
3882 -5154.072284977407
3883 -5155.125835532378
3884 -5154.0547822014
3885 -5155.118985420247
3886 -5154.116367646585
3887 -5155.169757314591
3888 -5154.034703113567
3889 -5155.090184371236
3890 -5154.032887051205
3891 -5155.109054684737
3892 -5154.013587675848
3893 -5155.10753031901
3894 -5154.071336504563
3895 -5155.133325748791
3896 -5154.050488609732
3897 -5155.143893387541
3898 -5154.028701822075
3899 -5155.155197218882
3900 -5154.096518316779
3901 -5155.147661225271
3902 -5154.100298360339
3903 -5155.135293390103
3904 -5154.052449040825
3905 -5155.10670430276
3906 -5154.074700496663
3907 -5155.139833911746
3908 -5154.07746533602
3909 -5155.134525551484
3910 -5154.043089082431
3911 -5155.135476154924
3912 -5154.028836924941
3913 -5155.098420104873
3914 -5154.019483607741
3915 -5155.130815157575
3916 -5154.052603205896
3917 -5155.143354124712
3918 -5154.117660575845
3919 -5155.17906922921
3920 -5154.10744389747
3921 -5155.151381355431
3922 -5154.075586365881
3923 -5155.143073667916
3924 -5154.075768847214
3925 -5155.120396908195
3926 -5154.055935623389
3927 -5155.099171427802
3928 -5154.012779710124
3929 -5155.094903442654
3930 -5154.02265730305
3931 -5155.09835895575
3932 -5154.02152975872
3933 -5155.115456579158
3934 -5154.101723266886
3935 -5155.160954509243
3936 -5154.086442179322
3937 -5155.133784764148
3938 -5154.128984486627
3939 -5155.121928136715
3940 -5154.067735214509
3941 -5155.100535247973
3942 -5154.066013884595
3943 -5155.13309498843
3944 -5154.032236966381
3945 -5155.125682902439
3946 -5154.068742997681
3947 -5155.160022792717
3948 -5154.101349452795
3949 -5155.160109389051
3950 -5154.101324670372
3951 -5155.126975889159
3952 -5154.055146609568
3953 -5155.087538246325
3954 -5154.060762373459
3955 -5155.140822119271
3956 -5154.112808571712
3957 -5155.182360994725
3958 -5154.067402724521
3959 -5155.14360546838
3960 -5154.091207325024
3961 -5155.155827412723
3962 -5154.061324547086
3963 -5155.144157859871
3964 -5154.076239496607
3965 -5155.122846305959
3966 -5154.104385207916
3967 -5155.124081950821
3968 -5154.059471510945
3969 -5155.103158814141
3970 -5154.031713969975
3971 -5155.099894487235
3972 -5154.077205502123
3973 -5155.137354176981
3974 -5154.065641094316
3975 -5155.13313975866
3976 -5154.0197170025
3977 -5155.087980396514
3978 -5154.056770690549
3979 -5155.125706410257
3980 -5154.016172055723
3981 -5155.090053082612
3982 -5154.070013718743
3983 -5155.155664774324
3984 -5154.090832085475
3985 -5155.148036749282
3986 -5154.104794540344
3987 -5155.138313186603
3988 -5154.058950584589
3989 -5155.14649834843
3990 -5154.093978217125
3991 -5155.154804264105
3992 -5154.057889996217
3993 -5155.110872998905
3994 -5154.059849756885
3995 -5155.15755383447
3996 -5154.053902527418
3997 -5155.134161261756
3998 -5154.10552788187
3999 -5155.144551582339
4000 -5154.045411962378
4001 -5155.058463662229
4002 -5154.017567156318
4003 -5155.072731539154
4004 -5153.999886364629
4005 -5155.07204996159
4006 -5154.041828392441
4007 -5155.096438801601
4008 -5154.100180644754
4009 -5155.128797940802
4010 -5154.089452909125
4011 -5155.069750248023
4012 -5154.049925648736
4013 -5155.115612541965
4014 -5154.041536166555
4015 -5155.110257579327
4016 -5154.051512971573
4017 -5155.088173778079
4018 -5154.071267514133
4019 -5155.131509386859
4020 -5154.097042191784
4021 -5155.19783104925
4022 -5154.100647662968
4023 -5155.114155544978
4024 -5154.035457940739
4025 -5155.085470243741
4026 -5154.043826079155
4027 -5155.073443896768
4028 -5154.031892575899
4029 -5155.088033872727
4030 -5154.020540754394
4031 -5155.092800655476
4032 -5154.028173584302
4033 -5155.114698433324
4034 -5154.026164122813
4035 -5155.037591058353
4036 -5154.048077151431
4037 -5155.156450801416
4038 -5154.111273724002
4039 -5155.155495141822
4040 -5154.084337825749
4041 -5155.129797123489
4042 -5154.052466547161
4043 -5155.140041765369
4044 -5154.049112692774
4045 -5155.137356489354
4046 -5154.064571467705
4047 -5155.131561547096
4048 -5154.085177663837
4049 -5155.155100492678
4050 -5154.077367506178
4051 -5155.117792522194
4052 -5154.050682505577
4053 -5155.110890385626
4054 -5154.013752476209
4055 -5155.104671408457
4056 -5154.002251686031
4057 -5155.083921152876
4058 -5153.993258933283
4059 -5155.080320022072
4060 -5154.01055611741
4061 -5155.119618903469
4062 -5154.10207248736
4063 -5155.143715489153
4064 -5154.073633395409
4065 -5155.108485350764
4066 -5154.084346517412
4067 -5155.140043683662
4068 -5154.063474898018
4069 -5155.182447021599
4070 -5154.121310275156
4071 -5155.184577950402
4072 -5154.096905109654
4073 -5155.128137676448
4074 -5154.087307329395
4075 -5155.152517044358
4076 -5154.040578996102
4077 -5155.118201908801
4078 -5154.004923880704
4079 -5155.114371553795
4080 -5154.065548062376
4081 -5155.10728657795
4082 -5154.044063831063
4083 -5155.120610742274
4084 -5154.067557614803
4085 -5155.126312169161
4086 -5154.05618679157
4087 -5155.108579497076
4088 -5154.034294427524
4089 -5155.09966842002
4090 -5154.021869373734
4091 -5155.126680269851
4092 -5154.045986775148
4093 -5155.122141009021
4094 -5154.088524391828
4095 -5155.142687164426
4096 -5154.049816402541
4097 -5155.090407120554
4098 -5154.059065486563
4099 -5155.122142748276
4100 -5154.073538576778
4101 -5155.142954892531
4102 -5154.107710308602
4103 -5155.174796072799
4104 -5154.071285571983
4105 -5155.130448792981
4106 -5154.084965089305
4107 -5155.12840246638
4108 -5154.047076436679
4109 -5155.100987709115
4110 -5154.05215452738
4111 -5155.120532257154
4112 -5154.061020375023
4113 -5155.114757049961
4114 -5154.064884972458
4115 -5155.172187159539
4116 -5154.066311910495
4117 -5155.128299496024
4118 -5154.071846885864
4119 -5155.10201298744
4120 -5154.035657354382
4121 -5155.078869996639
4122 -5154.042971536924
4123 -5155.139892307563
4124 -5154.113267008703
4125 -5155.152930208783
4126 -5154.148756654124
4127 -5155.188995254955
4128 -5154.140076299587
4129 -5155.164708937675
4130 -5154.116930533966
4131 -5155.123077292628
4132 -5154.103523962136
4133 -5155.110000669876
4134 -5154.093021435594
4135 -5155.114045852487
4136 -5154.04516074114
4137 -5155.080781073561
4138 -5154.00352163806
4139 -5155.103440678571
4140 -5154.016758097182
4141 -5155.087079686032
4142 -5154.03991107731
4143 -5155.080590267573
4144 -5154.016238121025
4145 -5155.031888830994
4146 -5153.989410451723
4147 -5155.069270369549
4148 -5154.052581989855
4149 -5155.0868144949
4150 -5154.071050908588
4151 -5155.125572152537
4152 -5154.105742965256
4153 -5155.151202932932
4154 -5154.109025723427
4155 -5155.175819415425
4156 -5154.077210912785
4157 -5155.10717783072
4158 -5154.088766359047
4159 -5155.125704244535
4160 -5154.09424508368
4161 -5155.12975936312
4162 -5154.062842342157
4163 -5155.123206030396
4164 -5154.097728035764
4165 -5155.120812471673
4166 -5154.125190983033
4167 -5155.143255515031
4168 -5154.054563922418
4169 -5155.071702964681
4170 -5154.021334625625
4171 -5155.109086291534
4172 -5154.029123198284
4173 -5155.111535887295
4174 -5154.038949118843
4175 -5155.122061090246
4176 -5154.046683044339
4177 -5155.101019256641
4178 -5154.053518720484
4179 -5155.107846647407
4180 -5154.040788574555
4181 -5155.127891405966
4182 -5154.106997479228
4183 -5155.142124034967
4184 -5154.073694657556
4185 -5155.105910451681
4186 -5154.060076119521
4187 -5155.153863719307
4188 -5154.084476635911
4189 -5155.129262184019
4190 -5154.097357098688
4191 -5155.118351601865
4192 -5154.104038825172
4193 -5155.144369513968
4194 -5154.045367288491
4195 -5155.099079803588
4196 -5154.058857639964
4197 -5155.064314101385
4198 -5154.024287674943
4199 -5155.105415088019
4200 -5154.025321655016
4201 -5155.078841469879
4202 -5154.030886389358
4203 -5155.10987396494
4204 -5154.072010459818
4205 -5155.147607188901
4206 -5154.100517433874
4207 -5155.165330896372
4208 -5154.064656301364
4209 -5155.118567112839
4210 -5154.051466131956
4211 -5155.121776877032
4212 -5154.065925629643
4213 -5155.1646838757
4214 -5154.093224161879
4215 -5155.13224095666
4216 -5154.065642787786
4217 -5155.143601791986
4218 -5154.095493845869
4219 -5155.152732005296
4220 -5154.061665296889
4221 -5155.098526592165
4222 -5154.024920247659
4223 -5155.077679561183
4224 -5154.04046307229
4225 -5155.096887858525
4226 -5154.056383100433
4227 -5155.131939109292
4228 -5154.113800370414
4229 -5155.147565790159
4230 -5154.160687239559
4231 -5155.167933750074
4232 -5154.14728304311
4233 -5155.1520591265
4234 -5154.09549000056
4235 -5155.149496483495
4236 -5154.121644005692
4237 -5155.164062769432
4238 -5154.128931113144
4239 -5155.178520416561
4240 -5154.077641532725
4241 -5155.082642271486
4242 -5154.029622943107
4243 -5155.035058095707
4244 -5154.030466835047
4245 -5155.048751007565
4246 -5154.012869181913
4247 -5155.077478408027
4248 -5154.041598130646
4249 -5155.099223866719
4250 -5154.097582303385
4251 -5155.128114624908
4252 -5154.135407038273
4253 -5155.150064034345
4254 -5154.137466490582
4255 -5155.179241092802
4256 -5154.134205703152
4257 -5155.109680743715
4258 -5154.073494913535
4259 -5155.121673346788
4260 -5154.046368655589
4261 -5155.116105587344
4262 -5154.062326520188
4263 -5155.096196602076
4264 -5154.058180884384
4265 -5155.091438865845
4266 -5154.0079468239
4267 -5155.091466523852
4268 -5153.995579672201
4269 -5155.031499765508
4270 -5153.99175915821
4271 -5155.029624325267
4272 -5153.986743002695
4273 -5155.011894687126
4274 -5154.05007082143
4275 -5155.086192606417
4276 -5154.101534725003
4277 -5155.152307147247
4278 -5154.178627111589
4279 -5155.224125351598
4280 -5154.134786064177
4281 -5155.174033403558
4282 -5154.103816542034
4283 -5155.180676500629
4284 -5154.084567425806
4285 -5155.140703393854
4286 -5154.08272935584
4287 -5155.128253954566
4288 -5154.048981648874
4289 -5155.066653543132
4290 -5154.028464695734
4291 -5155.047075584902
4292 -5154.016703186217
4293 -5155.06470645912
4294 -5154.021774944691
4295 -5155.083975632692
4296 -5154.041911438123
4297 -5155.039603414032
4298 -5153.991034887222
4299 -5155.082248169183
4300 -5154.012274584544
4301 -5155.077190160013
4302 -5154.025285273187
4303 -5155.072783578173
4304 -5154.045423869361
4305 -5155.084487388157
4306 -5154.006483090126
4307 -5155.093565245409
4308 -5154.071250434718
4309 -5155.110773175223
4310 -5154.06385440387
4311 -5155.137323230751
4312 -5154.054614018723
4313 -5155.090115489442
4314 -5154.030382031076
4315 -5155.115427803637
4316 -5154.070726599866
4317 -5155.130486238941
4318 -5154.035099547468
4319 -5155.132443235495
4320 -5154.047864438499
4321 -5155.111504100035
4322 -5154.036803725518
4323 -5155.092089701474
4324 -5154.029790619265
4325 -5155.121567989943
4326 -5154.051167737392
4327 -5155.128450972812
4328 -5154.047286309647
4329 -5155.137544850508
4330 -5154.116537007681
4331 -5155.203156194058
4332 -5154.123968284644
4333 -5155.182220799613
4334 -5154.132770433046
4335 -5155.167087341258
4336 -5154.076991403652
4337 -5155.124409147917
4338 -5154.075934951906
4339 -5155.128463462654
4340 -5154.065248502502
4341 -5155.099695463117
4342 -5154.018637276322
4343 -5155.075163821381
4344 -5153.983523665665
4345 -5155.043569734406
4346 -5153.96740138424
4347 -5155.057313797716
4348 -5154.076897915133
4349 -5155.112078317842
4350 -5154.090839856566
4351 -5155.122955062619
4352 -5154.070133921977
4353 -5155.12538351107
4354 -5154.070035733873
4355 -5155.1253204059
4356 -5154.117722964109
4357 -5155.165952309506
4358 -5154.09883853987
4359 -5155.140967082403
4360 -5154.098650524455
4361 -5155.159563786302
4362 -5154.085751951484
4363 -5155.145648605711
4364 -5154.066068607072
4365 -5155.130337611684
4366 -5154.074663179758
4367 -5155.127425879398
4368 -5154.026194998656
4369 -5155.108927290866
4370 -5154.045593996476
4371 -5155.099487439832
4372 -5154.022631420587
4373 -5155.079154876657
4374 -5154.042810479537
4375 -5155.118750462666
4376 -5154.056359181351
4377 -5155.104896053615
4378 -5154.026061260908
4379 -5155.123870093228
4380 -5154.057069116575
4381 -5155.104782041594
4382 -5154.03293080224
4383 -5155.046466201589
4384 -5154.021590864613
4385 -5155.07845388256
4386 -5154.010103806053
4387 -5155.074219013526
4388 -5154.030910536573
4389 -5155.071234382433
4390 -5154.043394424049
4391 -5155.122814353651
4392 -5154.059225623477
4393 -5155.115133031136
4394 -5154.091112696716
4395 -5155.170246856154
4396 -5154.103215283455
4397 -5155.165536489682
4398 -5154.098957881389
4399 -5155.168499307891
4400 -5154.092721380505
4401 -5155.121771506148
4402 -5154.074937232514
4403 -5155.134276729423
4404 -5154.044767304119
4405 -5155.114395773309
4406 -5154.039868248802
4407 -5155.049140975366
4408 -5153.995208479857
4409 -5155.056487453333
4410 -5153.984345170153
4411 -5155.098798289087
4412 -5154.047952416709
4413 -5155.115280811583
4414 -5154.043775310436
4415 -5155.12006392175
4416 -5154.071542777881
4417 -5155.073574027228
4418 -5154.026654544976
4419 -5155.067373984713
4420 -5154.02059191445
4421 -5155.109323149964
4422 -5154.090900068235
4423 -5155.160850676923
4424 -5154.077688591776
4425 -5155.178422840748
4426 -5154.042003159629
4427 -5155.121909860878
4428 -5154.0527358577
4429 -5155.135996991659
4430 -5154.07707939084
4431 -5155.123100505448
4432 -5154.042815336864
4433 -5155.106986328867
4434 -5154.011046508627
4435 -5155.103339493799
4436 -5154.03819801469
4437 -5155.11998646057
4438 -5154.050392308226
4439 -5155.121279324715
4440 -5154.05562153445
4441 -5155.095300383125
4442 -5154.037024717959
4443 -5155.096717088614
4444 -5154.032991062203
4445 -5155.087560630525
4446 -5154.012769254337
4447 -5155.055169535442
4448 -5153.967983257799
4449 -5155.031885614646
4450 -5153.985502473041
4451 -5155.078683340207
4452 -5154.018154848141
4453 -5155.119287253206
4454 -5154.066078291747
4455 -5155.106844475632
4456 -5154.053935766434
4457 -5155.131380065698
4458 -5154.095265880197
4459 -5155.159522917619
4460 -5154.112727134905
4461 -5155.178199691737
4462 -5154.111072225243
4463 -5155.173424151933
4464 -5154.076918018864
4465 -5155.167908452456
4466 -5154.078281439217
4467 -5155.134631529973
4468 -5154.059420507931
4469 -5155.128328087342
4470 -5154.048079491428
4471 -5155.10594824341
4472 -5154.035554894438
4473 -5155.076805208914
4474 -5154.05605371974
4475 -5155.127597983389
4476 -5154.027667747342
4477 -5155.080046728814
4478 -5154.021324804388
4479 -5155.033040546841
4480 -5153.952960020199
4481 -5155.043920578784
4482 -5154.005855925714
4483 -5155.116345873604
4484 -5154.102850210365
4485 -5155.20740598399
4486 -5154.137244051265
4487 -5155.239241113106
4488 -5154.134997276037
4489 -5155.14010029826
4490 -5154.048682854543
4491 -5155.12677446585
4492 -5154.032468970879
4493 -5155.098717923654
4494 -5154.069517218819
4495 -5155.121080896831
4496 -5154.039975296444
4497 -5155.104424819518
4498 -5154.074840917401
4499 -5155.141888763609
4500 -5154.04837258591
4501 -5155.101947725059
4502 -5154.078386347841
4503 -5155.102733040692
4504 -5154.022972200763
4505 -5155.084827387114
4506 -5154.068855318465
4507 -5155.136557644325
4508 -5154.055456906554
4509 -5155.087908169095
4510 -5154.055017405287
4511 -5155.131793968757
4512 -5154.085575298296
4513 -5155.123860277486
4514 -5154.075374352038
4515 -5155.096175191438
4516 -5154.055650609205
4517 -5155.113461649278
4518 -5154.066449914299
4519 -5155.108479499139
4520 -5154.051439929082
4521 -5155.08963940025
4522 -5154.032970393898
4523 -5155.08958577725
4524 -5154.064555769725
4525 -5155.078435238067
4526 -5154.049536093824
4527 -5155.070002738923
4528 -5153.976252287122
4529 -5155.030800460742
4530 -5154.001343780147
4531 -5155.05669753615
4532 -5154.020826504629
4533 -5155.08994717741
4534 -5154.039319536846
4535 -5155.114735962001
4536 -5154.077757694103
4537 -5155.127924426375
4538 -5154.037151340402
4539 -5155.122319239164
4540 -5154.049227557412
4541 -5155.080221801287
4542 -5154.100684441791
4543 -5155.144792095746
4544 -5154.087647233639
4545 -5155.124727939383
4546 -5154.03041529717
4547 -5155.106218436438
4548 -5154.05088811507
4549 -5155.123352670744
4550 -5154.029789708619
4551 -5155.100986638386
4552 -5154.027209779361
4553 -5155.050909268606
4554 -5154.060131652122
4555 -5155.09891353789
4556 -5154.098817102436
4557 -5155.128955983042
4558 -5154.097483460061
4559 -5155.138812379678
4560 -5154.024489023561
4561 -5155.0670695776
4562 -5154.024544352078
4563 -5155.047763095939
4564 -5153.994952570361
4565 -5155.08955727869
4566 -5154.032516198004
4567 -5155.093511709789
4568 -5154.073123445749
4569 -5155.061150876802
4570 -5154.041041584284
4571 -5155.084869349749
4572 -5154.0394257441
4573 -5155.071345925193
4574 -5154.054787611042
4575 -5155.091674198684
4576 -5154.027653932797
4577 -5155.109290685639
4578 -5154.040908917562
4579 -5155.115503973969
4580 -5154.057190721053
4581 -5155.087649375937
4582 -5154.031760007664
4583 -5155.072036783813
4584 -5153.98648913285
4585 -5155.012775825208
4586 -5154.02552437453
4587 -5155.07934318145
4588 -5154.035326955568
4589 -5155.100656182351
4590 -5154.063489006851
4591 -5155.092941814356
4592 -5154.065385288278
4593 -5155.09638650329
4594 -5154.047306000275
4595 -5155.099371245376
4596 -5154.063765366209
4597 -5155.114047285474
4598 -5154.099141413646
4599 -5155.108876210221
4600 -5154.067068599517
4601 -5155.097964426221
4602 -5154.103711320033
4603 -5155.124822137042
4604 -5154.052045299959
4605 -5155.082851823415
4606 -5154.118268491708
4607 -5155.173932762837
4608 -5154.077797085855
4609 -5155.115466082799
4610 -5154.074971386372
4611 -5155.140095754771
4612 -5154.105725489308
4613 -5155.164658896516
4614 -5154.081984866772
4615 -5155.153340949988
4616 -5154.098222882015
4617 -5155.145170759225
4618 -5154.069888564021
4619 -5155.170145601879
4620 -5154.086214592955
4621 -5155.12668026401
4622 -5154.087102855112
4623 -5155.131958412312
4624 -5154.04377223678
4625 -5155.082289307277
4626 -5154.057495888263
4627 -5155.149885543502
4628 -5154.0364901248
4629 -5155.119038828507
4630 -5154.058866600652
4631 -5155.132032769836
4632 -5154.020280602083
4633 -5155.05821620877
4634 -5154.017394990538
4635 -5155.088943268675
4636 -5154.002440190033
4637 -5155.081652702515
4638 -5154.023970266126
4639 -5155.126944197381
4640 -5154.099563740463
4641 -5155.127366827125
4642 -5154.003320886387
4643 -5155.111051441338
4644 -5154.035360602081
4645 -5155.109522059288
4646 -5154.080186280396
4647 -5155.133646767257
4648 -5154.115471807755
4649 -5155.181622976223
4650 -5154.086546419398
4651 -5155.149062808021
4652 -5154.148610135439
4653 -5155.174902425447
4654 -5154.020174939655
4655 -5155.085573690743
4656 -5154.029468958995
4657 -5155.09208121958
4658 -5153.969938910863
4659 -5155.003975873974
4660 -5154.011138491393
4661 -5155.06559160287
4662 -5154.057260498156
4663 -5155.109067407009
4664 -5154.058983487358
4665 -5155.11862851076
4666 -5154.036058350248
4667 -5155.131988611099
4668 -5154.099925172159
4669 -5155.149444693307
4670 -5154.098224509381
4671 -5155.129397102639
4672 -5154.133156465839
4673 -5155.155798317312
4674 -5154.099786653838
4675 -5155.133503638162
4676 -5154.088971845074
4677 -5155.16681762468
4678 -5154.047962614397
4679 -5155.121360964422
4680 -5154.073188688411
4681 -5155.115704199563
4682 -5154.040880562118
4683 -5155.0872785053
4684 -5154.014762526867
4685 -5155.053280573333
4686 -5154.040567421276
4687 -5155.036516780406
4688 -5154.013954405455
4689 -5155.022704520229
4690 -5154.016563759526
4691 -5155.039318784307
4692 -5154.020540011292
4693 -5155.083730471229
4694 -5154.027760071828
4695 -5155.096067415999
4696 -5154.021695433068
4697 -5155.08462038466
4698 -5154.001126597916
4699 -5155.130712841538
4700 -5154.046962590636
4701 -5155.133878416273
4702 -5154.099414768474
4703 -5155.182078178565
4704 -5154.103742604903
4705 -5155.142749481555
4706 -5154.086888835299
4707 -5155.107240903644
4708 -5154.051636129301
4709 -5155.138616551917
4710 -5154.055444173168
4711 -5155.117296768814
4712 -5154.067542051518
4713 -5155.09698405183
4714 -5154.015605109903
4715 -5155.131254559233
4716 -5154.051659071522
4717 -5155.110818830002
4718 -5154.04247010809
4719 -5155.071018717624
4720 -5154.011030764615
4721 -5155.059322308529
4722 -5154.02244972121
4723 -5155.084766630396
4724 -5154.020900589078
4725 -5155.103104719902
4726 -5154.072090656487
4727 -5155.143348749043
4728 -5154.063381599085
4729 -5155.114178417081
4730 -5154.069870858361
4731 -5155.096462151293
4732 -5154.099035201091
4733 -5155.146380538408
4734 -5154.119070714258
4735 -5155.15453096936
4736 -5154.124674680396
4737 -5155.166600977752
4738 -5154.107242561712
4739 -5155.169273814252
4740 -5154.154726670911
4741 -5155.154840120062
4742 -5154.075127836569
4743 -5155.129067939934
4744 -5154.051033377759
4745 -5155.128907834564
4746 -5154.013876022762
4747 -5155.092931291526
4748 -5154.0475735945
4749 -5155.118670201924
4750 -5154.061931591669
4751 -5155.127683768748
4752 -5154.115515033968
4753 -5155.171446035741
4754 -5154.09933271854
4755 -5155.149040682601
4756 -5154.082022240046
4757 -5155.170881051195
4758 -5154.097584413492
4759 -5155.125708278469
4760 -5154.044571373387
4761 -5155.109472397739
4762 -5154.02330806917
4763 -5155.124063174984
4764 -5154.056673416431
4765 -5155.142047078777
4766 -5154.055309684572
4767 -5155.1194829129
4768 -5154.096478468887
4769 -5155.158648807963
4770 -5154.072727311006
4771 -5155.120818778995
4772 -5154.113905721102
4773 -5155.169496512703
4774 -5154.095566759883
4775 -5155.190252729823
4776 -5154.144479137785
4777 -5155.183185054299
4778 -5154.085638998968
4779 -5155.140967777188
4780 -5154.06587594998
4781 -5155.115108589109
4782 -5154.011421910507
4783 -5155.057455227025
4784 -5154.026734631238
4785 -5155.058020965016
4786 -5153.99134499656
4787 -5155.091354660375
4788 -5154.066814150407
4789 -5155.145201188953
4790 -5154.087647584912
4791 -5155.133312953438
4792 -5154.02479893136
4793 -5155.08026478518
4794 -5154.017861324415
4795 -5155.082652783509
4796 -5154.003228876661
4797 -5155.068453227721
4798 -5154.013716441967
4799 -5155.082531231048
4800 -5154.056068739413
4801 -5155.070633400005
4802 -5154.014212445421
4803 -5155.07073937168
4804 -5154.063835583244
4805 -5155.113769601701
4806 -5154.053014030221
4807 -5155.140222208195
4808 -5154.063966006385
4809 -5155.112104619181
4810 -5154.020929836365
4811 -5155.080384041061
4812 -5154.013138926916
4813 -5155.067924601907
4814 -5153.995909704623
4815 -5155.041957775704
4816 -5154.017890018946
4817 -5155.069603559735
4818 -5154.021093873934
4819 -5155.097095016957
4820 -5154.090072528642
4821 -5155.154391221335
4822 -5154.062809959853
4823 -5155.133378070056
4824 -5154.084146426773
4825 -5155.12560947126
4826 -5154.102011205564
4827 -5155.173733762047
4828 -5154.112232511647
4829 -5155.155438419387
4830 -5154.144315900893
4831 -5155.179098120012
4832 -5154.122078409554
4833 -5155.126293274781
4834 -5154.039539713651
4835 -5155.102995137762
4836 -5154.05426469471
4837 -5155.06776388798
4838 -5154.065376744994
4839 -5155.079276342502
4840 -5154.012766871298
4841 -5155.052345228049
4842 -5153.953851391791
4843 -5155.04934878536
4844 -5153.980305935473
4845 -5155.076507275228
4846 -5153.989681599202
4847 -5155.064929314981
4848 -5154.023153329908
4849 -5155.076741112774
4850 -5154.068709139386
4851 -5155.089419753288
4852 -5154.110135491402
4853 -5155.164079951121
4854 -5154.14505377906
4855 -5155.174239005861
4856 -5154.145450748539
4857 -5155.194136116056
4858 -5154.17760879065
4859 -5155.277779967103
4860 -5154.146886664334
4861 -5155.167205453756
4862 -5154.088904014603
4863 -5155.113400134614
4864 -5154.09754537538
4865 -5155.147670263664
4866 -5154.089664075678
4867 -5155.13360348325
4868 -5154.060707000842
4869 -5155.102738258311
4870 -5153.994273143608
4871 -5155.042333565058
4872 -5154.000524516886
4873 -5155.040465137145
4874 -5153.987230420204
4875 -5155.030338803705
4876 -5153.977690271206
4877 -5155.03095376835
4878 -5154.016029111103
4879 -5155.0894781268
4880 -5154.028223798396
4881 -5155.125213676298
4882 -5154.044414664127
4883 -5155.102165650157
4884 -5154.104721343575
4885 -5155.160831768264
4886 -5154.113947240381
4887 -5155.176259053409
4888 -5154.081930532053
4889 -5155.165886593429
4890 -5154.120748471079
4891 -5155.20112989077
4892 -5154.14475375741
4893 -5155.180243589469
4894 -5154.092046476948
4895 -5155.148061956343
4896 -5154.075180237124
4897 -5155.102706699882
4898 -5154.076708558594
4899 -5155.109746975744
4900 -5154.06180219493
4901 -5155.129612254762
4902 -5154.054298034192
4903 -5155.110344247547
4904 -5154.052735556928
4905 -5155.067478119616
4906 -5154.010766744246
4907 -5155.105204824073
4908 -5154.109977143351
4909 -5155.183057815608
4910 -5154.097544548014
4911 -5155.079052874234
4912 -5154.060862606331
4913 -5155.107383928594
4914 -5154.018104660053
4915 -5155.053050616934
4916 -5154.070922218027
4917 -5155.127271911632
4918 -5154.105967054742
4919 -5155.123661455506
4920 -5154.088951144956
4921 -5155.146633527158
4922 -5154.045719947897
4923 -5155.105701303376
4924 -5154.025887961874
4925 -5155.085611697057
4926 -5154.044597416905
4927 -5155.086932371558
4928 -5154.056030397411
4929 -5155.092630159265
4930 -5154.059682075025
4931 -5155.107454730784
4932 -5154.081753978712
4933 -5155.15761245107
4934 -5154.073741104377
4935 -5155.103797738362
4936 -5154.077436390294
4937 -5155.119455284603
4938 -5154.060566727521
4939 -5155.0831552312
4940 -5154.062181767859
4941 -5155.083722694781
4942 -5153.991485362892
4943 -5155.05082496588
4944 -5154.046445405837
4945 -5155.097801273588
4946 -5154.000693425164
4947 -5155.047909256285
4948 -5154.04584390327
4949 -5155.090280751974
4950 -5154.091224022711
4951 -5155.162096660198
4952 -5154.117992683246
4953 -5155.133076145453
4954 -5154.070412477454
4955 -5155.136989862131
4956 -5154.027873803044
4957 -5155.072259644232
4958 -5154.036112310841
4959 -5155.070343662031
4960 -5154.02939487955
4961 -5155.117761082935
4962 -5154.085181283162
4963 -5155.132312521501
4964 -5154.092819029788
4965 -5155.131426682601
4966 -5154.045638833897
4967 -5155.133593203575
4968 -5154.066433232202
4969 -5155.128809938384
4970 -5154.063357409439
4971 -5155.108095088674
4972 -5154.046581436228
4973 -5155.110504813303
4974 -5154.01809631131
4975 -5155.086978504205
4976 -5153.99200224888
4977 -5155.062433017474
4978 -5153.973049700339
4979 -5155.084314883437
4980 -5154.049200864557
4981 -5155.127820337202
4982 -5154.059716820736
4983 -5155.095567900472
4984 -5154.038326807831
4985 -5155.118197523504
4986 -5154.059649734876
4987 -5155.164409446553
4988 -5154.088658895217
4989 -5155.121520685995
4990 -5154.092923457704
4991 -5155.160603313581
4992 -5154.110433500009
4993 -5155.211873500651
4994 -5154.088517506802
4995 -5155.114498305103
4996 -5154.131856636683
4997 -5155.168869980845
4998 -5154.083798087351
4999 -5155.148082041937
5000 -5154.088708346572
5001 -5155.096050962373
5002 -5153.995798827986
5003 -5155.05872720718
5004 -5154.033526213213
5005 -5155.086861798766
5006 -5154.019888937332
5007 -5155.064986065751
5008 -5154.012173726732
5009 -5155.101132996635
5010 -5154.047940994879
5011 -5155.11737806142
5012 -5154.057890823053
5013 -5155.1527744017
5014 -5154.071796132483
5015 -5155.121617560741
5016 -5154.070897809869
5017 -5155.134375247527
5018 -5154.080790745988
5019 -5155.126362430668
5020 -5154.06308128283
5021 -5155.156555720283
5022 -5154.092399432127
5023 -5155.137053000443
5024 -5154.113289610735
5025 -5155.145578034098
5026 -5154.065133756926
5027 -5155.108490557407
5028 -5154.069907490376
5029 -5155.119503397376
5030 -5154.042030223641
5031 -5155.133627060728
5032 -5154.038689328454
5033 -5155.14472339535
5034 -5154.080733819111
5035 -5155.173965948316
5036 -5154.091211521427
5037 -5155.167144094396
5038 -5154.108894412733
5039 -5155.117857080892
5040 -5153.992776810089
5041 -5155.090064491687
5042 -5154.034067749471
5043 -5155.036787234559
5044 -5154.004073306274
5045 -5155.060145751811
5046 -5154.019774639212
5047 -5155.110026249667
5048 -5154.055729341287
5049 -5155.092254761516
5050 -5154.010967809804
5051 -5155.1300875459
5052 -5154.095411966039
5053 -5155.168605150286
5054 -5154.126240922193
5055 -5155.194514978071
5056 -5154.161409504295
5057 -5155.232462134552
5058 -5154.130395665976
5059 -5155.206256944974
5060 -5154.10938100346
5061 -5155.153638579491
5062 -5154.112137557526
5063 -5155.151765105522
5064 -5154.070740465768
5065 -5155.073815726584
5066 -5154.086242999571
5067 -5155.100536823052
5068 -5154.03419459533
