"moment_z-rfile"
"Iteration" "moment_z"
("Iteration" "moment_z")
1 -5392.621788378865
2 -5419.446547420712
3 -5047.313984287202
4 -4493.733665226169
5 -3813.936995085816
6 -3165.252047855838
7 -2495.563419039687
8 -1898.667401889301
9 -1351.483438148201
10 -787.5751235498116
11 -234.8466498472613
12 179.2740521603347
13 495.4038161549895
14 669.8495051731473
15 771.6575820728775
16 774.000841789576
17 722.3748956293673
18 612.1990816800343
19 468.1570163969582
20 308.0685451109225
21 156.3084462836235
22 -17.6962548085356
23 -162.8667956146681
24 -335.9203056867759
25 -460.8833365406796
26 -581.3622974748297
27 -666.368720521246
28 -731.2981274662253
29 -759.4545859253766
30 -787.7669884335303
31 -786.682405638039
32 -790.4670167612195
33 -777.7327616381582
34 -771.2104235091484
35 -755.5931811731502
36 -746.4276794678748
37 -730.5423473119348
38 -717.1607565850401
39 -701.1144598917281
40 -688.8659817630262
41 -676.5926546614611
42 -669.8051982740324
43 -663.5942739640325
44 -660.4254520031582
45 -658.0175290171044
46 -657.8776020232045
47 -658.7916775622668
48 -660.067783607507
49 -662.1083654823138
50 -664.2751652120016
51 -666.5828153385581
52 -668.8176330470799
53 -671.5745301837194
54 -674.8928237344261
55 -677.5342331755776
56 -680.5195526039039
57 -683.4808201699632
58 -685.7796430718196
59 -687.875303724789
60 -689.2147128328317
61 -690.4058167078571
62 -690.7888072959053
63 -691.0790984750494
64 -690.6867339549632
65 -690.2870876872723
66 -689.3262402071354
67 -688.4021546521781
68 -687.0749019581424
69 -685.7483167569955
70 -684.5884170080203
71 -682.9247741550151
72 -681.5802525469372
73 -679.6887781701107
74 -678.2401150050877
75 -676.2043184539996
76 -674.6756766541206
77 -672.5357198825903
78 -670.9584737385418
79 -668.78324122166
80 -667.2056177064858
81 -665.0145308526644
82 -662.6445542774964
83 -661.2493430864588
84 -658.89910069158
85 -657.5068169118022
86 -655.1821034726471
87 -653.8237598704027
88 -652.2215846131589
89 -650.7862417092708
90 -649.1234904218169
91 -647.6033092525925
92 -645.8792396486715
93 -644.2928784280497
94 -642.4694075727829
95 -640.7507388676871
96 -638.84087395675
97 -637.0334538261498
98 -635.0286209666672
99 -633.1240634845337
100 -631.0155047030552
101 -629.0135694446859
102 -626.8334346015665
103 -624.7296030899199
104 -622.4883503750906
105 -620.3034258728856
106 -617.9587755286171
107 -615.7183831707116
108 -613.3109511569137
109 -611.0002678023413
110 -608.563858948918
111 -606.2104081326697
112 -603.7570576907054
113 -601.4101661798422
114 -598.9583495571715
115 -596.5792620164639
116 -594.1238263059435
117 -591.7658385939308
118 -589.307001649933
119 -586.9138508397396
120 -584.4274728243346
121 -582.0395999593181
122 -579.5686343556445
123 -577.1871282170379
124 -574.7670806681974
125 -572.448573330842
126 -570.0759876093007
127 -567.826405097348
128 -565.5167635860813
129 -563.3313927172284
130 -561.0839673356844
131 -558.9566376799082
132 -556.7785785068814
133 -554.7292549245999
134 -552.6222138424866
135 -550.6450172032796
136 -548.6114231850507
137 -546.6860820754532
138 -544.716838902882
139 -542.8936258440093
140 -540.9957006357845
141 -539.243502761857
142 -537.4099263196669
143 -535.7110616123101
144 -533.9913350872921
145 -532.405097113534
146 -530.7391201875532
147 -529.2249172653239
148 -527.6511574166396
149 -526.2334581318216
150 -524.7542323889031
151 -523.4407793375625
152 -522.0655770166918
153 -520.8456837765394
154 -519.5751987435585
155 -518.4765422938949
156 -517.2924132946074
157 -516.2765535920802
158 -515.1925360297871
159 -514.2653251597412
160 -513.2655454615359
161 -512.4239178545502
162 -511.5141854358917
163 -510.7597385943831
164 -509.9525977534481
165 -509.2881819104734
166 -508.5616647683073
167 -507.9849740509852
168 -507.3355281599684
169 -506.8244225670867
170 -506.2370983032434
171 -505.8107171809539
172 -505.2972988123213
173 -504.9328644468392
174 -504.4800257292814
175 -504.1746809704536
176 -503.7772098875885
177 -503.5306206693361
178 -503.1819302570864
179 -502.9751209523318
180 -502.6693621167872
181 -502.4980020845494
182 -502.2399658603974
183 -502.112319798288
184 -501.8857335180951
185 -501.7979170136315
186 -501.6175137049539
187 -501.5582992491931
188 -501.3945512072261
189 -501.364529470798
190 -501.232530998001
191 -501.2148268451406
192 -501.0774203006334
193 -501.0754861206694
194 -500.9564660623109
195 -500.9544551931507
196 -500.8310195069355
197 -500.8410783679727
198 -500.726269510513
199 -500.7174651002572
200 -500.5915104249002
201 -500.5659607861574
202 -500.4078228348209
203 -500.3598777291654
204 -500.1782869697007
205 -500.0993514804638
206 -499.8681976224744
207 -499.7290367446352
208 -499.4532359081321
209 -499.2778913161032
210 -498.9509907599747
211 -498.7067479694438
212 -498.3138374422159
213 -498.0098394888646
214 -497.5399096547642
215 -497.1427415472393
216 -496.5860785836512
217 -496.1115420581909
218 -495.4670011066949
219 -494.8988404198694
220 -494.1638245220032
221 -493.4956459900163
222 -492.678460190761
223 -491.9329822176364
224 -491.0253044977007
225 -490.1690358356307
226 -489.1568239864467
227 -488.2116845721999
228 -487.1096569515342
229 -486.0876293079857
230 -484.9068945624815
231 -483.8127623312695
232 -482.5691744742438
233 -481.4153566652307
234 -480.1307523259279
235 -478.9323408766464
236 -477.5978049540315
237 -476.3518289691373
238 -475.0033129011058
239 -473.7438816064151
240 -472.3885112952699
241 -471.1232855142939
242 -469.7607826459626
243 -468.5153541170821
244 -467.1696981072224
245 -465.9461605782953
246 -464.630478554797
247 -463.4549950418239
248 -462.2100997948211
249 -461.1046011625106
250 -459.9285073733514
251 -458.8836920231067
252 -457.7794271945236
253 -456.8234847493479
254 -455.8183745267488
255 -454.9543004067565
256 -454.0429544068069
257 -453.2627409920157
258 -452.4556452542084
259 -451.7910539478268
260 -451.082655050946
261 -450.5131798708582
262 -449.9138706943804
263 -449.4489782600712
264 -448.9611567225206
265 -448.5978715799783
266 -448.2112172498866
267 -447.9513194276811
268 -447.6605627335232
269 -447.4999978966288
270 -447.3154263894991
271 -447.2456746120488
272 -447.1427731365948
273 -447.1560733530796
274 -447.1316055400634
275 -447.2189720773911
276 -447.2678067519169
277 -447.4235538892213
278 -447.5308997089455
279 -447.7372052694075
280 -447.9035017810794
281 -448.1636214503338
282 -448.3772275622501
283 -448.6830215363685
284 -448.9359551666978
285 -449.276699493341
286 -449.5578880368834
287 -449.9250692844728
288 -450.2306321953301
289 -450.6175363480768
290 -450.9384104434119
291 -451.342467228123
292 -451.6838642087606
293 -452.1037864201162
294 -452.4541412683454
295 -452.8842284387385
296 -453.2381328912691
297 -453.671156776174
298 -454.0261198217038
299 -454.4631771251165
300 -454.8244828328726
301 -455.270350785936
302 -455.636062565444
303 -456.0937616617335
304 -456.4638914819586
305 -456.92619847954
306 -457.3046682152011
307 -457.7697556549111
308 -458.1481061510979
309 -458.6243530392867
310 -459.0110150496673
311 -459.5067548376812
312 -459.9040106849559
313 -460.396564597518
314 -460.8001719056864
315 -461.3161181067012
316 -461.732744677263
317 -462.2537421721387
318 -462.6855000944837
319 -463.2278512129031
320 -463.6748553361432
321 -464.2192847676779
322 -464.6785362486407
323 -465.2470740156421
324 -465.7224389093349
325 -466.3010174256967
326 -466.793114196071
327 -467.3849746666449
328 -467.8901405357149
329 -468.4907364484329
330 -469.0071217176929
331 -469.6174634157815
332 -470.140001199624
333 -470.7640426564571
334 -471.3002678159109
335 -471.9311112161153
336 -472.4788361329879
337 -473.1103427146253
338 -473.6656705817647
339 -474.3107678951685
340 -474.8732520410427
341 -475.5211281660006
342 -476.083987828168
343 -476.7445559640358
344 -477.3146658927445
345 -477.9824208104848
346 -478.5572849770279
347 -479.228716784886
348 -479.8096033024877
349 -480.4929828743798
350 -481.0856430841245
351 -481.7813577763987
352 -482.3739980307527
353 -483.0666074097408
354 -483.6627151525954
355 -484.3614790483782
356 -484.96676102324
357 -485.671350599498
358 -486.2720112275429
359 -486.9788233484596
360 -487.5830668607841
361 -488.2970053147005
362 -488.8995460231702
363 -489.6106904397652
364 -490.2197190603393
365 -490.9268219307727
366 -491.5298744830424
367 -492.2378123514217
368 -492.8401142813801
369 -493.5548456468007
370 -494.1477182936243
371 -494.8523580217479
372 -495.4468063192825
373 -496.1462378154242
374 -496.7409465327873
375 -497.449453667958
376 -498.0404996454779
377 -498.7461054280022
378 -499.3280511019785
379 -500.0266641303367
380 -500.6140590254545
381 -501.3154530262833
382 -501.8880194052174
383 -502.5924263508716
384 -503.1610620172432
385 -503.8524733878324
386 -504.4104061131725
387 -505.0980070979055
388 -505.6558258223084
389 -506.3386785777379
390 -506.8895569684249
391 -507.5665252749668
392 -508.1156761646462
393 -508.7829924833429
394 -509.3229525200433
395 -509.9888356050352
396 -510.531048033935
397 -511.1875210201219
398 -511.7158890709784
399 -512.3655864188869
400 -512.8951866257797
401 -513.5410230559712
402 -514.0619631416312
403 -514.7040104750545
404 -515.2183144159892
405 -515.844712047221
406 -516.350197387338
407 -516.9749070928261
408 -517.4775542598085
409 -518.0969092069904
410 -518.5932472265115
411 -519.2094513356543
412 -519.7024443199601
413 -520.3131515155054
414 -520.8037594005527
415 -521.4070402280038
416 -521.8889434173723
417 -522.4872997524417
418 -522.9634682390638
419 -523.5564830910198
420 -524.0259084064496
421 -524.6047245820687
422 -525.0665176522958
423 -525.6385448916504
424 -526.0946757344333
425 -526.6637622562325
426 -527.1146572072967
427 -527.67373558386
428 -528.1203932194404
429 -528.6767470554156
430 -529.1184378802636
431 -529.672342286397
432 -530.1113336187274
433 -530.6604508527313
434 -531.0889752286687
435 -531.6332931026898
436 -532.0629097929738
437 -532.5959995143195
438 -533.0152713876637
439 -533.5471839693944
440 -533.9646745675429
441 -534.4903515128268
442 -534.9011581770094
443 -535.4260409547405
444 -535.8300925383467
445 -536.3431912916794
446 -536.7418247637082
447 -537.2550408450204
448 -537.639404006913
449 -538.1409703744355
450 -538.5170043512932
451 -539.0126835493409
452 -539.3855358927875
453 -539.8728438129025
454 -540.2390953218687
455 -540.7235847382267
456 -541.0876955802154
457 -541.5618293180111
458 -541.9205720899752
459 -542.3946876421086
460 -542.7492635356365
461 -543.2163181555356
462 -543.5684851341072
463 -544.0287985068898
464 -544.3694486386723
465 -544.816340496677
466 -545.1498762523087
467 -545.5944621070946
468 -545.9221001906795
469 -546.3594529624125
470 -546.6882042765191
471 -547.1242523369534
472 -547.4424399923654
473 -547.8665993838163
474 -548.1730600207559
475 -548.593038521293
476 -548.89786753523
477 -549.3160359334398
478 -549.6157586529628
479 -550.0283661109175
480 -550.3201081510089
481 -550.7281324536191
482 -551.0128761233182
483 -551.4144485280987
484 -551.6898281857983
485 -552.0870221295373
486 -552.3547397938077
487 -552.7450229218797
488 -553.0065164791131
489 -553.3926929122567
490 -553.6465495650056
491 -554.0312987566086
492 -554.2790558589444
493 -554.6534031559688
494 -554.8978225753763
495 -555.2716887865505
496 -555.5068088047003
497 -555.8725131827513
498 -556.0989137694555
499 -556.4616829156876
500 -556.6876696620426
501 -557.0425273606929
502 -557.2581082876903
503 -557.6082216494722
504 -557.8213286978897
505 -558.166539539729
506 -558.3665365544192
507 -558.7077002722719
508 -558.9050445172684
509 -559.2373206781776
510 -559.4255177800234
511 -559.7519221203062
512 -559.9354530756053
513 -560.2561887504794
514 -560.4332017710238
515 -560.7481603171879
516 -560.9177475949426
517 -561.2247761510162
518 -561.385050684207
519 -561.688113279605
520 -561.8423662143277
521 -562.1389331821148
522 -562.2875661011684
523 -562.5776668739771
524 -562.7254914718354
525 -563.0105952012684
526 -563.1538846081377
527 -563.4388500042113
528 -563.581029434893
529 -563.8639363323723
530 -564.0019117918539
531 -564.2818464866265
532 -564.4090517852029
533 -564.6864655058681
534 -564.8053704101634
535 -565.0808073784788
536 -565.2029716267397
537 -565.4716071883629
538 -565.5870192158326
539 -565.8524394165555
540 -565.9632063881018
541 -566.2238737713503
542 -566.3290139918225
543 -566.58590543645
544 -566.6897023209082
545 -566.9482301412813
546 -567.0516310709108
547 -567.3049269698013
548 -567.4025964285781
549 -567.6480877780983
550 -567.7461594023329
551 -567.9910741856868
552 -568.085115522841
553 -568.3244902231326
554 -568.4102129076072
555 -568.6478902072791
556 -568.7343570809592
557 -568.9682605366482
558 -569.0553549928543
559 -569.2892016018951
560 -569.3726670331926
561 -569.601288280581
562 -569.6821359772207
563 -569.9111211838537
564 -569.9943309366056
565 -570.2160361742652
566 -570.2917362775719
567 -570.510312170942
568 -570.5874071917481
569 -570.8012647535397
570 -570.8781275535166
571 -571.0924671936048
572 -571.1668812708645
573 -571.3699498933769
574 -571.443033510276
575 -571.6457252904731
576 -571.7177587883616
577 -571.9171540174904
578 -571.9895145178697
579 -572.1833213163496
580 -572.2538464196068
581 -572.4474901225926
582 -572.5150447411328
583 -572.7033506784065
584 -572.7754644724122
585 -572.9601320833522
586 -573.0275625924788
587 -573.2106409045239
588 -573.2764933101419
589 -573.4551046368884
590 -573.5219538905036
591 -573.6961878490232
592 -573.7567674779981
593 -573.9259651399908
594 -573.9879267773925
595 -574.1556622057338
596 -574.2163021589847
597 -574.3831462114473
598 -574.4427294852067
599 -574.606293617583
600 -574.6693826814147
601 -574.8320000146367
602 -574.8863175539841
603 -575.0524660953547
604 -575.1070013698832
605 -575.2683488571705
606 -575.3221389440249
607 -575.4832270241384
608 -575.5375389665314
609 -575.6958832304394
610 -575.7497002302853
611 -575.9054641174134
612 -575.9578175945161
613 -576.1158309135792
614 -576.1611183555066
615 -576.309069798075
616 -576.3492465402302
617 -576.5027433005491
618 -576.549721064409
619 -576.6987686360079
620 -576.7463968239055
621 -576.8920577286383
622 -576.9425542957331
623 -577.0873387567622
624 -577.1320299620044
625 -577.2714783751313
626 -577.3145433279977
627 -577.4545041850308
628 -577.4968483609229
629 -577.6316689688698
630 -577.6717101924928
631 -577.8070133891449
632 -577.8473614272839
633 -577.9821499511639
634 -578.0235843074103
635 -578.1578867864736
636 -578.1996438440999
637 -578.3304370158399
638 -578.372560278064
639 -578.5002875706776
640 -578.537085096911
641 -578.6667232427725
642 -578.709548099092
643 -578.8365473275954
644 -578.8783575020433
645 -579.0034112160253
646 -579.0449055875293
647 -579.1718246850921
648 -579.2070127715533
649 -579.3310570041622
650 -579.3633785517183
651 -579.4877984982238
652 -579.5194696345338
653 -579.6416167227363
654 -579.6734338114792
655 -579.7956661960834
656 -579.8232612534616
657 -579.9482576221839
658 -579.9763567366846
659 -580.1003200004094
660 -580.1261221682859
661 -580.2451896638615
662 -580.2750693876241
663 -580.399093532842
664 -580.4247362533646
665 -580.5475836570911
666 -580.5723549706802
667 -580.6968213910196
668 -580.7221248672425
669 -580.8428189732056
670 -580.86599609077
671 -580.9853166532063
672 -581.0080945117995
673 -581.1236814220522
674 -581.1390701824993
675 -581.2538075393591
676 -581.2716735943028
677 -581.3849400782358
678 -581.4028214084381
679 -581.5207236854667
680 -581.5360381761541
681 -581.6540881865866
682 -581.6682255041005
683 -581.7908016212076
684 -581.8042878008027
685 -581.9198558249201
686 -581.9276640990413
687 -582.0450673937137
688 -582.0544094838682
689 -582.1733937190105
690 -582.1850267002495
691 -582.3059172448856
692 -582.3154519865381
693 -582.4393218734064
694 -582.4460648828837
695 -582.5676791762763
696 -582.5760206591192
697 -582.6922651725038
698 -582.6988661930654
699 -582.8183661809552
700 -582.821808053005
701 -582.9392114619628
702 -582.9414521425349
703 -583.0603837325224
704 -583.0609698342936
705 -583.1738963075115
706 -583.1692016973958
707 -583.2843582166779
708 -583.2846508559683
709 -583.3997931435958
710 -583.3991507225853
711 -583.5156247348698
712 -583.5143673374911
713 -583.6290055776137
714 -583.6280858455007
715 -583.7431048516969
716 -583.7397414366704
717 -583.8563985331441
718 -583.85508097954
719 -583.9677766436647
720 -583.963052867623
721 -584.0787086249605
722 -584.0796890810373
723 -584.1944859295597
724 -584.190287296412
725 -584.2988024871519
726 -584.2936514513176
727 -584.4069036016209
728 -584.4021226437267
729 -584.5085070331065
730 -584.5081736410865
731 -584.6146480416703
732 -584.6107750759472
733 -584.7124802815507
734 -584.7065512843375
735 -584.8121534545668
736 -584.8074266484036
737 -584.9111221694363
738 -584.9079197939188
739 -585.012185030268
740 -585.0034946579254
741 -585.108207538152
742 -585.1057449625534
743 -585.2077592522231
744 -585.2015970858904
745 -585.3044226915177
746 -585.2998390279303
747 -585.4048148729445
748 -585.3993256880939
749 -585.5037015410812
750 -585.4993335629272
751 -585.6064712938195
752 -585.5966512822853
753 -585.699051464678
754 -585.6900515798575
755 -585.7892401878962
756 -585.7818587806163
757 -585.8819259448228
758 -585.8697923294227
759 -585.9725193812523
760 -585.9582193675213
761 -586.0589650659959
762 -586.0481421124554
763 -586.1493853536379
764 -586.1362047297511
765 -586.2381187130133
766 -586.2269661931617
767 -586.3268243096117
768 -586.3136143082652
769 -586.4166501119452
770 -586.4025588954597
771 -586.504949728268
772 -586.4844892082456
773 -586.5853323281563
774 -586.5701928431702
775 -586.6725171391166
776 -586.6572030254716
777 -586.7583508996324
778 -586.7373197595825
779 -586.8415359678514
780 -586.8210200449566
781 -586.9217108555667
782 -586.898473494947
783 -587.0007534391274
784 -586.9758442849898
785 -587.0775050217752
786 -587.0547972030407
787 -587.1554996902853
788 -587.1274456519966
789 -587.2323038137654
790 -587.20164710719
791 -587.3019773010758
792 -587.2766021531407
793 -587.3774160217023
794 -587.3493617185717
795 -587.4505620580613
796 -587.4258638980958
797 -587.5301284568146
798 -587.5054212938633
799 -587.6106023981532
800 -587.5851910213788
801 -587.6834596119274
802 -587.6556128569651
803 -587.7589471802854
804 -587.7307379139163
805 -587.8331341547711
806 -587.807460248254
807 -587.9087694923796
808 -587.8834292436959
809 -587.9842943263229
810 -587.9575835303983
811 -588.0570037221379
812 -588.0312176980893
813 -588.1293687507317
814 -588.1011393162289
815 -588.1927719954217
816 -588.1676957019605
817 -588.2620954378071
818 -588.2351854535216
819 -588.3265885695172
820 -588.2990456076562
821 -588.3916024307375
822 -588.3630898555552
823 -588.4548557886297
824 -588.4266448910187
825 -588.5226967468445
826 -588.4943164617673
827 -588.5855164946701
828 -588.5542592017209
829 -588.6479111421992
830 -588.6162102746637
831 -588.7086825358947
832 -588.6787619608075
833 -588.7678322146486
834 -588.7409979635532
835 -588.8319556926286
836 -588.7991952824332
837 -588.8873521081932
838 -588.8581369977347
839 -588.9437747078276
840 -588.9126126421611
841 -589.0038489472286
842 -588.9735954374638
843 -589.0655351345567
844 -589.0340117332763
845 -589.1245942210892
846 -589.0943365174336
847 -589.1860652576469
848 -589.1531815100436
849 -589.2418113526028
850 -589.2143530051193
851 -589.3044004194261
852 -589.2705338492732
853 -589.3582959263014
854 -589.3238272481661
855 -589.4132896470957
856 -589.3753263075351
857 -589.465633282992
858 -589.4284802646368
859 -589.5195279566472
860 -589.4836877554767
861 -589.5721545858563
862 -589.5325202112914
863 -589.6228832009199
864 -589.5809048203012
865 -589.6720586024389
866 -589.6318268612667
867 -589.7208053824166
868 -589.6785479520105
869 -589.7668339066971
870 -589.7268479275481
871 -589.8155860950612
872 -589.7746380698366
873 -589.865434122086
874 -589.8255267119749
875 -589.9136231429792
876 -589.8694474799969
877 -589.9562210127331
878 -589.9157253846679
879 -590.0046419574107
880 -589.9617412977536
881 -590.0478775029757
882 -590.004758171154
883 -590.0982261739582
884 -590.053975171308
885 -590.1381689447727
886 -590.0983131689685
887 -590.1868637244821
888 -590.1429321511238
889 -590.2273039491027
890 -590.1860413285572
891 -590.2699866616606
892 -590.2255229074593
893 -590.3097304327151
894 -590.2715691779628
895 -590.3551422202506
896 -590.31443135339
897 -590.3950061273977
898 -590.3571950680018
899 -590.4381713469354
900 -590.4009709182228
901 -590.4805468467225
902 -590.4451799440742
903 -590.5234531005565
904 -590.4830272270025
905 -590.559737235186
906 -590.5243963724195
907 -590.6010952023247
908 -590.5598380782274
909 -590.6358161690237
910 -590.5979557777879
911 -590.674257946423
912 -590.6379491830824
913 -590.7143564333769
914 -590.6784773825819
915 -590.753703974259
916 -590.7133797605151
917 -590.7880776988854
918 -590.748432735389
919 -590.8241692366398
920 -590.7838927145489
921 -590.8563138330562
922 -590.8188023623372
923 -590.8921306339539
924 -590.8507030196222
925 -590.9261520203031
926 -590.8879231414728
927 -590.9641181325819
928 -590.9240036081521
929 -591.0016092753102
930 -590.9629844845009
931 -591.0391427749031
932 -590.9977489731631
933 -591.0731574925744
934 -591.0310615629326
935 -591.1105013977575
936 -591.0682991247076
937 -591.1455664547349
938 -591.1024751157743
939 -591.178824874464
940 -591.1378130888401
941 -591.2149421160703
942 -591.1716560089961
943 -591.253541777859
944 -591.2051456625386
945 -591.2820739048609
946 -591.2336669344103
947 -591.3110083709229
948 -591.2608260886511
949 -591.3383279222613
950 -591.2888295959146
951 -591.3654529170361
952 -591.3147921870805
953 -591.3932696859575
954 -591.3428861534745
955 -591.4213469728784
956 -591.3709454795908
957 -591.451969240237
958 -591.4048834426809
959 -591.4883532318569
960 -591.438116548793
961 -591.5189860186686
962 -591.4702826494802
963 -591.5501380171568
964 -591.5027494364617
965 -591.5829828187939
966 -591.5343478005916
967 -591.6152737591752
968 -591.5659761402668
969 -591.6435014577987
970 -591.5929549369154
971 -591.671634021792
972 -591.6240752350614
973 -591.7012868226687
974 -591.6522755007593
975 -591.7289552175986
976 -591.6826921543318
977 -591.7587404687124
978 -591.7119651061196
979 -591.7838995613988
980 -591.7328440068038
981 -591.8039948297809
982 -591.7581245116008
983 -591.8310583510469
984 -591.7809094187539
985 -591.8486476309607
986 -591.801393177753
987 -591.8710465707111
988 -591.8265963702444
989 -591.8930274255615
990 -591.8480367836181
991 -591.9186048467867
992 -591.8729417360562
993 -591.9422901563074
994 -591.8955373576273
995 -591.9646422615182
996 -591.9203192926395
997 -591.9878360897288
998 -591.9433950004178
999 -592.0141667980198
1000 -591.9710942568901
1001 -592.0402963892922
1002 -591.9981616484059
1003 -592.0692649083443
1004 -592.0255220113015
1005 -592.092205077862
1006 -592.0499087351928
1007 -592.1209497851142
1008 -592.0735391420902
1009 -592.1422985391937
1010 -592.0982144184457
1011 -592.1687382608221
1012 -592.1184272942122
1013 -592.1840461358562
1014 -592.137005344889
1015 -592.2059096895687
1016 -592.1541850721453
1017 -592.2190232295285
1018 -592.1649180327101
1019 -592.2325288450868
1020 -592.1805521712603
1021 -592.2484180841091
1022 -592.1928109461483
1023 -592.2669968628143
1024 -592.2152583086669
1025 -592.2846323967582
1026 -592.2315215025719
1027 -592.300464967326
1028 -592.2485192815292
1029 -592.3185936515151
1030 -592.2711568299886
1031 -592.3430657013905
1032 -592.290614126051
1033 -592.363166846106
1034 -592.3111463345781
1035 -592.381927259523
1036 -592.3265479956378
1037 -592.398655959079
1038 -592.3458855097886
1039 -592.4186545507994
1040 -592.361077107373
1041 -592.4274836788028
1042 -592.3712985365241
1043 -592.4427749531653
1044 -592.3868006778353
1045 -592.4520876770556
1046 -592.3987640674738
1047 -592.4697430056983
1048 -592.4155619122587
1049 -592.4851939439815
1050 -592.4314517795043
1051 -592.5029032633659
1052 -592.4497284856475
1053 -592.5174863492971
1054 -592.4663131614418
1055 -592.5366061637657
1056 -592.4843492542599
1057 -592.5523303543235
1058 -592.503177185333
1059 -592.568802948743
1060 -592.516145999447
1061 -592.5826388481357
1062 -592.5375333364969
1063 -592.6032570440083
1064 -592.5519965066569
1065 -592.6150922135124
1066 -592.5669951998442
1067 -592.6312878092548
1068 -592.5812948000629
1069 -592.6424856973466
1070 -592.5911518134926
1071 -592.654434238616
1072 -592.6015459150974
1073 -592.6630834387403
1074 -592.6109039433821
1075 -592.6759580343443
1076 -592.6256313516428
1077 -592.6872632590628
1078 -592.6381864946716
1079 -592.7020754494688
1080 -592.6492470535096
1081 -592.7107404741463
1082 -592.6623242007776
1083 -592.7284876938484
1084 -592.680398192452
1085 -592.7441152757606
1086 -592.6956043634686
1087 -592.7608556263355
1088 -592.7092515210093
1089 -592.7725994589409
1090 -592.7246187032288
1091 -592.7885185672471
1092 -592.7370777244257
1093 -592.7981770771225
1094 -592.7473590658786
1095 -592.8096861004738
1096 -592.7545519258919
1097 -592.8125108909641
1098 -592.7573188662703
1099 -592.821816690164
1100 -592.764168945821
1101 -592.8259096297725
1102 -592.771562718414
1103 -592.8351430423081
1104 -592.7783172922616
1105 -592.8457817065827
1106 -592.7894423801671
1107 -592.8562372355149
1108 -592.8054358250654
1109 -592.872865016358
1110 -592.8155485753141
1111 -592.8854161635657
1112 -592.8322424181025
1113 -592.9005340880321
1114 -592.8465994223671
1115 -592.9168246736318
1116 -592.85929115725
1117 -592.9263425965729
1118 -592.8698679683558
1119 -592.9354997097628
1120 -592.8785725822064
1121 -592.9454869602611
1122 -592.8886487776554
1123 -592.9584205620786
1124 -592.8956410985883
1125 -592.9589050206956
1126 -592.8975624983533
1127 -592.964718928805
1128 -592.9045571410222
1129 -592.9698875115556
1130 -592.9065684248953
1131 -592.9727614580203
1132 -592.9136841909809
1133 -592.9790800869541
1134 -592.9192426293143
1135 -592.9871243107212
1136 -592.9253732866667
1137 -592.9945207291023
1138 -592.9353525773827
1139 -593.0036162964391
1140 -592.9412704222713
1141 -593.0125404006046
1142 -592.9543346809987
1143 -593.0226590643351
1144 -592.9646690978872
1145 -593.033367161765
1146 -592.9751088405766
1147 -593.0417470471809
1148 -592.9829690997943
1149 -593.0500773373012
1150 -592.9948485430795
1151 -593.066585616741
1152 -593.0052214024091
1153 -593.0742208266147
1154 -593.0146029358037
1155 -593.0796242898467
1156 -593.0146685070034
1157 -593.0770651380974
1158 -593.013746773705
1159 -593.0819751923497
1160 -593.0170143846451
1161 -593.0853085819601
1162 -593.0230027745644
1163 -593.0947983008174
1164 -593.0325695954291
1165 -593.1024028820138
1166 -593.039094042821
1167 -593.1091989827518
1168 -593.0466034991648
1169 -593.1181853472349
1170 -593.0546435321077
1171 -593.129709517145
1172 -593.0669121572707
1173 -593.137211017455
1174 -593.0718956605492
1175 -593.1481747673544
1176 -593.0801068891805
1177 -593.1579189276126
1178 -593.0920929979247
1179 -593.1674575927547
1180 -593.1010188824948
1181 -593.1780561630308
1182 -593.1075172254396
1183 -593.1838053058807
1184 -593.1097102450507
1185 -593.1862373016207
1186 -593.1163449194496
1187 -593.1959046258422
1188 -593.1194981588837
1189 -593.1952146872035
1190 -593.1263783102874
1191 -593.202521227074
1192 -593.1285082993904
1193 -593.2078182528367
1194 -593.1364465838849
1195 -593.2175802753508
1196 -593.1499237188885
1197 -593.2270993789253
1198 -593.1551683282563
1199 -593.23900558253
1200 -593.1646222486091
1201 -593.2444451915974
1202 -593.1701385796308
1203 -593.251061345557
1204 -593.1741695064885
1205 -593.2541843047845
1206 -593.1763242824355
1207 -593.2561406920909
1208 -593.1784254642218
1209 -593.2548553422258
1210 -593.1819311956314
1211 -593.2606398312637
1212 -593.1843925469733
1213 -593.2674721119421
1214 -593.192486989833
1215 -593.2735268447038
1216 -593.1969843589799
1217 -593.2801120085713
1218 -593.2095966209589
1219 -593.2927455663754
1220 -593.2178158014609
1221 -593.2973084593931
1222 -593.2242173387322
1223 -593.3059149832943
1224 -593.2315171426961
1225 -593.3135502921859
1226 -593.2396909672572
1227 -593.3229510056066
1228 -593.2489666157564
1229 -593.3310559872752
1230 -593.2531563930546
1231 -593.335062282796
1232 -593.2591643994158
1233 -593.3390739768155
1234 -593.261905733527
1235 -593.3435305981174
1236 -593.2680784092522
1237 -593.345389616741
1238 -593.2710002749486
1239 -593.3485810020377
1240 -593.2711309283403
1241 -593.3511433488611
1242 -593.2780744750298
1243 -593.3586747284779
1244 -593.2834265367273
1245 -593.3615475240131
1246 -593.2906839112158
1247 -593.3702547689917
1248 -593.2959749751438
1249 -593.3744867111457
1250 -593.3042062395369
1251 -593.3798277828076
1252 -593.3030352543362
1253 -593.3797335767814
1254 -593.304390423307
1255 -593.3838431526125
1256 -593.3059041031649
1257 -593.3833830122529
1258 -593.3076593534119
1259 -593.385432431654
1260 -593.3137474356899
1261 -593.3928202697889
1262 -593.3155270242689
1263 -593.3934371989578
1264 -593.3167262180965
1265 -593.3936574555831
1266 -593.3131103860889
1267 -593.391951923986
1268 -593.31539923616
1269 -593.3903238305465
1270 -593.3151409439325
1271 -593.3946721701043
1272 -593.3205291059236
1273 -593.3984056037074
1274 -593.3241746407873
1275 -593.4044391113354
1276 -593.3325930808638
1277 -593.4129323660442
1278 -593.3402888300874
1279 -593.420024724093
1280 -593.3429981510167
1281 -593.4214556156826
1282 -593.3491821430063
1283 -593.4268166705547
1284 -593.3517050286169
1285 -593.4307061285781
1286 -593.3563177896117
1287 -593.4290635963083
1288 -593.3525811643616
1289 -593.4303989423739
1290 -593.3544011645746
1291 -593.4333308989751
1292 -593.3566949417603
1293 -593.4318777230321
1294 -593.3526408460895
1295 -593.4283758052217
1296 -593.3511978114727
1297 -593.4277021189779
1298 -593.3552708116001
1299 -593.4353324888906
1300 -593.3576880160481
1301 -593.4335979449147
1302 -593.356893775253
1303 -593.4332596412183
1304 -593.353871740866
1305 -593.4293839022564
1306 -593.3501962127681
1307 -593.4286332080005
1308 -593.3498015383443
1309 -593.427773405938
1310 -593.3497495840751
1311 -593.4265941218331
1312 -593.349879801258
1313 -593.4271507889482
1314 -593.35443082114
1315 -593.431759758398
1316 -593.3560798038121
1317 -593.4364278780326
1318 -593.3604443311018
1319 -593.4383907753426
1320 -593.3627070468897
1321 -593.4412897138161
1322 -593.3657353470045
1323 -593.443706452612
1324 -593.3674126946381
1325 -593.4464323864652
1326 -593.3685011995356
1327 -593.4464551979916
1328 -593.3665189882477
1329 -593.440931718193
1330 -593.3652975071341
1331 -593.441932862255
1332 -593.3624908161199
1333 -593.4350074263797
1334 -593.3599003040791
1335 -593.4358821832338
1336 -593.3600958109525
1337 -593.4358162928299
1338 -593.3603313739097
1339 -593.4361074137055
1340 -593.3611305255395
1341 -593.4382922894865
1342 -593.3643228648091
1343 -593.4421386007729
1344 -593.3660541388192
1345 -593.4424183946212
1346 -593.367857667628
1347 -593.4467256059233
1348 -593.3706720101181
1349 -593.4508468117918
1350 -593.3729909559762
1351 -593.4511664825449
1352 -593.3743514366596
1353 -593.4501716458722
1354 -593.3735433621151
1355 -593.4520372868874
1356 -593.371764447533
1357 -593.4485411487117
1358 -593.3693484400611
1359 -593.4444971484143
1360 -593.3660212175713
1361 -593.4438951533415
1362 -593.3679762252567
1363 -593.4450894084434
1364 -593.3673816649581
1365 -593.4472266012489
1366 -593.3717584402716
1367 -593.452695078903
1368 -593.3755493142589
1369 -593.4549052438966
1370 -593.3788280552221
1371 -593.4560914045309
1372 -593.3800015109935
1373 -593.4609501396878
1374 -593.3853509641036
1375 -593.4679453927582
1376 -593.3922816014664
1377 -593.4736025691058
1378 -593.3990422152742
1379 -593.4793372117367
1380 -593.4008593532559
1381 -593.4804201691817
1382 -593.4017126822478
1383 -593.4781241785851
1384 -593.3952967794403
1385 -593.475215063047
1386 -593.397102387944
1387 -593.4752897341489
1388 -593.3941604002106
1389 -593.4740640260466
1390 -593.394705006737
1391 -593.4739247327253
1392 -593.3951650799354
1393 -593.4730416576517
1394 -593.3997296963904
1395 -593.4781877915459
1396 -593.401304275525
1397 -593.4837764230535
1398 -593.4070822631784
1399 -593.4876883033238
1400 -593.4153937199737
1401 -593.4917816256703
1402 -593.4194475769367
1403 -593.4998140097445
1404 -593.426099042631
1405 -593.5069716263155
1406 -593.431907076349
1407 -593.5086871899059
1408 -593.4360647560675
1409 -593.5135954587109
1410 -593.4390219051837
1411 -593.513959665332
1412 -593.4379253742821
1413 -593.5140584362819
1414 -593.4391778645891
1415 -593.5190080942796
1416 -593.4418841322416
1417 -593.5166394989668
1418 -593.4378161251919
1419 -593.5160782521075
1420 -593.4405248853054
1421 -593.5189898894757
1422 -593.4405696072108
1423 -593.5187586708629
1424 -593.4430402387181
1425 -593.5164660380473
1426 -593.4434678240457
1427 -593.5194349692614
1428 -593.4469345403372
1429 -593.5237996991171
1430 -593.4466540429764
1431 -593.5239210135095
1432 -593.4490611796273
1433 -593.5237981724135
1434 -593.4492661358186
1435 -593.528385198393
1436 -593.4541285814236
1437 -593.5336834130196
1438 -593.4572740014623
1439 -593.5346691401897
1440 -593.4574177487467
1441 -593.5347592669935
1442 -593.4637360239939
1443 -593.5407930612613
1444 -593.4661056571249
1445 -593.5440241537444
1446 -593.4692888865259
1447 -593.5490999240528
1448 -593.4752312607487
1449 -593.5533019934521
1450 -593.4790089026998
1451 -593.5614456295442
1452 -593.4859439847544
1453 -593.5651427142326
1454 -593.4890234383297
1455 -593.5669730194829
1456 -593.4915304551071
1457 -593.5704088347359
1458 -593.4895563021428
1459 -593.5694400529251
1460 -593.4935163369752
1461 -593.5705692446568
1462 -593.4943819696906
1463 -593.5710192234059
1464 -593.4907988612039
1465 -593.5696990998312
1466 -593.4920031296812
1467 -593.5680287225971
1468 -593.4884062407648
1469 -593.5645594597482
1470 -593.4851805652906
1471 -593.5639452542838
1472 -593.482870789433
1473 -593.5606167124137
1474 -593.4861318674544
1475 -593.5662475383834
1476 -593.4874577720001
1477 -593.5684722570235
1478 -593.4911940033286
1479 -593.5745332193318
1480 -593.5007450841233
1481 -593.5796671256454
1482 -593.5047366709849
1483 -593.5826197179402
1484 -593.5069538849407
1485 -593.5847603882594
1486 -593.5109177749114
1487 -593.5917970434355
1488 -593.5138393097583
1489 -593.5943537709244
1490 -593.5176396856102
1491 -593.5972447920561
1492 -593.518861508842
1493 -593.5961521950018
1494 -593.5174187350693
1495 -593.5971748696708
1496 -593.5188729983473
1497 -593.5941308447294
1498 -593.5213440094032
1499 -593.5981583578933
1500 -593.5228138285158
1501 -593.6005367615516
1502 -593.5262725861219
1503 -593.6059112431633
1504 -593.53024619275
1505 -593.6056124276178
1506 -593.5295770463093
1507 -593.6104318275741
1508 -593.531518639089
1509 -593.6110797047505
1510 -593.5398299065229
1511 -593.6221441565007
1512 -593.5474360486104
1513 -593.6269033389306
1514 -593.5486195385583
1515 -593.6292019733528
1516 -593.5554140233584
1517 -593.6291660676818
1518 -593.5543500163686
1519 -593.6296709634325
1520 -593.5504419545803
1521 -593.6236675733969
1522 -593.5456583876187
1523 -593.6205612152645
1524 -593.5431463758961
1525 -593.6176379183202
1526 -593.5392690557517
1527 -593.6151807720271
1528 -593.5411636239493
1529 -593.6160804331681
1530 -593.5399375334919
1531 -593.6163145712518
1532 -593.5391065288865
1533 -593.6187586606435
1534 -593.5441831420384
1535 -593.6250515020924
1536 -593.5474271132304
1537 -593.6273807997453
1538 -593.5531318050122
1539 -593.6330428130739
1540 -593.5530758240161
1541 -593.6334024278661
1542 -593.5556974015739
1543 -593.6358579180317
1544 -593.5566989706634
1545 -593.6364316640368
1546 -593.5606359502868
1547 -593.6400542008298
1548 -593.5629805380278
1549 -593.6432007207616
1550 -593.5661761617225
1551 -593.6426534527776
1552 -593.5674071606883
1553 -593.6447655457063
1554 -593.5676273971833
1555 -593.6432927724842
1556 -593.5638614742259
1557 -593.6393820690547
1558 -593.560551788568
1559 -593.6366874631053
1560 -593.5590000918119
1561 -593.6363815408145
1562 -593.561086472498
1563 -593.6407033351248
1564 -593.5664508027945
1565 -593.643728883123
1566 -593.566689043265
1567 -593.6425457075344
1568 -593.5651877590515
1569 -593.6443857068533
1570 -593.5690681394951
1571 -593.6492688753609
1572 -593.5718548246983
1573 -593.6477923762499
1574 -593.5669722883615
1575 -593.6464615631216
1576 -593.5690964854624
1577 -593.6461450344771
1578 -593.5691513550842
1579 -593.6427624630825
1580 -593.5646115164684
1581 -593.642213828799
1582 -593.5656465811963
1583 -593.6433216322483
1584 -593.565987410366
1585 -593.6417068970194
1586 -593.5673417684525
1587 -593.6446466458098
1588 -593.5727645924705
1589 -593.6509214215836
1590 -593.5739058429058
1591 -593.6497990653947
1592 -593.577709593289
1593 -593.6548662663814
1594 -593.5807932072083
1595 -593.6583775726622
1596 -593.5821713599122
1597 -593.6587706454713
1598 -593.5791321815582
1599 -593.6570068667327
1600 -593.5797609313446
1601 -593.6579899181384
1602 -593.5794483341622
1603 -593.6567615414496
1604 -593.5801753079171
1605 -593.6569266469671
1606 -593.5799860105071
1607 -593.659604118532
1608 -593.5823050137733
1609 -593.6595183844107
1610 -593.5811373730601
1611 -593.6560113689553
1612 -593.5814486378191
1613 -593.6606987342661
1614 -593.5838907747969
1615 -593.6598807483883
1616 -593.5799547453555
1617 -593.6571997958285
1618 -593.5797571147972
1619 -593.6565247657691
1620 -593.5800064104862
1621 -593.655651090149
1622 -593.5774362491649
1623 -593.6546524272256
1624 -593.5760981821021
1625 -593.6507809209246
1626 -593.5706762365842
1627 -593.6465213197162
1628 -593.5675130258014
1629 -593.6470170851427
1630 -593.5724942881183
1631 -593.6511403044144
1632 -593.5758515833737
1633 -593.6541681467779
1634 -593.5747626755608
1635 -593.6547852826384
1636 -593.5791819670632
1637 -593.6576823150506
1638 -593.5829749286174
1639 -593.6602364010213
1640 -593.5815888468462
1641 -593.6581137243137
1642 -593.5835582785502
1643 -593.6625606081712
1644 -593.5861887954767
1645 -593.6632103204275
1646 -593.5853069796677
1647 -593.6634585690127
1648 -593.5817921361671
1649 -593.6576450751656
1650 -593.5782412655067
1651 -593.6530704599643
1652 -593.5782542244584
1653 -593.6575401688017
1654 -593.5793574011791
1655 -593.6569409361967
1656 -593.5792866049298
1657 -593.6577683859122
1658 -593.5789065880539
1659 -593.6572039907028
1660 -593.5794418972465
1661 -593.6586677141239
1662 -593.5818425679455
1663 -593.6588896306979
1664 -593.5784518552069
1665 -593.6587920240993
1666 -593.5829056305826
1667 -593.6595201441465
1668 -593.5799650257776
1669 -593.6547590113897
1670 -593.5767547149437
1671 -593.6517417719077
1672 -593.5743955058075
1673 -593.6469504327997
1674 -593.5698987898874
1675 -593.6435765568914
1676 -593.5690986285556
1677 -593.6445440288628
1678 -593.5698533158984
1679 -593.6451815317492
1680 -593.5702532804585
1681 -593.6435175566945
1682 -593.5677619103925
1683 -593.6430106727855
1684 -593.564354614388
1685 -593.6392578333804
1686 -593.5643739543697
1687 -593.6419777251639
1688 -593.5646336985131
1689 -593.6414196551915
1690 -593.5681766244229
1691 -593.6455394601918
1692 -593.5702417496801
1693 -593.6492862195879
1694 -593.5765592111946
1695 -593.655413643266
1696 -593.5794598266069
1697 -593.6558140505451
1698 -593.5765196033885
1699 -593.6524227583292
1700 -593.5760659653262
1701 -593.6476419457952
1702 -593.569175237525
1703 -593.6468187852425
1704 -593.5687332189351
1705 -593.6438638424855
1706 -593.5657045097414
1707 -593.641996320818
1708 -593.5704918979153
1709 -593.6501058151443
1710 -593.5703639496846
1711 -593.6488847931336
1712 -593.5684451943755
1713 -593.6415226645371
1714 -593.5681644132573
1715 -593.6449886667821
1716 -593.5680492740485
1717 -593.6443058630265
1718 -593.56694719969
1719 -593.6442713287973
1720 -593.566450459724
1721 -593.6450061256969
1722 -593.5678626986827
1723 -593.647780178026
1724 -593.5694934264791
1725 -593.6435318190685
1726 -593.5669791056768
1727 -593.6459904254297
1728 -593.5648560957544
1729 -593.646525274535
1730 -593.5677298540605
1731 -593.6450631636343
1732 -593.5681710217348
1733 -593.6444119803416
1734 -593.5668197419022
1735 -593.6456818498913
1736 -593.5672265278372
1737 -593.643599095273
1738 -593.568808640062
1739 -593.6484466295303
1740 -593.5725058685503
1741 -593.6515418732782
1742 -593.5763202909927
1743 -593.6530529286814
1744 -593.57884551853
1745 -593.6557915025793
1746 -593.5811896208593
1747 -593.6562063232294
1748 -593.5786135229665
1749 -593.6548443543927
1750 -593.5772247747034
1751 -593.6541895861541
1752 -593.5746515390529
1753 -593.6529382958514
1754 -593.57878682368
1755 -593.6538100534608
1756 -593.5799734643732
1757 -593.6592002843154
1758 -593.5828536411021
1759 -593.6599060094499
1760 -593.5791433085695
1761 -593.6578532571413
1762 -593.5835905171717
1763 -593.661707949522
1764 -593.5830793121191
1765 -593.6618373476433
1766 -593.5867409336762
1767 -593.6647922483553
1768 -593.5866739743715
1769 -593.6656684383316
1770 -593.5896057236887
1771 -593.6657866968046
1772 -593.5909958030537
1773 -593.6716922559402
1774 -593.5962752779533
1775 -593.6745197947163
1776 -593.5968486857568
1777 -593.6727222316208
1778 -593.5941121643397
1779 -593.667720351167
1780 -593.5882923949331
1781 -593.6598080405146
1782 -593.5823559844914
1783 -593.6592616248538
1784 -593.5814719851785
1785 -593.6586188615715
1786 -593.5861520558844
1787 -593.6635689763026
1788 -593.5914970899602
1789 -593.6698688961776
1790 -593.5933278908619
1791 -593.667638336713
1792 -593.5906016313178
1793 -593.6699025036418
1794 -593.5938992634864
1795 -593.6687873185825
1796 -593.593239508157
1797 -593.6717819440466
1798 -593.596338897462
1799 -593.6771427987632
1800 -593.5977885553465
1801 -593.6736296749843
1802 -593.6021767089206
1803 -593.6788799971092
1804 -593.6030011402472
1805 -593.6768484515634
1806 -593.6036031538613
1807 -593.6803684217998
1808 -593.6019905803146
1809 -593.6766983443046
1810 -593.601993669512
1811 -593.6800797195617
1812 -593.6040251172697
1813 -593.6823849367245
1814 -593.6071687329039
1815 -593.68496400979
1816 -593.6066584922313
1817 -593.6840355966234
1818 -593.6078765947428
1819 -593.6869204917687
1820 -593.6130355632372
1821 -593.6908613152553
1822 -593.6185223848406
1823 -593.6978214105718
1824 -593.6168710171355
1825 -593.6933051949735
1826 -593.6181045562419
1827 -593.6946286998563
1828 -593.6162753155465
1829 -593.691300814192
1830 -593.6088428021493
1831 -593.685774331263
1832 -593.6078029805306
1833 -593.683987896188
1834 -593.6062024539842
1835 -593.6817270036026
1836 -593.6044753632148
1837 -593.6794458554716
1838 -593.6018001947793
1839 -593.6783886862477
1840 -593.601202774061
1841 -593.6751599285666
1842 -593.5990499596605
1843 -593.6730169532482
1844 -593.5973411548588
1845 -593.6772977916842
1846 -593.6015917764495
1847 -593.6824236410951
1848 -593.6080322824004
1849 -593.6855582498229
1850 -593.610634203195
1851 -593.6876460853972
1852 -593.6077710438071
1853 -593.6868236083833
1854 -593.6111922760732
1855 -593.6880763509128
1856 -593.6122150435998
1857 -593.6878831290659
1858 -593.6099166476373
1859 -593.6872288560069
1860 -593.6065112650591
1861 -593.6807230263438
1862 -593.6035804121653
1863 -593.6776048527577
1864 -593.5975725457631
1865 -593.6760716249375
1866 -593.5968377734858
1867 -593.672824001898
1868 -593.5963340192011
1869 -593.6769703184408
1870 -593.5987451356631
1871 -593.6779485606473
1872 -593.5992634863412
1873 -593.6801966251364
1874 -593.6032294883375
1875 -593.6792938263466
1876 -593.601334924861
1877 -593.6796429185979
1878 -593.5981736287927
1879 -593.6755446638066
1880 -593.5922627703413
1881 -593.6691113036806
1882 -593.5920570056621
1883 -593.6685260960717
1884 -593.5887549883029
1885 -593.6665425175271
1886 -593.5889464199209
1887 -593.6635700770933
1888 -593.5860740967038
1889 -593.6640046446817
1890 -593.5919268791225
1891 -593.665249424575
1892 -593.5841574828357
1893 -593.6656820354281
1894 -593.5902158789379
1895 -593.6708280879001
1896 -593.5938897533911
1897 -593.6721246416241
1898 -593.5989444241143
1899 -593.6777958182663
1900 -593.6018944033181
1901 -593.6782604204651
1902 -593.6024403754579
1903 -593.6755982403744
1904 -593.5997387288601
1905 -593.6742942898018
1906 -593.5996367849859
1907 -593.6736291193245
1908 -593.5971500294417
1909 -593.6735707536618
1910 -593.5958160706358
1911 -593.6715802095786
1912 -593.5962636840661
1913 -593.6702271418573
1914 -593.5926981808436
1915 -593.6677747350328
1916 -593.5921403240695
1917 -593.6660904557988
1918 -593.5908095632522
1919 -593.6629810338666
1920 -593.5880726685979
1921 -593.6624480336573
1922 -593.5896363269802
1923 -593.6631193547681
1924 -593.5877230022028
1925 -593.6627016468855
1926 -593.5900331762402
1927 -593.6674223056884
1928 -593.5924719512017
1929 -593.6662686550048
1930 -593.5938957383056
1931 -593.6673934499755
1932 -593.5942930180453
1933 -593.6701428359946
1934 -593.5971919101825
1935 -593.6716118802009
1936 -593.5950922648848
1937 -593.671989525149
1938 -593.5969958154357
1939 -593.6752527443113
1940 -593.5981916997071
1941 -593.6741588848701
1942 -593.5987082514722
1943 -593.6742279761212
1944 -593.592738359163
1945 -593.6689521277576
1946 -593.5921922861238
1947 -593.665523187712
1948 -593.5875489844303
1949 -593.6672038224791
1950 -593.5935383760475
1951 -593.671664548912
1952 -593.5948219502854
1953 -593.6723161424612
1954 -593.595544664889
1955 -593.6728372551418
1956 -593.5954226248922
1957 -593.6740721287263
1958 -593.5979034538876
1959 -593.6729520159327
1960 -593.595626796193
1961 -593.6709435804662
1962 -593.593276314262
1963 -593.6684298760914
1964 -593.5934983936439
1965 -593.668332476606
1966 -593.5930488130624
1967 -593.6685022197971
1968 -593.5913641744143
1969 -593.6659561555574
1970 -593.5891036897189
1971 -593.6627794238811
1972 -593.5849756397687
1973 -593.660928809658
1974 -593.5838750095612
1975 -593.6610691196287
1976 -593.5856427700667
1977 -593.6632325218334
1978 -593.5856093074871
1979 -593.6676994470607
1980 -593.5935110228309
1981 -593.6725679012403
1982 -593.599833813821
1983 -593.6763344240649
1984 -593.6038711613065
1985 -593.6844929877576
1986 -593.6111428198074
1987 -593.6886167415319
1988 -593.6118271860195
1989 -593.687403044391
1990 -593.6105021467885
1991 -593.6858957920019
1992 -593.6033400200338
1993 -593.6778310981575
1994 -593.5988225901918
1995 -593.6743612995924
1996 -593.5960945860053
1997 -593.6705226397667
1998 -593.5933757911438
1999 -593.6707663154908
2000 -593.591353893923
2001 -593.6676370075727
2002 -593.5928502932626
2003 -593.6719651506475
2004 -593.5941056841123
2005 -593.6741774942694
2006 -593.6014589419967
2007 -593.674992082749
2008 -593.5984284461769
2009 -593.6727067548352
2010 -593.5960445107822
2011 -593.6685619802969
2012 -593.5942831842902
2013 -593.667828743786
2014 -593.5924280379078
2015 -593.6678866579875
2016 -593.5921918789757
2017 -593.6682820424465
2018 -593.5921528858454
2019 -593.6650448262441
2020 -593.5910662376052
2021 -593.6664047660598
2022 -593.592025142261
2023 -593.6661015424419
2024 -593.5920248961955
2025 -593.6657244723949
2026 -593.5928276470929
2027 -593.6717877690269
2028 -593.5975090886403
2029 -593.6757955467089
2030 -593.6057046516914
2031 -593.6828308543219
2032 -593.6090564493153
2033 -593.6859417568671
2034 -593.608833413335
2035 -593.6861023307002
2036 -593.6125193229985
2037 -593.6910615782649
2038 -593.620799281
2039 -593.6998800260945
2040 -593.6206445649783
2041 -593.6975741896238
2042 -593.6243037573116
2043 -593.6981581762785
2044 -593.6190569432814
2045 -593.690782723598
2046 -593.6136962994801
2047 -593.6898333075981
2048 -593.6116718518748
2049 -593.6897968991887
2050 -593.6136026928958
2051 -593.6917885368753
2052 -593.6142003509724
2053 -593.6900350060479
2054 -593.61217245359
2055 -593.6873676447074
2056 -593.6090884824827
2057 -593.6851605178163
2058 -593.608503460739
2059 -593.6852499663917
2060 -593.6065709736083
2061 -593.6870951672904
2062 -593.6109253288656
2063 -593.6929854887414
2064 -593.6163482281432
2065 -593.6974011607479
2066 -593.6198349097344
2067 -593.6961406590545
2068 -593.6208658516191
2069 -593.6983434881211
2070 -593.6228583560385
2071 -593.699356684182
2072 -593.6183243231579
2073 -593.6928040227832
2074 -593.6162988238423
2075 -593.6974406638183
2076 -593.6198148809708
2077 -593.6968735543512
2078 -593.6245453010224
2079 -593.7001031940323
2080 -593.6253779453067
2081 -593.7028725118616
2082 -593.6264770716798
2083 -593.7026264447627
2084 -593.6257644612452
2085 -593.7040552753219
2086 -593.6264666624294
2087 -593.706384173609
2088 -593.6296815550805
2089 -593.7061708346873
2090 -593.6318687964542
2091 -593.7095176247725
2092 -593.6366313405516
2093 -593.716409864072
2094 -593.6383159822501
2095 -593.7160881419076
2096 -593.6405120074412
2097 -593.7180674083783
2098 -593.6418385814413
2099 -593.7202089715314
2100 -593.6432809716408
2101 -593.7191772401353
2102 -593.6438103212665
2103 -593.7195887228505
2104 -593.6414170328959
2105 -593.7156261481229
2106 -593.6417203520012
2107 -593.7147494031148
2108 -593.6356996373381
2109 -593.7121998708034
2110 -593.638108429794
2111 -593.7150257432309
2112 -593.6401708568657
2113 -593.7178462095802
2114 -593.6417223263281
2115 -593.716192113426
2116 -593.635236753158
2117 -593.7075487864796
2118 -593.6306486677627
2119 -593.7034345603768
2120 -593.6257546068995
2121 -593.7016767725418
2122 -593.6247126364593
2123 -593.7026244722077
2124 -593.6259444977288
2125 -593.7041643333224
2126 -593.6292524070667
2127 -593.7065066971898
2128 -593.6323545166795
2129 -593.7124753506039
2130 -593.635972159473
2131 -593.7158881970229
2132 -593.6379289867682
2133 -593.7139536607718
2134 -593.6338706993149
2135 -593.711263954164
2136 -593.6338848405762
2137 -593.7084538263309
2138 -593.6323578099338
2139 -593.7070456621267
2140 -593.6323398982825
2141 -593.7101147360702
2142 -593.6332017129001
2143 -593.7115150843351
2144 -593.6350302532055
2145 -593.7101414712054
2146 -593.6343924558116
2147 -593.7105997995726
2148 -593.6305638735629
2149 -593.7053990262073
2150 -593.6266550469458
2151 -593.7034672326729
2152 -593.6285520184746
2153 -593.7072576976649
2154 -593.6305917075805
2155 -593.7084270155207
2156 -593.6333902843445
2157 -593.7116184919544
2158 -593.6358818704983
2159 -593.7170149787388
2160 -593.6381862342619
2161 -593.7140238881645
2162 -593.6388248880734
2163 -593.7162487434158
2164 -593.638577215496
2165 -593.7156130628741
2166 -593.6363907334038
2167 -593.7096007010387
2168 -593.6316258432175
2169 -593.7054571838065
2170 -593.6302109110892
2171 -593.7031288633509
2172 -593.6245773114925
2173 -593.7019965714941
2174 -593.6265842319384
2175 -593.702080113639
2176 -593.6275340580578
2177 -593.699463542368
2178 -593.6242330663681
2179 -593.7024882298111
2180 -593.626812244815
2181 -593.7034219324875
2182 -593.6304023052064
2183 -593.7079650969557
2184 -593.6296711363157
2185 -593.7062483537449
2186 -593.6306231679459
2187 -593.7075465783754
2188 -593.632426227308
2189 -593.7097536689455
2190 -593.6353946858035
2191 -593.7110347653414
2192 -593.6350385477239
2193 -593.7109929080751
2194 -593.6386552519843
2195 -593.7142617628867
2196 -593.636404249644
2197 -593.7094338629682
2198 -593.6332780038171
2199 -593.7062890295606
2200 -593.6274015593194
2201 -593.6999974442041
2202 -593.619971710263
2203 -593.6972482201592
2204 -593.6210229967031
2205 -593.6978551333104
2206 -593.6245490790926
2207 -593.7044580546628
2208 -593.6268724466112
2209 -593.7035772520835
2210 -593.6265258311527
2211 -593.7026890235861
2212 -593.6260379135457
2213 -593.7004881256124
2214 -593.6286557177177
2215 -593.7078424976406
2216 -593.6287136265686
2217 -593.7078329476764
2218 -593.6329767869157
2219 -593.7120963430542
2220 -593.6311543880033
2221 -593.7096185145101
2222 -593.6311015621046
2223 -593.7060465068977
2224 -593.6278065085814
2225 -593.7002655865649
2226 -593.6224382065027
2227 -593.6980670995939
2228 -593.6167893322324
2229 -593.6931504831051
2230 -593.6166480723814
2231 -593.691212977955
2232 -593.6178774250849
2233 -593.6941440818044
2234 -593.620049551768
2235 -593.6948319741351
2236 -593.6209055830263
2237 -593.6983137512667
2238 -593.6222095408932
2239 -593.6991283202631
2240 -593.6201230462319
2241 -593.6958824070304
2242 -593.6218408668988
2243 -593.6950408811267
2244 -593.6176112601568
2245 -593.6920089382776
2246 -593.6142701888515
2247 -593.689988742399
2248 -593.6130683307798
2249 -593.6881346863611
2250 -593.6117991882701
2251 -593.6870969323029
2252 -593.6142904005379
2253 -593.6892612116706
2254 -593.6106799228215
2255 -593.6867365874804
2256 -593.6059192844515
2257 -593.6837488715643
2258 -593.6076999669498
2259 -593.6830421728332
2260 -593.6067824137353
2261 -593.6800559446427
2262 -593.6066456231513
2263 -593.6843375075591
2264 -593.6093311531757
2265 -593.6859062218091
2266 -593.6153698064417
2267 -593.6919224205814
2268 -593.6154563295236
2269 -593.6913421729541
2270 -593.6171362502729
2271 -593.6904763969404
2272 -593.6138229913106
2273 -593.6895268453802
2274 -593.6123320695058
2275 -593.6814890593226
2276 -593.6048484299711
2277 -593.6771789817601
2278 -593.6007937953866
2279 -593.6758439190083
2280 -593.5976239878896
2281 -593.669758850065
2282 -593.5941714306935
2283 -593.6712723035484
2284 -593.5934938328073
2285 -593.6703932081259
2286 -593.5959097060631
2287 -593.6736560966442
2288 -593.5980734720955
2289 -593.6751356068496
2290 -593.5998303609445
2291 -593.6769478813028
2292 -593.5997770284937
2293 -593.6757237399388
2294 -593.6016515273036
2295 -593.6785212545572
2296 -593.604899001811
2297 -593.6813106036034
2298 -593.6053446297127
2299 -593.681398854689
2300 -593.6027202045962
2301 -593.6773451119357
2302 -593.6026273880462
2303 -593.6806492395577
2304 -593.5989354798685
2305 -593.6766491643979
2306 -593.5973663618195
2307 -593.6704149141447
2308 -593.5919173431216
2309 -593.6662671512489
2310 -593.585819384867
2311 -593.6643247912672
2312 -593.5851431158052
2313 -593.6585798401876
2314 -593.5845369996052
2315 -593.6638079005701
2316 -593.5892743903669
2317 -593.6696077379132
2318 -593.5944850591374
2319 -593.6751973763804
2320 -593.6004671813126
2321 -593.6769018858113
2322 -593.6046054748172
2323 -593.680976963346
2324 -593.6054095464551
2325 -593.6800672860046
2326 -593.6020318747502
2327 -593.680794800799
2328 -593.6034843443688
2329 -593.6796995545714
2330 -593.6001257383323
2331 -593.6750583269803
2332 -593.6015684876036
2333 -593.6780692840086
2334 -593.6026151459761
2335 -593.6769787965009
2336 -593.5961643144315
2337 -593.6662064313151
2338 -593.5898868130822
2339 -593.6627089168499
2340 -593.5848437543333
2341 -593.6598496023988
2342 -593.5824394325105
2343 -593.6572925062868
2344 -593.5794336624433
2345 -593.6566249199989
2346 -593.5810730882419
2347 -593.6597547911902
2348 -593.5887915093723
2349 -593.6669731440387
2350 -593.5958671427132
2351 -593.6774827605107
2352 -593.6046461189583
2353 -593.6804019590239
2354 -593.605918607582
2355 -593.6820369931529
2356 -593.6094936183839
2357 -593.6842402057332
2358 -593.6101737920576
2359 -593.685090023042
2360 -593.6077778759915
2361 -593.6792632716782
2362 -593.6030059656532
2363 -593.6782752757617
2364 -593.5995844802144
2365 -593.6741421514758
2366 -593.594622189573
2367 -593.6652207861634
2368 -593.5863924416755
2369 -593.6622674077876
2370 -593.5880520730092
2371 -593.6621786134898
2372 -593.5825572131628
2373 -593.6601460821452
2374 -593.5839666163598
2375 -593.6646209135556
2376 -593.5857116202723
2377 -593.6618549183005
2378 -593.5865877953048
2379 -593.6654377376472
2380 -593.5896323348643
2381 -593.6705810576045
2382 -593.5928262142262
2383 -593.6690663881977
2384 -593.5917901708495
2385 -593.6692892868366
2386 -593.5905707353312
2387 -593.6675632569453
2388 -593.5878145988604
2389 -593.6611497471488
2390 -593.5869822242453
2391 -593.6606933169562
2392 -593.5809575735353
2393 -593.6566752418267
2394 -593.5785330642005
2395 -593.6547562223687
2396 -593.5778531795735
2397 -593.6530246211515
2398 -593.5791598189884
2399 -593.6550873792727
2400 -593.5779262465602
2401 -593.6539803089574
2402 -593.5757242039007
2403 -593.6505862886524
2404 -593.5724128481713
2405 -593.645897917174
2406 -593.5734135693169
2407 -593.6497279311317
2408 -593.5789743288545
2409 -593.6553702753475
2410 -593.5831318908445
2411 -593.6629660159832
2412 -593.5871046139655
2413 -593.6649108282712
2414 -593.5892642479115
2415 -593.6655002931384
2416 -593.5907941762583
2417 -593.6623081878905
2418 -593.5863898117195
2419 -593.6598503691749
2420 -593.5831258525858
2421 -593.6560702488321
2422 -593.5811300863048
2423 -593.6539240581159
2424 -593.578236339149
2425 -593.6552836688487
2426 -593.5825795275475
2427 -593.6552232753584
2428 -593.5806223083727
2429 -593.6577170786213
2430 -593.5839229220352
2431 -593.6603275284103
2432 -593.5849398564441
2433 -593.659013976736
2434 -593.5872813627375
2435 -593.664690370856
2436 -593.5861610640918
2437 -593.6611944601547
2438 -593.5835919015188
2439 -593.6585899839425
2440 -593.5837601171885
2441 -593.6602994849803
2442 -593.5863744111933
2443 -593.6610280827132
2444 -593.5845745142058
2445 -593.6595673899709
2446 -593.5839758613458
2447 -593.6575192725556
2448 -593.5796266417073
2449 -593.6563842720622
2450 -593.57832776123
2451 -593.6545548698872
2452 -593.5777834919193
2453 -593.6550603691356
2454 -593.5818793005338
2455 -593.6571134404362
2456 -593.5777507685671
2457 -593.6550441439559
2458 -593.579819756183
2459 -593.6568407912988
2460 -593.5831839843866
2461 -593.6607165737948
2462 -593.5887422235329
2463 -593.6639309462346
2464 -593.5857953689671
2465 -593.6638684002685
2466 -593.5910326772047
2467 -593.6700707155044
2468 -593.5969722555188
2469 -593.67425123966
2470 -593.5965696115543
2471 -593.6764209310151
2472 -593.600273031463
2473 -593.6769188006186
2474 -593.6004038226774
2475 -593.6813556046984
2476 -593.6015422369701
2477 -593.6739207215709
2478 -593.5962431422406
2479 -593.6719738949757
2480 -593.5955857770333
2481 -593.6712589217741
2482 -593.5962788429118
2483 -593.6732636592166
2484 -593.596763011656
2485 -593.6708930643468
2486 -593.5910907922841
2487 -593.6670859998121
2488 -593.5871278117706
2489 -593.6616404461718
2490 -593.5862152920884
2491 -593.6619968557522
2492 -593.5865162141173
2493 -593.6637034922525
2494 -593.5881308101045
2495 -593.6645461937748
2496 -593.5855100372142
2497 -593.6619232037225
2498 -593.5838181575855
2499 -593.6595946367472
2500 -593.5840716675365
2501 -593.6617171924991
2502 -593.5872735061139
2503 -593.6654331654913
2504 -593.5899352605974
2505 -593.6652501908668
2506 -593.5919513905461
2507 -593.6709882059271
2508 -593.593511752476
2509 -593.66925680298
2510 -593.5932303235501
2511 -593.6684281008702
2512 -593.5929025172476
2513 -593.663669643686
2514 -593.5869472716886
2515 -593.6626777562481
2516 -593.5912166965626
2517 -593.665605730773
2518 -593.5929700881635
2519 -593.6683437713573
2520 -593.592626885856
2521 -593.6673432869318
2522 -593.5918320542696
2523 -593.6680117079914
2524 -593.5927023321306
2525 -593.6682288748053
2526 -593.5928357929945
2527 -593.6670820654637
2528 -593.5929935138779
2529 -593.6682925907656
2530 -593.5936451671901
2531 -593.6701628863715
2532 -593.5911138469313
2533 -593.6611874767273
2534 -593.5825560043138
2535 -593.6574673928063
2536 -593.5809085184897
2537 -593.6573467557606
2538 -593.5785864843727
2539 -593.6525988145644
2540 -593.5747728785243
2541 -593.6505085014277
2542 -593.5721299618791
2543 -593.6505542946389
2544 -593.5730345416006
2545 -593.6505122701167
2546 -593.5743006510618
2547 -593.6512790996227
2548 -593.577213033363
2549 -593.6548986753594
2550 -593.5820670794191
2551 -593.661232274801
2552 -593.5854668660112
2553 -593.6617393037861
2554 -593.5942286082386
2555 -593.6735887318362
2556 -593.5951417147861
2557 -593.6707288511356
2558 -593.5937758808961
2559 -593.6685343831321
2560 -593.5914991536669
2561 -593.6673862985547
2562 -593.5890019449328
2563 -593.664521264238
2564 -593.5827066140396
2565 -593.6593998248609
2566 -593.5825766065735
2567 -593.6581142993804
2568 -593.5764454882133
2569 -593.6512894052187
2570 -593.5716852077953
2571 -593.650549896288
2572 -593.5770624083614
2573 -593.6553065146821
2574 -593.5818227787908
2575 -593.660432257152
2576 -593.5842932544438
2577 -593.6619631084524
2578 -593.5862608134208
2579 -593.6668099833087
2580 -593.5883078271045
2581 -593.6656433242659
2582 -593.5917480049769
2583 -593.6682370516896
2584 -593.5902912833532
2585 -593.6665427969828
2586 -593.5930980318421
2587 -593.6696941429199
2588 -593.5907943338615
2589 -593.6669549690298
2590 -593.5898587501256
2591 -593.6643917263843
2592 -593.5841573119404
2593 -593.6578054960505
2594 -593.5786270200787
2595 -593.6545092832063
2596 -593.5758615607442
2597 -593.6470788125779
2598 -593.5677526807428
2599 -593.6434284183584
2600 -593.5684153305069
2601 -593.6442180907095
2602 -593.5724939768071
2603 -593.6532557058079
2604 -593.5803429564517
2605 -593.657697306721
2606 -593.585733472565
2607 -593.6636961658787
2608 -593.5896029218371
2609 -593.668359315676
2610 -593.5945853536192
2611 -593.6711357157337
2612 -593.5961171333723
2613 -593.6706073165003
2614 -593.5956477646773
2615 -593.6686118909624
2616 -593.58834500606
2617 -593.6638332311463
2618 -593.5839755758526
2619 -593.6565239057684
2620 -593.5722547229487
2621 -593.6478072316304
2622 -593.5674295002062
2623 -593.6437359886354
2624 -593.5628229308785
2625 -593.639434673902
2626 -593.5628906641705
2627 -593.6424488111943
2628 -593.5661160504969
2629 -593.6419268121256
2630 -593.5684261427479
2631 -593.6475606435351
2632 -593.5761650883393
2633 -593.6541713264793
2634 -593.5816430988555
2635 -593.6621313440247
2636 -593.5903031344291
2637 -593.668383861244
2638 -593.5945963686714
2639 -593.673286527077
2640 -593.596636414732
2641 -593.6715921513888
2642 -593.5944515995604
2643 -593.6706627721587
2644 -593.5927657745923
2645 -593.6671988447564
2646 -593.5907223715544
2647 -593.6641733399468
2648 -593.5862688901691
2649 -593.6619974028185
2650 -593.5866931544372
2651 -593.6648259302904
2652 -593.5857712525168
2653 -593.662116089092
2654 -593.5875967207198
2655 -593.6636322141096
2656 -593.5859950099133
2657 -593.6621198405189
2658 -593.5859858335426
2659 -593.6641847685967
2660 -593.5882730242158
2661 -593.6629712907853
2662 -593.5852757652489
2663 -593.6642339935737
2664 -593.5846884173416
2665 -593.6597404692233
2666 -593.5823303438777
2667 -593.6586017093517
2668 -593.5826223002963
2669 -593.6578094858335
2670 -593.5820821882485
2671 -593.6563987182075
2672 -593.5769189680062
2673 -593.6514510051881
2674 -593.5751821833759
2675 -593.6529559082076
2676 -593.5761033444041
2677 -593.6531095158333
2678 -593.5781632819163
2679 -593.6563300234396
2680 -593.5812977480107
2681 -593.6585066455409
2682 -593.585370029396
2683 -593.6673186293801
2684 -593.5894373850367
2685 -593.6684730859873
2686 -593.5923969837096
2687 -593.6758206012793
2688 -593.5984335801553
2689 -593.6795772691622
2690 -593.6050241955564
2691 -593.6825492881668
2692 -593.6078018085639
2693 -593.680504086157
2694 -593.6026657272826
2695 -593.6777946772738
2696 -593.5982933478356
2697 -593.6681213259417
2698 -593.5936238384458
2699 -593.6724992768474
2700 -593.594191686747
2701 -593.6682059914892
2702 -593.5871691095678
2703 -593.6616559400509
2704 -593.5829752196477
2705 -593.6569046108629
2706 -593.5819388456509
2707 -593.6566169075809
2708 -593.5780068579719
2709 -593.6536670198399
2710 -593.5786101188648
2711 -593.657976011669
2712 -593.5839904691239
2713 -593.6625668021644
2714 -593.5864070465266
2715 -593.6637973271088
2716 -593.5913082858974
2717 -593.668325710876
2718 -593.5938461967794
2719 -593.6710095415058
2720 -593.5925847610131
2721 -593.6669433300357
2722 -593.5881503050739
2723 -593.6669759535565
2724 -593.5858458423766
2725 -593.6594157494944
2726 -593.5788482059996
2727 -593.6542395780267
2728 -593.5786303609556
2729 -593.6522119757145
2730 -593.5774447096325
2731 -593.6534714101072
2732 -593.5819862728951
2733 -593.6556969846546
2734 -593.5807674044045
2735 -593.659029617809
2736 -593.5805851263476
2737 -593.658291423563
2738 -593.5815744693361
2739 -593.6600877030551
2740 -593.5842835596216
2741 -593.658813331818
2742 -593.5840324905867
2743 -593.6614429034678
2744 -593.5843423308312
2745 -593.6606901105579
2746 -593.5850698207213
2747 -593.6641605622509
2748 -593.5850950038604
2749 -593.6604760811807
2750 -593.580979890848
2751 -593.6573333731091
2752 -593.5816279596744
2753 -593.6568078643277
2754 -593.5800242756425
2755 -593.6548170745598
2756 -593.5798519914689
2757 -593.6524018908526
2758 -593.5785086735721
2759 -593.6558006174906
2760 -593.5799347377283
2761 -593.653088290675
2762 -593.5797564379239
2763 -593.6526580035271
2764 -593.5795919276565
2765 -593.6545579656732
2766 -593.5777349716292
2767 -593.6491844032889
2768 -593.5760008938062
2769 -593.6491894143364
2770 -593.5768864985877
2771 -593.6506790884231
2772 -593.5749046190475
2773 -593.6507605024079
2774 -593.5757170009666
2775 -593.650609333198
2776 -593.5729682252228
2777 -593.6494732404284
2778 -593.5747030077854
2779 -593.6546842606685
2780 -593.5790943169309
2781 -593.6551327958999
2782 -593.5829179953718
2783 -593.6598871464566
2784 -593.5861727737525
2785 -593.6616548717681
2786 -593.5895951311812
2787 -593.6625071121872
2788 -593.5833425236472
2789 -593.6584376559287
2790 -593.5838008122691
2791 -593.6601169420925
2792 -593.5846313300326
2793 -593.6624167392207
2794 -593.5854939511894
2795 -593.6638010953651
2796 -593.5847533909944
2797 -593.6623056172679
2798 -593.5864296902779
2799 -593.6628703099757
2800 -593.5858678177723
2801 -593.6621721341494
2802 -593.5881604286935
2803 -593.6651485964616
2804 -593.5889009549388
2805 -593.6683410257998
2806 -593.5921073365873
2807 -593.6754348687433
2808 -593.598971614909
2809 -593.678143055601
2810 -593.6004405602138
2811 -593.6779638022446
2812 -593.6019113734848
2813 -593.6795305143811
2814 -593.5990668500061
2815 -593.6733342820696
2816 -593.5944287660358
2817 -593.6681995360319
2818 -593.5917614242803
2819 -593.6661355315694
2820 -593.5893931955578
2821 -593.6642793908325
2822 -593.5873221261423
2823 -593.6630872011552
2824 -593.5843647084447
2825 -593.6600110843331
2826 -593.5867308806349
2827 -593.6633004355523
2828 -593.5829238714909
2829 -593.6576359195996
2830 -593.5818563622555
2831 -593.6604835782305
2832 -593.5874786990198
2833 -593.6657580748646
2834 -593.5890435920487
2835 -593.6640418379009
2836 -593.589496199026
2837 -593.6635782259604
2838 -593.5845827308214
2839 -593.660195180894
2840 -593.5852107864849
2841 -593.6581898391015
2842 -593.5831043898171
2843 -593.66058918226
2844 -593.5813003276756
2845 -593.6562702943011
2846 -593.5739378386326
2847 -593.6465538072172
2848 -593.5686889878693
2849 -593.6444228645711
2850 -593.5660341181192
2851 -593.6392952416315
2852 -593.5600133906681
2853 -593.6354234003653
2854 -593.5586759154693
2855 -593.6385828784488
2856 -593.5635145698969
2857 -593.6387476968483
2858 -593.5676228812505
2859 -593.6470327202388
2860 -593.5748019212257
2861 -593.6517674216957
2862 -593.5785936783019
2863 -593.6569186532867
2864 -593.5854664336575
2865 -593.6585439223765
2866 -593.5879605529526
2867 -593.6625744089345
2868 -593.5860032657949
2869 -593.6622364514322
2870 -593.5869996321969
2871 -593.6640815614786
2872 -593.5841677411582
2873 -593.6586343872187
2874 -593.5825837810294
2875 -593.6594233570412
2876 -593.5809915466072
2877 -593.6546549302893
2878 -593.5730951687564
2879 -593.6476819985656
2880 -593.5697514169357
2881 -593.6447702190841
2882 -593.5664366904889
2883 -593.6374161234783
2884 -593.5608481998047
2885 -593.639067269296
2886 -593.562433977258
2887 -593.6403955578172
2888 -593.5624892189142
2889 -593.6384249168408
2890 -593.5678912089273
2891 -593.6452662646734
2892 -593.5699550117265
2893 -593.6474121271415
2894 -593.5744023346039
2895 -593.6520884330329
2896 -593.5797135570494
2897 -593.6585277621199
2898 -593.5828848286176
2899 -593.6629081581519
2900 -593.5860887771365
2901 -593.6602501011972
2902 -593.5847752882933
2903 -593.6654194313539
2904 -593.5891971679504
2905 -593.6676221680444
2906 -593.5902000233083
2907 -593.6665993540474
2908 -593.5870987254053
2909 -593.6621797222621
2910 -593.5836535970334
2911 -593.661737648977
2912 -593.5834797070913
2913 -593.6584458472578
2914 -593.5812410274759
2915 -593.6568177202847
2916 -593.5831277044466
2917 -593.6607474778497
2918 -593.5829801796779
2919 -593.6601702443979
2920 -593.5859829551885
2921 -593.6626130332378
2922 -593.5872946503284
2923 -593.6650070089851
2924 -593.589386528491
2925 -593.6623355070461
2926 -593.5892636991443
2927 -593.6648245047302
2928 -593.5877918599198
2929 -593.660109278155
2930 -593.5868973321982
2931 -593.6573395728341
2932 -593.5789086420393
2933 -593.6552731281013
2934 -593.5815426868859
2935 -593.6571794118548
2936 -593.5801092837945
2937 -593.6571438248977
2938 -593.5801065100954
2939 -593.6575758544019
2940 -593.5839844099213
2941 -593.6631792973285
2942 -593.5878357640488
2943 -593.6649009896581
2944 -593.5882994273176
2945 -593.6654835898219
2946 -593.5888848014348
2947 -593.6664687624439
2948 -593.5904252675127
2949 -593.6653981901773
2950 -593.5888909873445
2951 -593.6675102337391
2952 -593.5878653578783
2953 -593.665672552724
2954 -593.5863932446938
2955 -593.6624482683549
2956 -593.5862987296516
2957 -593.661986179155
2958 -593.5844106864032
2959 -593.6620083117376
2960 -593.5814395967468
2961 -593.658407197875
2962 -593.5821956326314
2963 -593.6597833247366
2964 -593.5806811757744
2965 -593.6574358614552
2966 -593.5802152299195
2967 -593.6569866903977
2968 -593.5810207962538
2969 -593.6560964551107
2970 -593.5780557258111
2971 -593.6560455134039
2972 -593.5821564346205
2973 -593.6594084468509
2974 -593.5820174031542
2975 -593.6614005296108
2976 -593.5859105959807
2977 -593.6626502785518
2978 -593.5854350901305
2979 -593.6609640309333
2980 -593.5897452048673
2981 -593.6637598767206
2982 -593.5839796949064
2983 -593.6600222412719
2984 -593.5851964569553
2985 -593.6603606753069
2986 -593.5808992211139
2987 -593.6558935148033
2988 -593.580539779599
2989 -593.6546205020099
2990 -593.5783562187071
2991 -593.6563714376661
2992 -593.5775099396374
2993 -593.6501637187005
2994 -593.5756817023798
2995 -593.6506759735664
2996 -593.5742359392082
2997 -593.6492218951327
2998 -593.5756913584155
2999 -593.6570116649065
3000 -593.5800786260312
3001 -593.6568902524045
3002 -593.5806197747606
3003 -593.6571854593203
3004 -593.5812869503942
3005 -593.6568808121515
3006 -593.580377364638
3007 -593.6551593723188
3008 -593.5800891718899
3009 -593.6514166746859
3010 -593.5793696322363
3011 -593.6560625794206
3012 -593.5809408062688
3013 -593.6548242326094
3014 -593.5816620492169
3015 -593.6594657523478
3016 -593.5854743967328
3017 -593.6603128058262
3018 -593.5876976180565
3019 -593.665091383619
3020 -593.5917463753403
3021 -593.6693170338174
3022 -593.5977114683748
3023 -593.6769418263312
3024 -593.5994294502436
3025 -593.6757545989432
3026 -593.5996366322616
3027 -593.6729270948131
3028 -593.5966967398631
3029 -593.6687956902196
3030 -593.5898798322609
3031 -593.6641992611219
3032 -593.5875033062619
3033 -593.65985705064
3034 -593.5824388061263
3035 -593.6607730741348
3036 -593.581548993041
3037 -593.6581957614871
3038 -593.579936982627
3039 -593.6548556876725
3040 -593.5783593002667
3041 -593.6541032016362
3042 -593.5766321376602
3043 -593.6533738037699
3044 -593.5766615835162
3045 -593.6536414923877
3046 -593.5786193321825
3047 -593.6567615203023
3048 -593.5813827287393
3049 -593.6552838339958
3050 -593.5836656993895
3051 -593.6578701011127
3052 -593.5844819894367
3053 -593.6600740765331
3054 -593.5847553810815
3055 -593.6606063978459
3056 -593.5833636487628
3057 -593.6567494439986
3058 -593.5768484454027
3059 -593.6567620524482
3060 -593.5756891940709
3061 -593.6513741693767
3062 -593.5705310873586
3063 -593.64956553474
3064 -593.569664185216
3065 -593.6466692592768
3066 -593.5681292113048
3067 -593.6471705258434
3068 -593.5707115041143
3069 -593.6493732279785
3070 -593.5719392400639
3071 -593.6534890544671
3072 -593.5765100582779
3073 -593.6561264424737
3074 -593.580394903944
3075 -593.6553854740181
3076 -593.5803595787456
3077 -593.6579271215933
3078 -593.5821012270969
3079 -593.6581848860018
3080 -593.5822205909816
3081 -593.6582999235546
3082 -593.5854374255277
3083 -593.6656998737762
3084 -593.5873446250729
3085 -593.6627979753565
3086 -593.5909492083457
3087 -593.6660906328437
3088 -593.5870043309367
3089 -593.6619689910011
3090 -593.5845130727671
3091 -593.6576443183596
3092 -593.5783779763775
3093 -593.6544676773042
3094 -593.5795346558617
3095 -593.6586054816145
3096 -593.5813691957891
3097 -593.6550013952241
3098 -593.5813301791453
3099 -593.6587954498594
3100 -593.582094126604
3101 -593.6575114803525
3102 -593.5826105564896
3103 -593.6604053005332
3104 -593.5826739206991
3105 -593.6596643086957
3106 -593.5858419166407
3107 -593.6610853101744
3108 -593.5878687153739
3109 -593.6646057064665
3110 -593.5877674053783
3111 -593.662986314397
3112 -593.5877915880866
3113 -593.6626854741583
3114 -593.5875020806967
3115 -593.6643266173803
3116 -593.589756490519
3117 -593.665860886651
3118 -593.5933745786587
3119 -593.6711556915038
3120 -593.5924805681582
3121 -593.6706276941856
3122 -593.5943032371757
3123 -593.6729107373567
3124 -593.5940815624949
3125 -593.6716195928915
3126 -593.5946281966878
3127 -593.6711514843015
3128 -593.5926803829784
3129 -593.6675945602534
3130 -593.5902764293032
3131 -593.6656615057339
3132 -593.5887612759401
3133 -593.6639917677253
3134 -593.5860408530532
3135 -593.6652330855171
3136 -593.5882478838374
3137 -593.663852961348
3138 -593.5849267654809
3139 -593.6612312107129
3140 -593.584051070135
3141 -593.6598542818585
3142 -593.5838675836429
3143 -593.6641586413256
3144 -593.5853327507397
3145 -593.6636363706244
3146 -593.5916171239604
3147 -593.6679652841951
3148 -593.5932547858417
3149 -593.6729500067974
3150 -593.5944367135683
3151 -593.671752244701
3152 -593.5939846470984
3153 -593.6715726768746
3154 -593.5938891886966
3155 -593.6704185070821
3156 -593.590960995875
3157 -593.6641125987467
3158 -593.5853723235185
3159 -593.6591574631067
3160 -593.5805012568385
3161 -593.6576650260412
3162 -593.5788481980691
3163 -593.6581321661711
3164 -593.5782196319319
3165 -593.6579401737227
3166 -593.5825476491401
3167 -593.6617968014549
3168 -593.5824116478445
3169 -593.6615217814114
3170 -593.5867880809488
3171 -593.6660755533015
3172 -593.5902306324176
3173 -593.6668693099411
3174 -593.5896177636612
3175 -593.6702802421545
3176 -593.5931284113741
3177 -593.6699982417779
3178 -593.5925455512831
3179 -593.6727560358221
3180 -593.5949629265965
3181 -593.6703265519367
3182 -593.5923247422834
3183 -593.6699256367062
3184 -593.5896363873288
3185 -593.6653849218139
3186 -593.5877352285689
3187 -593.6631656033505
3188 -593.5816516135835
3189 -593.6595274095318
3190 -593.5831443449388
3191 -593.6612924340476
3192 -593.5829220045154
3193 -593.6572903198628
3194 -593.5818421610024
3195 -593.6610629424163
3196 -593.5829518267841
3197 -593.6579239803013
3198 -593.5783000322645
3199 -593.6562736204045
3200 -593.5791088664736
3201 -593.6544302451244
3202 -593.5788565023904
3203 -593.6588246027765
3204 -593.5811684151298
3205 -593.6577127010636
3206 -593.5818655424096
3207 -593.6597869156334
3208 -593.583917316814
3209 -593.6635125283701
3210 -593.5855907541348
3211 -593.6649334967958
3212 -593.5868079405312
3213 -593.6656835753131
3214 -593.5868639622288
3215 -593.6667958663727
3216 -593.5864636659447
3217 -593.6650016466892
3218 -593.5851020756494
3219 -593.6627216580232
3220 -593.5849893257438
3221 -593.6601630791565
3222 -593.5834703773021
3223 -593.6604693701991
3224 -593.5813725153714
3225 -593.6590098023416
3226 -593.5820809009529
3227 -593.6603222714677
3228 -593.5834174778711
3229 -593.664658571035
3230 -593.5892542673314
3231 -593.6679084008098
3232 -593.5938737578542
3233 -593.6721029562208
3234 -593.5936371634853
3235 -593.6702065560784
3236 -593.5909474876338
3237 -593.6670480843219
3238 -593.5898032199771
3239 -593.6706261232673
3240 -593.5908631031115
3241 -593.6662342856883
3242 -593.5897234144215
3243 -593.6675152534114
3244 -593.5884578066318
3245 -593.666359814027
3246 -593.5909449875618
3247 -593.6685534102306
3248 -593.5906395993383
3249 -593.66662390076
3250 -593.5905373235332
3251 -593.6645319534848
3252 -593.5925067374664
3253 -593.6683279269409
3254 -593.5901279438763
3255 -593.6691855230525
3256 -593.5967450334205
3257 -593.6727929720665
3258 -593.5965479881799
3259 -593.6701439857859
3260 -593.5982974403172
3261 -593.6747107492607
3262 -593.6003285160333
3263 -593.6779170008471
3264 -593.6000222950418
3265 -593.6745499274967
3266 -593.5977273382382
3267 -593.6709611305298
3268 -593.5938430631081
3269 -593.6675859183102
3270 -593.5936885388138
3271 -593.669042790773
3272 -593.5907349844063
3273 -593.6631388268656
3274 -593.5868626349189
3275 -593.6651198025958
3276 -593.5861994223991
3277 -593.6634399960092
3278 -593.5900181747776
3279 -593.6676017405449
3280 -593.5939588064438
3281 -593.672414345656
3282 -593.5950198587757
3283 -593.6728198604872
3284 -593.5970131914127
3285 -593.6716665837724
3286 -593.5962824378195
3287 -593.6766119294673
3288 -593.5944163303859
3289 -593.6690145614367
3290 -593.5914386187575
3291 -593.6681272303271
3292 -593.5907477820989
3293 -593.6704034538606
3294 -593.591696601634
3295 -593.6699274501602
3296 -593.5901389928724
3297 -593.6649813471093
3298 -593.5881068175912
3299 -593.6653932954808
3300 -593.5872028108339
3301 -593.6665233694995
3302 -593.5885723589511
3303 -593.6696655350094
3304 -593.590875223829
3305 -593.6713325827626
3306 -593.5936136466086
3307 -593.6747587166163
3308 -593.5952841872856
3309 -593.6734292456031
3310 -593.5912989259804
3311 -593.6669018087526
3312 -593.5868013528432
3313 -593.6632447031556
3314 -593.5813512015857
3315 -593.6574417807057
3316 -593.5821657112913
3317 -593.6576297570433
3318 -593.5793776334034
3319 -593.657115368168
3320 -593.5760156164365
3321 -593.6533200582662
3322 -593.57815606698
3323 -593.6576150586643
3324 -593.5755327605234
3325 -593.6526632371524
3326 -593.5752008918994
3327 -593.6521802893064
3328 -593.5747924047498
3329 -593.6524420299095
3330 -593.5782149998701
3331 -593.6541249970735
3332 -593.5764594761991
3333 -593.6551808877097
3334 -593.5775719127809
3335 -593.6568015824112
3336 -593.5791110427444
3337 -593.6587544779309
3338 -593.5810123837316
3339 -593.6593234120629
3340 -593.5816840684125
3341 -593.6583616047814
3342 -593.5819581146928
3343 -593.6612701812659
3344 -593.5809934246595
3345 -593.656610838638
3346 -593.5787882910067
3347 -593.6594504781732
3348 -593.5787703179589
3349 -593.6562198955709
3350 -593.5784344738028
3351 -593.6576875341993
3352 -593.5806068404345
3353 -593.6544633466826
3354 -593.5805327959067
3355 -593.6584184558988
3356 -593.5821251403289
3357 -593.6612800695951
3358 -593.5874785462133
3359 -593.6649487157357
3360 -593.5910035907006
3361 -593.667222798847
3362 -593.5925225483434
3363 -593.6688846161885
3364 -593.5901111761436
3365 -593.6662240133286
3366 -593.5888768207273
3367 -593.6657247429895
3368 -593.5872794435812
3369 -593.6621110373779
3370 -593.5857355178497
3371 -593.6648133801706
3372 -593.5838206445892
3373 -593.6579127140641
3374 -593.5795961194984
3375 -593.6519211733968
3376 -593.5721109277021
3377 -593.6464145684404
3378 -593.5657829573533
3379 -593.642331216685
3380 -593.5660733038756
3381 -593.6447523747643
3382 -593.5714953621688
3383 -593.651273526684
3384 -593.5742183318832
3385 -593.6528271094812
3386 -593.5788240222749
3387 -593.6556002543749
3388 -593.5816687006719
3389 -593.6600481281664
3390 -593.5847857582261
3391 -593.6638807148672
3392 -593.5875258754359
3393 -593.6652516842059
3394 -593.5949703722583
3395 -593.6756383654384
3396 -593.5983767937302
3397 -593.6779146725178
3398 -593.5993615795156
3399 -593.6772762691201
3400 -593.5939444529271
3401 -593.672022526677
3402 -593.589099181403
3403 -593.6649768429925
3404 -593.5812803184
3405 -593.6584639712928
3406 -593.5787556160127
3407 -593.6559308740052
3408 -593.5749405641775
3409 -593.6536260423845
3410 -593.5754521828335
3411 -593.6526968087277
3412 -593.5727578456222
3413 -593.6515923093203
3414 -593.5711732023542
3415 -593.6503006737579
3416 -593.5711610504779
3417 -593.6454283021976
3418 -593.5683021743735
3419 -593.6469360467059
3420 -593.5712966216096
3421 -593.6451368541733
3422 -593.5688711891362
3423 -593.647124001179
3424 -593.5712304110103
3425 -593.6485783506705
3426 -593.5727335680017
3427 -593.6479728586895
3428 -593.5718400870564
3429 -593.6467593636467
3430 -593.5713928264425
3431 -593.6512801311156
3432 -593.572845641996
3433 -593.6509117301784
3434 -593.5722377700537
3435 -593.6486216284541
3436 -593.5713591909033
3437 -593.6484093818797
3438 -593.5742904846174
3439 -593.6534192515787
3440 -593.5744004812461
3441 -593.650030229414
3442 -593.5749669107302
3443 -593.6542185942731
3444 -593.5775550677224
3445 -593.6541315012041
3446 -593.5767688384177
3447 -593.6540442584123
3448 -593.5736725391964
3449 -593.6494040362066
3450 -593.5706330247338
3451 -593.6495871863759
3452 -593.5720454573486
3453 -593.6477022442466
3454 -593.5688620649979
3455 -593.6437293919348
3456 -593.563485168538
3457 -593.6397671073643
3458 -593.5623011599482
3459 -593.6407928759483
3460 -593.5637234544135
3461 -593.6437057356873
3462 -593.5647213388522
3463 -593.6426183847839
3464 -593.5648892081033
3465 -593.6398825091363
3466 -593.5654619227163
3467 -593.6452878514585
3468 -593.5704702838865
3469 -593.6496206694899
3470 -593.5770062419398
3471 -593.6578768670805
3472 -593.5841808655094
3473 -593.6638116107462
3474 -593.5871961237199
3475 -593.6661728661163
3476 -593.58864266061
3477 -593.6641187603575
3478 -593.5878501141906
3479 -593.666439434253
3480 -593.587275647614
3481 -593.663034327823
3482 -593.5830900421087
3483 -593.658154897159
3484 -593.580787530767
3485 -593.6563663238076
3486 -593.5836388552714
3487 -593.6615122639172
3488 -593.5798353588738
3489 -593.6542106984699
3490 -593.578147667854
3491 -593.6574680127211
3492 -593.579470674536
3493 -593.6614244599706
3494 -593.5855598208228
3495 -593.666851719566
3496 -593.5869509629788
3497 -593.6646236923245
3498 -593.5890765818774
3499 -593.6658863331656
3500 -593.5902480772039
3501 -593.6675189327502
3502 -593.5942767317179
3503 -593.6733183026965
3504 -593.5935166072857
3505 -593.6708121006102
3506 -593.5941299110832
3507 -593.6699160919406
3508 -593.5927883909936
3509 -593.6679072356417
3510 -593.5893114543911
3511 -593.6680965698181
3512 -593.5921676981161
3513 -593.6646041122194
3514 -593.5849419587539
3515 -593.6617563161237
3516 -593.5856205606607
3517 -593.6632399088003
3518 -593.5844191731453
3519 -593.6603998518455
3520 -593.5846809334365
3521 -593.6636456036048
3522 -593.587960489471
3523 -593.6688289727531
3524 -593.5939490925342
3525 -593.6748825446102
3526 -593.5983751011159
3527 -593.6774930161483
3528 -593.6016184358643
3529 -593.6776394821903
3530 -593.6015341623045
3531 -593.6797444295669
3532 -593.6010724397011
3533 -593.6741722967116
3534 -593.5946754002223
3535 -593.6711313600347
3536 -593.5936883336373
3537 -593.6706093674891
3538 -593.589794385386
3539 -593.6676464493295
3540 -593.5903650678458
3541 -593.6684930816215
3542 -593.5869427362082
3543 -593.66463569044
3544 -593.5860506712136
3545 -593.6610326181624
3546 -593.5823285311685
3547 -593.6602428530838
3548 -593.5816873110671
3549 -593.6586481063474
3550 -593.5830065191221
3551 -593.6594429310358
3552 -593.5782188168049
3553 -593.6554597959737
3554 -593.5775216970634
3555 -593.6528227752869
3556 -593.5750460849999
3557 -593.6528562081024
3558 -593.5750250144411
3559 -593.6545559390162
3560 -593.5774343770202
3561 -593.6553956700272
3562 -593.5786992617344
3563 -593.6616251146628
3564 -593.585834434336
3565 -593.6651385917447
3566 -593.5864900821859
3567 -593.6645211158851
3568 -593.5874344685626
3569 -593.6685049491321
3570 -593.5914937139172
3571 -593.6692150726595
3572 -593.5928480347657
3573 -593.6712637225202
3574 -593.5921957081929
3575 -593.6713627937
3576 -593.5940440893684
3577 -593.6698445267849
3578 -593.5887654349033
3579 -593.6681719452353
3580 -593.5877517594497
3581 -593.6630884220463
3582 -593.5848618881063
3583 -593.6626234032104
3584 -593.5819084328856
3585 -593.6583785214492
3586 -593.585060181395
3587 -593.6596166460087
3588 -593.5799165450331
3589 -593.6596777352988
3590 -593.5817612108186
3591 -593.6578777765783
3592 -593.5798213251225
3593 -593.6545931268266
3594 -593.577995811995
3595 -593.6537150842915
3596 -593.5809596969902
3597 -593.6567100016925
3598 -593.5782071230879
3599 -593.6544817095647
3600 -593.578270742735
3601 -593.6547820411436
3602 -593.5793584937761
3603 -593.6568350653973
3604 -593.579062585476
3605 -593.6550225441654
3606 -593.5803263948816
3607 -593.6566336052019
3608 -593.578604595273
3609 -593.656519760048
3610 -593.581276429852
3611 -593.660152216126
3612 -593.5856531259589
3613 -593.6657932356183
3614 -593.5911024587851
3615 -593.6717376184796
3616 -593.596357227344
3617 -593.6761832829964
3618 -593.6008033030245
3619 -593.6786101867158
3620 -593.600612801232
3621 -593.6787576398307
3622 -593.6006607718812
3623 -593.6836800276976
3624 -593.6051391555143
3625 -593.6818612401951
3626 -593.6044884515529
3627 -593.6803361319484
3628 -593.6028639784146
3629 -593.6790709658165
3630 -593.5997513968566
3631 -593.6751214157489
3632 -593.5944887833231
3633 -593.6707758280785
3634 -593.5941902547164
3635 -593.67279486153
3636 -593.5919093426821
3637 -593.6685150883068
3638 -593.5917815805192
3639 -593.6668957604097
3640 -593.5887163911906
3641 -593.666735153978
3642 -593.5894046566551
3643 -593.6677198041172
3644 -593.5940412127044
3645 -593.671344602438
3646 -593.5948057822576
3647 -593.6774246527983
3648 -593.5987088691171
3649 -593.6761435754056
3650 -593.5982719747893
3651 -593.6761981872138
3652 -593.598739243556
3653 -593.6765771778902
3654 -593.6015859151985
3655 -593.6789808577174
3656 -593.603149907613
3657 -593.6787203833143
3658 -593.6000864804364
3659 -593.6808657621364
3660 -593.6025794823869
3661 -593.6774685933028
3662 -593.5985661233362
3663 -593.6722934387986
3664 -593.5927496099736
3665 -593.6680892874698
3666 -593.5914960783447
3667 -593.6659925244397
3668 -593.5864734003285
3669 -593.663699282321
3670 -593.5851906759251
3671 -593.6654739302937
3672 -593.5863526559124
3673 -593.6657173841372
3674 -593.5930644065706
3675 -593.6707737389808
3676 -593.5934249091715
3677 -593.6745992336954
3678 -593.599740815947
3679 -593.6760351156033
3680 -593.5957094403228
3681 -593.6696091318786
3682 -593.5940260128607
3683 -593.672721352079
3684 -593.5982031458454
3685 -593.674704908599
3686 -593.5962416532941
3687 -593.6695367603278
3688 -593.5910804439184
3689 -593.6669176191757
3690 -593.5879779549794
3691 -593.6609979187135
3692 -593.5840539307371
3693 -593.6633392344296
3694 -593.5850122929784
3695 -593.6590967247381
3696 -593.5802172769697
3697 -593.6572595663795
3698 -593.5835109520079
3699 -593.6577172178455
3700 -593.579129176535
3701 -593.6550206355187
3702 -593.5804197655353
3703 -593.6604922598432
3704 -593.5805307996914
3705 -593.6563942140273
3706 -593.5810065040225
3707 -593.6559964711344
3708 -593.5763623148152
3709 -593.6538621488282
3710 -593.5766802555838
3711 -593.6523853680554
3712 -593.5742399474381
3713 -593.6537549084129
3714 -593.5796436143258
3715 -593.6566494954911
3716 -593.5816587710749
3717 -593.6582851382352
3718 -593.5817235748581
3719 -593.661595150463
3720 -593.5832048642261
3721 -593.660169713266
3722 -593.5847749342587
3723 -593.6621736633909
3724 -593.5848609409038
3725 -593.6634324847138
3726 -593.5835479068306
3727 -593.6597239274806
3728 -593.5834923123092
3729 -593.6612212542447
3730 -593.5864625949732
3731 -593.6615144448219
3732 -593.5849968376357
3733 -593.6593335690635
3734 -593.5830762644943
3735 -593.6567010608096
3736 -593.5792029416067
3737 -593.6559245102012
3738 -593.5803288608562
3739 -593.6551910338145
3740 -593.5759736946379
3741 -593.6547090746532
3742 -593.579455745357
3743 -593.6588075450924
3744 -593.5760528308607
3745 -593.6542657590539
3746 -593.5761465430407
3747 -593.6512765116196
3748 -593.5747839954254
3749 -593.6514125885941
3750 -593.575489749325
3751 -593.6542748179835
3752 -593.5801493768444
3753 -593.6596437761435
3754 -593.5846831356245
3755 -593.6667520283363
3756 -593.5953845060084
3757 -593.674717996744
3758 -593.5993120634656
3759 -593.6783906840261
3760 -593.6011745029758
3761 -593.6757703597186
3762 -593.5968706297998
3763 -593.6726336679118
3764 -593.5970282505286
3765 -593.6748318845956
3766 -593.5946439317419
3767 -593.6727066519858
3768 -593.5923090490727
3769 -593.6699792778569
3770 -593.5912831087591
3771 -593.6673550184527
3772 -593.5894442587658
3773 -593.6674620540931
3774 -593.5917622948638
3775 -593.6690217295678
3776 -593.5870002944682
3777 -593.6641735950581
3778 -593.5884102892057
3779 -593.6659289310051
3780 -593.5873524030497
3781 -593.6659112609926
3782 -593.5888994186305
3783 -593.6671587336092
3784 -593.5899189901296
3785 -593.667941128933
3786 -593.592869043221
3787 -593.6737793296417
3788 -593.598412794043
3789 -593.6781142489688
3790 -593.5984130784441
3791 -593.6779102023689
3792 -593.5996587935999
3793 -593.677206327874
3794 -593.5998248806326
3795 -593.67459489678
3796 -593.593750923765
3797 -593.6701967806497
3798 -593.5895198873343
3799 -593.6660160006813
3800 -593.5831259840882
3801 -593.6600821061284
3802 -593.586822168878
3803 -593.6653311428372
3804 -593.5824719937428
3805 -593.6627740412713
3806 -593.583394720162
3807 -593.6567971679719
3808 -593.5779338361759
3809 -593.6536567865334
3810 -593.5788240849279
3811 -593.654152539796
3812 -593.5777981552384
3813 -593.6545251669055
3814 -593.5781044947464
3815 -593.6576866605066
3816 -593.5798162097421
3817 -593.6559820388526
3818 -593.5786439956177
3819 -593.6549284652485
3820 -593.580378994502
3821 -593.6571613335642
3822 -593.5848862863486
3823 -593.6597899964174
3824 -593.5839690762307
3825 -593.6589219901168
3826 -593.5820282413534
3827 -593.6598774473168
3828 -593.5850879251352
3829 -593.6629969829901
3830 -593.5878413254204
3831 -593.6657304562007
3832 -593.5892187855284
3833 -593.6681971731732
3834 -593.5937698919572
3835 -593.6719231110272
3836 -593.5960519987383
3837 -593.6731353272718
3838 -593.5967618915182
3839 -593.6732378888398
3840 -593.5938319391878
3841 -593.6664380788295
3842 -593.5921611182412
3843 -593.6649058277217
3844 -593.5893973779323
3845 -593.6634913559318
3846 -593.5861077082217
3847 -593.6607426588906
3848 -593.5800346162081
3849 -593.6561882963155
3850 -593.5792417164885
3851 -593.6555791824203
3852 -593.5773158825343
3853 -593.6537816476349
3854 -593.5794843490374
3855 -593.6534167691825
3856 -593.5797303190465
3857 -593.6557648469004
3858 -593.5814208581215
3859 -593.6594800803509
3860 -593.5831651596222
3861 -593.6635723143493
3862 -593.587999138197
3863 -593.6674587500868
3864 -593.5897411433416
3865 -593.6683650391604
3866 -593.5938332038472
3867 -593.6716576018058
3868 -593.5960038625774
3869 -593.6732290249838
3870 -593.5979480981019
3871 -593.672753888447
3872 -593.5949821660095
3873 -593.6722790069302
3874 -593.5959684244654
3875 -593.6713858159058
3876 -593.5904675495638
3877 -593.6666288241745
3878 -593.5891402346587
3879 -593.6668829184587
3880 -593.5876902237268
3881 -593.6674753302798
3882 -593.5886177879618
3883 -593.6662689276567
3884 -593.587053204627
3885 -593.6677994170993
3886 -593.5937309332904
3887 -593.6716987837117
3888 -593.589455117632
3889 -593.6675648484446
3890 -593.5910083884426
3891 -593.6704325829098
3892 -593.5919286630474
3893 -593.6711140787042
3894 -593.5939265055869
3895 -593.6709418753312
3896 -593.5920306874509
3897 -593.6726232906057
3898 -593.5929461814618
3899 -593.6760619065408
3900 -593.5973414564155
3901 -593.6742442886332
3902 -593.5937716047076
3903 -593.6693406134951
3904 -593.5908724639611
3905 -593.6676310292301
3906 -593.5895708902864
3907 -593.668894247319
3908 -593.5905976823085
3909 -593.6694423666935
3910 -593.589784857979
3911 -593.6699839310405
3912 -593.592393089838
3913 -593.6709645611063
3914 -593.5953402708759
3915 -593.67584636411
3916 -593.5993239647676
3917 -593.6773794676812
3918 -593.6013360845984
3919 -593.679799694342
3920 -593.6012366918886
3921 -593.6786025934661
3922 -593.5993486213739
3923 -593.6759140515419
3924 -593.596567790623
3925 -593.6709390455343
3926 -593.5907782409661
3927 -593.6665074452354
3928 -593.5853994409985
3929 -593.6642416316049
3930 -593.5887109268424
3931 -593.6668089864691
3932 -593.5910510725176
3933 -593.6705397372143
3934 -593.5960156496726
3935 -593.6744456457793
3936 -593.597093734273
3937 -593.6696176376903
3938 -593.593675990737
3939 -593.6673832940869
3940 -593.5927044885113
3941 -593.668286323693
3942 -593.5934946403914
3943 -593.6707669234291
3944 -593.5935153201847
3945 -593.6713803162212
3946 -593.5966079428913
3947 -593.67550883859
3948 -593.6000044752453
3949 -593.6754642918054
3950 -593.5992625416351
3951 -593.6733931514341
3952 -593.5952735004942
3953 -593.670054983908
3954 -593.5928674968643
3955 -593.6711392933486
3956 -593.5929438635025
3957 -593.6719105383902
3958 -593.589767550785
3959 -593.6677781206287
3960 -593.5906039994281
3961 -593.6663119592553
3962 -593.5874201580147
3963 -593.6645645108142
3964 -593.5857480335227
3965 -593.6615076181828
3966 -593.5822632010542
3967 -593.6586278572672
3968 -593.5803217653798
3969 -593.6584230520413
3970 -593.5830207361325
3971 -593.6623965961779
3972 -593.5884735736865
3973 -593.6668058922942
3974 -593.585728576965
3975 -593.6641151183693
3976 -593.5855647990246
3977 -593.6650212683986
3978 -593.590423004579
3979 -593.6686565978088
3980 -593.5901435245056
3981 -593.6690810006498
3982 -593.5944565120731
3983 -593.6744857018315
3984 -593.5962521699804
3985 -593.6713986342892
3986 -593.593200889942
3987 -593.667517559225
3988 -593.5909730843148
3989 -593.670166373863
3990 -593.5917215249202
3991 -593.6678318325563
3992 -593.5876199169353
3993 -593.6622761760229
3994 -593.5842691434781
3995 -593.661757461947
3996 -593.5815246598356
3997 -593.6567703737638
3998 -593.5803923304317
3999 -593.6566040942405
4000 -593.5796667536443
4001 -593.6545163663882
4002 -593.578351579602
4003 -593.6571296757012
4004 -593.5790488844686
4005 -593.6569515404764
4006 -593.5804710941487
4007 -593.6586228074335
4008 -593.5863835311931
4009 -593.6631519496136
4010 -593.5874528083663
4011 -593.660254970942
4012 -593.5863603589628
4013 -593.6645057316186
4014 -593.5864426906603
4015 -593.6642544663582
4016 -593.5866703713905
4017 -593.6612106333317
4018 -593.5849448712025
4019 -593.6629887781073
4020 -593.5866521259951
4021 -593.6642973519015
4022 -593.5838985798993
4023 -593.6585487407657
4024 -593.5795995424164
4025 -593.6563992140517
4026 -593.5789575188555
4027 -593.6552128718004
4028 -593.5768882069177
4029 -593.6529352151641
4030 -593.5728913400305
4031 -593.6502114153601
4032 -593.5743565351198
4033 -593.6542010909988
4034 -593.5777658081927
4035 -593.6515915465102
4036 -593.5817577486748
4037 -593.6606945723308
4038 -593.5873760595885
4039 -593.6660055054083
4040 -593.5873694800835
4041 -593.664777656978
4042 -593.5886610146304
4043 -593.6676810559086
4044 -593.5896868629435
4045 -593.6691023131134
4046 -593.5900627776297
4047 -593.6674231205716
4048 -593.5892800117123
4049 -593.6666850776909
4050 -593.5865599902302
4051 -593.6638822194163
4052 -593.5810523624973
4053 -593.6590081482718
4054 -593.5777491648706
4055 -593.6575501355978
4056 -593.5771479574813
4057 -593.6543982154292
4058 -593.5750381103168
4059 -593.6532591142779
4060 -593.5749214368589
4061 -593.6569439291007
4062 -593.5833788722744
4063 -593.6619737369736
4064 -593.5850663914106
4065 -593.6628683098871
4066 -593.5904496897438
4067 -593.671166675301
4068 -593.5912615603312
4069 -593.6748557824615
4070 -593.597651125295
4071 -593.6782915513834
4072 -593.6000852573538
4073 -593.6743765390726
4074 -593.5996625073338
4075 -593.6757992488623
4076 -593.5964562552912
4077 -593.6729115359326
4078 -593.5929644144611
4079 -593.6716637855529
4080 -593.5920809681845
4081 -593.6650201082357
4082 -593.5848656423689
4083 -593.6619978492517
4084 -593.5856451198748
4085 -593.663903294306
4086 -593.584709166047
4087 -593.6611741532416
4088 -593.5839968339624
4089 -593.6608431957592
4090 -593.5859444481268
4091 -593.6671216702422
4092 -593.5922439206755
4093 -593.6702439503881
4094 -593.596620134713
4095 -593.6711637585352
4096 -593.5963011488652
4097 -593.6727320612914
4098 -593.5986311857962
4099 -593.6781731617581
4100 -593.6036829811237
4101 -593.6810579994137
4102 -593.6084160049372
4103 -593.6854629462302
4104 -593.6026444625164
4105 -593.6758611607639
4106 -593.596282163829
4107 -593.6707901393709
4108 -593.5924030435316
4109 -593.6672731438061
4110 -593.58914784994
4111 -593.6669584353357
4112 -593.589814357885
4113 -593.6650808705964
4114 -593.5873143212015
4115 -593.6681524960837
4116 -593.5901300871118
4117 -593.6695632721245
4118 -593.5899458878338
4119 -593.6682187635738
4120 -593.5910873842026
4121 -593.6667371868496
4122 -593.5937556463117
4123 -593.6758228591067
4124 -593.5999200756588
4125 -593.6770975201619
4126 -593.6006429305529
4127 -593.679895914382
4128 -593.6016300728485
4129 -593.6775394618519
4130 -593.5976821513161
4131 -593.6741378078467
4132 -593.5954187761071
4133 -593.6697136891958
4134 -593.5925839718849
4135 -593.6679889917107
4136 -593.5896309731429
4137 -593.6646856236699
4138 -593.5837085684431
4139 -593.6610470408199
4140 -593.5835587705369
4141 -593.6600318350939
4142 -593.5839013859387
4143 -593.6591738758981
4144 -593.5798107827148
4145 -593.6559758154397
4146 -593.5796794490668
4147 -593.6603946814056
4148 -593.581640671894
4149 -593.6590947253925
4150 -593.583262982562
4151 -593.6661699125073
4152 -593.5878980359355
4153 -593.6666439029266
4154 -593.5895375061691
4155 -593.6687506177514
4156 -593.5890307513514
4157 -593.6651782237566
4158 -593.587733123082
4159 -593.6640935737585
4160 -593.587365445345
4161 -593.6632134056173
4162 -593.5870033696416
4163 -593.6631560894431
4164 -593.5875810402355
4165 -593.6641237729116
4166 -593.5891597759085
4167 -593.6633806855028
4168 -593.5813484162368
4169 -593.654700762753
4170 -593.5769233754417
4171 -593.6560236703991
4172 -593.576487664404
4173 -593.65487787722
4174 -593.575345216555
4175 -593.6505608003309
4176 -593.5729941130687
4177 -593.6494015189899
4178 -593.5739529626513
4179 -593.6522284790498
4180 -593.5759273646393
4181 -593.6557063771983
4182 -593.5823603812393
4183 -593.6610316747239
4184 -593.5831794104128
4185 -593.6596167355599
4186 -593.5858267721062
4187 -593.6652093729648
4188 -593.5881064273051
4189 -593.6662286945876
4190 -593.5906169459828
4191 -593.6655876125889
4192 -593.5911521510113
4193 -593.6663895104398
4194 -593.5871609592966
4195 -593.6635628296365
4196 -593.58747604982
4197 -593.6624382606249
4198 -593.5868263747875
4199 -593.6658920251634
4200 -593.586738945951
4201 -593.6654474395917
4202 -593.5899528687407
4203 -593.669253339306
4204 -593.5917911289677
4205 -593.6700593106374
4206 -593.5956588177208
4207 -593.6737862542765
4208 -593.593941055469
4209 -593.6720772978248
4210 -593.5952159089574
4211 -593.6748760134519
4212 -593.5982077728953
4213 -593.6764459645798
4214 -593.5995420828024
4215 -593.6758386102865
4216 -593.596230710951
4217 -593.6735162645322
4218 -593.5961743075403
4219 -593.6744261975241
4220 -593.5956508131884
4221 -593.6717710268338
4222 -593.5958926315596
4223 -593.6753036079378
4224 -593.5973500832042
4225 -593.673239248766
4226 -593.5986482590434
4227 -593.6772488405898
4228 -593.6029247021185
4229 -593.679118918088
4230 -593.6041181022485
4231 -593.6815065231143
4232 -593.6031414324333
4233 -593.6756714145401
4234 -593.5968036393286
4235 -593.6745133781207
4236 -593.5987595258187
4237 -593.6753955683247
4238 -593.5972107729261
4239 -593.6734232115631
4240 -593.593712787685
4241 -593.667079908054
4242 -593.5893664357206
4243 -593.6645939650998
4244 -593.5882861242629
4245 -593.6620538244559
4246 -593.5856928793889
4247 -593.6661562549971
4248 -593.5919176420934
4249 -593.6685445875376
4250 -593.5932284623231
4251 -593.6700459904846
4252 -593.5998059727693
4253 -593.6739807716108
4254 -593.6006300791871
4255 -593.6783654418147
4256 -593.5998798295544
4257 -593.6739026795681
4258 -593.5957708187618
4259 -593.6729700741372
4260 -593.5945867104799
4261 -593.6721655110975
4262 -593.594636069119
4263 -593.6685433592347
4264 -593.5899316756922
4265 -593.6645417447901
4266 -593.5845914485202
4267 -593.6606971493567
4268 -593.5808525142207
4269 -593.6527196986077
4270 -593.5770350756227
4271 -593.6522986797813
4272 -593.5745758132689
4273 -593.6492352578439
4274 -593.5779046910569
4275 -593.6573643028229
4276 -593.5848285284184
4277 -593.6640517079144
4278 -593.5911539959184
4279 -593.6705087562098
4280 -593.5887524117356
4281 -593.6671359145885
4282 -593.592468172236
4283 -593.669081598763
4284 -593.5902147018971
4285 -593.6672895721871
4286 -593.5893630894301
4287 -593.6637546449341
4288 -593.582706544399
4289 -593.6565818461113
4290 -593.5790400157131
4291 -593.6537460558305
4292 -593.5747619530218
4293 -593.6520641231396
4294 -593.572663985503
4295 -593.6530889859989
4296 -593.5737577100049
4297 -593.6477979129709
4298 -593.5716123000352
4299 -593.6529700132505
4300 -593.5760109463023
4301 -593.6549636720617
4302 -593.5776304630706
4303 -593.6569932417706
4304 -593.5806817065142
4305 -593.6583009698552
4306 -593.5811587526838
4307 -593.6622396922933
4308 -593.5858841897469
4309 -593.663466256424
4310 -593.5842389410142
4311 -593.6631946157905
4312 -593.5863334114146
4313 -593.6640405491987
4314 -593.5881985685751
4315 -593.6697016679482
4316 -593.5935666300726
4317 -593.6709237486683
4318 -593.5908703116054
4319 -593.6690597304231
4320 -593.5924522334293
4321 -593.6676310336227
4322 -593.5892322861484
4323 -593.6656727894253
4324 -593.5909308055723
4325 -593.6696898445592
4326 -593.5939189592702
4327 -593.6746476483223
4328 -593.5934111574973
4329 -593.6708509872378
4330 -593.5963098248699
4331 -593.673563425452
4332 -593.5923759418716
4333 -593.6695089713828
4334 -593.5917241506266
4335 -593.6653542968746
4336 -593.5867620948869
4337 -593.6638891295507
4338 -593.5864653111212
4339 -593.6627968106217
4340 -593.5863165417256
4341 -593.6593130224205
4342 -593.5838364120139
4343 -593.6634573680925
4344 -593.5836378700982
4345 -593.6589155710203
4346 -593.582157852869
4347 -593.6629995882286
4348 -593.5911410946785
4349 -593.6691100495966
4350 -593.5940265622261
4351 -593.6695890212104
4352 -593.5941235602719
4353 -593.6728742535404
4354 -593.5976747513591
4355 -593.6753703788754
4356 -593.6003259537198
4357 -593.676846238047
4358 -593.596824655011
4359 -593.6722039931899
4360 -593.595507360859
4361 -593.6719926424214
4362 -593.5935386635265
4363 -593.6707561573651
4364 -593.5950429053825
4365 -593.6716401387608
4366 -593.5945046715789
4367 -593.67015733756
4368 -593.58811341715
4369 -593.6656156717688
4370 -593.588010739377
4371 -593.6645738062376
4372 -593.5870813970698
4373 -593.6639172207828
4374 -593.5882049346291
4375 -593.6690578226252
4376 -593.5892615576182
4377 -593.6653935808342
4378 -593.5851916426603
4379 -593.6619387542215
4380 -593.5846754398418
4381 -593.658701002582
4382 -593.5804884986276
4383 -593.6555808337945
4384 -593.5802876030992
4385 -593.6592948959651
4386 -593.5820143927133
4387 -593.6613082696384
4388 -593.5837581822256
4389 -593.6616710535301
4390 -593.587023197627
4391 -593.6681824544461
4392 -593.5881628832922
4393 -593.663284322721
4394 -593.589171759329
4395 -593.6665534774935
4396 -593.5902568444535
4397 -593.6677763248647
4398 -593.5895251659812
4399 -593.6684583292468
4400 -593.5888068363856
4401 -593.6657711464576
4402 -593.5875952568217
4403 -593.6651259228311
4404 -593.5844228144211
4405 -593.6615325890727
4406 -593.5836611051899
4407 -593.6562553365202
4408 -593.5760771494224
4409 -593.6533051317218
4410 -593.5756010180223
4411 -593.6543514613411
4412 -593.575350063408
4413 -593.6515590123811
4414 -593.5720089023555
4415 -593.6497613202062
4416 -593.5723307119679
4417 -593.6463376044799
4418 -593.5683542309678
4419 -593.6476770223979
4420 -593.5715003043024
4421 -593.651365546675
4422 -593.5759877381827
4423 -593.6548774409991
4424 -593.5781653642492
4425 -593.6555614030653
4426 -593.5783730505373
4427 -593.6588324256479
4428 -593.5819554859922
4429 -593.6609046868298
4430 -593.5846707183148
4431 -593.6600899886269
4432 -593.583095226883
4433 -593.6602419519983
4434 -593.5830821561123
4435 -593.6611016213506
4436 -593.5855649920579
4437 -593.6629916665099
4438 -593.585502470229
4439 -593.6641103254846
4440 -593.5831077767658
4441 -593.6566909186531
4442 -593.5801983293985
4443 -593.6562177284475
4444 -593.5783307752564
4445 -593.6544463906672
4446 -593.5782820906852
4447 -593.6553327496566
4448 -593.575927512023
4449 -593.6539653969588
4450 -593.5795767735033
4451 -593.6577474389011
4452 -593.5811105811073
4453 -593.6618219648217
4454 -593.5832277628303
4455 -593.6620770922665
4456 -593.5851926493991
4457 -593.6657365418714
4458 -593.5885389078545
4459 -593.6678292184218
4460 -593.5902052447032
4461 -593.6690449069229
4462 -593.5927678220226
4463 -593.6717693539172
4464 -593.5915242515924
4465 -593.6697462636365
4466 -593.5939300836726
4467 -593.6707474671591
4468 -593.5934856795379
4469 -593.6704681450547
4470 -593.5891772477934
4471 -593.6666217536631
4472 -593.5868439718276
4473 -593.6623621427376
4474 -593.5856075528417
4475 -593.6634006016814
4476 -593.5836046556425
4477 -593.6600593851817
4478 -593.5812969866138
4479 -593.6559216946598
4480 -593.5787173609554
4481 -593.6607498050562
4482 -593.585609099947
4483 -593.6678913794177
4484 -593.5928965351172
4485 -593.6755646338867
4486 -593.596693381608
4487 -593.6798040767097
4488 -593.6004709813128
4489 -593.6739740374105
4490 -593.5922917109145
4491 -593.6694565309608
4492 -593.5931004174571
4493 -593.6690849290943
4494 -593.5923153279274
4495 -593.6700995414499
4496 -593.589208786268
4497 -593.6661379121226
4498 -593.5893702205013
4499 -593.667686280056
4500 -593.5865403259835
4501 -593.6638243472501
4502 -593.58846441911
4503 -593.6643754539361
4504 -593.5824031645798
4505 -593.6582565041513
4506 -593.5860581618325
4507 -593.6629402401184
4508 -593.5842332464631
4509 -593.6606574817019
4510 -593.5822381823461
4511 -593.6628220152717
4512 -593.5877336087399
4513 -593.6665428859826
4514 -593.5891703084536
4515 -593.6645541729121
4516 -593.5876949338722
4517 -593.6657888779584
4518 -593.5891853460511
4519 -593.6644025456275
4520 -593.5856660053793
4521 -593.6599243594325
4522 -593.5832191816
4523 -593.6614919714544
4524 -593.5835598504202
4525 -593.6566613495614
4526 -593.5795913750628
4527 -593.6543989194009
4528 -593.575318964257
4529 -593.6520496687268
4530 -593.5770352799475
4531 -593.6523294844983
4532 -593.5775851712154
4533 -593.6556904849474
4534 -593.5801409086135
4535 -593.6585764727686
4536 -593.5833862292895
4537 -593.6616937786645
4538 -593.5846899138252
4539 -593.6628965757362
4540 -593.5869749779451
4541 -593.6628479628635
4542 -593.5872914677543
4543 -593.6656427994761
4544 -593.5862142534741
4545 -593.6609312202484
4546 -593.5815170941419
4547 -593.6585330966572
4548 -593.578945108625
4549 -593.6563375532777
4550 -593.5769927293967
4551 -593.6563186646736
4552 -593.5770486166559
4553 -593.6517402379299
4554 -593.5753973763033
4555 -593.6513495966963
4556 -593.5744619533467
4557 -593.6510355991543
4558 -593.5747970369353
4559 -593.6519416664509
4560 -593.5726338385394
4561 -593.6497580671374
4562 -593.5731548305968
4563 -593.6503651442548
4564 -593.5729396020773
4565 -593.6532011450273
4566 -593.5797370741801
4567 -593.6593035300174
4568 -593.5821684806743
4569 -593.6574042390631
4570 -593.5839102244852
4571 -593.6625259943487
4572 -593.5860858363956
4573 -593.6619147247625
4574 -593.5857520441396
4575 -593.6609913226949
4576 -593.5806783016806
4577 -593.6602889575519
4578 -593.5807065839342
4579 -593.6596258899464
4580 -593.581777429352
4581 -593.6572487444615
4582 -593.5783407226963
4583 -593.6567380981706
4584 -593.5778692321069
4585 -593.6519661553754
4586 -593.576821667681
4587 -593.6540781621316
4588 -593.5791844769874
4589 -593.657355954341
4590 -593.5808247189747
4591 -593.6576294321575
4592 -593.5821626940354
4593 -593.662542852913
4594 -593.5888045777888
4595 -593.6684863555416
4596 -593.5912465837288
4597 -593.6689007489557
4598 -593.5932699734043
4599 -593.6682780431258
4600 -593.591912077059
4601 -593.6698546366869
4602 -593.5949862619693
4603 -593.6710718835584
4604 -593.5930625581789
4605 -593.6684321400411
4606 -593.5952039948371
4607 -593.673341897242
4608 -593.5931120137362
4609 -593.6681521501937
4610 -593.5911999578304
4611 -593.6688754292907
4612 -593.5957731506338
4613 -593.6724395663714
4614 -593.5942307677182
4615 -593.6741161267749
4616 -593.5975032686721
4617 -593.6736934186903
4618 -593.5974149892444
4619 -593.6766987472132
4620 -593.5978180862869
4621 -593.6750790365052
4622 -593.5973302974506
4623 -593.6741125654406
4624 -593.5941802771293
4625 -593.6694365253073
4626 -593.5937134072358
4627 -593.6741847456691
4628 -593.5934042608823
4629 -593.6707170479467
4630 -593.5937939193631
4631 -593.6729399801442
4632 -593.5896897881219
4633 -593.6633483886782
4634 -593.5835935460462
4635 -593.660625645363
4636 -593.5817768873364
4637 -593.6591155466211
4638 -593.5794136673608
4639 -593.6611728356382
4640 -593.5840198076393
4641 -593.6600976862917
4642 -593.5783672041209
4643 -593.6581714891715
4644 -593.5824301959625
4645 -593.6612586892219
4646 -593.5829694753666
4647 -593.6610996740538
4648 -593.5864582127912
4649 -593.6649880637865
4650 -593.5882723494555
4651 -593.667253481698
4652 -593.5933771700558
4653 -593.6695531619727
4654 -593.5857765543875
4655 -593.6655548805518
4656 -593.5880628464398
4657 -593.6663492825684
4658 -593.5865056430366
4659 -593.6617871388663
4660 -593.588617715833
4661 -593.6662704982978
4662 -593.5892550529403
4663 -593.6648137751376
4664 -593.5880765293009
4665 -593.6646125720057
4666 -593.5866791741117
4667 -593.6641688168689
4668 -593.5882579669011
4669 -593.6658384458076
4670 -593.5871805563753
4671 -593.6622899513434
4672 -593.5912039696223
4673 -593.6636932555895
4674 -593.5867677578374
4675 -593.6610380983998
4676 -593.5853457569521
4677 -593.6635295161595
4678 -593.5839252466643
4679 -593.6601244685558
4680 -593.5830235100724
4681 -593.65694269338
4682 -593.5774516871552
4683 -593.6504088915683
4684 -593.5733682467563
4685 -593.6461285008982
4686 -593.5721528643431
4687 -593.6448761231037
4688 -593.56980105254
4689 -593.6437315477733
4690 -593.5724959096384
4691 -593.650515741209
4692 -593.5753608057562
4693 -593.654323711027
4694 -593.5787888455847
4695 -593.6574158750755
4696 -593.5815207850858
4697 -593.6581815343982
4698 -593.5831352828599
4699 -593.6665217453545
4700 -593.5897026267399
4701 -593.6678391684563
4702 -593.5917773388336
4703 -593.6721719050657
4704 -593.5935922685709
4705 -593.6691607927677
4706 -593.5902105483461
4707 -593.6652697145146
4708 -593.58583746089
4709 -593.6636948954849
4710 -593.5846318130441
4711 -593.662347044631
4712 -593.5851262420664
4713 -593.66004234255
4714 -593.5806712906428
4715 -593.6599544069368
4716 -593.5844083940212
4717 -593.6622536362042
4718 -593.582550825693
4719 -593.6578137281651
4720 -593.5814582287447
4721 -593.6579464707419
4722 -593.5833593015745
4723 -593.6637713966436
4724 -593.5854666725565
4725 -593.6661272225494
4726 -593.5889079416652
4727 -593.6699984426647
4728 -593.5915357799307
4729 -593.6701965268637
4730 -593.592958013695
4731 -593.6712501589096
4732 -593.5977543288132
4733 -593.6745553123202
4734 -593.5959367243444
4735 -593.6723899901081
4736 -593.5961102460943
4737 -593.6716541934046
4738 -593.5939912172747
4739 -593.674579631149
4740 -593.5991660856324
4741 -593.6742548256959
4742 -593.5968367919047
4743 -593.6730931003033
4744 -593.5939175194239
4745 -593.6729655482195
4746 -593.5940736804478
4747 -593.671855742694
4748 -593.5958070831578
4749 -593.6742850499621
4750 -593.5974888612869
4751 -593.6758120514922
4752 -593.6009506953429
4753 -593.6776574303351
4754 -593.5992408049326
4755 -593.6783184845316
4756 -593.5977795990771
4757 -593.6775162276782
4758 -593.5985407257496
4759 -593.6738512754483
4760 -593.5945737923138
4761 -593.6712878046239
4762 -593.5941389421328
4763 -593.6728463883328
4764 -593.5932953022608
4765 -593.6694742937648
4766 -593.590993707968
4767 -593.667124848523
4768 -593.5941896335941
4769 -593.6708182709419
4770 -593.5919304789543
4771 -593.6670148244314
4772 -593.5923325497466
4773 -593.6707297459299
4774 -593.5921139702052
4775 -593.6710184981864
4776 -593.5952178943593
4777 -593.6705257094657
4778 -593.5906163018836
4779 -593.668502514291
4780 -593.5921528782411
4781 -593.6670787518
4782 -593.5870968494252
4783 -593.6631706253387
4784 -593.5838936089571
4785 -593.6605850082458
4786 -593.5831814641804
4787 -593.6627902337647
4788 -593.5830485031655
4789 -593.6621742468623
4790 -593.5836367759402
4791 -593.6627584632658
4792 -593.5808714281404
4793 -593.6581331786417
4794 -593.5805008890025
4795 -593.6581542269176
4796 -593.5799582591616
4797 -593.6578037965729
4798 -593.5800258860618
4799 -593.6578676655423
4800 -593.5823592555297
4801 -593.6572546360409
4802 -593.5798221029321
4803 -593.6601877434099
4804 -593.583273436397
4805 -593.6590210033903
4806 -593.5806179164291
4807 -593.6578244520252
4808 -593.5787776462706
4809 -593.6556552694112
4810 -593.5747954602375
4811 -593.6536761162924
4812 -593.573911032763
4813 -593.6494436716937
4814 -593.5714729872374
4815 -593.649351675582
4816 -593.5735764654648
4817 -593.6517029292335
4818 -593.5745711669905
4819 -593.6542153184655
4820 -593.5806478817493
4821 -593.6602366557066
4822 -593.5827348609782
4823 -593.664585708177
4824 -593.5900808579084
4825 -593.6655610541358
4826 -593.5893657522797
4827 -593.6684052912188
4828 -593.5926723047533
4829 -593.6698403825187
4830 -593.5949802334894
4831 -593.6720900331402
4832 -593.5922585311206
4833 -593.6658905403697
4834 -593.5881736476036
4835 -593.6636030816687
4836 -593.5901959529367
4837 -593.664269542303
4838 -593.5867088275493
4839 -593.6603897186965
4840 -593.5835297908091
4841 -593.6558484601368
4842 -593.5769204253986
4843 -593.6557220469807
4844 -593.5804708001929
4845 -593.6573163676228
4846 -593.5805160357422
4847 -593.6571907785184
4848 -593.581495396124
4849 -593.6565128119269
4850 -593.583136014017
4851 -593.6608382310676
4852 -593.5886308321482
4853 -593.6678444603948
4854 -593.5927945234207
4855 -593.6705275931594
4856 -593.5927393498469
4857 -593.6725030921231
4858 -593.5971622624193
4859 -593.6771531882687
4860 -593.5953423122835
4861 -593.6688079544576
4862 -593.5908816962193
4863 -593.6655477380857
4864 -593.5902815910571
4865 -593.664847786286
4866 -593.5862065817347
4867 -593.6614271845554
4868 -593.5811999163267
4869 -593.6578762006804
4870 -593.5751494455135
4871 -593.652640050936
4872 -593.5742732931731
4873 -593.6513776816786
4874 -593.576078592554
4875 -593.6525053699262
4876 -593.5772789889764
4877 -593.6561924181059
4878 -593.5807369294635
4879 -593.6614585982696
4880 -593.5861390502594
4881 -593.6680447940194
4882 -593.5907913506655
4883 -593.670310352481
4884 -593.5940970859388
4885 -593.6733016702975
4886 -593.5941508090102
4887 -593.6738309300918
4888 -593.5916565130076
4889 -593.6721308502305
4890 -593.5943405510513
4891 -593.6745649887665
4892 -593.5957206458306
4893 -593.6703254608498
4894 -593.5887308839384
4895 -593.6660747755789
4896 -593.5854777665332
4897 -593.6609322355434
4898 -593.5819236384688
4899 -593.6586362281759
4900 -593.5787577778436
4901 -593.6574229336317
4902 -593.5793007293981
4903 -593.6578719296677
4904 -593.5783474715153
4905 -593.6539742472901
4906 -593.5789343342003
4907 -593.6590872450259
4908 -593.5852571488658
4909 -593.6645520064659
4910 -593.5876685046518
4911 -593.6619714890506
4912 -593.5888867918623
4913 -593.6647513645956
4914 -593.585136020548
4915 -593.6613229709102
4916 -593.5855323436821
4917 -593.6643841897534
4918 -593.585937275161
4919 -593.6609195840892
4920 -593.5830455054261
4921 -593.6588535162057
4922 -593.5796101832873
4923 -593.6552900096445
4924 -593.5770797439541
4925 -593.6532618433912
4926 -593.5791790429503
4927 -593.6547099704676
4928 -593.5818408291561
4929 -593.6572790492779
4930 -593.5841642091045
4931 -593.6616928738723
4932 -593.5881314262409
4933 -593.6668057101721
4934 -593.587437213443
4935 -593.6631080734097
4936 -593.5891424813542
4937 -593.6659791716494
4938 -593.5906096813404
4939 -593.6635209438324
4940 -593.5922186880911
4941 -593.6641978923305
4942 -593.5860578490689
4943 -593.6605021111837
4944 -593.5844029142927
4945 -593.6589267324709
4946 -593.579522128969
4947 -593.6532568240525
4948 -593.5798599911536
4949 -593.6562038255333
4950 -593.5807635118043
4951 -593.6605602410472
4952 -593.5837951209111
4953 -593.6584152959856
4954 -593.5847653600913
4955 -593.6623528987249
4956 -593.5846598061993
4957 -593.6617594561461
4958 -593.5871502258701
4959 -593.6621405111033
4960 -593.5882940977251
4961 -593.6668917802599
4962 -593.592277275791
4963 -593.6688556287245
4964 -593.5911856960997
4965 -593.6692534418166
4966 -593.5907177594864
4967 -593.6698161483682
4968 -593.5894790676415
4969 -593.6653091781299
4970 -593.5850762164289
4971 -593.6613410049558
4972 -593.5846311987469
4973 -593.6586779523468
4974 -593.5773732914016
4975 -593.6554718350084
4976 -593.5739756536095
4977 -593.6526877327306
4978 -593.5707606030466
4979 -593.6513887059639
4980 -593.5753106829183
4981 -593.6540317025556
4982 -593.5750481917893
4983 -593.6532492225376
4984 -593.5776192427978
4985 -593.6590518215006
4986 -593.5835150290065
4987 -593.6651781771175
4988 -593.5890982854688
4989 -593.6648992491666
4990 -593.5910717318351
4991 -593.6708141244037
4992 -593.594727287373
4993 -593.6740685844379
4994 -593.5940337208962
4995 -593.6692404310922
4996 -593.5935050805348
4997 -593.6728651756514
4998 -593.5908591778463
4999 -593.6685951325055
5000 -593.5879588895144
5001 -593.6617855964779
5002 -593.5826152843923
5003 -593.6600330411035
5004 -593.5827430023362
5005 -593.659651212187
5006 -593.5801612727794
5007 -593.6571941372098
5008 -593.5801506533539
5009 -593.6611700659647
5010 -593.5846683636642
5011 -593.6615782607253
5012 -593.584917911915
5013 -593.6638152797193
5014 -593.5873722639936
5015 -593.6645593806023
5016 -593.5884819451185
5017 -593.6679457632185
5018 -593.5914896144723
5019 -593.6685387935055
5020 -593.5925045570423
5021 -593.6683265010756
5022 -593.5915307715038
5023 -593.6687672371677
5024 -593.590231002094
5025 -593.6653026511059
5026 -593.5854069261638
5027 -593.6622409070573
5028 -593.5834409340375
5029 -593.6584383840631
5030 -593.5809729499431
5031 -593.6590463863095
5032 -593.5812961849972
5033 -593.6598993373976
5034 -593.5831673883426
5035 -593.6597326906206
5036 -593.5844844356401
5037 -593.6625988645743
5038 -593.5854153396398
5039 -593.6593272569301
5040 -593.5805928340332
5041 -593.6609013882808
5042 -593.5827831679749
5043 -593.6587902613145
5044 -593.5814582690803
5045 -593.6595068857476
5046 -593.5811593609166
5047 -593.6622885820804
5048 -593.5868104829468
5049 -593.6656875058558
5050 -593.5896788234465
5051 -593.6722416647556
5052 -593.6002520321198
5053 -593.6781190829635
5054 -593.603511137781
5055 -593.6815472192454
5056 -593.6064137754529
5057 -593.6820678717002
5058 -593.6034207700088
5059 -593.6800210362267
5060 -593.5991806629182
5061 -593.6757295988956
5062 -593.5976262397443
5063 -593.6712688126112
5064 -593.5900331458697
5065 -593.6636272527962
5066 -593.5877638077895
5067 -593.6600559274966
