"mx-rfile"
"Iteration" "mx"
("Iteration" "mx")
1 -17710.1028537063
2 -16972.24948564351
3 -14719.6801402411
4 -12888.93771893963
5 -10948.38450163775
6 -9469.678565244369
7 -7225.342610188264
8 -5258.06839788174
9 -3679.668207536114
10 -2729.565842802667
11 -1976.082260659752
12 -1428.065142000498
13 -1066.318966674022
14 -858.9094329298994
15 -798.8169540860868
16 -854.3309962195952
17 -999.6335501551008
18 -1217.92362674991
19 -1467.74385713184
20 -1731.578091687713
21 -1991.854068042533
22 -2283.333122185343
23 -2493.220375760247
24 -2732.405832490588
25 -2916.611022595351
26 -3123.051648069455
27 -3265.53928749147
28 -3452.294683778272
29 -3557.143203003737
30 -3679.964294119508
31 -3723.14693196591
32 -3789.205841527836
33 -3787.112975326357
34 -3829.686717751019
35 -3807.545218696431
36 -3833.895004213645
37 -3806.841711187271
38 -3826.544112811684
39 -3801.094594380732
40 -3818.126355807901
41 -3796.06084613104
42 -3815.087443939041
43 -3797.044775563476
44 -3819.125347728885
45 -3805.660774806887
46 -3830.150821935799
47 -3820.806604511105
48 -3847.020700250876
49 -3839.378391743565
50 -3863.47202660441
51 -3860.19014461329
52 -3884.335326556554
53 -3884.160466426437
54 -3908.052437200097
55 -3906.160807756879
56 -3929.860541770235
57 -3933.643042300075
58 -3955.569639676708
59 -3958.901945350227
60 -3979.118063325873
61 -3981.800767067431
62 -4000.211731226303
63 -4001.313876704314
64 -4017.190627885332
65 -4017.112484970492
66 -4030.391803505833
67 -4028.874760758938
68 -4039.872334223696
69 -4037.121152587232
70 -4046.139229795642
71 -4042.548857285635
72 -4049.076522318006
73 -4045.330433427062
74 -4051.288515806576
75 -4047.024834369868
76 -4052.080276993982
77 -4047.748793631725
78 -4051.846785209242
79 -4047.490884348555
80 -4051.113683921486
81 -4047.057738083472
82 -4050.153295744984
83 -4045.721907749309
84 -4048.426047698579
85 -4044.480583910144
86 -4046.770459498191
87 -4042.846373614894
88 -4044.952190396987
89 -4041.08522526749
90 -4043.063051168317
91 -4039.372743503977
92 -4041.059213721178
93 -4037.90396385718
94 -4039.190293391204
95 -4036.219573879427
96 -4037.477162762701
97 -4034.417724265424
98 -4035.483286751104
99 -4032.490447733375
100 -4033.398222765608
101 -4030.400699879666
102 -4031.199786381052
103 -4028.2207035455
104 -4028.972780381663
105 -4025.944433138653
106 -4026.280977339205
107 -4023.262772443391
108 -4023.656209362513
109 -4020.678766577072
110 -4020.758868929991
111 -4017.832146143729
112 -4017.879758736221
113 -4015.073332943748
114 -4015.212130581076
115 -4012.476768761779
116 -4012.567797932234
117 -4009.372466749483
118 -4010.186405191924
119 -4006.994512614871
120 -4007.513344512946
121 -4004.48875654201
122 -4005.015631255413
123 -4002.047949989336
124 -4002.616096741593
125 -3999.662027738962
126 -4000.208763254112
127 -3997.25064614874
128 -3997.805335060364
129 -3994.760846900574
130 -3995.03723072071
131 -3992.116485963269
132 -3992.689355326899
133 -3989.623801762486
134 -3989.910478628361
135 -3987.018597250449
136 -3987.434673980694
137 -3984.630616754799
138 -3985.075203895863
139 -3982.232683661294
140 -3982.822435859693
141 -3980.153381756023
142 -3980.743752680678
143 -3978.050276164229
144 -3978.509529171674
145 -3975.808236830967
146 -3976.563494839208
147 -3974.051013608348
148 -3974.877855197684
149 -3972.602970034025
150 -3973.426585071549
151 -3971.246410362741
152 -3972.223855163422
153 -3970.229950795414
154 -3971.541180594587
155 -3969.694128382464
156 -3971.039828945841
157 -3969.227841560049
158 -3970.657825920718
159 -3969.014276693493
160 -3970.627449101617
161 -3969.042301250604
162 -3970.86725285186
163 -3969.449720869747
164 -3971.231097745783
165 -3970.015820764494
166 -3972.126065025305
167 -3971.059258769854
168 -3973.64007323035
169 -3972.60371180698
170 -3974.991496410693
171 -3974.371653281462
172 -3976.848446705076
173 -3976.298779604942
174 -3979.232479275613
175 -3978.625268243181
176 -3981.400957778577
177 -3981.443175496528
178 -3984.310989843526
179 -3984.015409037711
180 -3987.59916027223
181 -3987.616590290053
182 -3990.939311442834
183 -3991.700944523091
184 -3995.023273013343
185 -3995.407288631458
186 -3999.778899491235
187 -4000.194673170221
188 -4003.757983205785
189 -4004.449389245838
190 -4009.424113473073
191 -4010.021145965386
192 -4014.178434497829
193 -4015.211044182588
194 -4020.477732272688
195 -4021.582714687752
196 -4026.182097267972
197 -4027.471916908065
198 -4033.33195596296
199 -4034.554264461619
200 -4039.243406191753
201 -4040.875145804062
202 -4045.771770023461
203 -4048.465270141884
204 -4053.423068604235
205 -4054.909767740353
206 -4059.894625267994
207 -4062.793346195599
208 -4067.896906277472
209 -4069.746395573049
210 -4074.827512760566
211 -4077.631854787693
212 -4083.045277548966
213 -4085.007048990424
214 -4091.471182946542
215 -4093.590973478787
216 -4099.05259194217
217 -4102.506184026844
218 -4107.863713885228
219 -4109.919319915346
220 -4116.827462222805
221 -4119.061865336274
222 -4124.481029035603
223 -4128.303377163311
224 -4133.992400936505
225 -4136.16380412019
226 -4143.276533610846
227 -4145.571599671948
228 -4152.675918632955
229 -4155.077652767354
230 -4160.959998226704
231 -4164.701886421644
232 -4170.866969012306
233 -4175.046764275266
234 -4181.006577009998
235 -4185.206716445141
236 -4191.431631224636
237 -4195.498253114059
238 -4201.586016361443
239 -4205.783802854909
240 -4211.990052313367
241 -4216.204651975248
242 -4222.577764042033
243 -4226.918616158102
244 -4233.316476642591
245 -4237.568422812914
246 -4243.977266943093
247 -4248.412376203395
248 -4254.833726217854
249 -4259.322816551789
250 -4266.007394740507
251 -4270.533596620519
252 -4277.092910038079
253 -4281.285171439267
254 -4287.939636288462
255 -4292.425127060436
256 -4298.742196785837
257 -4303.235333735787
258 -4309.628831835869
259 -4313.898753027801
260 -4320.550849388549
261 -4325.067304236337
262 -4331.494925494273
263 -4336.005156121593
264 -4342.452175943603
265 -4346.806358035155
266 -4353.255198297726
267 -4357.47127331356
268 -4363.744657775451
269 -4368.118252745301
270 -4374.672844364366
271 -4378.921021440614
272 -4385.192053679686
273 -4389.206869123535
274 -4395.426470352086
275 -4399.575294814284
276 -4405.711970583776
277 -4409.922302930372
278 -4416.521732828969
279 -4420.733353571809
280 -4427.000514528736
281 -4429.683163678098
282 -4437.495856424473
283 -4440.250049921772
284 -4448.345583441198
285 -4451.212008936942
286 -4459.302953684556
287 -4462.197252478691
288 -4468.456743014472
289 -4472.938748765477
290 -4479.281120869933
291 -4482.263597906098
292 -4490.599287021088
293 -4493.748175832443
294 -4500.196990260496
295 -4504.764710100399
296 -4511.363060281387
297 -4514.514945321175
298 -4522.562378641286
299 -4525.515607424564
300 -4531.843125247919
301 -4536.3850725823
302 -4542.561966224727
303 -4545.608851750398
304 -4553.525052592912
305 -4556.304505548501
306 -4562.388415045763
307 -4566.7230089721
308 -4572.947236653585
309 -4575.544473239923
310 -4581.694665191353
311 -4585.693740966813
312 -4591.710379020643
313 -4594.391896370227
314 -4600.435520540812
315 -4604.55576709048
316 -4610.409671657144
317 -4612.921078903607
318 -4618.706895608152
319 -4622.366771764115
320 -4627.790867232282
321 -4629.82984476399
322 -4635.216492519038
323 -4637.366335633951
324 -4642.65549464845
325 -4645.859008553418
326 -4651.016933882443
327 -4652.7584992544
328 -4657.526086752017
329 -4658.886536828343
330 -4664.630947025528
331 -4665.73174893518
332 -4670.124154821358
333 -4671.087359172931
334 -4676.061962095583
335 -4676.718257108285
336 -4680.597789049747
337 -4681.479131156104
338 -4686.437724754232
339 -4687.093902094122
340 -4690.887589628817
341 -4691.618646701922
342 -4695.471635490628
343 -4696.750572060416
344 -4700.610999307872
345 -4701.263524680649
346 -4705.181963328425
347 -4706.14842457352
348 -4710.297177074694
349 -4711.207284434282
350 -4716.304480811692
351 -4717.173397053593
352 -4721.399543346002
353 -4722.291585983329
354 -4726.576133509119
355 -4727.558787290923
356 -4731.908003924245
357 -4733.183759452626
358 -4737.510385663569
359 -4739.566030774598
360 -4743.884529544224
361 -4745.15461662107
362 -4749.535296520076
363 -4750.722340606651
364 -4755.053898792731
365 -4756.360625469004
366 -4761.573607174045
367 -4762.774124563846
368 -4766.642543498336
369 -4767.848572002415
370 -4771.965804879315
371 -4773.251666657263
372 -4778.579588595816
373 -4779.525153299948
374 -4783.909493584582
375 -4784.885203029818
376 -4788.600460305893
377 -4790.017161406049
378 -4793.918527215523
379 -4794.211752056407
380 -4797.301270231176
381 -4798.194144416313
382 -4801.005983559729
383 -4800.896505495513
384 -4803.537716526735
385 -4803.377990530221
386 -4805.49645799086
387 -4804.771372275545
388 -4806.462219098137
389 -4804.727031815408
390 -4805.843736503844
391 -4803.861345336739
392 -4804.984109109664
393 -4802.897644133534
394 -4803.134855428352
395 -4800.593977222794
396 -4800.463817756279
397 -4797.249319576542
398 -4797.180042882289
399 -4794.117635088539
400 -4793.668451915768
401 -4790.626955406125
402 -4790.337352055893
403 -4787.224105014824
404 -4786.204861302259
405 -4783.139136586911
406 -4782.912254649858
407 -4779.49110254382
408 -4778.646769937389
409 -4775.200965849526
410 -4774.42490543591
411 -4770.843356166647
412 -4770.1616750279
413 -4766.556331761192
414 -4765.999448161321
415 -4762.473582319154
416 -4761.896914239089
417 -4758.664749363592
418 -4758.037718681016
419 -4754.770659916878
420 -4754.335898799502
421 -4751.63317419878
422 -4751.45220602858
423 -4748.472425697495
424 -4748.282147823556
425 -4745.171052898519
426 -4744.927713748121
427 -4741.563131721196
428 -4741.451198719604
429 -4738.605180211156
430 -4738.641869974764
431 -4735.852471073493
432 -4735.922978104534
433 -4733.281534308753
434 -4733.456274429793
435 -4731.033641696469
436 -4731.226180116286
437 -4728.965300230147
438 -4729.584444787233
439 -4727.160286868012
440 -4727.487596458215
441 -4725.155444845475
442 -4725.636746811486
443 -4723.158087591477
444 -4723.550816797338
445 -4721.007419894981
446 -4721.2017527844
447 -4718.674570423402
448 -4718.799121646345
449 -4716.070275023383
450 -4716.017389030786
451 -4713.074011564484
452 -4712.853732433647
453 -4709.700980614602
454 -4709.20442476818
455 -4705.670701625913
456 -4704.741615296633
457 -4700.732666412539
458 -4699.436356214161
459 -4695.155249149628
460 -4693.363059188916
461 -4688.792732784795
462 -4686.901758007201
463 -4681.947408107764
464 -4679.726497926409
465 -4674.484284950687
466 -4671.932867367596
467 -4666.462706179998
468 -4663.473571127075
469 -4657.646926685772
470 -4654.664998867211
471 -4648.461251802621
472 -4645.053281075424
473 -4638.626424748536
474 -4635.224552164374
475 -4628.898230906205
476 -4625.613458159737
477 -4619.278896148979
478 -4616.083498356716
479 -4609.73896406411
480 -4606.486033638374
481 -4600.183391259799
482 -4596.552133251364
483 -4589.776261715977
484 -4585.917258975608
485 -4579.308145698045
486 -4575.409461680204
487 -4568.479269560214
488 -4564.580358078013
489 -4557.538665525732
490 -4553.17601679843
491 -4546.144944177971
492 -4542.001723799847
493 -4534.884128926074
494 -4530.444262054626
495 -4522.982668361245
496 -4518.299375763516
497 -4510.940236319449
498 -4506.186163121234
499 -4498.639811884067
500 -4493.956229983683
501 -4486.121504576227
502 -4481.201912288498
503 -4473.215219994794
504 -4467.89770938857
505 -4459.985621498817
506 -4454.604785625879
507 -4446.454117016052
508 -4440.531215001588
509 -4431.472704601671
510 -4425.701273022029
511 -4416.705378163901
512 -4410.273215828691
513 -4400.811108862121
514 -4393.825609343088
515 -4384.163947391475
516 -4376.793476675884
517 -4366.802418970272
518 -4359.093327628219
519 -4348.68812292151
520 -4338.149553916061
521 -4328.012170846529
522 -4320.759514666643
523 -4310.695662900382
524 -4303.036291948139
525 -4292.650037188758
526 -4282.528894585683
527 -4272.715565046938
528 -4265.547411010905
529 -4255.898578943958
530 -4249.130883964297
531 -4236.972255225989
532 -4230.869524452348
533 -4221.592775186442
534 -4215.076328155252
535 -4206.085363057386
536 -4197.129591686164
537 -4188.141611034804
538 -4181.816777170794
539 -4172.969259412133
540 -4164.569518307937
541 -4155.964027779504
542 -4150.182084879629
543 -4141.650111133178
544 -4136.084821386392
545 -4125.815200675095
546 -4120.865450009261
547 -4113.282835346568
548 -4108.676275676078
549 -4101.38679686215
550 -4097.07939346742
551 -4089.815149312855
552 -4085.67994561348
553 -4078.353022624511
554 -4074.214116022745
555 -4067.190025362739
556 -4063.110543355471
557 -4056.093191935058
558 -4052.036656404492
559 -4044.96620776923
560 -4040.981165773481
561 -4034.271270232873
562 -4030.249420495776
563 -4023.522710821332
564 -4019.710131889671
565 -4012.651998814729
566 -4008.848085546095
567 -4002.095293116558
568 -3998.079957461454
569 -3991.073988445391
570 -3986.895007770966
571 -3979.883163586763
572 -3975.756471078643
573 -3970.403545746806
574 -3965.609332239893
575 -3957.844601236833
576 -3952.964152664762
577 -3945.182049999141
578 -3940.130850462587
579 -3932.055762312968
580 -3928.862609396892
581 -3920.580488788846
582 -3914.843171634172
583 -3906.241766805223
584 -3900.424507303692
585 -3891.802263466048
586 -3885.900852268608
587 -3876.975596686435
588 -3871.250790621174
589 -3862.614554361562
590 -3856.523382294241
591 -3847.547198755462
592 -3841.707576769913
593 -3832.627059210642
594 -3826.481192085415
595 -3817.38359524721
596 -3811.061790183279
597 -3801.866947082516
598 -3795.455692898444
599 -3786.220214891613
600 -3780.033680359012
601 -3771.002774401692
602 -3764.931305819958
603 -3756.019453430048
604 -3750.219219574629
605 -3741.524639674554
606 -3735.969708362178
607 -3727.425723959621
608 -3722.039243212847
609 -3713.896714775351
610 -3708.501898924036
611 -3700.439928241323
612 -3695.372997672242
613 -3687.509914597203
614 -3682.676795962489
615 -3675.249583214605
616 -3670.735865695677
617 -3663.40166403395
618 -3659.125687127564
619 -3652.092813346178
620 -3648.220376387404
621 -3641.776816301601
622 -3638.2673032699
623 -3632.350566790988
624 -3629.384022031347
625 -3623.774602758479
626 -3621.426676562354
627 -3616.21489758287
628 -3614.017242412319
629 -3609.335574599043
630 -3607.369677398824
631 -3602.949268156867
632 -3601.36283126291
633 -3597.426896497157
634 -3596.048121449353
635 -3592.209997865913
636 -3590.978729278794
637 -3587.16689061127
638 -3586.00097065579
639 -3582.301638971621
640 -3581.019993015138
641 -3577.404828972289
642 -3576.231159215416
643 -3572.508553342042
644 -3571.484314229467
645 -3567.91502944134
646 -3566.72264421312
647 -3562.990340804189
648 -3562.059097516197
649 -3558.65594579141
650 -3557.911246414077
651 -3555.051229354712
652 -3554.84985131407
653 -3552.408392838764
654 -3552.533895715469
655 -3550.226595384159
656 -3550.722759623241
657 -3548.685492742628
658 -3549.555841781088
659 -3547.980070419727
660 -3548.968800484538
661 -3547.750958921249
662 -3549.137314392962
663 -3548.059181883411
664 -3549.85155942318
665 -3548.993626152511
666 -3550.683047115256
667 -3550.070749814557
668 -3552.268466890275
669 -3551.855791209845
670 -3553.929264226364
671 -3553.507605834033
672 -3555.824522100416
673 -3555.451984002449
674 -3557.881363612525
675 -3557.547571104319
676 -3560.04156189477
677 -3559.946157646863
678 -3562.519013645284
679 -3562.379535303676
680 -3564.752501538952
681 -3564.607690794822
682 -3566.952963950919
683 -3566.493064014376
684 -3568.810542228782
685 -3568.458711122747
686 -3570.455255736582
687 -3569.453811742685
688 -3571.022187000528
689 -3569.743424720904
690 -3570.99642957792
691 -3569.389579656603
692 -3570.420236686369
693 -3568.736420215487
694 -3569.240032904053
695 -3567.02244480319
696 -3567.058641614472
697 -3564.587997317065
698 -3564.289962690584
699 -3561.354524303708
700 -3560.717613102923
701 -3557.421918140773
702 -3556.475450494579
703 -3552.865118339496
704 -3551.778328790784
705 -3548.008260151237
706 -3546.216120149595
707 -3542.126663628039
708 -3540.447822362844
709 -3536.330024922628
710 -3534.72939192184
711 -3530.621804083647
712 -3528.879208307527
713 -3524.591413120145
714 -3522.787667639492
715 -3518.580345655921
716 -3516.985624208417
717 -3513.314272887415
718 -3511.877630753984
719 -3508.288877932172
720 -3507.245931983693
721 -3504.158592937626
722 -3503.475630195257
723 -3500.517023798623
724 -3500.257217887706
725 -3497.530124736853
726 -3497.433557557022
727 -3494.854740320208
728 -3494.958862566892
729 -3492.773537938792
730 -3493.116027171037
731 -3491.035866250855
732 -3491.646117098361
733 -3489.795042782315
734 -3490.341671195474
735 -3488.814943830195
736 -3489.405157600801
737 -3487.776628751591
738 -3488.32682767806
739 -3486.760962458603
740 -3487.147162240532
741 -3485.468060069121
742 -3485.826938164734
743 -3484.11320473411
744 -3484.221859190872
745 -3482.390460330894
746 -3482.553591335078
747 -3480.960972963512
748 -3480.74774666347
749 -3478.643449482251
750 -3478.407553049881
751 -3476.209379495478
752 -3476.137266957579
753 -3473.895813248982
754 -3473.091328130815
755 -3470.838442275537
756 -3470.662078676879
757 -3468.487597059379
758 -3467.58121523424
759 -3465.746505396098
760 -3464.80614443298
761 -3462.306413262641
762 -3461.970352102352
763 -3459.591720550259
764 -3458.560429952313
765 -3457.033617701938
766 -3456.301064444548
767 -3454.102993159722
768 -3453.671183188635
769 -3451.539474592649
770 -3450.843603602771
771 -3449.30105095788
772 -3448.760386019799
773 -3446.919561760965
774 -3446.330409908444
775 -3445.085007262728
776 -3444.877540450778
777 -3443.492464012868
778 -3443.510751001055
779 -3442.464005794435
780 -3442.729211709799
781 -3441.650201378767
782 -3442.13181170681
783 -3441.590354086055
784 -3442.358052591632
785 -3441.898895085779
786 -3442.986455538906
787 -3442.878396574412
788 -3443.986281751898
789 -3444.224572541446
790 -3445.873613484449
791 -3445.936409203959
792 -3447.887669084536
793 -3448.759533616465
794 -3451.008361043635
795 -3451.575739773418
796 -3454.11664770359
797 -3455.648722294392
798 -3458.733515245705
799 -3460.509677840361
800 -3463.755017171286
801 -3465.562854944108
802 -3468.888036735237
803 -3471.091591006865
804 -3474.725575035754
805 -3476.784298655517
806 -3480.339241532775
807 -3482.495707116757
808 -3486.095202504106
809 -3487.995059030848
810 -3491.548767431468
811 -3493.314762292641
812 -3496.991572046332
813 -3498.631069339412
814 -3502.35423231702
815 -3503.951557635157
816 -3507.482126623654
817 -3509.18219462775
818 -3512.795406989729
819 -3514.806646776573
820 -3518.432243044235
821 -3520.44153828171
822 -3524.087902191725
823 -3525.905711361859
824 -3529.549566895137
825 -3531.464621460273
826 -3534.94168992567
827 -3536.628940953015
828 -3540.138546800502
829 -3540.858096656903
830 -3544.225184064203
831 -3545.732187151074
832 -3548.068853967699
833 -3549.592551931454
834 -3552.58605707754
835 -3553.080615555377
836 -3555.990145692713
837 -3556.515743846511
838 -3559.063016351927
839 -3559.333484982551
840 -3561.737058461841
841 -3561.952747910488
842 -3564.160966546283
843 -3564.185781520355
844 -3566.186217416636
845 -3566.130490736388
846 -3567.960876119692
847 -3567.773628913461
848 -3569.483153547566
849 -3569.20268106121
850 -3570.651690177713
851 -3570.261828278674
852 -3571.488553239788
853 -3571.077385457612
854 -3572.570317055962
855 -3572.154563889997
856 -3573.590978297183
857 -3573.120831841502
858 -3574.461437392381
859 -3573.887332091897
860 -3575.287706211665
861 -3575.023768767658
862 -3576.296459874567
863 -3575.982360710889
864 -3577.256794482942
865 -3577.13060670247
866 -3578.661534250471
867 -3578.190400846875
868 -3579.542081570397
869 -3579.355379512108
870 -3580.888833289937
871 -3580.693340032346
872 -3582.328172640564
873 -3582.226807869103
874 -3583.864740113298
875 -3583.801149714445
876 -3585.498647690982
877 -3585.438862414186
878 -3587.337509024039
879 -3587.501797719407
880 -3589.564464740576
881 -3589.830281170053
882 -3592.047373001859
883 -3592.43062197622
884 -3594.602584846151
885 -3594.980968138917
886 -3597.246777071528
887 -3597.593834761888
888 -3599.86103633918
889 -3600.292920356907
890 -3602.503285850467
891 -3603.035406585802
892 -3605.270082051489
893 -3605.555906625183
894 -3607.832647082992
895 -3607.881712958094
896 -3609.935449409406
897 -3610.30251045311
898 -3612.396105154696
899 -3612.718905301358
900 -3614.776642120632
901 -3615.158023800152
902 -3617.213766781666
903 -3617.535038257035
904 -3619.561226704119
905 -3619.89932342425
906 -3621.773001807475
907 -3622.038567729443
908 -3624.028896909568
909 -3624.216923815418
910 -3626.178317686268
911 -3626.418925021911
912 -3628.378257775253
913 -3628.636229660943
914 -3630.653111114681
915 -3631.014736755621
916 -3632.953210121505
917 -3633.219747694773
918 -3635.173311426089
919 -3635.306190301592
920 -3637.249990852043
921 -3637.261633506796
922 -3639.05406741245
923 -3639.120131763415
924 -3640.799934432197
925 -3640.631634958872
926 -3642.086830158468
927 -3641.570841354919
928 -3642.710038150457
929 -3641.760663487312
930 -3642.531087223147
931 -3641.466762348556
932 -3641.961189675749
933 -3640.509337001522
934 -3641.016042180675
935 -3639.355049855852
936 -3639.362188463911
937 -3637.881481334309
938 -3638.250817166568
939 -3636.756027520651
940 -3637.009565898608
941 -3635.764469371812
942 -3636.122664221135
943 -3634.616836264559
944 -3634.971676597689
945 -3633.818477378937
946 -3634.107269686694
947 -3632.783924392221
948 -3632.865715518828
949 -3631.364499023147
950 -3631.54507607429
951 -3629.727754783203
952 -3629.676384090259
953 -3627.967895615468
954 -3628.168565676476
955 -3626.760658040867
956 -3627.183827777437
957 -3625.91429569737
958 -3626.424365120462
959 -3625.16607325639
960 -3625.799005436
961 -3624.586347792279
962 -3625.1171768495
963 -3623.886449633964
964 -3624.487879439981
965 -3623.008236825158
966 -3623.419116930632
967 -3621.772645355661
968 -3621.906731628565
969 -3619.976823433421
970 -3619.851048982568
971 -3617.695550169598
972 -3617.503344734102
973 -3615.289377731375
974 -3614.985323025809
975 -3612.59062435768
976 -3612.100345591275
977 -3609.714216186729
978 -3609.126161518815
979 -3606.833654991795
980 -3606.345016857955
981 -3604.082176722675
982 -3603.714068732029
983 -3601.699570902394
984 -3601.565287219714
985 -3599.491318776183
986 -3599.472151751354
987 -3597.718507369268
988 -3598.09482772408
989 -3596.690940051146
990 -3597.421469756867
991 -3596.395875205463
992 -3597.481114009738
993 -3597.215228845162
994 -3599.013563430703
995 -3599.160991729422
996 -3601.416036518634
997 -3602.332501125758
998 -3605.551713270085
999 -3606.963163367058
1000 -3610.553771871606
1001 -3612.586542845393
1002 -3615.646179200602
1003 -3618.182442470718
1004 -3622.776592121524
1005 -3625.71463732601
1006 -3630.57859024786
1007 -3633.723744936802
1008 -3638.702410386528
1009 -3641.994691331804
1010 -3647.026344536147
1011 -3650.033277146408
1012 -3654.824621546646
1013 -3657.777207078146
1014 -3662.45765894797
1015 -3665.063023018385
1016 -3669.631070346641
1017 -3671.963810051496
1018 -3676.294788313029
1019 -3678.335372424646
1020 -3682.19550493612
1021 -3683.954820501033
1022 -3687.138355239369
1023 -3688.290623155137
1024 -3690.835113115842
1025 -3691.24616793479
1026 -3693.466317911922
1027 -3693.339313534698
1028 -3694.885596249226
1029 -3694.297780591646
1030 -3695.272857969807
1031 -3694.206470943717
1032 -3694.835817318649
1033 -3693.186812484441
1034 -3693.396571768528
1035 -3691.576923236693
1036 -3691.454340119024
1037 -3689.248014465344
1038 -3688.79208066222
1039 -3686.320894175042
1040 -3685.912604102266
1041 -3683.377037189683
1042 -3682.685702354931
1043 -3680.242397107098
1044 -3679.506568019632
1045 -3677.072889881003
1046 -3676.46134269191
1047 -3673.888435737251
1048 -3673.368401821184
1049 -3671.059791633554
1050 -3670.595023477482
1051 -3668.246143943144
1052 -3667.827869125154
1053 -3665.686206808323
1054 -3665.348855731254
1055 -3663.236298644866
1056 -3662.957480414492
1057 -3660.941190801574
1058 -3660.955315063804
1059 -3658.796191468993
1060 -3658.902600704055
1061 -3656.975238608026
1062 -3657.264258453542
1063 -3655.579970926392
1064 -3656.130244864121
1065 -3654.804499798327
1066 -3655.439671704366
1067 -3654.533164332699
1068 -3655.656401051369
1069 -3655.002670784364
1070 -3656.447385178993
1071 -3656.121712886399
1072 -3657.790086772682
1073 -3657.592831260759
1074 -3659.48908170897
1075 -3659.482399943068
1076 -3661.451425776303
1077 -3661.478517328334
1078 -3663.394144632613
1079 -3663.35515402248
1080 -3665.231000895562
1081 -3665.198561908302
1082 -3667.183179547308
1083 -3667.252653369389
1084 -3669.37199576023
1085 -3669.456366540732
1086 -3671.55570669151
1087 -3671.81516014108
1088 -3673.976536849661
1089 -3674.171681354035
1090 -3676.398312770729
1091 -3676.561893144981
1092 -3678.338120643199
1093 -3678.51598165429
1094 -3680.463620940411
1095 -3680.443818589658
1096 -3682.314172377968
1097 -3682.147914612538
1098 -3683.944029948848
1099 -3683.52384594281
1100 -3685.087552368926
1101 -3684.647181680944
1102 -3685.95296418367
1103 -3685.486903924414
1104 -3686.6576969447
1105 -3685.837741010449
1106 -3686.825629728773
1107 -3685.858524423795
1108 -3686.633961040954
1109 -3685.359560333077
1110 -3685.924449113412
1111 -3684.695430357837
1112 -3685.121593666369
1113 -3683.463457804822
1114 -3683.8570886483
1115 -3682.261844316397
1116 -3682.539310643566
1117 -3681.075950323262
1118 -3681.556449011116
1119 -3680.14686034034
1120 -3680.952773102255
1121 -3679.728520147937
1122 -3680.425766020903
1123 -3679.362892938436
1124 -3680.353399934429
1125 -3679.614508500179
1126 -3680.835560009293
1127 -3680.186020077701
1128 -3681.580924974282
1129 -3681.211794832191
1130 -3683.088012066404
1131 -3683.216366961474
1132 -3685.455671019759
1133 -3686.035714237019
1134 -3688.835139771213
1135 -3689.913570666596
1136 -3692.852957826748
1137 -3694.316997365278
1138 -3697.771509279015
1139 -3699.509537554507
1140 -3703.292916717752
1141 -3705.254064260558
1142 -3709.562797559589
1143 -3711.96918528723
1144 -3716.581456137556
1145 -3719.410471049556
1146 -3724.405632349714
1147 -3727.533234159096
1148 -3732.759835297777
1149 -3736.047450446226
1150 -3741.218336068119
1151 -3744.402095434946
1152 -3749.571952973467
1153 -3752.654475768883
1154 -3757.676600597587
1155 -3760.695240542587
1156 -3765.475970954965
1157 -3768.24700914502
1158 -3772.972004879977
1159 -3775.493567270471
1160 -3779.797035441997
1161 -3781.973424510814
1162 -3785.921202768227
1163 -3787.547619518164
1164 -3791.012208753763
1165 -3792.281803268426
1166 -3795.199827748105
1167 -3796.053487418048
1168 -3798.585438319117
1169 -3798.879717021013
1170 -3800.836026532494
1171 -3800.582227668043
1172 -3802.078047740655
1173 -3801.467370543967
1174 -3802.526686317747
1175 -3801.413745154999
1176 -3802.019300927434
1177 -3800.570874860024
1178 -3800.810234183359
1179 -3798.975808091191
1180 -3799.116367002569
1181 -3797.078944870978
1182 -3796.827800189977
1183 -3794.483378200029
1184 -3793.798381022594
1185 -3791.406967636619
1186 -3790.847582460878
1187 -3788.405960762235
1188 -3787.815319690056
1189 -3785.365773416086
1190 -3784.870464086743
1191 -3782.496511142064
1192 -3782.095208659072
1193 -3779.79684971163
1194 -3779.591860474427
1195 -3777.502331462867
1196 -3777.43603904683
1197 -3775.5719729828
1198 -3775.828179667667
1199 -3774.209491602371
1200 -3774.591281213694
1201 -3773.295592005505
1202 -3773.952702764295
1203 -3772.919344743688
1204 -3773.700538751134
1205 -3772.810880211071
1206 -3773.783321858187
1207 -3772.969620263854
1208 -3774.329586286553
1209 -3773.763762886654
1210 -3775.27330606436
1211 -3774.891425591559
1212 -3776.306046495969
1213 -3776.005048764423
1214 -3777.469759379675
1215 -3776.899699354112
1216 -3778.477715399682
1217 -3778.025576143811
1218 -3779.539476125866
1219 -3779.11162435915
1220 -3780.604525253222
1221 -3779.981764812618
1222 -3781.125228972314
1223 -3780.25798891585
1224 -3781.202555801046
1225 -3779.952819385808
1226 -3780.690103565836
1227 -3779.060983415613
1228 -3779.147608919358
1229 -3777.20455137557
1230 -3777.02790848651
1231 -3774.690643959988
1232 -3773.972067426416
1233 -3771.371599071465
1234 -3770.26204621746
1235 -3767.330449632145
1236 -3766.155547813588
1237 -3762.785786024376
1238 -3761.389579344831
1239 -3758.046950787239
1240 -3756.519055607009
1241 -3752.79529661761
1242 -3750.920199345473
1243 -3747.276248623294
1244 -3745.408994750213
1245 -3741.609126548369
1246 -3739.744525250147
1247 -3735.946561188378
1248 -3734.102275428483
1249 -3730.464961674591
1250 -3728.875046218009
1251 -3725.152525656563
1252 -3723.379974625148
1253 -3719.619831234105
1254 -3717.753184897525
1255 -3713.961605170401
1256 -3712.199570651062
1257 -3708.533637795583
1258 -3706.95050519545
1259 -3703.544322748673
1260 -3702.106219213808
1261 -3698.779817667672
1262 -3697.724695955595
1263 -3694.796565547912
1264 -3693.881255563046
1265 -3691.249940834682
1266 -3690.767768233893
1267 -3688.618821895521
1268 -3688.512782281043
1269 -3686.585919644138
1270 -3686.912239442684
1271 -3685.528914567054
1272 -3686.243774333209
1273 -3685.229424156387
1274 -3686.349022830361
1275 -3685.484826962961
1276 -3686.83454265555
1277 -3686.123130946841
1278 -3687.563867344576
1279 -3687.334719003438
1280 -3689.13029981991
1281 -3689.158037651123
1282 -3691.426595071486
1283 -3691.653379049115
1284 -3694.110508377568
1285 -3694.804797527127
1286 -3697.681277644772
1287 -3698.44933360385
1288 -3701.428768916348
1289 -3702.59713530834
1290 -3705.90167462281
1291 -3707.460415168925
1292 -3711.190128335935
1293 -3713.008868297506
1294 -3716.80015397929
1295 -3718.963184820921
1296 -3722.977963643694
1297 -3725.198249269849
1298 -3729.695125740474
1299 -3732.306478683633
1300 -3737.021311355556
1301 -3739.680605094029
1302 -3744.314771549958
1303 -3747.029033915448
1304 -3751.827775190108
1305 -3754.340645247057
1306 -3758.942243823741
1307 -3761.795367200185
1308 -3766.372737052242
1309 -3768.872547761137
1310 -3773.396876579351
1311 -3775.886463587462
1312 -3780.215104808636
1313 -3782.298623825928
1314 -3786.457999529493
1315 -3788.680091009907
1316 -3792.705608458749
1317 -3794.604679146142
1318 -3798.592460615099
1319 -3800.504968242029
1320 -3804.387755385118
1321 -3806.130320426636
1322 -3809.673022595307
1323 -3811.478818111547
1324 -3814.987173074784
1325 -3816.532065422622
1326 -3819.983111209955
1327 -3821.25710158778
1328 -3824.72548049886
1329 -3825.905259367038
1330 -3828.982794935931
1331 -3829.734699192235
1332 -3832.339089209117
1333 -3832.866013624975
1334 -3835.334294125055
1335 -3835.737757721639
1336 -3837.96299649382
1337 -3838.044991338562
1338 -3840.048238254596
1339 -3840.11112180995
1340 -3842.035406287835
1341 -3841.773024384658
1342 -3843.512598344901
1343 -3843.191577244702
1344 -3844.42480959175
1345 -3843.905404735638
1346 -3845.047716354265
1347 -3844.248448273842
1348 -3845.311205227185
1349 -3844.190335030647
1350 -3844.925968905085
1351 -3843.48770001607
1352 -3843.942061693632
1353 -3842.156371891378
1354 -3842.341440558404
1355 -3840.483939421447
1356 -3840.39937508112
1357 -3838.352520266936
1358 -3838.170750286517
1359 -3835.671185120199
1360 -3835.308988836957
1361 -3832.684057233882
1362 -3831.85658065089
1363 -3828.857844593101
1364 -3827.968078763572
1365 -3824.608359500988
1366 -3823.561667714274
1367 -3820.164996389359
1368 -3818.521885806624
1369 -3814.813177823546
1370 -3813.091398225263
1371 -3809.113790433857
1372 -3807.353073537741
1373 -3803.622922153407
1374 -3802.040493160925
1375 -3798.264349716122
1376 -3796.597831004419
1377 -3792.863388240303
1378 -3791.155804535485
1379 -3787.912178387775
1380 -3786.700322602238
1381 -3783.589054559033
1382 -3782.634463801352
1383 -3779.838758652075
1384 -3779.10703647499
1385 -3776.540839501751
1386 -3776.210250583268
1387 -3774.035642638485
1388 -3774.013537321678
1389 -3772.091529277573
1390 -3772.286503728514
1391 -3770.604284828678
1392 -3771.301867715702
1393 -3770.246915677837
1394 -3771.111620497464
1395 -3770.160928116975
1396 -3771.391141494656
1397 -3770.616775560329
1398 -3772.013499724961
1399 -3771.637202033845
1400 -3773.348980089885
1401 -3773.041791122622
1402 -3774.528734429259
1403 -3774.455702295773
1404 -3776.453179223097
1405 -3776.143941077292
1406 -3777.951654146116
1407 -3777.904804054167
1408 -3779.460976535805
1409 -3779.381136665675
1410 -3781.137036133683
1411 -3780.909235832505
1412 -3782.548856605938
1413 -3782.110804824221
1414 -3783.629529977735
1415 -3782.878779312868
1416 -3784.19643278614
1417 -3782.812736291574
1418 -3783.476975203362
1419 -3781.83954399483
1420 -3782.17862821062
1421 -3780.001698831976
1422 -3779.570289684559
1423 -3776.688545981092
1424 -3775.703604877562
1425 -3772.403553556816
1426 -3770.868782480818
1427 -3766.948618345335
1428 -3764.911602698985
1429 -3760.522040779462
1430 -3757.900564294695
1431 -3753.397725134025
1432 -3750.858015996775
1433 -3746.303273464755
1434 -3743.537949973433
1435 -3738.788755951762
1436 -3736.055763533335
1437 -3731.300062085281
1438 -3728.828562284378
1439 -3724.565696422291
1440 -3722.330913969946
1441 -3718.297375480569
1442 -3716.659734131533
1443 -3713.254088710111
1444 -3712.114933536642
1445 -3709.081447279523
1446 -3708.535215595917
1447 -3706.106329470728
1448 -3706.110858479798
1449 -3704.244613738151
1450 -3704.836004805408
1451 -3703.577441801628
1452 -3704.571886459859
1453 -3703.644013135971
1454 -3705.144134868575
1455 -3704.787977988513
1456 -3706.57016985895
1457 -3706.507679198724
1458 -3708.606651795965
1459 -3708.945461886744
1460 -3711.440903227332
1461 -3712.128250727251
1462 -3714.996603307219
1463 -3716.114858940968
1464 -3719.537333364467
1465 -3720.852767214361
1466 -3724.215097943948
1467 -3725.725713706481
1468 -3729.481761039431
1469 -3731.419160893332
1470 -3735.544561839265
1471 -3737.669420428827
1472 -3741.777751429812
1473 -3743.957967649402
1474 -3748.208423608478
1475 -3750.38752289691
1476 -3754.580266365354
1477 -3756.457937096706
1478 -3760.439550540436
1479 -3762.220230002469
1480 -3765.76977030743
1481 -3767.137390320442
1482 -3770.376632204858
1483 -3771.492648337197
1484 -3774.399710231935
1485 -3774.797671415669
1486 -3777.097537121447
1487 -3777.186826574381
1488 -3778.996081562126
1489 -3778.351640316857
1490 -3779.715493946381
1491 -3778.84755045374
1492 -3779.750099699946
1493 -3778.414351134757
1494 -3779.162573434188
1495 -3777.595809973044
1496 -3777.823051364117
1497 -3776.135486487567
1498 -3776.499445459523
1499 -3774.7014922584
1500 -3774.929466918429
1501 -3773.109970391381
1502 -3773.406188056552
1503 -3771.643028458249
1504 -3772.142345840607
1505 -3770.403115629795
1506 -3770.670107084553
1507 -3768.923827012728
1508 -3769.425082655458
1509 -3767.855229162256
1510 -3768.532858531741
1511 -3767.090626688379
1512 -3767.797429599742
1513 -3766.221056070553
1514 -3767.065919639827
1515 -3765.67159867647
1516 -3766.587255992325
1517 -3765.276038696884
1518 -3765.946620765313
1519 -3764.660832500875
1520 -3765.54833935732
1521 -3764.219128472175
1522 -3764.918832483019
1523 -3763.683523062418
1524 -3764.233701185212
1525 -3762.606092083355
1526 -3762.856509358146
1527 -3760.921512154746
1528 -3761.257429310659
1529 -3759.448566218249
1530 -3759.513931429014
1531 -3757.273401040552
1532 -3757.089955862486
1533 -3754.727417331578
1534 -3754.35356599731
1535 -3751.673532998576
1536 -3751.409265559104
1537 -3748.986337606147
1538 -3748.622066722866
1539 -3746.251761103172
1540 -3745.914817263339
1541 -3743.318983263978
1542 -3742.899218979226
1543 -3740.164670772569
1544 -3739.61505880341
1545 -3736.8047462114
1546 -3736.31116904359
1547 -3733.409632017898
1548 -3732.740603227359
1549 -3729.929939844903
1550 -3729.136368800523
1551 -3726.090442667919
1552 -3725.260438046454
1553 -3722.295901757478
1554 -3721.693766884073
1555 -3718.939986732018
1556 -3718.322208293479
1557 -3715.626101577306
1558 -3715.250326311913
1559 -3712.646490979612
1560 -3712.494015157145
1561 -3709.97060161525
1562 -3709.7656839162
1563 -3707.235919968856
1564 -3707.124638876657
1565 -3704.683992397397
1566 -3704.529075265211
1567 -3702.09633950095
1568 -3701.896194753711
1569 -3699.436896874085
1570 -3699.332184348338
1571 -3696.777697604934
1572 -3696.888133525485
1573 -3694.215984216005
1574 -3693.70509567644
1575 -3690.864619511185
1576 -3690.726143281134
1577 -3687.74375260671
1578 -3687.079054550006
1579 -3684.689721569879
1580 -3683.721648138301
1581 -3680.578987500932
1582 -3680.228675153208
1583 -3677.028576219955
1584 -3675.702292869214
1585 -3673.094501000995
1586 -3671.782787558196
1587 -3668.330529139886
1588 -3667.243515799188
1589 -3664.093457666935
1590 -3663.330040546134
1591 -3660.570917936652
1592 -3660.134942311734
1593 -3657.621836079577
1594 -3657.74173278028
1595 -3655.536436426019
1596 -3655.718999875963
1597 -3653.805981265276
1598 -3654.594548328659
1599 -3653.239118914971
1600 -3654.586277042634
1601 -3653.653116758805
1602 -3655.387261877434
1603 -3655.031808170546
1604 -3657.120071989436
1605 -3656.980672754618
1606 -3659.528581676903
1607 -3659.767534440631
1608 -3662.575031559041
1609 -3663.080041481308
1610 -3666.381442087766
1611 -3667.28548142221
1612 -3670.692471025739
1613 -3671.872597868368
1614 -3675.632193316705
1615 -3676.829476615504
1616 -3680.611182063496
1617 -3681.765844549403
1618 -3685.31624530771
1619 -3686.557338877029
1620 -3689.700255874187
1621 -3690.607072255772
1622 -3693.887711130807
1623 -3694.64478763918
1624 -3697.612973104252
1625 -3697.932824860816
1626 -3700.377641375423
1627 -3700.288263914791
1628 -3702.211963707226
1629 -3701.568406243497
1630 -3702.987513741231
1631 -3701.946910375925
1632 -3702.755584064738
1633 -3700.953300952344
1634 -3701.301399021754
1635 -3698.973761060524
1636 -3698.691471447495
1637 -3695.673339119448
1638 -3694.929572913538
1639 -3691.583393350683
1640 -3690.340706205369
1641 -3686.530967077068
1642 -3684.840088711849
1643 -3680.777954700789
1644 -3679.010370257794
1645 -3674.727293484292
1646 -3672.731262276609
1647 -3668.210822871455
1648 -3666.253709830353
1649 -3661.871326045523
1650 -3659.949222348375
1651 -3655.513097996984
1652 -3653.899527020408
1653 -3649.857691489467
1654 -3649.050166529415
1655 -3645.111086786484
1656 -3643.559243319942
1657 -3639.845262231262
1658 -3638.556030610647
1659 -3634.910506057895
1660 -3634.030694110685
1661 -3630.711116726652
1662 -3630.196961952926
1663 -3627.446782462265
1664 -3627.292985437881
1665 -3624.715446828091
1666 -3624.826641872751
1667 -3622.545191696839
1668 -3622.968474039842
1669 -3620.919718842752
1670 -3621.601775765553
1671 -3619.83364972229
1672 -3620.586167602994
1673 -3618.915423643698
1674 -3619.957089657302
1675 -3618.504422863564
1676 -3619.610517903786
1677 -3618.130263164719
1678 -3619.2443419065
1679 -3618.052307600903
1680 -3619.41216224778
1681 -3618.231299694294
1682 -3619.470911496516
1683 -3618.538819446805
1684 -3619.93638169728
1685 -3618.857674479231
1686 -3620.217739114952
1687 -3619.272058112583
1688 -3620.698746858197
1689 -3619.738122903016
1690 -3621.100423390527
1691 -3620.218835110403
1692 -3621.453888268539
1693 -3620.596287326276
1694 -3621.969548292588
1695 -3621.1598976849
1696 -3622.498892011778
1697 -3621.648881908362
1698 -3622.971787764105
1699 -3621.901585560039
1700 -3623.153108853175
1701 -3622.375878346271
1702 -3623.61807029023
1703 -3622.55249435931
1704 -3623.776187788362
1705 -3622.664445729352
1706 -3623.881938412022
1707 -3622.931720210285
1708 -3624.079209165692
1709 -3623.05120548192
1710 -3624.232164946719
1711 -3623.176352155648
1712 -3624.491887785755
1713 -3623.722955622045
1714 -3625.193247136625
1715 -3624.366113760045
1716 -3625.838500907594
1717 -3625.241957340541
1718 -3626.691017378096
1719 -3626.238572524467
1720 -3628.044506596471
1721 -3627.705697600964
1722 -3629.314668780297
1723 -3629.18682707574
1724 -3631.472740726465
1725 -3631.148976355879
1726 -3633.478842472003
1727 -3633.605875262579
1728 -3636.137845018151
1729 -3636.317248074245
1730 -3638.379184048517
1731 -3638.28919518072
1732 -3640.68793567058
1733 -3640.799975178117
1734 -3642.923907173671
1735 -3642.895075013496
1736 -3644.93911989771
1737 -3644.591152473329
1738 -3646.455079595263
1739 -3646.008841991799
1740 -3647.747079969869
1741 -3646.98436873516
1742 -3648.605672854059
1743 -3647.836703361285
1744 -3649.251271289871
1745 -3648.480698696559
1746 -3649.796745811981
1747 -3648.691567356624
1748 -3649.969638014721
1749 -3648.829454913822
1750 -3649.993298913349
1751 -3648.703034930847
1752 -3649.705897071894
1753 -3648.134666422532
1754 -3649.025256807889
1755 -3647.395855563416
1756 -3648.126561850707
1757 -3646.60753643771
1758 -3647.238055318893
1759 -3645.649822695789
1760 -3646.377192158208
1761 -3644.846701322027
1762 -3645.694146518145
1763 -3644.336259284923
1764 -3645.21180876584
1765 -3643.875941801427
1766 -3644.856128564087
1767 -3643.669097481928
1768 -3644.868065407033
1769 -3643.781861438469
1770 -3644.919883077687
1771 -3643.830492677582
1772 -3645.183488241149
1773 -3644.393792062989
1774 -3645.847344432171
1775 -3644.990615638085
1776 -3646.625775554162
1777 -3646.123573646098
1778 -3647.731888201096
1779 -3647.044263807145
1780 -3648.768489073891
1781 -3648.306433578112
1782 -3650.031045784334
1783 -3649.364156769421
1784 -3651.017230912827
1785 -3650.338304791497
1786 -3651.917196208153
1787 -3651.186180612997
1788 -3652.838780983931
1789 -3652.243748299883
1790 -3653.743974955278
1791 -3653.114178426335
1792 -3654.850854719176
1793 -3654.161414299697
1794 -3655.995511049145
1795 -3655.39779337919
1796 -3657.106866741503
1797 -3656.556603047924
1798 -3658.167216567026
1799 -3657.931671294907
1800 -3659.698444258743
1801 -3659.536412830085
1802 -3661.282613446971
1803 -3661.217916863235
1804 -3663.023978023511
1805 -3662.927439389149
1806 -3664.744097121029
1807 -3664.684021597194
1808 -3666.451657177927
1809 -3666.284793265093
1810 -3667.947072894676
1811 -3667.633145910161
1812 -3669.103794127498
1813 -3668.593969546835
1814 -3670.061211813529
1815 -3669.431908542891
1816 -3670.839942856268
1817 -3670.060373405781
1818 -3671.350589944956
1819 -3670.371192891203
1820 -3671.653504213385
1821 -3670.681608178788
1822 -3671.859094696651
1823 -3670.745336286694
1824 -3671.89684677501
1825 -3670.662596254706
1826 -3671.74348214572
1827 -3670.4952971016
1828 -3671.472764365829
1829 -3669.956636795797
1830 -3670.860779148546
1831 -3669.355849533663
1832 -3670.198470664152
1833 -3668.559162698692
1834 -3669.304099231097
1835 -3667.68007522514
1836 -3668.499730420279
1837 -3666.812899342711
1838 -3667.618138903597
1839 -3665.874343690649
1840 -3666.601933996937
1841 -3664.953600398026
1842 -3665.654696433877
1843 -3663.949622841485
1844 -3664.81792484705
1845 -3663.309241170839
1846 -3664.185095828013
1847 -3662.640726062669
1848 -3663.525739673008
1849 -3662.169560534024
1850 -3662.929253200576
1851 -3661.75215972286
1852 -3662.568553204764
1853 -3661.311461824176
1854 -3662.176322284546
1855 -3660.820761636665
1856 -3661.638648838605
1857 -3660.326734296333
1858 -3661.138242619614
1859 -3659.869182354777
1860 -3660.609617829356
1861 -3659.284392300388
1862 -3660.079070803001
1863 -3658.626695457942
1864 -3659.586584746778
1865 -3658.521004571723
1866 -3659.519551492318
1867 -3658.4170944287
1868 -3659.419318675012
1869 -3658.500426346118
1870 -3659.735666518836
1871 -3658.780599851727
1872 -3660.037636602405
1873 -3659.190908700376
1874 -3660.678465843113
1875 -3659.950741341111
1876 -3661.550714233324
1877 -3660.962873212501
1878 -3662.686638254079
1879 -3662.190222144322
1880 -3664.20451532419
1881 -3663.780020559258
1882 -3665.76090371499
1883 -3665.393799795961
1884 -3667.492562135786
1885 -3667.061000177134
1886 -3669.126938580057
1887 -3668.74029338158
1888 -3670.833961243929
1889 -3670.535438892767
1890 -3672.821648354131
1891 -3672.569920115191
1892 -3674.87771947164
1893 -3674.719189715341
1894 -3676.947152377421
1895 -3676.800363457977
1896 -3679.056287376196
1897 -3678.989636689173
1898 -3681.169618826489
1899 -3681.051788125666
1900 -3683.431068014187
1901 -3683.193576882345
1902 -3685.331258802047
1903 -3685.150773433721
1904 -3687.319181996887
1905 -3687.022414545886
1906 -3689.035454233162
1907 -3688.548429517049
1908 -3690.568333319166
1909 -3690.045831605014
1910 -3691.774205505141
1911 -3691.140589287069
1912 -3692.788636992696
1913 -3692.000446513322
1914 -3693.539963355228
1915 -3692.439700697603
1916 -3693.67145125586
1917 -3692.302112989421
1918 -3693.301839594189
1919 -3691.662787468545
1920 -3692.375819394864
1921 -3690.687445952012
1922 -3691.441224550089
1923 -3689.698736407613
1924 -3690.291883638317
1925 -3688.446945593033
1926 -3689.219693623164
1927 -3687.460330236515
1928 -3688.123686603845
1929 -3686.560794384707
1930 -3687.613128480572
1931 -3686.235585584652
1932 -3687.601571958608
1933 -3686.469695670397
1934 -3687.93101111342
1935 -3686.990179098439
1936 -3688.92836436488
1937 -3688.491398662415
1938 -3690.439983260357
1939 -3690.174285919729
1940 -3692.490723821607
1941 -3692.650845249253
1942 -3695.14766126729
1943 -3695.347405207629
1944 -3698.165075620323
1945 -3698.517828685841
1946 -3701.578089832832
1947 -3702.113879355567
1948 -3705.206908608439
1949 -3705.826414663968
1950 -3708.750035970197
1951 -3709.178923132243
1952 -3712.022751500935
1953 -3712.294391956714
1954 -3714.951403998101
1955 -3714.937031050182
1956 -3717.441739231615
1957 -3717.532116851425
1958 -3719.987774885611
1959 -3719.819503234283
1960 -3721.76270780254
1961 -3721.354775478195
1962 -3723.131544632186
1963 -3722.170446557462
1964 -3723.397282159781
1965 -3722.129323778583
1966 -3722.982572709478
1967 -3721.292612777685
1968 -3721.988348841759
1969 -3719.956784909691
1970 -3720.29235551135
1971 -3717.86950291061
1972 -3717.860702086432
1973 -3715.348019078044
1974 -3715.16741236869
1975 -3712.433232265035
1976 -3712.049957736112
1977 -3709.212128350604
1978 -3708.666676019604
1979 -3705.508470381804
1980 -3704.794469970407
1981 -3701.59354109968
1982 -3700.854374134808
1983 -3697.640844430337
1984 -3696.819190553402
1985 -3693.579415933874
1986 -3692.634311416531
1987 -3689.204242818222
1988 -3688.94877601769
1989 -3685.588254836229
1990 -3684.554128604179
1991 -3681.080138703112
1992 -3680.195454969414
1993 -3676.842769062728
1994 -3675.904449401924
1995 -3672.699831377635
1996 -3671.86573480936
1997 -3668.804867729702
1998 -3668.099130295974
1999 -3665.257272057147
2000 -3664.828899327693
2001 -3662.06029540689
2002 -3661.848907503027
2003 -3659.209789563849
2004 -3659.049045445247
2005 -3656.63319189813
2006 -3656.794813957276
2007 -3654.659434431987
2008 -3654.976707439123
2009 -3653.075582444274
2010 -3653.6328485554
2011 -3651.998074800677
2012 -3652.88947388869
2013 -3651.553495136229
2014 -3652.714895222357
2015 -3651.571222014697
2016 -3652.915724994862
2017 -3651.907189399475
2018 -3653.740097714747
2019 -3653.180037004317
2020 -3655.159873019704
2021 -3654.841854246701
2022 -3657.19545288093
2023 -3657.331018196009
2024 -3659.965806023629
2025 -3660.475193649676
2026 -3663.52020259797
2027 -3664.213138359275
2028 -3667.486088262307
2029 -3668.397277881914
2030 -3671.987290426975
2031 -3673.290075892217
2032 -3677.248826113029
2033 -3678.940753026308
2034 -3682.986012100698
2035 -3684.767463638573
2036 -3689.282674320587
2037 -3691.225864258002
2038 -3695.60998463815
2039 -3697.674600575016
2040 -3702.19003694352
2041 -3704.399427984079
2042 -3708.897702505005
2043 -3711.175038449879
2044 -3715.377926069019
2045 -3717.112330351155
2046 -3721.195569080061
2047 -3722.766933260369
2048 -3726.584417824733
2049 -3728.067605807548
2050 -3731.508626137277
2051 -3732.407587586825
2052 -3735.652082015474
2053 -3736.229681926712
2054 -3738.784622465384
2055 -3738.870388561849
2056 -3741.205873609472
2057 -3740.991435189814
2058 -3742.854308543183
2059 -3741.986988377587
2060 -3743.275433236377
2061 -3741.970697963161
2062 -3742.673838411326
2063 -3741.023933035975
2064 -3741.408352870877
2065 -3739.280852680949
2066 -3739.139873855145
2067 -3736.762635852726
2068 -3736.495604359747
2069 -3733.808874848132
2070 -3733.30042656439
2071 -3730.314183486699
2072 -3729.592190109869
2073 -3726.479468491666
2074 -3725.761068437841
2075 -3722.631674461273
2076 -3721.986971781774
2077 -3718.918701648318
2078 -3718.202636216639
2079 -3716.028536369468
2080 -3715.619137976294
2081 -3713.046743585165
2082 -3712.912092253478
2083 -3710.769539701959
2084 -3711.075153100187
2085 -3709.526518808803
2086 -3710.330751751289
2087 -3709.138349147841
2088 -3710.437282281826
2089 -3709.433528811584
2090 -3711.0557139257
2091 -3710.48204500313
2092 -3712.565332311062
2093 -3712.382437668334
2094 -3714.778146024002
2095 -3715.193988577957
2096 -3718.277540108059
2097 -3719.015503925402
2098 -3722.405410826331
2099 -3723.38213297874
2100 -3727.007556471864
2101 -3728.397619249274
2102 -3732.208293525542
2103 -3733.64907416755
2104 -3737.864137536695
2105 -3739.819951815959
2106 -3744.236525568235
2107 -3746.391447277465
2108 -3750.943384122214
2109 -3753.024827143909
2110 -3757.473767541152
2111 -3759.574453467555
2112 -3764.103891512018
2113 -3766.047526509847
2114 -3770.462671253313
2115 -3772.305245631296
2116 -3776.335437224295
2117 -3777.974031181651
2118 -3781.781495019552
2119 -3782.916315611928
2120 -3786.410892199121
2121 -3787.212960162434
2122 -3789.950245839861
2123 -3790.440552760469
2124 -3792.974190529046
2125 -3792.854653547695
2126 -3794.82429255682
2127 -3794.136522296502
2128 -3795.830432528955
2129 -3794.895850105992
2130 -3795.914070375221
2131 -3794.31391948868
2132 -3795.053596848066
2133 -3793.275123217165
2134 -3793.618348208485
2135 -3791.408900826561
2136 -3791.363244040765
2137 -3788.916940243441
2138 -3788.62215024164
2139 -3785.682908968596
2140 -3784.933786965583
2141 -3781.774348637148
2142 -3780.783660135915
2143 -3777.238234565446
2144 -3775.988578888026
2145 -3773.062157303714
2146 -3771.337403253582
2147 -3767.284496986214
2148 -3766.317318238865
2149 -3762.032524218331
2150 -3759.969267204243
2151 -3756.678651460774
2152 -3754.564888387455
2153 -3750.235107778576
2154 -3749.090878747279
2155 -3744.823528537134
2156 -3742.969584130167
2157 -3739.016281300343
2158 -3738.310171430053
2159 -3734.539111128163
2160 -3733.235739333018
2161 -3729.889617120696
2162 -3729.224300222427
2163 -3726.522932748641
2164 -3726.392282599278
2165 -3724.136467662432
2166 -3724.388705197249
2167 -3722.500620004556
2168 -3723.243857166831
2169 -3721.878921656563
2170 -3723.148196639982
2171 -3722.194332945097
2172 -3723.801555961748
2173 -3723.110585022353
2174 -3724.905836646834
2175 -3724.698253466257
2176 -3726.775006463576
2177 -3726.418145920659
2178 -3728.646238762168
2179 -3728.755119034445
2180 -3730.627705244126
2181 -3730.795888373727
2182 -3732.707858114298
2183 -3732.984440482439
2184 -3735.045716922329
2185 -3735.457044913138
2186 -3737.54155684039
2187 -3738.025835463723
2188 -3740.028341628584
2189 -3740.466693347153
2190 -3742.385612912151
2191 -3742.714336635944
2192 -3745.261803938593
2193 -3745.027819502793
2194 -3747.343904308814
2195 -3747.397155155621
2196 -3749.174822869307
2197 -3749.070851892339
2198 -3750.807905993123
2199 -3750.369679076063
2200 -3751.930189067879
2201 -3751.636331970438
2202 -3753.552364402352
2203 -3753.117113895223
2204 -3754.698153080762
2205 -3754.345400411683
2206 -3756.209776376966
2207 -3755.510020907317
2208 -3757.334424000909
2209 -3756.890162193532
2210 -3758.334779265308
2211 -3757.911422494273
2212 -3759.586156157648
2213 -3758.908091027613
2214 -3760.65042197933
2215 -3760.221865321701
2216 -3761.711081121948
2217 -3761.383758529031
2218 -3763.21966658097
2219 -3762.735267168575
2220 -3764.774208797592
2221 -3764.648818419584
2222 -3766.213117205816
2223 -3766.311908941507
2224 -3768.58336380399
2225 -3768.557095302506
2226 -3770.840903303816
2227 -3770.785621256303
2228 -3773.016624332954
2229 -3773.086487414057
2230 -3775.339253798758
2231 -3775.286750631821
2232 -3777.278425115034
2233 -3777.247066803006
2234 -3779.272563878794
2235 -3779.076244328737
2236 -3781.162507507149
2237 -3780.887833192804
2238 -3782.772135833455
2239 -3782.482009446649
2240 -3784.422974186146
2241 -3784.0177872281
2242 -3785.689394705703
2243 -3785.345930753404
2244 -3787.021644077509
2245 -3786.492903256635
2246 -3787.847213116074
2247 -3787.03885813123
2248 -3788.455497375952
2249 -3787.587492838159
2250 -3788.785402646155
2251 -3787.798147887625
2252 -3789.210848083518
2253 -3788.244049825878
2254 -3789.626371672079
2255 -3788.832597472848
2256 -3790.272831455458
2257 -3789.514439831902
2258 -3791.293579265525
2259 -3790.861314144097
2260 -3792.656565783534
2261 -3792.255382766308
2262 -3794.1810250491
2263 -3794.042260941264
2264 -3796.300965880867
2265 -3796.377751849909
2266 -3798.893545539904
2267 -3799.215605343919
2268 -3801.6229580389
2269 -3801.869496334102
2270 -3804.452259930914
2271 -3804.787269868069
2272 -3807.250344742209
2273 -3807.526056261562
2274 -3809.783107050236
2275 -3809.783560152381
2276 -3812.112020269642
2277 -3812.065122002572
2278 -3814.116024737534
2279 -3813.937105797062
2280 -3815.871826608795
2281 -3815.464333612553
2282 -3817.158124634018
2283 -3816.578920325206
2284 -3818.185240483495
2285 -3817.384865268318
2286 -3818.743018335305
2287 -3817.877018612204
2288 -3819.011679956408
2289 -3817.829313402381
2290 -3818.606144470863
2291 -3817.107316202018
2292 -3817.545555141191
2293 -3815.832413992489
2294 -3816.068176475585
2295 -3813.926219167601
2296 -3813.957758215049
2297 -3811.725658133539
2298 -3811.324904771926
2299 -3808.791968066486
2300 -3808.253438051594
2301 -3805.361122585472
2302 -3804.5395997092
2303 -3801.345502106838
2304 -3800.374212706888
2305 -3797.111192651941
2306 -3795.99850065576
2307 -3792.567024413089
2308 -3791.365619458086
2309 -3787.944992803452
2310 -3786.689431438459
2311 -3783.24541387021
2312 -3782.181810880109
2313 -3778.830980254573
2314 -3777.605593922632
2315 -3774.258488365749
2316 -3773.222519732073
2317 -3769.924545147912
2318 -3768.859573561789
2319 -3765.664727973146
2320 -3764.714825188221
2321 -3761.622218483652
2322 -3760.807985688745
2323 -3757.904198964257
2324 -3757.525605627976
2325 -3754.9901936498
2326 -3754.767809307148
2327 -3752.370477867767
2328 -3752.549524789649
2329 -3750.54252860219
2330 -3750.735331419434
2331 -3749.031441544495
2332 -3749.732403591819
2333 -3748.389231675457
2334 -3749.355782924695
2335 -3748.254283608363
2336 -3749.629383439502
2337 -3748.832009495927
2338 -3750.460800129229
2339 -3749.778479259552
2340 -3751.557980190537
2341 -3751.047071471766
2342 -3753.020115879106
2343 -3752.622969358121
2344 -3754.546673276602
2345 -3754.249729955121
2346 -3756.26762381084
2347 -3755.939467892895
2348 -3757.960191752867
2349 -3757.469166175358
2350 -3759.145537997093
2351 -3758.537174395852
2352 -3760.098356792937
2353 -3759.256733879562
2354 -3760.524343254218
2355 -3759.367853145708
2356 -3760.430445662124
2357 -3759.134166441906
2358 -3759.735879914274
2359 -3757.994072590052
2360 -3758.262823951176
2361 -3756.215143819312
2362 -3756.393258836647
2363 -3754.093765073635
2364 -3754.106158742437
2365 -3752.038100160485
2366 -3752.023375566122
2367 -3749.658025388589
2368 -3749.590810914553
2369 -3747.217601569716
2370 -3746.920872129072
2371 -3744.673255811142
2372 -3744.52793380681
2373 -3742.315839362965
2374 -3741.980723137343
2375 -3739.598635428669
2376 -3739.419543430983
2377 -3736.907009615305
2378 -3736.583519902958
2379 -3734.115603433167
2380 -3733.763341675197
2381 -3731.287002264894
2382 -3730.654305619008
2383 -3728.044618931639
2384 -3727.501399538776
2385 -3724.915590263599
2386 -3724.499181214759
2387 -3722.152795568994
2388 -3721.924091532948
2389 -3719.64028751671
2390 -3719.623317937008
2391 -3717.698051587143
2392 -3718.079687770723
2393 -3716.707834929281
2394 -3717.597167868368
2395 -3716.398938592015
2396 -3717.585280981172
2397 -3716.777912704607
2398 -3718.260598105261
2399 -3717.83544848187
2400 -3719.653071248465
2401 -3719.507404742951
2402 -3721.666233113001
2403 -3721.792066918511
2404 -3724.076980088166
2405 -3724.317743419534
2406 -3726.634805397281
2407 -3727.114785057553
2408 -3729.747666126163
2409 -3730.145843150468
2410 -3732.582636816307
2411 -3732.902821307419
2412 -3735.2902984223
2413 -3735.703909819626
2414 -3738.100365407071
2415 -3738.391121899371
2416 -3740.829585651023
2417 -3740.934282303743
2418 -3743.249048068113
2419 -3743.306429894361
2420 -3745.471381653068
2421 -3745.496905913497
2422 -3747.663475444122
2423 -3747.489434048703
2424 -3749.594823917858
2425 -3749.444809807218
2426 -3751.317976970553
2427 -3750.967142131554
2428 -3752.729769821025
2429 -3752.605856539898
2430 -3754.195993054837
2431 -3753.594640519443
2432 -3755.160585092058
2433 -3754.560402889063
2434 -3755.895500330786
2435 -3755.107942128659
2436 -3756.359163089187
2437 -3755.387598029479
2438 -3756.373752281884
2439 -3755.236633410699
2440 -3756.164113386622
2441 -3755.040969849108
2442 -3756.081237828858
2443 -3754.900661838344
2444 -3755.807483537214
2445 -3754.653121350244
2446 -3755.578678168672
2447 -3754.333617459473
2448 -3755.366806528453
2449 -3754.120995388741
2450 -3755.011429181925
2451 -3753.860798073362
2452 -3754.921917877897
2453 -3753.746342917771
2454 -3754.477526594471
2455 -3753.243353175147
2456 -3754.139074811847
2457 -3752.984738955443
2458 -3753.70230534099
2459 -3752.285666574945
2460 -3752.881500235223
2461 -3751.412334861062
2462 -3751.844355538503
2463 -3749.939116180283
2464 -3750.204052099855
2465 -3748.513119850924
2466 -3748.473686018062
2467 -3746.351063305384
2468 -3746.096071616327
2469 -3743.812023943477
2470 -3743.262075545583
2471 -3740.884908302556
2472 -3740.165372025767
2473 -3737.517946650157
2474 -3736.786774819057
2475 -3733.952128354323
2476 -3733.212000584908
2477 -3730.596914171594
2478 -3729.839952649499
2479 -3727.154308043891
2480 -3726.606919348758
2481 -3724.145040847176
2482 -3723.369412292298
2483 -3721.024374041057
2484 -3720.597719578472
2485 -3718.440417086616
2486 -3718.297396379408
2487 -3716.435699335216
2488 -3716.342155905909
2489 -3714.595390280875
2490 -3714.936294071566
2491 -3713.205922052128
2492 -3713.64920696533
2493 -3712.203526341945
2494 -3712.71017948442
2495 -3711.620412097443
2496 -3712.543018121207
2497 -3711.707366578099
2498 -3712.855700808596
2499 -3712.244338465048
2500 -3713.600542939609
2501 -3712.950089340097
2502 -3714.513964024571
2503 -3714.2792670647
2504 -3716.179249475941
2505 -3716.122386737722
2506 -3718.147999539743
2507 -3718.33309514224
2508 -3720.360911147113
2509 -3720.684549439692
2510 -3722.682027422111
2511 -3722.737652382109
2512 -3724.498536098085
2513 -3724.331571494214
2514 -3726.204993404566
2515 -3725.806208009717
2516 -3727.721319238608
2517 -3727.53225224483
2518 -3729.548870061994
2519 -3729.37186366513
2520 -3731.062429214709
2521 -3730.477238555422
2522 -3731.998461446623
2523 -3731.447891137185
2524 -3732.883029111103
2525 -3732.173224106157
2526 -3733.231251201179
2527 -3732.503575920044
2528 -3733.607098325348
2529 -3732.924200746506
2530 -3734.068522483749
2531 -3733.317186626447
2532 -3734.372016318
2533 -3733.349680353971
2534 -3734.363854712458
2535 -3733.308046403587
2536 -3734.11420005004
2537 -3732.685071341883
2538 -3732.733145099141
2539 -3730.928693063879
2540 -3730.819292538109
2541 -3728.453973013112
2542 -3727.912543092369
2543 -3725.185918830156
2544 -3724.240800901477
2545 -3721.125831650964
2546 -3719.564176409867
2547 -3716.103904029444
2548 -3714.166746586966
2549 -3710.115487679892
2550 -3707.74193737687
2551 -3703.669473626742
2552 -3701.157440603257
2553 -3697.018108784526
2554 -3694.749194318212
2555 -3690.73069571014
2556 -3688.601186167272
2557 -3684.860066111738
2558 -3682.913397873896
2559 -3679.243225477744
2560 -3677.377766610942
2561 -3673.965350234947
2562 -3672.217242304933
2563 -3668.861441072883
2564 -3667.582553357859
2565 -3664.614753624973
2566 -3663.649880830001
2567 -3661.089872267543
2568 -3660.394018335742
2569 -3658.27424055251
2570 -3657.92306097481
2571 -3655.856578687721
2572 -3655.891016192995
2573 -3654.287468893243
2574 -3654.408870763117
2575 -3652.832720233681
2576 -3653.197998603177
2577 -3651.916792731946
2578 -3652.664156218506
2579 -3651.245304904046
2580 -3651.77788676103
2581 -3650.423718320432
2582 -3651.026210822159
2583 -3650.026616905095
2584 -3650.967480495158
2585 -3649.851510404108
2586 -3650.436494474248
2587 -3649.239516092806
2588 -3649.70153250783
2589 -3648.053133217391
2590 -3648.396951425987
2591 -3646.390428152322
2592 -3646.072085538003
2593 -3643.732218897692
2594 -3643.367350319655
2595 -3640.578693074355
2596 -3639.437387849781
2597 -3636.101900287198
2598 -3634.675970098822
2599 -3631.240183463057
2600 -3629.535204269698
2601 -3625.553774070324
2602 -3623.576901255087
2603 -3619.64140475559
2604 -3617.363145981497
2605 -3613.288079491187
2606 -3611.224809280943
2607 -3606.821999996908
2608 -3604.68267589688
2609 -3600.652177841434
2610 -3598.19274314338
2611 -3593.892768069476
2612 -3591.734379128617
2613 -3588.087793405941
2614 -3586.240334682447
2615 -3582.676797154873
2616 -3581.314073327194
2617 -3578.23208593304
2618 -3577.39156633936
2619 -3574.976682343885
2620 -3574.781587348041
2621 -3572.99156720781
2622 -3573.396761369918
2623 -3572.286518330368
2624 -3573.1718304244
2625 -3572.74375326121
2626 -3574.525142971218
2627 -3574.607586676916
2628 -3577.084066340924
2629 -3577.842355422837
2630 -3580.741687780092
2631 -3582.043963164013
2632 -3585.484644983868
2633 -3587.439094335473
2634 -3591.296764695697
2635 -3593.534999944688
2636 -3597.982658287034
2637 -3600.670457695939
2638 -3605.277142738324
2639 -3608.358418337133
2640 -3613.507458429207
2641 -3615.610642649928
2642 -3621.30174373423
2643 -3625.145963779762
2644 -3631.034422163
2645 -3635.006834764695
2646 -3641.210163215102
2647 -3645.554361427225
2648 -3651.553163269003
2649 -3655.707444816561
2650 -3661.92219786404
2651 -3666.12705307268
2652 -3672.624579168148
2653 -3676.900581420184
2654 -3683.358480945826
2655 -3687.67732248926
2656 -3693.966656316964
2657 -3698.376897715418
2658 -3704.496176603233
2659 -3708.937247918923
2660 -3714.983183862643
2661 -3719.262556597751
2662 -3725.232383585449
2663 -3729.247448095948
2664 -3735.076504347822
2665 -3738.892406448064
2666 -3744.542392738418
2667 -3748.324020871436
2668 -3753.800130340782
2669 -3757.251716808477
2670 -3762.412478801526
2671 -3765.666251136131
2672 -3770.595303939392
2673 -3773.46087396897
2674 -3778.175767946162
2675 -3780.7450037657
2676 -3785.167945931878
2677 -3787.663275507829
2678 -3791.820208694793
2679 -3794.334951123156
2680 -3798.383766609783
2681 -3800.754990084624
2682 -3804.718865797739
2683 -3806.695731442476
2684 -3810.41976252737
2685 -3812.261238206283
2686 -3815.98879178659
2687 -3817.96914935083
2688 -3821.549850166256
2689 -3823.309530039261
2690 -3826.890784666275
2691 -3828.333592644209
2692 -3831.769342769882
2693 -3833.423207978435
2694 -3837.052848910504
2695 -3838.526830490775
2696 -3841.940890194681
2697 -3843.326216461929
2698 -3846.756393845682
2699 -3848.028450943369
2700 -3851.121114558707
2701 -3851.496517114853
2702 -3854.260497325264
2703 -3855.166581885557
2704 -3857.822142021272
2705 -3858.046392156805
2706 -3860.457909296848
2707 -3860.950687636205
2708 -3862.731499353728
2709 -3863.173691357848
2710 -3865.314971036047
2711 -3865.268099893543
2712 -3867.384934354628
2713 -3867.675544811467
2714 -3869.221531353133
2715 -3869.293987313236
2716 -3871.003591537913
2717 -3870.540331050084
2718 -3871.969004709929
2719 -3871.211781644161
2720 -3872.194661018765
2721 -3871.247003344849
2722 -3871.898547706262
2723 -3870.5050498317
2724 -3871.059262069323
2725 -3869.318928471169
2726 -3869.191772800176
2727 -3866.9724599938
2728 -3866.629378432713
2729 -3864.105195975649
2730 -3863.569817920504
2731 -3860.852118906221
2732 -3860.221605296282
2733 -3857.336044647542
2734 -3856.50924800506
2735 -3853.453770881451
2736 -3852.873467808568
2737 -3849.980998067395
2738 -3849.109118392751
2739 -3845.872877569471
2740 -3844.883197581733
2741 -3841.753230093005
2742 -3840.865602534474
2743 -3837.615100057355
2744 -3836.643013494151
2745 -3833.359962946484
2746 -3832.069165572836
2747 -3828.72971120376
2748 -3827.580387271195
2749 -3824.080456504095
2750 -3822.549366717023
2751 -3818.963799859181
2752 -3817.656655557174
2753 -3814.0539816157
2754 -3812.532757073779
2755 -3809.105769561724
2756 -3808.026871324817
2757 -3804.846228545554
2758 -3803.753699764374
2759 -3800.402258265558
2760 -3799.311635427534
2761 -3796.285743612961
2762 -3795.4615985235
2763 -3793.028262102584
2764 -3792.498444496905
2765 -3790.171819748315
2766 -3789.947856562257
2767 -3787.904152147398
2768 -3788.274350751963
2769 -3786.416372470433
2770 -3786.882636126336
2771 -3785.698346175147
2772 -3786.49254312067
2773 -3785.467776786393
2774 -3786.613825902826
2775 -3785.755887384453
2776 -3787.202097289523
2777 -3786.493936345832
2778 -3787.974875637238
2779 -3787.393994214529
2780 -3789.082035649983
2781 -3788.845583558715
2782 -3790.924936236082
2783 -3790.783650494394
2784 -3793.102599673021
2785 -3793.384520311513
2786 -3795.916893869021
2787 -3796.383525345581
2788 -3799.32239078093
2789 -3800.003407746963
2790 -3802.777656714023
2791 -3803.640870751172
2792 -3806.671421060835
2793 -3807.526584168432
2794 -3810.766127522689
2795 -3811.988727924903
2796 -3815.323842996662
2797 -3816.760740371964
2798 -3820.447046159532
2799 -3821.989558231016
2800 -3825.466099875053
2801 -3827.154722941378
2802 -3830.901966772919
2803 -3832.623866650023
2804 -3836.410112117883
2805 -3838.256376896058
2806 -3841.634859192116
2807 -3842.832547667221
2808 -3845.918961982439
2809 -3846.836084385847
2810 -3849.685048749639
2811 -3850.336479905473
2812 -3852.554885228492
2813 -3852.659605652731
2814 -3854.852229355595
2815 -3854.942318477745
2816 -3856.567283906408
2817 -3856.182452976605
2818 -3857.824486474246
2819 -3857.243695593178
2820 -3858.459678419598
2821 -3857.517485460732
2822 -3858.428497492335
2823 -3856.885563597531
2824 -3857.426453998949
2825 -3855.863076620295
2826 -3856.327156630361
2827 -3854.502475500642
2828 -3854.550457130712
2829 -3852.595340216817
2830 -3852.055033263249
2831 -3849.283202088925
2832 -3848.146313980235
2833 -3845.121136883548
2834 -3843.925739746782
2835 -3840.650384020727
2836 -3839.315525616219
2837 -3836.034556129972
2838 -3834.478883314428
2839 -3830.773308369333
2840 -3828.946881832611
2841 -3825.069011701903
2842 -3822.772672574128
2843 -3818.461561001836
2844 -3816.326696613205
2845 -3811.971669736847
2846 -3809.52733740139
2847 -3804.990709763875
2848 -3802.654675156519
2849 -3798.162140664724
2850 -3795.713050581309
2851 -3791.150004607797
2852 -3788.666362080107
2853 -3784.340009523034
2854 -3782.052923772591
2855 -3777.808076067086
2856 -3775.639004336286
2857 -3771.441321533359
2858 -3769.281688629286
2859 -3765.493159544564
2860 -3764.033224749393
2861 -3760.674293040087
2862 -3759.724794534571
2863 -3756.952671613357
2864 -3756.616047504867
2865 -3754.356832331768
2866 -3754.4929708833
2867 -3752.864655852227
2868 -3753.567817178088
2869 -3752.656691161925
2870 -3753.871933185681
2871 -3753.59720247731
2872 -3755.496367470648
2873 -3755.495030659287
2874 -3757.864940586253
2875 -3758.434325205478
2876 -3761.38136217903
2877 -3762.601466652649
2878 -3766.066978592224
2879 -3766.878401910191
2880 -3770.654397859927
2881 -3773.010876329071
2882 -3776.287852568562
2883 -3778.860540177895
2884 -3782.35967725918
2885 -3785.600112732884
2886 -3789.420338820804
2887 -3792.747530652699
2888 -3796.728388143969
2889 -3800.53682927971
2890 -3806.57277243329
2891 -3808.696267869027
2892 -3814.573713818472
2893 -3818.505526067974
2894 -3824.265257470493
2895 -3827.812085160312
2896 -3833.406132369775
2897 -3836.562634098954
2898 -3841.595203570962
2899 -3844.250592476073
2900 -3848.807778477697
2901 -3851.059892409125
2902 -3855.101605882226
2903 -3856.818264190198
2904 -3860.324559126801
2905 -3861.400161837401
2906 -3864.257981606387
2907 -3864.943060323263
2908 -3867.460708702282
2909 -3867.51049731749
2910 -3869.483452275072
2911 -3868.966904943651
2912 -3870.493653402119
2913 -3869.905739462284
2914 -3870.999232639916
2915 -3869.850603790653
2916 -3870.879172058743
2917 -3869.529053352921
2918 -3870.234918043212
2919 -3868.558179811031
2920 -3869.057640823586
2921 -3867.512666764314
2922 -3867.886277048337
2923 -3866.217031099295
2924 -3866.737118695189
2925 -3865.034389528587
2926 -3865.508573632548
2927 -3864.145595710972
2928 -3864.9894210833
2929 -3863.625375161902
2930 -3864.443829768864
2931 -3863.090963285512
2932 -3864.198253140666
2933 -3863.194491961113
2934 -3864.405858766957
2935 -3863.56587431337
2936 -3864.933373885465
2937 -3864.204732222419
2938 -3865.70129904
2939 -3864.989272081526
2940 -3866.515441540524
2941 -3865.742926148305
2942 -3867.139468227778
2943 -3866.094942545984
2944 -3867.460355226701
2945 -3866.203536019095
2946 -3867.312430004101
2947 -3865.78214870272
2948 -3866.671988788587
2949 -3865.134394361842
2950 -3865.748388634129
2951 -3863.920227386329
2952 -3864.326514475015
2953 -3862.414931150693
2954 -3862.777264680692
2955 -3860.734673223714
2956 -3860.950881699362
2957 -3858.534947021352
2958 -3858.478356594998
2959 -3856.103573237156
2960 -3856.192111000117
2961 -3853.826100414192
2962 -3853.653297168742
2963 -3851.019533555429
2964 -3850.9775977875
2965 -3848.5108562
2966 -3848.486375843432
2967 -3846.259051854052
2968 -3846.476624834431
2969 -3844.439875085201
2970 -3845.106065270304
2971 -3843.548146107776
2972 -3844.24919145009
2973 -3842.601888493965
2974 -3843.440634617615
2975 -3842.12982783775
2976 -3843.208492529457
2977 -3842.09307606834
2978 -3843.439127166049
2979 -3842.518893603338
2980 -3844.168860015382
2981 -3843.325629769059
2982 -3845.07862827409
2983 -3844.695779707432
2984 -3846.694768503877
2985 -3846.279903541461
2986 -3848.464167864887
2987 -3848.242599756618
2988 -3850.290399047114
2989 -3849.924450236054
2990 -3851.994532445809
2991 -3851.571850263369
2992 -3853.477015154438
2993 -3852.923203658592
2994 -3854.745222615937
2995 -3854.028957282944
2996 -3855.502459391798
2997 -3854.482933479595
2998 -3855.504467154345
2999 -3854.19886058299
3000 -3855.170713213983
3001 -3853.512494568272
3002 -3854.196610018074
3003 -3852.158317832542
3004 -3852.211147119677
3005 -3849.768136096169
3006 -3849.534339982089
3007 -3846.848749834005
3008 -3846.573481463391
3009 -3843.956183640431
3010 -3843.398056878531
3011 -3840.206418666821
3012 -3839.442969029931
3013 -3836.230393256084
