"y-rfile"
"Iteration" "y"
("Iteration" "y")
1 -13552.37595941781
2 -13060.53761200055
3 -11444.06057339996
4 -10099.91730939436
5 -8632.29571054714
6 -7512.029340982782
7 -5789.079465221858
8 -4242.757366884829
9 -2972.278311527234
10 -2199.548013626263
11 -1563.900151983703
12 -1105.044956360415
13 -777.5923477884286
14 -592.3757276784762
15 -513.9753143324383
16 -543.746646318005
17 -641.0321809478355
18 -811.8302483797818
19 -1003.546233971171
20 -1215.556852185079
21 -1424.172032273872
22 -1662.065222164702
23 -1834.738037562071
24 -2032.991405103365
25 -2187.921431382345
26 -2359.359620155123
27 -2481.793836622592
28 -2637.975171262884
29 -2730.013854775214
30 -2831.332320286563
31 -2871.955360655144
32 -2924.504221433908
33 -2926.829918543714
34 -2958.509233624714
35 -2943.284112193583
36 -2960.924823179324
37 -2940.697501449748
38 -2952.538939889186
39 -2932.65423825616
40 -2942.197990398866
41 -2923.731085214481
42 -2934.301493782396
43 -2919.464355426137
44 -2933.257112623136
45 -2922.358062032374
46 -2938.606590686711
47 -2931.601811935069
48 -2950.042737804456
49 -2944.922538588327
50 -2962.53158601476
51 -2961.001963628865
52 -2978.95606713218
53 -2980.096871968607
54 -2998.153158555178
55 -2997.790005128746
56 -3015.98015376506
57 -3020.220062839641
58 -3037.073104148244
59 -3041.026378741947
60 -3056.644307022927
61 -3060.002111430201
62 -3074.259106538414
63 -3076.468730347562
64 -3088.663217242721
65 -3089.776955908134
66 -3099.857617853591
67 -3099.775815020487
68 -3107.996717061195
69 -3106.80181378509
70 -3113.351235360921
71 -3111.385960944297
72 -3115.963011680215
73 -3113.772877149654
74 -3117.863492100346
75 -3115.271274260395
76 -3118.630152213991
77 -3115.965405629864
78 -3118.540965232366
79 -3115.871385369997
80 -3118.105001279613
81 -3115.584644274134
82 -3117.480087903162
83 -3114.845150650173
84 -3116.393773024572
85 -3114.024814187604
86 -3115.264193254109
87 -3113.008797069037
88 -3114.093606193224
89 -3111.925151382226
90 -3112.955597103149
91 -3110.87320876734
92 -3111.647604612258
93 -3109.926739585808
94 -3110.360152535847
95 -3108.728839200195
96 -3109.088655593338
97 -3107.402615691487
98 -3107.582048741891
99 -3105.944537175671
100 -3106.02007478359
101 -3104.281341792996
102 -3104.238446741258
103 -3102.492461261041
104 -3102.356436372
105 -3100.541876414995
106 -3100.162313085745
107 -3098.364246339053
108 -3097.966330531535
109 -3096.159071355041
110 -3095.599169742921
111 -3093.835277777696
112 -3093.225497171264
113 -3091.511134399233
114 -3090.971278311441
115 -3089.278873235826
116 -3088.66310301211
117 -3086.64873899419
118 -3086.709351890753
119 -3084.668699396671
120 -3084.475956044002
121 -3082.586179769691
122 -3082.417527694824
123 -3080.598236329828
124 -3080.492318506119
125 -3078.691993846255
126 -3078.630944433461
127 -3076.85264081066
128 -3076.798487692433
129 -3074.945628353461
130 -3074.779478730017
131 -3072.993696225686
132 -3072.951593804835
133 -3071.089948065778
134 -3070.943575332301
135 -3069.151038303708
136 -3069.033218237629
137 -3067.291481430131
138 -3067.193721781336
139 -3065.424252183867
140 -3065.444559319354
141 -3063.744498788564
142 -3063.787117514653
143 -3062.024442199312
144 -3061.920346671552
145 -3060.134830742248
146 -3060.1372122915
147 -3058.353447573054
148 -3058.386546046404
149 -3056.754589455576
150 -3056.722191380957
151 -3055.071942125258
152 -3055.115504503147
153 -3053.50190082413
154 -3053.576869087762
155 -3052.034942789482
156 -3052.257087458564
157 -3050.613639877594
158 -3050.702381575926
159 -3049.201800493948
160 -3049.44696720186
161 -3047.895531547665
162 -3048.066708240968
163 -3046.723341408794
164 -3047.063268658698
165 -3045.559611130844
166 -3046.154175343382
167 -3044.90455226216
168 -3045.531734218376
169 -3044.32275969079
170 -3045.032300803822
171 -3043.849834642962
172 -3044.632101445115
173 -3043.688790132436
174 -3044.575594647037
175 -3043.721020308286
176 -3044.722682284167
177 -3044.055846671126
178 -3045.195650366923
179 -3044.550103636343
180 -3046.009153471566
181 -3045.617665490247
182 -3047.07337182203
183 -3047.032302409717
184 -3048.518049192851
185 -3048.3949037125
186 -3050.405677237296
187 -3050.416688482625
188 -3052.146868268694
189 -3052.315148728901
190 -3054.860256868802
191 -3055.077653370211
192 -3057.281942506586
193 -3057.791484290739
194 -3060.695651058083
195 -3061.346776397155
196 -3063.924536697857
197 -3064.64481875879
198 -3068.073607315446
199 -3068.871605252451
200 -3071.605708910045
201 -3072.650648750819
202 -3075.506131092588
203 -3077.284210540271
204 -3080.23786812983
205 -3081.322751362206
206 -3084.372104194091
207 -3086.456519818489
208 -3089.649600373412
209 -3091.027037705753
210 -3094.236153229647
211 -3096.348198846627
212 -3099.776162239993
213 -3101.304095714469
214 -3105.516028205665
215 -3107.157053171492
216 -3110.698330884692
217 -3113.284556758494
218 -3116.754860965669
219 -3118.409323398747
220 -3122.974482797837
221 -3124.778803643778
222 -3128.299292760859
223 -3131.231561318862
224 -3134.962330384334
225 -3136.804458282922
226 -3141.546591928844
227 -3143.473269166655
228 -3148.238304732561
229 -3150.253374230491
230 -3154.131790541026
231 -3157.058767820143
232 -3161.053851872002
233 -3164.293073554647
234 -3168.217955562264
235 -3171.448148743371
236 -3175.54294366061
237 -3178.672172104063
238 -3182.679311363276
239 -3185.912173939889
240 -3189.997415592958
241 -3193.269401844478
242 -3197.406965005045
243 -3200.705413423332
244 -3204.87824049196
245 -3208.128122249473
246 -3212.314706345357
247 -3215.764240747455
248 -3220.0170030241
249 -3223.571760849441
250 -3227.976479603862
251 -3231.579883470903
252 -3235.919057823839
253 -3239.287283054429
254 -3243.687337015256
255 -3247.232728796032
256 -3251.469534250586
257 -3255.032685092201
258 -3259.333362146456
259 -3262.758548490011
260 -3267.223556131555
261 -3270.848973821816
262 -3275.173828826302
263 -3278.81734245614
264 -3283.141109688071
265 -3286.664063702995
266 -3290.993122555053
267 -3294.476467762184
268 -3298.733089181931
269 -3302.309044666104
270 -3306.760656800682
271 -3310.223653062664
272 -3314.456015266086
273 -3317.776165616029
274 -3321.992043860014
275 -3325.40267387301
276 -3329.530596194658
277 -3332.949498238521
278 -3337.351538549063
279 -3340.757600052584
280 -3344.996305399754
281 -3347.333386115002
282 -3352.635573525505
283 -3355.001043603696
284 -3360.402459029297
285 -3362.787518251666
286 -3368.26298375131
287 -3370.613748807824
288 -3374.769478564745
289 -3378.188379081597
290 -3382.381706990433
291 -3384.804591778814
292 -3390.31967613781
293 -3392.746573821621
294 -3396.991241756838
295 -3400.488708518371
296 -3404.759909323342
297 -3407.213728598812
298 -3412.584458053372
299 -3414.927124229157
300 -3419.114844511127
301 -3422.599101905682
302 -3426.700220235244
303 -3429.208298156922
304 -3434.563861113001
305 -3436.851894239575
306 -3440.947152619403
307 -3444.425870233689
308 -3448.589684144635
309 -3450.87619726403
310 -3455.056503523635
311 -3458.424954025113
312 -3462.533612684288
313 -3464.903909906079
314 -3469.126497706379
315 -3472.67207786569
316 -3476.800183708798
317 -3479.137429705292
318 -3483.205282865756
319 -3486.465967007879
320 -3490.355237351264
321 -3492.393034444477
322 -3496.275644426697
323 -3498.473987117228
324 -3502.298803982105
325 -3505.280595113197
326 -3509.021560112185
327 -3510.971016058312
328 -3514.563035367493
329 -3516.321541982547
330 -3520.760692593233
331 -3522.365704997334
332 -3525.653270321406
333 -3527.124947329285
334 -3531.052647336401
335 -3532.392020322278
336 -3535.430333276974
337 -3536.829601738708
338 -3540.768481316387
339 -3542.041694455495
340 -3545.000883327602
341 -3546.320807372658
342 -3549.313351526824
343 -3551.226926290814
344 -3554.187576190003
345 -3555.449010796363
346 -3558.375332496351
347 -3559.781857611822
348 -3562.868443185935
349 -3564.22604586705
350 -3568.09591078635
351 -3569.320670032517
352 -3572.438648365182
353 -3573.681421692752
354 -3576.691356485703
355 -3577.954218897745
356 -3581.009785518713
357 -3582.45588390014
358 -3585.560559492234
359 -3587.649918117104
360 -3590.643565842659
361 -3592.007089877092
362 -3595.043258232705
363 -3596.399305109735
364 -3599.41903584807
365 -3600.819355826332
366 -3604.462728218543
367 -3605.743270205146
368 -3608.47465700328
369 -3609.74778877417
370 -3612.642659138519
371 -3614.026680301779
372 -3617.745296045757
373 -3618.906565583168
374 -3621.910628082546
375 -3623.045869038803
376 -3625.781195133728
377 -3627.532090030479
378 -3630.434555768165
379 -3631.385178812499
380 -3633.907383406215
381 -3635.573756727729
382 -3638.046031498815
383 -3638.978083986307
384 -3641.452777327941
385 -3642.809741357753
386 -3645.058099093189
387 -3645.770525134034
388 -3648.151009754705
389 -3648.292741911987
390 -3650.002788759394
391 -3650.335675416057
392 -3652.062869758604
393 -3652.026377859181
394 -3653.640121329029
395 -3653.317241370674
396 -3654.3226447147
397 -3653.890970097614
398 -3654.785751655318
399 -3654.05575884374
400 -3655.010289570371
401 -3654.193574386321
402 -3654.862362861119
403 -3653.90443982123
404 -3654.238355153215
405 -3653.189831034854
406 -3653.66937405713
407 -3652.388990564694
408 -3652.375734640217
409 -3650.870187130184
410 -3650.753935003905
411 -3649.039452524575
412 -3648.797731479304
413 -3646.933586144286
414 -3646.548464735234
415 -3644.572555292104
416 -3644.072488045505
417 -3642.06820132568
418 -3641.397956187477
419 -3639.183586966962
420 -3638.476540666447
421 -3636.470227990109
422 -3635.764333003735
423 -3633.432507395242
424 -3632.530837420659
425 -3630.032020413328
426 -3629.083796989776
427 -3626.347609538318
428 -3625.410832336079
429 -3622.946401433175
430 -3621.993180162109
431 -3619.608666354114
432 -3618.735273553135
433 -3616.329950921154
434 -3615.470620199317
435 -3613.197007201503
436 -3612.329449639417
437 -3610.170159851665
438 -3609.537118454128
439 -3607.284737048224
440 -3606.509605585094
441 -3604.35713113553
442 -3603.771101640441
443 -3601.665444665936
444 -3601.121261857202
445 -3599.018400494758
446 -3598.505799446078
447 -3596.550180330806
448 -3596.072325957492
449 -3594.143022289474
450 -3593.679544920608
451 -3591.720588775414
452 -3591.309285457741
453 -3589.349548215793
454 -3588.876391637712
455 -3586.884350866424
456 -3586.25234893665
457 -3584.08983207354
458 -3583.386975361473
459 -3581.185674339205
460 -3580.341373429694
461 -3578.038503162687
462 -3577.191824528924
463 -3574.741442134372
464 -3573.758504663324
465 -3571.264640457267
466 -3570.168139940305
467 -3567.521301559281
468 -3566.070013879649
469 -3563.217489038339
470 -3561.867222115881
471 -3558.806174137434
472 -3557.196833886563
473 -3553.932137755846
474 -3552.206941483792
475 -3548.918617110925
476 -3547.184009665232
477 -3543.769059475263
478 -3541.989861389418
479 -3538.469306060412
480 -3536.552615023317
481 -3532.980273491017
482 -3530.807054350497
483 -3526.906345016221
484 -3524.473367108605
485 -3520.55682271981
486 -3517.94268965732
487 -3513.755736834008
488 -3511.122160878543
489 -3506.796578773072
490 -3503.852110345423
491 -3499.440287293135
492 -3496.399606176622
493 -3491.760905710292
494 -3488.533930634947
495 -3483.696194540365
496 -3480.275159322713
497 -3475.388235542342
498 -3471.861061958821
499 -3466.864555032695
500 -3463.298334091292
501 -3458.0979632321
502 -3454.356054146439
503 -3448.996870552007
504 -3445.003789107968
505 -3439.634233286047
506 -3435.648535406992
507 -3430.137996538977
508 -3425.816371479579
509 -3419.908159473389
510 -3415.671016011735
511 -3409.783250080863
512 -3405.258904654742
513 -3399.190321767796
514 -3394.444407369725
515 -3388.300475135259
516 -3383.385431012354
517 -3377.097133207487
518 -3372.040623964967
519 -3365.584159491087
520 -3358.921844734611
521 -3352.799660768621
522 -3348.197089155699
523 -3342.125743507786
524 -3337.373514907921
525 -3331.204681474248
526 -3325.000711730541
527 -3319.245172660723
528 -3314.911260775934
529 -3309.27165489391
530 -3305.183506464761
531 -3298.127147565331
532 -3294.413912509775
533 -3289.006782762023
534 -3285.0601012883
535 -3279.857524261902
536 -3274.524019327147
537 -3269.380085856154
538 -3265.579481652019
539 -3260.49114234532
540 -3255.402052744745
541 -3250.367232689493
542 -3246.786367720199
543 -3241.7519322671
544 -3238.28978292789
545 -3232.190150663992
546 -3229.07153495224
547 -3224.529379341487
548 -3221.506171152073
549 -3217.06107944104
550 -3214.18258338711
551 -3209.643457550886
552 -3206.75780638871
553 -3202.102652841838
554 -3199.145947702748
555 -3194.634317978279
556 -3191.658989629807
557 -3187.109760491464
558 -3184.1060324643
559 -3179.437655613279
560 -3176.390952211199
561 -3171.974670871548
562 -3168.904810979171
563 -3164.402029383821
564 -3161.396681281037
565 -3156.708101177745
566 -3153.701319389477
567 -3149.118330554996
568 -3145.915261515046
569 -3141.125431926339
570 -3137.767808683705
571 -3132.931445393557
572 -3129.638978687482
573 -3125.975194007056
574 -3122.175302992322
575 -3116.857057571387
576 -3112.952419530624
577 -3107.538478601237
578 -3103.489855730786
579 -3097.941523376503
580 -3095.337009691615
581 -3089.598442570836
582 -3085.193271010687
583 -3079.236075410854
584 -3074.705715256275
585 -3068.745827181387
586 -3064.245540929237
587 -3058.136752740917
588 -3053.718372233564
589 -3047.788974032172
590 -3043.202433725283
591 -3037.143078473516
592 -3032.708717946292
593 -3026.561858561334
594 -3022.102789535465
595 -3016.105997774574
596 -3011.539432296104
597 -3005.478854258886
598 -3000.883899698528
599 -2994.875270297833
600 -2990.407801543812
601 -2984.50844780462
602 -2980.157799329024
603 -2974.287838465675
604 -2970.103683251419
605 -2964.42512435184
606 -2960.386738969293
607 -2954.847699707836
608 -2950.956603862382
609 -2945.685494444989
610 -2941.829759350747
611 -2936.571948517418
612 -2932.878468693943
613 -2927.736797225818
614 -2924.226500732448
615 -2919.435127935301
616 -2916.183778427389
617 -2911.466533351815
618 -2908.375345938803
619 -2903.866936310822
620 -2901.040155681996
621 -2896.905234005451
622 -2894.35214080874
623 -2890.517006654088
624 -2888.304814147747
625 -2884.752748011871
626 -2882.963799693807
627 -2879.643971786003
628 -2877.962645379515
629 -2874.985576568138
630 -2873.501035222059
631 -2870.709241068852
632 -2869.450337058721
633 -2867.004662562074
634 -2865.975381681252
635 -2863.67535968899
636 -2862.733201975791
637 -2860.491986469709
638 -2859.708246978239
639 -2857.593747401293
640 -2856.802583239546
641 -2854.8133834794
642 -2854.149715404649
643 -2852.15724438028
644 -2851.597375427736
645 -2849.697214196611
646 -2849.051457849315
647 -2847.057994812766
648 -2846.592353132985
649 -2844.742952851144
650 -2844.309151816639
651 -2842.741617255392
652 -2842.604178085201
653 -2841.242559214822
654 -2841.195010472477
655 -2839.833620354369
656 -2839.922810987603
657 -2838.650423384274
658 -2838.95821220002
659 -2837.890896622187
660 -2838.136259178074
661 -2837.249874581747
662 -2837.724399141167
663 -2836.828982694945
664 -2837.552004190847
665 -2836.798862690959
666 -2837.334083232276
667 -2836.695940705316
668 -2837.593767824293
669 -2837.091147186487
670 -2837.827859503843
671 -2837.238784677759
672 -2838.049511823269
673 -2837.460289059915
674 -2838.386986245143
675 -2837.791382726463
676 -2838.739767954991
677 -2838.248936678443
678 -2839.141617347749
679 -2838.602937118959
680 -2839.416862480853
681 -2838.885154041618
682 -2839.662549843437
683 -2838.988243753793
684 -2839.86259339931
685 -2839.253111330121
686 -2839.976832313631
687 -2839.019555517817
688 -2839.518822798233
689 -2838.408551820453
690 -2838.677223962181
691 -2837.442690966445
692 -2837.651397199234
693 -2836.445397070807
694 -2836.328741894213
695 -2834.71760126432
696 -2834.297648177679
697 -2832.571681688366
698 -2832.035709952354
699 -2830.022530554915
700 -2829.245038693361
701 -2826.950314153616
702 -2825.90709131778
703 -2823.384495655538
704 -2822.226064978998
705 -2819.553890152754
706 -2817.910338889019
707 -2814.927846191908
708 -2813.282485531577
709 -2810.255867118268
710 -2808.580541636561
711 -2805.446663360869
712 -2803.535034333523
713 -2800.223818402321
714 -2798.257825383027
715 -2794.927079157352
716 -2793.00697180171
717 -2789.864065548376
718 -2787.916180064948
719 -2784.780052943881
720 -2783.042691092603
721 -2780.186158987346
722 -2778.701055891951
723 -2775.875511130591
724 -2774.599715629938
725 -2771.928663497861
726 -2770.764326748529
727 -2768.197553248219
728 -2767.170598407095
729 -2764.900873603258
730 -2764.042860838772
731 -2761.810549689981
732 -2761.093799937777
733 -2759.044978029484
734 -2758.394091137569
735 -2756.663889813986
736 -2756.156871684118
737 -2754.408214085995
738 -2753.870437772669
739 -2752.166850203117
740 -2751.621952877924
741 -2749.92902196018
742 -2749.698326064329
743 -2748.070856690632
744 -2747.546649387733
745 -2745.885254250589
746 -2745.426927660089
747 -2744.144913411172
748 -2743.614930639807
749 -2741.898850954132
750 -2741.343783601902
751 -2739.639491089037
752 -2739.38782070223
753 -2737.691550116965
754 -2736.984659294775
755 -2735.360129095977
756 -2735.148659170488
757 -2733.665330640084
758 -2733.023731569342
759 -2731.841782835943
760 -2731.316559045729
761 -2729.788676449642
762 -2729.673332189106
763 -2728.301824905957
764 -2727.928597817636
765 -2727.081087052512
766 -2726.933804586012
767 -2725.8399361213
768 -2725.823640055864
769 -2724.763922311559
770 -2724.739936510248
771 -2723.943498682786
772 -2724.034828583381
773 -2723.170276539218
774 -2723.193871529963
775 -2722.634770208831
776 -2722.896127913361
777 -2722.262276059661
778 -2722.666196069552
779 -2722.166010944788
780 -2722.625970986315
781 -2722.151363230515
782 -2722.692538660946
783 -2722.526927359384
784 -2723.261193667488
785 -2723.024896121733
786 -2723.857630457067
787 -2723.78916503311
788 -2724.583610072584
789 -2724.696131413428
790 -2725.763164095186
791 -2725.724348841579
792 -2726.82549909985
793 -2727.16529608536
794 -2728.380672577314
795 -2728.540078876042
796 -2729.817517615209
797 -2730.378736156091
798 -2731.883853266684
799 -2732.501407931212
800 -2734.067848098807
801 -2734.663501357999
802 -2736.177218426649
803 -2736.995732826442
804 -2738.702923981233
805 -2739.400911792959
806 -2740.947882255646
807 -2741.640921843172
808 -2743.151589056142
809 -2743.675805139271
810 -2745.128740670247
811 -2745.595301799254
812 -2747.293588002084
813 -2747.717445541266
814 -2749.471528786207
815 -2749.907125302786
816 -2751.547376302666
817 -2752.123775683428
818 -2753.873479330471
819 -2754.749984023628
820 -2756.555935358863
821 -2757.488218875898
822 -2759.416989065731
823 -2760.308151791474
824 -2762.319662434294
825 -2763.324383448645
826 -2765.346192050699
827 -2766.337840744647
828 -2768.438963613299
829 -2768.869314504736
830 -2770.974358582815
831 -2771.990589763847
832 -2773.44385078851
833 -2774.544558955028
834 -2776.500857963011
835 -2776.977752561807
836 -2779.009072699461
837 -2779.571559110602
838 -2781.447017259077
839 -2781.856997472448
840 -2783.69633507175
841 -2784.120559197889
842 -2785.852466925704
843 -2786.159606865975
844 -2787.729517840843
845 -2787.965392068352
846 -2789.364328615355
847 -2789.475726920173
848 -2790.732818993118
849 -2790.742668455435
850 -2791.766928388141
851 -2791.653266259575
852 -2792.454646678071
853 -2792.221610730699
854 -2793.059460092657
855 -2792.783934129065
856 -2793.444235377229
857 -2793.019344060427
858 -2793.437041304733
859 -2792.843414636483
860 -2793.208721200123
861 -2792.544796343095
862 -2792.903522166376
863 -2792.084801353437
864 -2792.397328789486
865 -2791.600235006438
866 -2791.755266579997
867 -2790.99497314317
868 -2790.958809456975
869 -2790.019151791352
870 -2790.083543518667
871 -2789.173086337458
872 -2789.306189513508
873 -2788.492794638145
874 -2788.68489514548
875 -2787.929868501697
876 -2788.282777502897
877 -2787.603514728959
878 -2788.092440012414
879 -2787.632732366457
880 -2788.317738453801
881 -2788.026501439471
882 -2788.922578850157
883 -2788.861983989966
884 -2789.832619905988
885 -2789.829873623783
886 -2791.055293458133
887 -2791.196817160079
888 -2792.534824585984
889 -2792.926594709017
890 -2794.448536570259
891 -2795.029835740131
892 -2796.652489095829
893 -2797.225334351283
894 -2799.039438295413
895 -2799.450866093703
896 -2801.315527084286
897 -2802.237113441824
898 -2804.248255823949
899 -2805.302293627817
900 -2807.496082861672
901 -2808.700627316439
902 -2810.906868655792
903 -2812.103916843558
904 -2814.356207895542
905 -2815.622169043925
906 -2817.85847803449
907 -2819.105214903935
908 -2821.377337037241
909 -2822.504037358121
910 -2824.617568345246
911 -2825.664277219825
912 -2827.662634768358
913 -2828.628274292017
914 -2830.591713686023
915 -2831.489330268373
916 -2833.189875123645
917 -2833.816889181377
918 -2835.382411672087
919 -2835.800413700221
920 -2837.154119858658
921 -2837.302805437151
922 -2838.470251050008
923 -2838.597876041932
924 -2839.657374037242
925 -2839.527032395773
926 -2840.369802758816
927 -2840.006849551306
928 -2840.632328388059
929 -2839.921354247892
930 -2840.207912256977
931 -2839.415111536117
932 -2839.535207134018
933 -2838.4862447916
934 -2838.683794009269
935 -2837.448155896493
936 -2837.154639377869
937 -2835.968422867806
938 -2835.972320552865
939 -2834.779479861613
940 -2834.551892123601
941 -2833.598886179228
942 -2833.453502692104
943 -2832.207360786226
944 -2832.022986936892
945 -2831.080858874453
946 -2830.851331437106
947 -2829.69555580727
948 -2829.390485474733
949 -2828.14736417312
950 -2827.908940266603
951 -2826.526245565946
952 -2826.208976521258
953 -2824.889585018745
954 -2824.699125319135
955 -2823.528067717496
956 -2823.436259644525
957 -2822.315789080819
958 -2822.332187433055
959 -2821.244992248674
960 -2821.309862828532
961 -2820.258251285131
962 -2820.288375957009
963 -2819.308644089218
964 -2819.447462972859
965 -2818.372026726206
966 -2818.458806039432
967 -2817.343314626478
968 -2817.248269022337
969 -2815.942381256456
970 -2815.860044702207
971 -2814.504266283004
972 -2814.356628391535
973 -2813.053740226509
974 -2812.848930534192
975 -2811.435771376861
976 -2811.089216970504
977 -2809.704123201086
978 -2809.323211359553
979 -2807.917135416172
980 -2807.585517955885
981 -2806.214955815001
982 -2805.910402365702
983 -2804.597258045422
984 -2804.40976410563
985 -2803.076766284606
986 -2802.906984140761
987 -2801.783203056197
988 -2801.884114065361
989 -2800.951125612457
990 -2801.282808130432
991 -2800.58071371847
992 -2801.137947675068
993 -2800.878246693839
994 -2801.910174631515
995 -2801.955680653605
996 -2803.292954316019
997 -2803.80059453644
998 -2805.707107743531
999 -2806.570450472033
1000 -2808.687431049737
1001 -2809.950019891135
1002 -2811.754697932118
1003 -2813.303923665332
1004 -2816.059335059719
1005 -2817.914310490682
1006 -2820.923044327445
1007 -2822.939018170227
1008 -2826.100776320499
1009 -2828.232891891951
1010 -2831.481665705727
1011 -2833.529103481618
1012 -2836.647375692411
1013 -2838.715614438019
1014 -2841.825990712468
1015 -2843.776981013777
1016 -2846.903164460183
1017 -2848.66087618492
1018 -2851.645854347531
1019 -2853.362304603259
1020 -2856.056408984452
1021 -2857.522689259144
1022 -2859.896065975493
1023 -2860.97907672686
1024 -2862.99572476741
1025 -2863.685580759286
1026 -2865.392678588733
1027 -2865.754235304938
1028 -2867.021390304892
1029 -2866.959319199099
1030 -2867.818834121057
1031 -2867.44142136236
1032 -2868.002444721315
1033 -2867.176047604996
1034 -2867.403467565437
1035 -2866.394810807447
1036 -2866.353126008544
1037 -2864.992107599472
1038 -2864.614845950187
1039 -2862.921196660349
1040 -2862.421213661642
1041 -2860.555113467547
1042 -2859.701403549847
1043 -2857.786873099344
1044 -2856.790665306457
1045 -2854.818977957908
1046 -2853.833406109364
1047 -2851.697911372788
1048 -2850.72514508087
1049 -2848.676308809498
1050 -2847.684739719458
1051 -2845.580457546881
1052 -2844.553980507495
1053 -2842.587317961681
1054 -2841.731996798219
1055 -2839.882782429561
1056 -2839.126690994354
1057 -2837.407759519804
1058 -2836.984557841869
1059 -2835.30325431259
1060 -2834.984212162883
1061 -2833.509893911795
1062 -2833.462095659828
1063 -2832.24321741545
1064 -2832.394521331486
1065 -2831.503863490667
1066 -2831.823666018449
1067 -2831.301316210818
1068 -2832.048528411787
1069 -2831.748941810505
1070 -2832.720471175635
1071 -2832.731031810902
1072 -2833.971393823171
1073 -2834.164744085565
1074 -2835.59568306454
1075 -2836.001664671093
1076 -2837.664950665671
1077 -2838.190698635221
1078 -2839.817928620545
1079 -2840.429552981464
1080 -2842.202942460081
1081 -2842.849426494081
1082 -2844.688441363574
1083 -2845.4015231721
1084 -2847.337635878307
1085 -2848.031135150005
1086 -2849.917280708881
1087 -2850.735898031354
1088 -2852.6271860796
1089 -2853.401588535216
1090 -2855.243186292197
1091 -2855.859426023185
1092 -2857.350003964892
1093 -2857.874117890724
1094 -2859.379873612118
1095 -2859.654457613534
1096 -2860.987542083232
1097 -2861.100383631655
1098 -2862.308255498925
1099 -2862.148410217023
1100 -2863.030432148194
1101 -2862.729156236611
1102 -2863.43075265894
1103 -2863.04236157173
1104 -2863.629844097469
1105 -2862.962369753873
1106 -2863.329755630581
1107 -2862.562068157779
1108 -2862.746531459234
1109 -2861.696140464146
1110 -2861.728646907455
1111 -2860.685120911136
1112 -2860.552951332039
1113 -2859.166391515861
1114 -2859.008230792841
1115 -2857.679914957414
1116 -2857.421328794205
1117 -2856.17929531331
1118 -2856.095012707327
1119 -2854.878793269438
1120 -2854.982816721321
1121 -2853.919538956526
1122 -2854.05790608764
1123 -2853.144686707336
1124 -2853.501887997044
1125 -2852.824846516588
1126 -2853.345973390709
1127 -2852.865794917646
1128 -2853.531712994786
1129 -2853.23015572367
1130 -2854.277619356358
1131 -2854.399872816289
1132 -2855.825521189025
1133 -2856.292085915752
1134 -2858.08254893237
1135 -2858.962833959474
1136 -2860.916844433276
1137 -2862.064412976793
1138 -2864.441464989264
1139 -2865.801551780967
1140 -2868.388050499055
1141 -2869.956347083105
1142 -2872.942710028328
1143 -2874.811265602423
1144 -2877.894935580459
1145 -2879.99758863525
1146 -2883.32605040203
1147 -2885.59875212939
1148 -2889.131328746428
1149 -2891.49145787437
1150 -2894.933797725781
1151 -2897.231044566764
1152 -2900.706113209669
1153 -2902.91961864212
1154 -2906.321209723456
1155 -2908.53904524845
1156 -2911.752546224913
1157 -2913.793823491414
1158 -2916.951529914755
1159 -2918.83299497881
1160 -2921.687998189507
1161 -2923.207646627698
1162 -2925.706430580982
1163 -2926.860778126656
1164 -2929.003189097336
1165 -2929.822922521265
1166 -2931.532096567747
1167 -2932.052979849575
1168 -2933.485175073668
1169 -2933.634824334279
1170 -2934.690441673612
1171 -2934.466836208396
1172 -2935.24415270803
1173 -2934.7754375948
1174 -2935.273007853321
1175 -2934.5253932313
1176 -2934.752318391027
1177 -2933.797331537195
1178 -2933.838597037899
1179 -2932.625826577663
1180 -2932.625391481486
1181 -2931.407911585736
1182 -2931.22767018572
1183 -2929.855483495946
1184 -2929.463753517529
1185 -2928.092001732794
1186 -2927.84638939838
1187 -2926.56599768974
1188 -2926.38810354135
1189 -2925.161935763415
1190 -2925.076494448251
1191 -2923.978672703639
1192 -2924.042193582039
1193 -2923.035037839137
1194 -2923.184468313194
1195 -2922.356467932866
1196 -2922.646093809795
1197 -2921.933334171988
1198 -2922.396841466041
1199 -2921.783052164075
1200 -2922.342143800337
1201 -2921.878613053683
1202 -2922.557626527818
1203 -2922.179418449177
1204 -2922.867116705304
1205 -2922.572612890382
1206 -2923.272873441517
1207 -2922.944656200615
1208 -2923.853593132223
1209 -2923.530087260616
1210 -2924.353292934653
1211 -2923.986204960709
1212 -2924.645366313474
1213 -2924.288878919482
1214 -2924.852938523958
1215 -2924.161704606634
1216 -2924.675872945772
1217 -2923.96170813134
1218 -2924.360744121495
1219 -2923.526298408219
1220 -2923.787899286467
1221 -2922.788992159069
1222 -2922.760410545744
1223 -2921.504007763735
1224 -2921.285219189335
1225 -2919.752227355033
1226 -2919.345159192898
1227 -2917.515761781499
1228 -2916.657207213162
1229 -2914.615722839253
1230 -2913.650656403473
1231 -2911.3812053433
1232 -2910.058385333031
1233 -2907.633302987838
1234 -2906.074681683917
1235 -2903.49865667277
1236 -2901.961622709744
1237 -2899.157063009835
1238 -2897.508575370298
1239 -2894.724010854375
1240 -2892.968177016253
1241 -2889.985087031027
1242 -2888.104348946246
1243 -2885.188272058682
1244 -2883.377407839833
1245 -2880.404270264742
1246 -2878.629897138087
1247 -2875.729851479842
1248 -2873.981368111396
1249 -2871.231792961426
1250 -2869.757150948095
1251 -2867.049443738817
1252 -2865.444830850409
1253 -2862.763029403217
1254 -2861.147583771251
1255 -2858.448490175774
1256 -2856.977074455159
1257 -2854.457600035113
1258 -2853.229944492465
1259 -2851.013301810002
1260 -2849.914150939131
1261 -2847.742780166513
1262 -2846.911612419267
1263 -2845.05618272951
1264 -2844.339346614755
1265 -2842.731764891717
1266 -2842.294512821469
1267 -2840.94197717962
1268 -2840.762653234433
1269 -2839.54582956249
1270 -2839.7048996651
1271 -2838.853120536117
1272 -2839.251272766941
1273 -2838.654637470202
1274 -2839.287887821489
1275 -2838.73773004439
1276 -2839.536420320986
1277 -2839.146044338798
1278 -2840.005032499844
1279 -2840.005828153275
1280 -2841.193448325939
1281 -2841.383742958311
1282 -2842.904912149371
1283 -2843.258387645633
1284 -2844.928874029999
1285 -2845.563586625027
1286 -2847.473744335436
1287 -2848.226515588344
1288 -2850.261335136735
1289 -2851.27701249197
1290 -2853.563036221601
1291 -2854.913787240963
1292 -2857.54037021242
1293 -2859.098287774035
1294 -2861.812045995291
1295 -2863.692882394132
1296 -2866.615974270083
1297 -2868.536111670721
1298 -2871.798056589157
1299 -2874.052359736994
1300 -2877.536950117737
1301 -2879.877286718265
1302 -2883.381201159691
1303 -2885.79579422309
1304 -2889.457081411091
1305 -2891.753188614588
1306 -2895.322841796862
1307 -2897.87618808574
1308 -2901.477330751733
1309 -2903.865178759973
1310 -2907.468849056004
1311 -2909.868073220443
1312 -2913.353182255181
1313 -2915.535498208759
1314 -2918.906005356484
1315 -2921.160537639323
1316 -2924.444915350459
1317 -2926.497577282102
1318 -2929.719001682311
1319 -2931.664200941472
1320 -2934.748855574315
1321 -2936.591997387726
1322 -2939.383863907619
1323 -2941.088514268528
1324 -2943.77174797838
1325 -2945.223789049106
1326 -2947.746949698731
1327 -2948.963851307866
1328 -2951.348523471371
1329 -2952.318847930595
1330 -2954.344589892279
1331 -2955.007804738748
1332 -2956.650590387452
1333 -2957.065857139533
1334 -2958.530546663495
1335 -2958.738604659005
1336 -2959.959929211278
1337 -2959.877847684375
1338 -2960.887948852541
1339 -2960.684779096215
1340 -2961.539692180751
1341 -2961.126400744754
1342 -2961.775492441979
1343 -2961.180045398651
1344 -2961.602874168774
1345 -2960.80560815062
1346 -2960.961658081784
1347 -2960.142898679283
1348 -2960.168504004014
1349 -2958.940337338219
1350 -2958.949378945701
1351 -2957.540077635141
1352 -2957.20701134124
1353 -2955.632540475501
1354 -2955.175810530449
1355 -2953.561190749258
1356 -2952.954483629622
1357 -2951.254946025282
1358 -2950.654028006986
1359 -2948.733027532152
1360 -2948.111880722216
1361 -2946.227513139125
1362 -2945.407334472784
1363 -2943.420242741521
1364 -2942.663145254886
1365 -2940.587027169969
1366 -2939.827966208155
1367 -2937.776605032026
1368 -2936.858106320985
1369 -2934.77250109178
1370 -2933.895725393369
1371 -2931.771957119729
1372 -2930.918755439302
1373 -2928.942316070511
1374 -2928.193215454756
1375 -2926.245184787436
1376 -2925.461933009831
1377 -2923.520425614114
1378 -2922.750390236114
1379 -2921.056194511903
1380 -2920.490743348247
1381 -2918.848376855745
1382 -2918.450417659951
1383 -2916.984277883428
1384 -2916.700111059497
1385 -2915.327932805631
1386 -2915.210451020088
1387 -2913.996091316742
1388 -2913.973075892452
1389 -2912.844007529209
1390 -2912.921315296099
1391 -2911.882234483238
1392 -2912.146260934184
1393 -2911.369214832114
1394 -2911.669507154595
1395 -2910.913155401446
1396 -2911.372853641973
1397 -2910.655993963418
1398 -2911.129578782135
1399 -2910.558157326795
1400 -2911.158392098119
1401 -2910.550958266447
1402 -2911.083709062687
1403 -2910.543697145646
1404 -2911.180121752621
1405 -2910.661048596845
1406 -2911.172548935604
1407 -2910.666002256103
1408 -2911.223552039312
1409 -2910.673034146479
1410 -2911.142720732746
1411 -2910.548495832964
1412 -2911.016421488172
1413 -2910.359987820553
1414 -2910.824975585387
1415 -2910.056475662925
1416 -2910.463865518342
1417 -2909.457281132446
1418 -2909.615092561106
1419 -2908.512401509985
1420 -2908.557007706281
1421 -2907.213783543376
1422 -2906.933067944547
1423 -2905.278307002394
1424 -2904.732813166521
1425 -2902.910975128193
1426 -2902.084836875398
1427 -2899.948329059129
1428 -2898.884670488163
1429 -2896.526557250148
1430 -2895.16394226157
1431 -2892.700412620467
1432 -2891.376418309864
1433 -2888.88833410887
1434 -2887.403159218656
1435 -2884.790966562962
1436 -2883.323716309098
1437 -2880.678805391537
1438 -2879.298499102274
1439 -2876.873065209401
1440 -2875.586238892901
1441 -2873.223608221691
1442 -2872.191726717097
1443 -2870.098653992817
1444 -2869.269429276673
1445 -2867.309192086977
1446 -2866.737578105209
1447 -2865.109073689777
1448 -2864.79524711581
1449 -2863.374779540565
1450 -2863.335082906695
1451 -2862.209156148299
1452 -2862.378387110773
1453 -2861.451519017353
1454 -2861.847053812257
1455 -2861.186809037474
1456 -2861.712237796367
1457 -2861.179004922268
1458 -2861.861915372605
1459 -2861.573816121418
1460 -2862.503931768643
1461 -2862.424466992639
1462 -2863.571622281637
1463 -2863.714379168726
1464 -2865.203609069169
1465 -2865.529902396523
1466 -2867.016432945344
1467 -2867.479706063594
1468 -2869.275807078331
1469 -2870.054271779873
1470 -2872.140200597094
1471 -2873.108126059677
1472 -2875.245688265844
1473 -2876.334104342592
1474 -2878.613266011176
1475 -2879.790018452993
1476 -2882.147357758583
1477 -2883.226183723446
1478 -2885.499864576473
1479 -2886.603137791728
1480 -2888.761908177268
1481 -2889.708890313582
1482 -2891.74702484329
1483 -2892.638108957061
1484 -2894.570654798453
1485 -2895.073140926381
1486 -2896.711086664073
1487 -2897.036368247585
1488 -2898.403681243532
1489 -2898.333555397737
1490 -2899.443181739416
1491 -2899.283416008136
1492 -2900.103572484154
1493 -2899.647057827528
1494 -2900.318594498355
1495 -2899.695806776751
1496 -2900.081588786165
1497 -2899.342287002987
1498 -2899.690446528465
1499 -2898.785615945436
1500 -2899.018334327406
1501 -2898.066181824234
1502 -2898.296003515307
1503 -2897.31093869112
1504 -2897.561753898277
1505 -2896.522401258198
1506 -2896.614083225582
1507 -2895.567881236771
1508 -2895.73862383473
1509 -2894.762731157537
1510 -2895.032410070779
1511 -2894.088400459055
1512 -2894.383808249137
1513 -2893.382472276248
1514 -2893.730586396782
1515 -2892.827737228328
1516 -2893.235773490044
1517 -2892.410257789059
1518 -2892.74001374424
1519 -2891.935210862633
1520 -2892.36063962535
1521 -2891.55053856143
1522 -2891.914443562451
1523 -2891.169100441201
1524 -2891.481689402111
1525 -2890.548904018661
1526 -2890.686791228885
1527 -2889.624199439598
1528 -2889.85814187307
1529 -2888.907545110682
1530 -2889.022580829495
1531 -2887.852246894421
1532 -2887.868204505426
1533 -2886.633678686665
1534 -2886.527560036424
1535 -2885.105727716287
1536 -2885.042997113922
1537 -2883.742866241265
1538 -2883.673842522271
1539 -2882.458862851726
1540 -2882.418691379432
1541 -2881.098116040947
1542 -2881.021364885144
1543 -2879.642654018663
1544 -2879.479482195218
1545 -2878.029435047338
1546 -2877.928198372945
1547 -2876.477779396119
1548 -2876.306047261177
1549 -2874.971692938518
1550 -2874.750886974492
1551 -2873.265012819576
1552 -2873.046228372769
1553 -2871.620720739751
1554 -2871.521470074136
1555 -2870.243275700586
1556 -2870.158977176387
1557 -2868.907965769876
1558 -2868.932250572945
1559 -2867.735600865448
1560 -2867.898734705435
1561 -2866.710257100797
1562 -2866.823592757753
1563 -2865.600306509797
1564 -2865.720912971844
1565 -2864.522767104308
1566 -2864.575620139644
1567 -2863.338533283229
1568 -2863.36539890685
1569 -2862.119895553752
1570 -2862.153136396159
1571 -2860.816012535515
1572 -2860.917214586951
1573 -2859.487080734092
1574 -2859.208080660631
1575 -2857.662640398267
1576 -2857.583482034011
1577 -2855.825826754569
1578 -2855.341879326348
1579 -2853.931476452783
1580 -2853.197476154204
1581 -2851.205701670175
1582 -2850.811241820029
1583 -2848.704849611033
1584 -2847.59474065217
1585 -2845.855561677892
1586 -2844.622849822446
1587 -2842.224263092323
1588 -2841.116639630874
1589 -2838.81196384191
1590 -2837.792783017187
1591 -2835.623620618678
1592 -2834.734464401003
1593 -2832.616965648545
1594 -2831.96282564459
1595 -2829.951471126611
1596 -2829.267958158151
1597 -2827.41892842828
1598 -2827.023669066962
1599 -2825.429205083075
1600 -2825.289151754901
1601 -2823.90536190442
1602 -2823.960578471374
1603 -2822.913961638441
1604 -2823.220602737652
1605 -2822.308289869405
1606 -2822.894792491142
1607 -2822.221304713335
1608 -2822.979744898589
1609 -2822.51907230809
1610 -2823.576141005793
1611 -2823.351479571848
1612 -2824.529979110621
1613 -2824.518426305415
1614 -2825.952190888542
1615 -2826.002008133209
1616 -2827.497767406093
1617 -2827.560325785105
1618 -2829.003873910954
1619 -2829.203486144646
1620 -2830.566938903696
1621 -2830.700963194218
1622 -2832.201302505727
1623 -2832.397328675022
1624 -2833.82540469009
1625 -2833.854762976277
1626 -2835.155288472795
1627 -2835.073342116727
1628 -2836.200402439702
1629 -2835.968521098008
1630 -2836.944955086623
1631 -2836.582682426002
1632 -2837.315160303956
1633 -2836.649036856436
1634 -2837.208866063911
1635 -2836.340336673675
1636 -2836.670147181238
1637 -2835.533866992428
1638 -2835.723431090653
1639 -2834.480906330546
1640 -2834.45884486868
1641 -2833.039226249527
1642 -2832.819232955915
1643 -2831.281589169502
1644 -2831.016262064628
1645 -2829.35274904734
1646 -2828.999185784171
1647 -2827.225813563624
1648 -2826.837472270228
1649 -2825.127326804783
1650 -2824.762971092232
1651 -2822.994681365942
1652 -2822.738255676499
1653 -2821.113679150783
1654 -2821.094987319543
1655 -2819.51426131933
1656 -2819.240403460744
1657 -2817.71864919714
1658 -2817.52207919793
1659 -2815.975920132547
1660 -2815.946105438567
1661 -2814.501812259486
1662 -2814.566635678889
1663 -2813.328984442833
1664 -2813.482329362636
1665 -2812.268893223613
1666 -2812.478648586256
1667 -2811.307073813723
1668 -2811.637935388625
1669 -2810.549455090124
1670 -2810.938061019069
1671 -2809.930655531717
1672 -2810.265031342318
1673 -2809.237886356504
1674 -2809.683164811092
1675 -2808.747368168431
1676 -2809.236707617978
1677 -2808.23531306021
1678 -2808.69653907187
1679 -2807.854041019845
1680 -2808.432535797987
1681 -2807.547659947601
1682 -2808.090213867804
1683 -2807.337069376451
1684 -2807.906594489614
1685 -2807.140121977031
1686 -2807.651902581695
1687 -2806.951504195712
1688 -2807.460102831798
1689 -2806.770787964619
1690 -2807.276139510501
1691 -2806.629002683622
1692 -2807.10166719611
1693 -2806.480659406047
1694 -2807.051817549574
1695 -2806.442998493145
1696 -2806.985048603856
1697 -2806.401938523364
1698 -2806.955774942423
1699 -2806.234968734329
1700 -2806.830004122627
1701 -2806.235447917883
1702 -2806.82447138293
1703 -2806.189065063555
1704 -2806.798194923881
1705 -2806.119306265518
1706 -2806.752723168192
1707 -2806.19263952143
1708 -2806.833580837251
1709 -2806.268175990412
1710 -2806.968163296437
1711 -2806.437974303946
1712 -2807.206946903546
1713 -2806.87164913335
1714 -2807.780916644854
1715 -2807.373958355007
1716 -2808.293307003069
1717 -2808.058258387553
1718 -2808.94989363091
1719 -2808.833608103965
1720 -2809.99647532161
1721 -2809.972085092722
1722 -2810.98799960074
1723 -2811.085094917094
1724 -2812.515235862707
1725 -2812.537560826255
1726 -2813.983428180462
1727 -2814.217543861053
1728 -2815.791589561974
1729 -2816.061941790707
1730 -2817.357324036389
1731 -2817.526555982243
1732 -2819.089960780041
1733 -2819.381680016232
1734 -2820.815741236708
1735 -2821.065048362404
1736 -2822.481196741598
1737 -2822.572181959628
1738 -2823.914905544013
1739 -2823.937722621388
1740 -2825.21531151238
1741 -2825.110501601946
1742 -2826.352441289614
1743 -2826.271986788006
1744 -2827.410251707285
1745 -2827.281242451521
1746 -2828.399336926146
1747 -2828.134483349937
1748 -2829.221751397334
1749 -2828.969896911569
1750 -2830.013704133343
1751 -2829.700536939026
1752 -2830.679484074639
1753 -2830.2611734799
1754 -2831.248704946973
1755 -2830.79325680764
1756 -2831.65888779152
1757 -2831.259314458691
1758 -2832.094625261074
1759 -2831.692630683976
1760 -2832.579339784716
1761 -2832.194507821491
1762 -2833.127634296554
1763 -2832.854829928981
1764 -2833.823771477063
1765 -2833.522246877916
1766 -2834.377748361599
1767 -2834.175707986428
1768 -2835.265133406986
1769 -2835.09714251065
1770 -2836.146437129252
1771 -2835.814464296504
1772 -2836.939601913031
1773 -2836.81816036899
1774 -2837.911961705364
1775 -2837.599297986064
1776 -2838.714497309779
1777 -2838.604667666922
1778 -2839.651389187198
1779 -2839.315419070929
1780 -2840.375826335561
1781 -2840.178657691084
1782 -2841.182821130072
1783 -2840.802633671508
1784 -2841.697453444185
1785 -2841.28052102625
1786 -2842.129873338451
1787 -2841.704371976021
1788 -2842.565436549409
1789 -2842.154917259196
1790 -2842.9447866338
1791 -2842.515661374222
1792 -2843.357448369229
1793 -2842.892820318972
1794 -2843.811455796754
1795 -2843.411807834177
1796 -2844.253964014022
1797 -2843.8058942567
1798 -2844.601462083226
1799 -2844.324439359089
1800 -2845.199474572763
1801 -2844.960522514782
1802 -2845.834824787283
1803 -2845.680162562798
1804 -2846.599665130447
1805 -2846.439001772099
1806 -2847.405996087799
1807 -2847.331240505499
1808 -2848.298310320141
1809 -2848.214471599274
1810 -2849.177558560277
1811 -2849.077828363471
1812 -2849.943889670964
1813 -2849.788321907224
1814 -2850.689527559731
1815 -2850.511701163739
1816 -2851.420461811047
1817 -2851.200428644403
1818 -2852.088785487054
1819 -2851.830578912554
1820 -2852.726500263573
1821 -2852.521105414523
1822 -2853.399441451544
1823 -2853.134217618228
1824 -2853.997951109981
1825 -2853.675502784758
1826 -2854.535196556209
1827 -2854.281287102664
1828 -2855.124801019748
1829 -2854.749498570321
1830 -2855.579433566623
1831 -2855.258626144602
1832 -2856.031650276665
1833 -2855.627243650219
1834 -2856.347239853946
1835 -2855.923046466078
1836 -2856.672679412073
1837 -2856.171129952929
1838 -2856.888928510473
1839 -2856.332168712076
1840 -2856.96290812906
1841 -2856.373415388467
1842 -2856.984076145224
1843 -2856.396091423081
1844 -2857.050252637353
1845 -2856.442897376207
1846 -2857.054434680907
1847 -2856.388225740677
1848 -2856.970360365493
1849 -2856.266855922625
1850 -2856.685957771754
1851 -2856.008605726334
1852 -2856.388245947328
1853 -2855.619710329495
1854 -2856.002819840562
1855 -2855.030472191806
1856 -2855.303656553453
1857 -2854.387091529239
1858 -2854.496181047276
1859 -2853.554605948659
1860 -2853.603546291047
1861 -2852.594359650159
1862 -2852.744181010256
1863 -2851.504981816403
1864 -2851.743184714092
1865 -2850.676423577779
1866 -2850.888298873298
1867 -2849.747038076064
1868 -2849.952652382588
1869 -2848.918412687557
1870 -2849.245400883083
1871 -2848.172043753289
1872 -2848.514030829522
1873 -2847.495575002696
1874 -2847.784022226506
1875 -2847.03087264851
1876 -2847.360847709332
1877 -2846.514535273903
1878 -2846.986327324365
1879 -2846.229918378478
1880 -2846.863100379682
1881 -2846.186901504987
1882 -2846.869467705702
1883 -2846.324096158199
1884 -2847.158462145528
1885 -2846.662675029757
1886 -2847.592011628095
1887 -2847.178516678781
1888 -2848.194896654944
1889 -2847.911885664293
1890 -2849.121505409134
1891 -2848.965437189911
1892 -2850.261789158998
1893 -2850.179605186986
1894 -2851.488535753132
1895 -2851.46663532703
1896 -2852.842660862422
1897 -2852.886370842672
1898 -2854.263649568231
1899 -2854.313583999489
1900 -2855.771408593722
1901 -2855.780634295143
1902 -2857.121742935076
1903 -2857.116586869238
1904 -2858.438334839687
1905 -2858.367602756058
1906 -2859.550688786007
1907 -2859.337562442211
1908 -2860.497219798161
1909 -2860.230972810765
1910 -2861.246036532668
1911 -2860.855088988031
1912 -2861.721852069336
1913 -2861.223123741017
1914 -2862.019240721582
1915 -2861.352637894096
1916 -2861.989884668266
1917 -2861.164847053501
1918 -2861.66344030662
1919 -2860.634497700433
1920 -2860.96635459357
1921 -2859.929700924844
1922 -2860.293358434455
1923 -2859.23095095142
1924 -2859.508282510599
1925 -2858.403060543608
1926 -2858.809764240632
1927 -2857.769322840273
1928 -2858.122637482695
1929 -2857.220286077922
1930 -2857.824603762096
1931 -2857.031577944226
1932 -2857.818321028865
1933 -2857.237729744886
1934 -2858.114122357508
1935 -2857.643106753952
1936 -2858.796419496462
1937 -2858.62152337751
1938 -2859.815591066802
1939 -2859.750368635407
1940 -2861.154043499842
1941 -2861.328545374529
1942 -2862.857355135564
1943 -2863.070075775115
1944 -2864.804062189378
1945 -2865.12941180473
1946 -2866.971226130559
1947 -2867.440766012669
1948 -2869.328533783857
1949 -2869.828008965476
1950 -2871.659677983934
1951 -2872.07191085053
1952 -2873.852629751415
1953 -2874.187721320029
1954 -2875.86893420271
1955 -2876.048123639127
1956 -2877.65361021078
1957 -2877.845679688514
1958 -2879.372160924138
1959 -2879.395238656013
1960 -2880.605219277814
1961 -2880.453184212595
1962 -2881.555761385214
1963 -2881.118953540772
1964 -2881.907086254481
1965 -2881.256748507621
1966 -2881.842706372143
1967 -2881.018627224716
1968 -2881.498329206021
1969 -2880.441440249956
1970 -2880.735474730249
1971 -2879.481198421596
1972 -2879.570531265789
1973 -2878.245767275303
1974 -2878.252445517875
1975 -2876.809270421226
1976 -2876.680432148168
1977 -2875.159261420823
1978 -2874.949289219755
1979 -2873.270842175373
1980 -2872.967956969347
1981 -2871.25385458001
1982 -2870.966012247485
1983 -2869.269704041073
1984 -2868.916841042048
1985 -2867.203344145699
1986 -2866.793327944928
1987 -2864.958948612375
1988 -2864.901329601015
1989 -2863.138700872159
1990 -2862.702300928031
1991 -2860.86326706887
1992 -2860.475808003527
1993 -2858.711075823321
1994 -2858.324381341427
1995 -2856.619145515141
1996 -2856.239275890611
1997 -2854.590115366311
1998 -2854.288186803828
1999 -2852.732013624005
2000 -2852.554982151559
2001 -2851.029852489921
2002 -2850.96586297367
2003 -2849.502861589701
2004 -2849.449456019915
2005 -2848.063626360783
2006 -2848.156607306531
2007 -2846.942746862682
2008 -2847.120424763776
2009 -2845.992358962862
2010 -2846.268261736722
2011 -2845.284568659464
2012 -2845.703752480771
2013 -2844.835520888174
2014 -2845.423070323009
2015 -2844.669338076821
2016 -2845.316576835457
2017 -2844.609736647856
2018 -2845.491948056676
2019 -2844.996396807122
2020 -2845.949208416172
2021 -2845.585313775872
2022 -2846.710344682466
2023 -2846.553121398811
2024 -2847.788415838739
2025 -2847.793813354151
2026 -2849.184231186768
2027 -2849.241999561277
2028 -2850.750871065192
2029 -2850.911980337317
2030 -2852.565629551626
2031 -2852.905119535191
2032 -2854.728991939178
2033 -2855.269450468212
2034 -2857.135430743744
2035 -2857.757595720121
2036 -2859.868327919222
2037 -2860.546313792683
2038 -2862.594758492972
2039 -2863.383095454562
2040 -2865.597115719929
2041 -2866.510574146298
2042 -2868.756575434149
2043 -2869.769783171417
2044 -2871.975036828622
2045 -2872.809879104556
2046 -2875.061820058476
2047 -2875.894551074554
2048 -2878.044482256316
2049 -2878.900930641989
2050 -2880.987755152622
2051 -2881.642273696817
2052 -2883.696536025344
2053 -2884.297688721228
2054 -2886.090165073717
2055 -2886.532860277027
2056 -2888.313723771425
2057 -2888.66147009385
2058 -2890.268889253109
2059 -2890.357485666073
2060 -2891.729305737952
2061 -2891.626490063823
2062 -2892.699722780522
2063 -2892.406918018821
2064 -2893.347091947011
2065 -2892.877422376047
2066 -2893.543298125931
2067 -2892.931232670282
2068 -2893.528753314557
2069 -2892.762209662663
2070 -2893.266613566908
2071 -2892.335026894526
2072 -2892.678318224802
2073 -2891.615064622701
2074 -2891.91930946652
2075 -2890.831676563415
2076 -2891.115594496623
2077 -2889.996314026926
2078 -2890.185131048778
2079 -2889.304313063913
2080 -2889.581809832415
2081 -2888.594122543363
2082 -2888.982657406408
2083 -2888.182790362879
2084 -2888.714217953654
2085 -2888.127248450369
2086 -2888.853984269278
2087 -2888.378851776862
2088 -2889.310714537896
2089 -2888.901184474928
2090 -2889.908580355095
2091 -2889.649761714761
2092 -2890.805979076191
2093 -2890.634458913565
2094 -2891.869927699952
2095 -2891.926202723451
2096 -2893.518461920225
2097 -2893.715975398673
2098 -2895.35702941926
2099 -2895.602874312365
2100 -2897.340194668881
2101 -2897.757716261706
2102 -2899.566555394555
2103 -2900.001817446977
2104 -2901.989049592247
2105 -2902.695720824203
2106 -2904.785806326201
2107 -2905.570199214738
2108 -2907.736933017931
2109 -2908.516702743391
2110 -2910.689415513529
2111 -2911.532856615695
2112 -2913.75971163789
2113 -2914.557973729337
2114 -2916.819034302908
2115 -2917.588527388073
2116 -2919.709047474286
2117 -2920.474800850868
2118 -2922.507891486379
2119 -2923.064931059962
2120 -2924.993029238941
2121 -2925.42823267719
2122 -2927.029431560414
2123 -2927.35218667931
2124 -2928.862090824481
2125 -2928.903271201713
2126 -2930.176424081634
2127 -2929.961881641042
2128 -2931.128972152907
2129 -2930.820724062057
2130 -2931.663736979196
2131 -2931.041186232117
2132 -2931.770079098102
2133 -2931.060853941162
2134 -2931.579051623081
2135 -2930.666413577001
2136 -2930.995661565092
2137 -2929.962602280211
2138 -2930.154538590255
2139 -2928.85938310252
2140 -2928.806166798593
2141 -2927.357826096824
2142 -2927.172119823522
2143 -2925.531735496719
2144 -2925.174493734417
2145 -2923.73607557473
2146 -2923.13315980691
2147 -2921.154041980893
2148 -2920.808013154872
2149 -2918.66001148508
2150 -2917.771969487635
2151 -2916.078706999151
2152 -2915.153256642691
2153 -2912.935178411765
2154 -2912.430591121602
2155 -2910.174631117839
2156 -2909.29037789623
2157 -2907.189801225541
2158 -2906.850655361677
2159 -2904.802827191086
2160 -2904.09996441983
2161 -2902.223089220985
2162 -2901.827278320221
2163 -2900.300847817985
2164 -2900.181572721418
2165 -2898.829920638569
2166 -2898.875821753821
2167 -2897.713361078238
2168 -2898.025903060407
2169 -2897.149985895878
2170 -2897.731913829742
2171 -2897.053295857206
2172 -2897.83109925031
2173 -2897.35248640404
2174 -2898.250228854509
2175 -2898.003974532889
2176 -2899.056705032627
2177 -2898.782534457091
2178 -2899.910661004403
2179 -2899.844553071332
2180 -2900.85137004263
2181 -2900.830632711839
2182 -2901.858342377299
2183 -2901.948548694775
2184 -2903.05731476244
2185 -2903.188975978146
2186 -2904.303344123425
2187 -2904.511169302149
2188 -2905.589019001799
2189 -2905.762163105586
2190 -2906.778373305739
2191 -2906.849382808682
2192 -2908.172175839049
2193 -2907.986642487334
2194 -2909.195408038041
2195 -2909.139767806115
2196 -2910.067560847338
2197 -2909.867037676147
2198 -2910.700293159692
2199 -2910.308708521421
2200 -2911.075422589512
2201 -2910.738831898326
2202 -2911.580332189283
2203 -2911.114611868396
2204 -2911.861898749682
2205 -2911.410795391364
2206 -2912.178279641855
2207 -2911.574021787545
2208 -2912.268507580002
2209 -2911.677521738135
2210 -2912.272380002194
2211 -2911.711824613372
2212 -2912.288213061569
2213 -2911.650004369845
2214 -2912.264921087191
2215 -2911.674377573432
2216 -2912.289728671668
2217 -2911.75980842769
2218 -2912.479229582887
2219 -2911.99992704278
2220 -2912.855542879227
2221 -2912.507757073396
2222 -2913.250680170363
2223 -2913.076491519319
2224 -2914.139699089657
2225 -2913.933211508467
2226 -2915.075071633923
2227 -2914.92792837071
2228 -2916.109356116919
2229 -2916.068979151153
2230 -2917.283530351349
2231 -2917.229720710762
2232 -2918.403404502116
2233 -2918.408158961528
2234 -2919.655020060716
2235 -2919.599147762657
2236 -2920.870484474463
2237 -2920.848536318076
2238 -2922.100622222093
2239 -2922.116912163665
2240 -2923.406232936567
2241 -2923.36777109664
2242 -2924.564874814191
2243 -2924.577621926211
2244 -2925.756310549986
2245 -2925.656926604713
2246 -2926.665181918824
2247 -2926.39384444917
2248 -2927.433008192678
2249 -2927.140516578214
2250 -2928.029850160874
2251 -2927.646134112349
2252 -2928.604545014634
2253 -2928.17854463396
2254 -2929.023111879842
2255 -2928.599895427897
2256 -2929.43592904549
2257 -2928.927080181503
2258 -2929.861838318807
2259 -2929.433552863431
2260 -2930.272844746033
2261 -2929.802532379292
2262 -2930.637665517513
2263 -2930.208480406528
2264 -2931.136019349888
2265 -2930.71238669302
2266 -2931.722903408316
2267 -2931.4062312817
2268 -2932.320264274776
2269 -2931.927003637265
2270 -2932.898717619739
2271 -2932.556941187572
2272 -2933.441739736671
2273 -2933.075969747139
2274 -2933.933685679919
2275 -2933.523638704249
2276 -2934.442793334556
2277 -2933.999203063981
2278 -2934.821117565858
2279 -2934.360522653173
2280 -2935.182759819441
2281 -2934.701433967367
2282 -2935.482097057334
2283 -2935.040114482491
2284 -2935.859960823306
2285 -2935.35673332648
2286 -2936.191311780407
2287 -2935.753449793563
2288 -2936.564068869642
2289 -2936.127988919908
2290 -2936.86059035365
2291 -2936.353155295219
2292 -2937.008715450188
2293 -2936.478569086466
2294 -2937.146238490731
2295 -2936.484992931203
2296 -2937.1778496696
2297 -2936.594503032719
2298 -2937.184547572552
2299 -2936.549566080395
2300 -2937.085239179632
2301 -2936.242358417071
2302 -2936.69474501833
2303 -2935.748481415787
2304 -2936.053784382221
2305 -2935.032287097684
2306 -2935.231678665571
2307 -2934.04199639639
2308 -2934.055398143205
2309 -2932.768710222184
2310 -2932.727342828037
2311 -2931.369446340187
2312 -2931.293108715591
2313 -2929.849924880831
2314 -2929.642246985488
2315 -2928.080628145211
2316 -2927.801447825306
2317 -2926.184219588557
2318 -2925.845068213865
2319 -2924.188402983594
2320 -2923.744328800251
2321 -2922.01559423097
2322 -2921.529256881813
2323 -2919.794366709507
2324 -2919.442944849883
2325 -2917.820891237217
2326 -2917.471545469398
2327 -2915.81752015895
2328 -2915.581810405769
2329 -2914.056378567279
2330 -2913.786167952204
2331 -2912.365628195284
2332 -2912.274970458579
2333 -2910.966948469289
2334 -2911.022122900589
2335 -2909.866509150555
2336 -2910.066219956914
2337 -2908.963044050721
2338 -2909.27979095851
2339 -2908.277851774113
2340 -2908.659820059939
2341 -2907.732442585498
2342 -2908.301187896732
2343 -2907.461261466808
2344 -2908.002081385073
2345 -2907.280239147467
2346 -2907.899226447383
2347 -2907.235845878943
2348 -2907.890598133311
2349 -2907.180303882961
2350 -2907.773302068813
2351 -2907.056115635633
2352 -2907.63194025289
2353 -2906.889470714357
2354 -2907.373813763506
2355 -2906.568913974617
2356 -2907.087464538486
2357 -2906.315946824237
2358 -2906.681593098996
2359 -2905.755689991694
2360 -2906.074090661267
2361 -2905.073722578003
2362 -2905.405303596701
2363 -2904.400455745934
2364 -2904.74408102185
2365 -2903.927863722745
2366 -2904.328533714622
2367 -2903.39684422131
2368 -2903.820786377798
2369 -2902.940697771453
2370 -2903.298668334394
2371 -2902.533608030256
2372 -2903.011671439509
2373 -2902.290621301411
2374 -2902.659347406033
2375 -2901.855105459925
2376 -2902.352129737559
2377 -2901.516148065642
2378 -2902.006418683362
2379 -2901.237422727274
2380 -2901.774749407439
2381 -2901.012863492585
2382 -2901.282986778662
2383 -2900.484236920473
2384 -2900.825708430234
2385 -2900.009765969791
2386 -2900.488299401504
2387 -2899.827491282782
2388 -2900.375939160534
2389 -2899.674419064268
2390 -2900.30761700248
2391 -2899.815200863013
2392 -2900.613479730971
2393 -2900.391892693961
2394 -2901.468079214292
2395 -2901.327054697813
2396 -2902.498209600085
2397 -2902.514517095856
2398 -2903.827748607398
2399 -2903.951663887634
2400 -2905.360654399396
2401 -2905.611265165511
2402 -2907.155313750157
2403 -2907.465614825745
2404 -2908.99911532737
2405 -2909.307961549946
2406 -2910.805931765634
2407 -2911.150827541594
2408 -2912.784768717914
2409 -2913.085320818768
2410 -2914.51780117158
2411 -2914.679849381059
2412 -2916.011863571033
2413 -2916.166721843038
2414 -2917.455534300263
2415 -2917.577417729568
2416 -2918.818983210406
2417 -2918.755231769303
2418 -2919.980839725327
2419 -2919.849872350871
2420 -2920.942374285358
2421 -2920.742051400605
2422 -2921.825592096227
2423 -2921.50865946454
2424 -2922.505422105338
2425 -2922.172037952581
2426 -2923.026332434495
2427 -2922.593831839412
2428 -2923.41581207842
2429 -2923.14847896934
2430 -2923.895896618603
2431 -2923.405306106776
2432 -2924.174743235428
2433 -2923.730449437513
2434 -2924.449158004947
2435 -2923.88604582759
2436 -2924.537011442166
2437 -2923.901704713447
2438 -2924.402717063327
2439 -2923.70746445087
2440 -2924.254485167191
2441 -2923.582756246848
2442 -2924.23950472892
2443 -2923.559651960371
2444 -2924.136002097048
2445 -2923.540988653608
2446 -2924.17372974604
2447 -2923.551974216552
2448 -2924.283970032181
2449 -2923.650989902212
2450 -2924.334624163838
2451 -2923.800359875761
2452 -2924.55938211564
2453 -2924.007605555466
2454 -2924.637255271559
2455 -2924.074256986562
2456 -2924.858208319718
2457 -2924.43081498097
2458 -2925.121970499912
2459 -2924.52082456501
2460 -2925.165398630934
2461 -2924.591425337648
2462 -2925.178041634841
2463 -2924.367899237004
2464 -2924.831271141896
2465 -2924.152255885627
2466 -2924.471919993405
2467 -2923.53654054405
2468 -2923.671429986942
2469 -2922.600586114997
2470 -2922.614456990938
2471 -2921.37840665651
2472 -2921.162456120644
2473 -2919.736986721281
2474 -2919.445753819448
2475 -2917.854689473408
2476 -2917.49254855866
2477 -2915.88248373939
2478 -2915.420093435379
2479 -2913.697480768079
2480 -2913.264309063954
2481 -2911.613428180926
2482 -2910.991883448904
2483 -2909.376532183657
2484 -2908.915563565611
2485 -2907.335114649802
2486 -2906.950344470394
2487 -2905.46068665427
2488 -2905.05358286676
2489 -2903.633863176836
2490 -2903.457925791726
2491 -2902.009014894124
2492 -2901.887362395474
2493 -2900.585823037524
2494 -2900.473233639646
2495 -2899.3568425773
2496 -2899.491670496381
2497 -2898.549944582337
2498 -2898.846705236716
2499 -2898.062249967435
2500 -2898.53824906099
2501 -2897.773170443503
2502 -2898.320376566852
2503 -2897.826363720146
2504 -2898.619040383813
2505 -2898.187149953257
2506 -2899.064307535152
2507 -2898.838615838355
2508 -2899.732435593311
2509 -2899.602527872725
2510 -2900.505390299245
2511 -2900.288440493623
2512 -2901.06808433768
2513 -2900.718633428603
2514 -2901.679796740212
2515 -2901.294806582659
2516 -2902.247383176657
2517 -2901.992478595014
2518 -2903.056843656933
2519 -2902.867103297645
2520 -2903.807342443357
2521 -2903.425167227068
2522 -2904.33292402852
2523 -2903.981634947273
2524 -2904.876159912767
2525 -2904.498160060142
2526 -2905.193278411869
2527 -2904.773353992374
2528 -2905.517264565011
2529 -2905.146832071414
2530 -2905.856014184082
2531 -2905.48889333946
2532 -2906.164676270744
2533 -2905.556014871348
2534 -2906.223645923233
2535 -2905.63069761089
2536 -2906.19964331552
2537 -2905.455173227509
2538 -2905.570922367539
2539 -2904.527902969131
2540 -2904.52870699809
2541 -2903.172030592614
2542 -2902.983591801324
2543 -2901.458018833316
2544 -2900.987993965234
2545 -2899.25254334662
2546 -2898.477378148001
2547 -2896.551435575039
2548 -2895.528664124907
2549 -2893.24191658738
2550 -2891.987893430963
2551 -2889.639999106842
2552 -2888.330926346162
2553 -2885.990117244017
2554 -2884.75666655587
2555 -2882.461523310123
2556 -2881.340607891356
2557 -2879.220944975832
2558 -2878.237898943134
2559 -2876.180784384676
2560 -2875.240900656545
2561 -2873.38530073499
2562 -2872.489780503191
2563 -2870.619558692688
2564 -2869.99541040615
2565 -2868.356553475322
2566 -2867.947000200332
2567 -2866.550748070502
2568 -2866.283033989592
2569 -2865.093248156676
2570 -2865.05787867156
2571 -2863.93067942519
2572 -2864.083103633036
2573 -2863.218938382814
2574 -2863.47081252016
2575 -2862.650343894016
2576 -2862.957611988561
2577 -2862.28307921646
2578 -2862.815175642902
2579 -2862.008919628444
2580 -2862.357403748809
2581 -2861.591138072155
2582 -2861.995853368682
2583 -2861.422604272601
2584 -2861.967315869582
2585 -2861.235468256926
2586 -2861.549674124887
2587 -2860.775794623223
2588 -2861.002228172784
2589 -2859.958338333965
2590 -2860.140021134487
2591 -2858.838322769071
2592 -2858.624623916041
2593 -2857.167232099521
2594 -2856.898533679907
2595 -2855.23398710266
2596 -2854.547335255332
2597 -2852.551075290897
2598 -2851.649294385889
2599 -2849.570320002821
2600 -2848.548108234571
2601 -2846.238637380824
2602 -2845.092737284211
2603 -2842.804267051384
2604 -2841.484813754392
2605 -2839.128565031709
2606 -2837.949006589697
2607 -2835.407080185731
2608 -2834.247949178086
2609 -2831.987935957422
2610 -2830.701443205159
2611 -2828.317640950226
2612 -2827.220413412614
2613 -2825.163313045666
2614 -2824.216869461656
2615 -2822.18442423735
2616 -2821.453358498177
2617 -2819.702030260073
2618 -2819.280027527841
2619 -2817.90287767186
2620 -2817.815132890378
2621 -2816.775503416723
2622 -2817.042701542592
2623 -2816.362298259019
2624 -2816.800007852018
2625 -2816.463133637918
2626 -2817.38265511367
2627 -2817.280079352743
2628 -2818.534042787376
2629 -2818.745415701198
2630 -2820.224124478679
2631 -2820.703454563031
2632 -2822.452214107228
2633 -2823.320337282682
2634 -2825.277720366256
2635 -2826.237767938359
2636 -2828.533147175056
2637 -2829.746390794478
2638 -2832.159793003154
2639 -2833.616789658111
2640 -2836.325479120555
2641 -2837.302377326563
2642 -2840.283483718912
2643 -2842.145857349483
2644 -2845.243643754498
2645 -2847.190950033417
2646 -2850.485431847052
2647 -2852.635370567952
2648 -2855.849548509546
2649 -2857.913389556903
2650 -2861.188804494553
2651 -2863.31472997547
2652 -2866.782265156704
2653 -2868.949834263266
2654 -2872.399501093506
2655 -2874.568749584616
2656 -2877.916832770364
2657 -2880.162621988579
2658 -2883.413940927017
2659 -2885.617725340752
2660 -2888.813003189964
2661 -2891.009057383058
2662 -2894.219879083642
2663 -2896.240861832103
2664 -2899.350140573443
2665 -2901.29765799927
2666 -2904.316369645282
2667 -2906.234165097189
2668 -2909.175814893745
2669 -2910.906571579962
2670 -2913.650122890165
2671 -2915.215479138907
2672 -2917.828616836637
2673 -2919.164969494796
2674 -2921.625650100862
2675 -2922.816497727288
2676 -2925.122862479086
2677 -2926.24837987667
2678 -2928.422982660476
2679 -2929.580245662379
2680 -2931.709283283325
2681 -2932.811081949027
2682 -2934.880983949967
2683 -2935.757819711187
2684 -2937.740676976115
2685 -2938.561252611367
2686 -2940.581863269429
2687 -2941.53535191103
2688 -2943.468372495136
2689 -2944.339123795891
2690 -2946.354123880644
2691 -2947.095670105286
2692 -2949.021758072892
2693 -2949.902844586398
2694 -2952.001011462355
2695 -2952.839388694491
2696 -2954.8500094149
2697 -2955.677280519393
2698 -2957.736131186416
2699 -2958.550049982653
2700 -2960.508604059302
2701 -2960.856824581704
2702 -2962.669511031728
2703 -2963.368620862298
2704 -2965.166394213707
2705 -2965.476783101785
2706 -2967.22069881863
2707 -2967.82839833771
2708 -2969.161386137313
2709 -2969.829870000206
2710 -2971.461185805084
2711 -2971.711987425117
2712 -2973.329120680105
2713 -2973.943851375947
2714 -2975.121496067541
2715 -2975.603025059272
2716 -2977.034617929753
2717 -2977.061192079161
2718 -2978.410766885265
2719 -2978.437962443053
2720 -2979.336784788356
2721 -2979.240044391731
2722 -2980.085782779137
2723 -2979.731231923231
2724 -2980.348775479601
2725 -2979.745881717985
2726 -2980.084236920297
2727 -2979.216640710925
2728 -2979.363602823182
2729 -2978.25141968727
2730 -2978.203466920208
2731 -2976.859446822943
2732 -2976.65253163322
2733 -2975.168334561434
2734 -2974.810560123394
2735 -2973.119983964693
2736 -2972.787267279696
2737 -2971.114043957863
2738 -2970.569420855073
2739 -2968.685654607112
2740 -2967.996698898536
2741 -2966.039988101064
2742 -2965.384101562218
2743 -2963.301865657992
2744 -2962.53221125098
2745 -2960.439694211635
2746 -2959.490153550927
2747 -2957.386707538091
2748 -2956.489139784663
2749 -2954.287135356637
2750 -2953.189090339245
2751 -2950.969179690571
2752 -2950.011955248639
2753 -2947.75491039187
2754 -2946.689827327293
2755 -2944.530155264607
2756 -2943.750588159923
2757 -2941.782907736859
2758 -2941.049888219687
2759 -2939.020942743423
2760 -2938.378375860621
2761 -2936.544052665089
2762 -2936.036593343035
2763 -2934.61304949063
2764 -2934.274057362921
2765 -2932.912152985248
2766 -2932.875311036757
2767 -2931.826311585437
2768 -2932.219521252239
2769 -2931.342518674794
2770 -2931.814296309381
2771 -2931.362714947363
2772 -2932.059223499019
2773 -2931.721263708791
2774 -2932.690231259048
2775 -2932.552184142448
2776 -2933.784392947542
2777 -2933.733690425024
2778 -2935.011902351187
2779 -2935.175266613683
2780 -2936.678742504581
2781 -2937.027926798172
2782 -2938.770754696985
2783 -2939.296721358831
2784 -2941.212920417109
2785 -2942.020953592055
2786 -2944.123770356789
2787 -2945.065992768406
2788 -2947.456442919281
2789 -2948.470875757431
2790 -2950.739220470882
2791 -2951.886970664591
2792 -2954.303416048998
2793 -2955.514274566976
2794 -2958.082840192705
2795 -2959.442954970903
2796 -2962.002013880384
2797 -2963.404496123556
2798 -2966.07682960668
2799 -2967.515697265781
2800 -2970.080068892419
2801 -2971.49371626312
2802 -2974.03106169928
2803 -2975.314191783195
2804 -2977.716625895992
2805 -2978.965877206033
2806 -2981.058685239403
2807 -2981.902100558056
2808 -2983.867068323958
2809 -2984.510396093601
2810 -2986.247737592883
2811 -2986.683929826585
2812 -2988.022245977076
2813 -2988.118275354502
2814 -2989.395911068833
2815 -2989.405601282077
2816 -2990.314529563643
2817 -2990.084864439334
2818 -2991.000216890607
2819 -2990.617250841218
2820 -2991.268995018049
2821 -2990.684222918812
2822 -2991.103772424571
2823 -2990.056086424901
2824 -2990.158976500328
2825 -2989.002603547412
2826 -2989.075475308357
2827 -2987.79442151702
2828 -2987.675357388007
2829 -2986.313527668147
2830 -2985.838749002746
2831 -2984.074723345025
2832 -2983.232994203153
2833 -2981.370860344485
2834 -2980.552975057422
2835 -2978.42727254638
2836 -2977.404176471504
2837 -2975.278360140048
2838 -2974.146139535172
2839 -2971.816759973979
2840 -2970.550790042893
2841 -2968.063200317825
2842 -2966.591544175852
2843 -2963.896663523088
2844 -2962.361169141818
2845 -2959.50171352589
2846 -2957.762739993024
2847 -2954.791468631276
2848 -2953.076967356936
2849 -2950.146499674399
2850 -2948.415027209817
2851 -2945.308852348121
2852 -2943.464987912498
2853 -2940.556198473557
2854 -2938.897457230021
2855 -2936.014137925449
2856 -2934.37722337353
2857 -2931.587292505736
2858 -2929.980714652272
2859 -2927.482196591189
2860 -2926.301721765009
2861 -2924.037614794762
2862 -2923.187394083531
2863 -2921.331926628197
2864 -2920.820525662067
2865 -2919.218990658934
2866 -2919.072739808645
2867 -2917.956324007784
2868 -2918.191518267627
2869 -2917.58122768164
2870 -2918.192368932874
2871 -2917.969984451427
2872 -2919.043571763501
2873 -2919.048091899597
2874 -2920.460284976913
2875 -2920.865635688715
2876 -2922.69824207299
2877 -2923.513927859797
2878 -2925.65683858904
2879 -2926.259548787035
2880 -2928.70761155731
2881 -2930.378981092331
2882 -2932.499652889064
2883 -2934.301679517071
2884 -2936.565224735125
2885 -2938.875385776837
2886 -2941.325947401742
2887 -2943.666973694764
2888 -2946.160363840484
2889 -2948.705619899607
2890 -2952.57863041529
2891 -2954.111172370943
2892 -2957.883704204469
2893 -2960.599444398693
2894 -2964.364563449345
2895 -2966.874142280418
2896 -2970.559917371128
2897 -2972.88160933679
2898 -2976.228665890828
2899 -2978.203546974194
2900 -2981.245348820462
2901 -2982.93936524912
2902 -2985.617264978646
2903 -2986.968813042034
2904 -2989.324725474938
2905 -2990.246713300016
2906 -2992.180524990642
2907 -2992.860648203315
2908 -2994.580741733795
2909 -2994.833592432206
2910 -2996.158124876557
2911 -2996.073653416052
2912 -2997.092459110646
2913 -2996.91448714096
2914 -2997.780141831585
2915 -2997.326574384823
2916 -2998.030642141831
2917 -2997.464728331872
2918 -2998.024372367191
2919 -2997.239946833226
2920 -2997.710970339386
2921 -2996.994481716264
2922 -2997.360062738755
2923 -2996.512103960169
2924 -2996.921208233654
2925 -2996.108477409053
2926 -2996.476648269438
2927 -2995.825508470204
2928 -2996.331769797162
2929 -2995.593060675717
2930 -2996.160867151835
2931 -2995.469761972398
2932 -2996.102563217242
2933 -2995.602363137767
2934 -2996.321999908921
2935 -2995.89235550776
2936 -2996.650221650318
2937 -2996.233690243627
2938 -2997.097337666234
2939 -2996.716464413543
2940 -2997.574068839397
2941 -2997.060173730891
2942 -2997.715287385057
2943 -2997.019374907094
2944 -2997.605241351292
2945 -2996.652465717978
2946 -2996.999364791655
2947 -2995.878682969883
2948 -2995.962077191905
2949 -2994.68973786313
2950 -2994.60899058016
2951 -2993.134274955352
2952 -2992.877254281711
2953 -2991.345656044167
2954 -2991.098598172455
2955 -2989.472496450822
2956 -2989.123491932757
2957 -2987.244913349205
2958 -2986.695012276287
2959 -2984.884316395737
2960 -2984.423542484915
2961 -2982.583037150036
2962 -2981.968613777367
2963 -2979.993364495982
2964 -2979.466716306143
2965 -2977.618587341697
2966 -2977.18869142649
2967 -2975.519995787432
2968 -2975.287060323252
2969 -2973.78153279703
2970 -2973.854378043359
2971 -2972.710131154266
2972 -2972.82192807502
2973 -2971.665966780424
2974 -2971.923116840715
2975 -2971.02059765682
2976 -2971.498395847458
2977 -2970.773992286378
2978 -2971.471223429996
2979 -2970.974954594843
2980 -2971.935247655197
2981 -2971.546948693939
2982 -2972.676964311752
2983 -2972.744182994042
2984 -2974.136366501733
2985 -2974.162701432519
2986 -2975.748966192238
2987 -2976.043276638749
2988 -2977.632102097748
2989 -2977.911698057199
2990 -2979.601385347493
2991 -2979.953311946975
2992 -2981.581993933275
2993 -2981.818554617619
2994 -2983.426344050315
2995 -2983.640861754119
2996 -2985.030655020996
2997 -2985.025739278226
2998 -2986.200348328385
2999 -2986.048681118231
3000 -2987.149366151408
3001 -2986.676734359771
3002 -2987.565339175529
3003 -2986.866305282062
3004 -2987.349461975377
3005 -2986.371882931046
3006 -2986.580901642829
3007 -2985.428747088119
3008 -2985.581809522532
3009 -2984.433426595248
3010 -2984.356264018353
3011 -2982.717908354633
3012 -2982.429302441295
3013 -2980.694796065206
