"mz-rfile"
"Iteration" "mz"
("Iteration" "mz")
1 -11774.97728403363
2 -11272.69637687707
3 -9860.778300505264
4 -8549.470061946571
5 -7220.986610572707
6 -6048.058403843227
7 -4690.382625885715
8 -3223.931163619821
9 -1751.764182379668
10 -579.7096375365149
11 221.8729604842825
12 806.2642357050918
13 1143.742174074033
14 1327.439298362826
15 1372.311728868166
16 1324.318505679954
17 1203.631545279803
18 1032.662424168491
19 788.8187117442287
20 523.6107186327988
21 210.8194478669446
22 -83.75187915331109
23 -351.1126272182304
24 -552.5264181078795
25 -727.2396042247522
26 -872.8090027828767
27 -973.3705828215897
28 -1052.073818838292
29 -1100.626497138139
30 -1136.934704600947
31 -1161.647162922965
32 -1180.336352555988
33 -1187.725570066959
34 -1185.892608867851
35 -1176.761068081728
36 -1162.421996014779
37 -1144.712915405456
38 -1124.357933225285
39 -1107.64240896538
40 -1090.818617983388
41 -1074.293039484938
42 -1062.787544831091
43 -1052.212022775419
44 -1042.795214107644
45 -1034.913905913761
46 -1028.849152362278
47 -1022.785496749534
48 -1020.123928813048
49 -1019.040696976661
50 -1019.541955238363
51 -1021.455839333457
52 -1024.668292201027
53 -1028.825474098627
54 -1034.003117820127
55 -1039.754535598358
56 -1044.17004163442
57 -1051.163129262882
58 -1056.139226521642
59 -1061.362259973037
60 -1066.873372675766
61 -1074.718664539294
62 -1079.712336053477
63 -1086.64010233544
64 -1091.026263549995
65 -1095.012247827541
66 -1098.722956561782
67 -1102.011978758989
68 -1104.923725917845
69 -1107.291626913893
70 -1109.214495242793
71 -1110.581006858439
72 -1111.559334466759
73 -1112.022682260625
74 -1112.059865974138
75 -1111.594975430715
76 -1110.724198960907
77 -1109.395674221115
78 -1107.711304179609
79 -1105.70329142865
80 -1103.392191232522
81 -1100.785537707145
82 -1097.949564610931
83 -1094.917021189752
84 -1091.70184635478
85 -1088.420674507963
86 -1085.061335054553
87 -1081.679218655272
88 -1078.216722210296
89 -1074.787368291592
90 -1071.343831335239
91 -1067.979573715376
92 -1064.660068059609
93 -1061.465703503009
94 -1058.283083251606
95 -1055.257085167282
96 -1052.30923852485
97 -1049.493065479181
98 -1046.758341972599
99 -1044.168551692965
100 -1041.609748030828
101 -1039.212585722994
102 -1036.860465930873
103 -1034.621023456672
104 -1032.394725075504
105 -1030.302767110763
106 -1028.246394897225
107 -1026.227984295115
108 -1024.227294923645
109 -1022.283572306076
110 -1020.359120260104
111 -1018.45105638878
112 -1016.506648100534
113 -1014.599245448232
114 -1012.669702120784
115 -1010.718630383827
116 -1008.729844031106
117 -1006.75872634328
118 -1004.748366492688
119 -1002.744199039347
120 -1000.695610147726
121 -998.636868775677
122 -996.5454539187486
123 -994.4561074161825
124 -992.2740185720152
125 -990.1335869323946
126 -987.9249163612751
127 -985.7571044254815
128 -983.4842882483048
129 -981.2774432975153
130 -979.0143672137343
131 -976.8322435817493
132 -974.5855005041225
133 -972.3951171388373
134 -970.146458460173
135 -967.9850124875976
136 -965.7480427265482
137 -963.5795648892258
138 -961.3629761008189
139 -959.2404708989517
140 -957.0614232771148
141 -955.0083037167254
142 -952.8715020049908
143 -950.8261169525475
144 -948.714060344196
145 -946.6961423232343
146 -944.6282939221129
147 -942.6541607271104
148 -940.6041883103462
149 -938.6868462655104
150 -936.6825822078138
151 -934.7877132181654
152 -932.8286818242057
153 -930.9864511982287
154 -929.0879037749506
155 -927.27744464531
156 -925.3893924112784
157 -923.6331598354642
158 -921.8067944225603
159 -920.1131747792836
160 -918.3572574507408
161 -916.7403738459866
162 -915.0364109645626
163 -913.4510142985357
164 -911.8138354386123
165 -910.3228631621822
166 -908.7631265583929
167 -907.3360155106286
168 -905.8536977264889
169 -904.4982808359954
170 -903.1195034592248
171 -901.8815603149214
172 -900.6146106508144
173 -899.4917352316691
174 -898.359902014968
175 -897.3758834777146
176 -896.3850915589057
177 -895.5616584016608
178 -894.7096187937966
179 -894.0454276636408
180 -893.352981418145
181 -892.8204526456192
182 -892.2971964941586
183 -891.9445273061713
184 -891.5886428806317
185 -891.410739031115
186 -891.2290150897317
187 -891.2007618147247
188 -891.1792539352209
189 -891.3326373586566
190 -891.486023373525
191 -891.8117819998923
192 -892.139437725343
193 -892.6319006463469
194 -893.1213690677574
195 -893.7828066334906
196 -894.4282140301434
197 -895.2431018020225
198 -896.0518809076229
199 -897.0142984411203
200 -897.9720231911657
201 -899.0728175680323
202 -900.1554331147638
203 -901.3884108309503
204 -902.6062546211028
205 -903.9498527376327
206 -905.269530560601
207 -906.7508473475311
208 -908.1760704881635
209 -909.7255258718653
210 -911.2395932115191
211 -912.8583232210685
212 -914.4484134581994
213 -916.1490659866946
214 -917.781592259358
215 -919.513179562804
216 -921.191149835778
217 -922.960045835728
218 -925.5051645516368
219 -927.1986695534345
220 -928.8240373373908
221 -931.29548031124
222 -932.834785542356
223 -935.1986884444772
224 -936.6723321674373
225 -938.2005979565921
226 -940.3700203205391
227 -941.8222615820633
228 -943.8719838605036
229 -945.2278255916013
230 -946.4942421956058
231 -948.4784811162976
232 -949.6792796873528
233 -951.5390222932757
234 -952.6618815094599
235 -953.8581350917431
236 -955.5341033317396
237 -956.6624078601955
238 -957.712406654168
239 -959.3525203241804
240 -960.3267138829701
241 -961.3754581823453
242 -962.348021071861
243 -963.3937720344272
244 -964.3715439028333
245 -965.4119752714644
246 -966.3791464011537
247 -967.4244533361102
248 -968.3984278240467
249 -969.4296865337893
250 -970.3939278159011
251 -971.4266410235318
252 -972.3891127648831
253 -973.3979982321183
254 -974.3426617553954
255 -975.3501688829581
256 -976.2662489762907
257 -977.2367235055591
258 -978.1241726686866
259 -979.0721542661462
260 -979.9212425439116
261 -980.8020891177574
262 -981.5994537084556
263 -982.454069578083
264 -983.2180074611089
265 -984.0135203654324
266 -984.7144519011716
267 -985.4787613764111
268 -986.1433388831693
269 -986.8660027810657
270 -987.4859635752202
271 -988.1839283984352
272 -988.7811746157228
273 -989.4325993782244
274 -989.9895510218051
275 -990.6319292144752
276 -991.1714402710529
277 -991.7883061547137
278 -992.3026329735574
279 -992.9062611684944
280 -993.4125439842247
281 -994.0073460514824
282 -994.5034733082682
283 -995.0841398021603
284 -995.584828188532
285 -996.1534771868888
286 -996.6442576652084
287 -997.2148780202672
288 -997.7077544287052
289 -998.2678205292683
290 -998.7626291883945
291 -999.3215018570766
292 -999.824517365157
293 -1000.377247912586
294 -1000.867181020834
295 -1001.424205347772
296 -1001.922364007574
297 -1002.478267279575
298 -1002.967491586576
299 -1003.526835842193
300 -1004.023379724215
301 -1004.58549794691
302 -1005.084154228429
303 -1005.643383417572
304 -1006.147222487142
305 -1006.706246496816
306 -1007.202844027322
307 -1007.758820180284
308 -1008.269500463701
309 -1008.811987866369
310 -1009.309848347323
311 -1009.860613033012
312 -1010.359075723173
313 -1010.896735722949
314 -1011.391927353365
315 -1011.931385112594
316 -1012.423067096971
317 -1012.956398272892
318 -1013.442891614617
319 -1013.97679185202
320 -1014.476133551496
321 -1015.006447060414
322 -1015.491885862138
323 -1016.029281865022
324 -1016.509889761893
325 -1017.045264045906
326 -1017.524016394236
327 -1018.047698339143
328 -1018.53494833475
329 -1019.062452160065
330 -1019.535031772576
331 -1020.062395921411
332 -1020.544470242826
333 -1021.072374233954
334 -1021.543759704679
335 -1022.065599670717
336 -1022.537151748465
337 -1023.059163885178
338 -1023.520852258156
339 -1024.036763080705
340 -1024.500859757187
341 -1025.009128715845
342 -1025.462045891737
343 -1025.98230822895
344 -1026.44424030152
345 -1026.949740936462
346 -1027.39969406246
347 -1027.903796913198
348 -1028.356381064581
349 -1028.856575593683
350 -1029.302799360872
351 -1029.79441776035
352 -1030.246773331797
353 -1030.731390412368
354 -1031.17678703706
355 -1031.662495337269
356 -1032.111469062237
357 -1032.591636646216
358 -1033.030673647044
359 -1033.506352140254
360 -1033.951677470658
361 -1034.417549182878
362 -1034.855760642545
363 -1035.315769768627
364 -1035.752249854286
365 -1036.207004494776
366 -1036.630723234174
367 -1037.079875064316
368 -1037.508991854397
369 -1037.950489359227
370 -1038.369441981585
371 -1038.820155354144
372 -1039.233578570616
373 -1039.668056692313
374 -1040.077356102613
375 -1040.520004827373
376 -1040.919523518623
377 -1041.356490709974
378 -1041.752360021417
379 -1042.177144765329
380 -1042.576363209282
381 -1043.006297037909
382 -1043.383794381687
383 -1043.813488630579
384 -1044.199103791022
385 -1044.615892451053
386 -1044.99485687166
387 -1045.41929208966
388 -1045.789732904877
389 -1046.206886658914
390 -1046.578588012747
391 -1046.991460775869
392 -1047.364469557798
393 -1047.772311659246
394 -1048.138154032731
395 -1048.540660348327
396 -1048.901516652967
397 -1049.299830588402
398 -1049.656797941298
399 -1050.056311688356
400 -1050.414323654793
401 -1050.802230555323
402 -1051.154423730189
403 -1051.535608468883
404 -1051.887906749162
405 -1052.256040919012
406 -1052.596099068913
407 -1052.970009075487
408 -1053.311201791412
409 -1053.675963393303
410 -1054.010529490194
411 -1054.378268354103
412 -1054.711363332426
413 -1055.065253561657
414 -1055.392179533582
415 -1055.748358204039
416 -1056.076264330001
417 -1056.426791744565
418 -1056.744435550895
419 -1057.095064236819
420 -1057.407321881141
421 -1057.753321098917
422 -1058.063590105022
423 -1058.407077700474
424 -1058.71313938187
425 -1059.045339946915
426 -1059.337972428673
427 -1059.685261460038
428 -1059.978196099443
429 -1060.31122885354
430 -1060.598142566222
431 -1060.922490931064
432 -1061.202097429583
433 -1061.53016025317
434 -1061.808928079279
435 -1062.129367051512
436 -1062.400138316149
437 -1062.711438368542
438 -1062.979684439704
439 -1063.292556655984
440 -1063.558563571713
441 -1063.862626565481
442 -1064.124795376368
443 -1064.425490106522
444 -1064.685174872177
445 -1064.981928725241
446 -1065.240723839888
447 -1065.534684680465
448 -1065.785731436161
449 -1066.068915486026
450 -1066.32659268025
451 -1066.616954787944
452 -1066.866203732395
453 -1067.146382533096
454 -1067.389363028624
455 -1067.673275721673
456 -1067.909505403347
457 -1068.185954464468
458 -1068.419431832612
459 -1068.696048845379
460 -1068.923070498128
461 -1069.193613577267
462 -1069.413961295447
463 -1069.690823480134
464 -1069.90944982794
465 -1070.175428897428
466 -1070.391710803807
467 -1070.651867742993
468 -1070.862348761517
469 -1071.130779936483
470 -1071.337285911599
471 -1071.604653035847
472 -1071.809628602742
473 -1072.051329362798
474 -1072.254462532477
475 -1072.517699816828
476 -1072.714182181111
477 -1072.964363614613
478 -1073.162215635237
479 -1073.408610045333
480 -1073.594262183088
481 -1073.840748528295
482 -1074.0313223384
483 -1074.272568961133
484 -1074.463674731851
485 -1074.691005862634
486 -1074.873812960926
487 -1075.107947379115
488 -1075.287469461608
489 -1075.517577093259
490 -1075.686208710804
491 -1075.916937976421
492 -1076.085792287722
493 -1076.299009009964
494 -1076.468503970438
495 -1076.680770948296
496 -1076.844898090113
497 -1077.055510259735
498 -1077.221523945923
499 -1077.431200152976
500 -1077.588363754131
501 -1077.786992847039
502 -1077.939237393568
503 -1078.147014407031
504 -1078.300649879267
505 -1078.494941095674
506 -1078.640217820858
507 -1078.848539684637
508 -1078.988703734378
509 -1079.188973476929
510 -1079.328294633737
511 -1079.524724872104
512 -1079.655262323829
513 -1079.847202263079
514 -1079.973608096305
515 -1080.171640202155
516 -1080.299399746143
517 -1080.481909704297
518 -1080.601364308021
519 -1080.79322476204
520 -1080.914053411783
521 -1081.097181911897
522 -1081.209437836646
523 -1081.386653390451
524 -1081.500841052041
525 -1081.680545622602
526 -1081.788396900635
527 -1081.966602329499
528 -1082.072038340554
529 -1082.244023495635
530 -1082.345221090715
531 -1082.513605277461
532 -1082.621737157604
533 -1082.782297041804
534 -1082.881409055418
535 -1083.046162127997
536 -1083.149800929833
537 -1083.302123293086
538 -1083.407204895013
539 -1083.56305982023
540 -1083.662049936348
541 -1083.806902387356
542 -1083.903664010506
543 -1084.056666166839
544 -1084.14610801453
545 -1084.29894714852
546 -1084.386522638271
547 -1084.536695845403
548 -1084.616895892814
549 -1084.763267439965
550 -1084.846309605389
551 -1084.994543900727
552 -1085.074297770372
553 -1085.206749334594
554 -1085.287125890936
555 -1085.432517653838
556 -1085.506410696273
557 -1085.645577489491
558 -1085.714877245326
559 -1085.850628036399
560 -1085.923671201501
561 -1086.058999067567
562 -1086.12790391191
563 -1086.263742402406
564 -1086.341060545074
565 -1086.46280055263
566 -1086.531246095527
567 -1086.662338302466
568 -1086.735146236013
569 -1086.861773119123
570 -1086.927557177817
571 -1087.047891527422
572 -1087.121274475573
573 -1087.23837471881
574 -1087.3105821228
575 -1087.423135085896
576 -1087.492638609016
577 -1087.605393285774
578 -1087.668057580127
579 -1087.78284013108
580 -1087.845907179269
581 -1087.952034787803
582 -1088.009803891787
583 -1088.123302765002
584 -1088.182554361046
585 -1088.281847074624
586 -1088.339756896734
587 -1088.456308840263
588 -1088.510691553932
589 -1088.619875350579
590 -1088.673267804819
591 -1088.780865197865
592 -1088.838023941703
593 -1088.941965056188
594 -1088.99792055663
595 -1089.097485983925
596 -1089.14903855919
597 -1089.255753980267
598 -1089.301364411095
599 -1089.415345356177
600 -1089.465513859459
601 -1089.565039241905
602 -1089.610637969427
603 -1089.715753154667
604 -1089.763467207355
605 -1089.86906329472
606 -1089.909059180481
607 -1090.009126899708
608 -1090.04923937382
609 -1090.145742908077
610 -1090.18395522899
611 -1090.290337383409
612 -1090.327102886057
613 -1090.408778426006
614 -1090.447908539962
615 -1090.55056248597
616 -1090.584090022398
617 -1090.67763160775
618 -1090.710673552133
619 -1090.810258641599
620 -1090.84053292994
621 -1090.928657291978
622 -1090.966822786548
623 -1091.060394916126
624 -1091.091468718872
625 -1091.180660316011
626 -1091.214945206559
627 -1091.30168516445
628 -1091.338713999283
629 -1091.430458274417
630 -1091.458443894676
631 -1091.547511100658
632 -1091.583679412254
633 -1091.664740326073
634 -1091.697932984848
635 -1091.78352355836
636 -1091.819030282771
637 -1091.899291557631
638 -1091.92577474108
639 -1092.004450708858
640 -1092.034288416941
641 -1092.110014678375
642 -1092.135933502474
643 -1092.215412253888
644 -1092.243931592283
645 -1092.310415484244
646 -1092.336178526195
647 -1092.412442711381
648 -1092.429058083649
649 -1092.510139041073
650 -1092.529037913687
651 -1092.60178711093
652 -1092.626751046449
653 -1092.691864347872
654 -1092.711570349426
655 -1092.788821890605
656 -1092.811061491426
657 -1092.89167669803
658 -1092.910493917812
659 -1092.983370169488
660 -1092.996750050069
661 -1093.0767078469
662 -1093.098175305287
663 -1093.17300054202
664 -1093.194346804663
665 -1093.253678889355
666 -1093.270691412033
667 -1093.342986783677
668 -1093.366758363814
669 -1093.432985942688
670 -1093.449257656396
671 -1093.513158252397
672 -1093.528087618351
673 -1093.592103938374
674 -1093.609733633362
675 -1093.664615902928
676 -1093.682366946359
677 -1093.744922466081
678 -1093.757743723217
679 -1093.816464140315
680 -1093.83579944482
681 -1093.894959764744
682 -1093.910181789743
683 -1093.970687612415
684 -1093.987639788547
685 -1094.049199004296
686 -1094.0727386115
687 -1094.124336259657
688 -1094.140504260341
689 -1094.19673359162
690 -1094.216591147789
691 -1094.276931012131
692 -1094.295490166716
693 -1094.349023369863
694 -1094.366879801761
695 -1094.423118406802
696 -1094.436623073914
697 -1094.494635657358
698 -1094.505894301668
699 -1094.557528433087
700 -1094.563616501962
701 -1094.622678559471
702 -1094.627608362459
703 -1094.68224416811
704 -1094.69651233119
705 -1094.74374202967
706 -1094.74734010822
707 -1094.801571703684
708 -1094.807309831507
709 -1094.868203963891
710 -1094.879225493894
711 -1094.926337220482
712 -1094.927191436177
713 -1094.986351103254
714 -1094.988649530128
715 -1095.049058123908
716 -1095.05575519116
717 -1095.10694514177
718 -1095.102581972534
719 -1095.161927055975
720 -1095.16287111095
721 -1095.220495606833
722 -1095.223806320779
723 -1095.27096213218
724 -1095.275283960049
725 -1095.322943721982
726 -1095.320642933921
727 -1095.37011823652
728 -1095.373378129254
729 -1095.42007574082
730 -1095.415468676845
731 -1095.463129224744
732 -1095.46296160342
733 -1095.513911076319
734 -1095.511460198871
735 -1095.557016733468
736 -1095.554529231249
737 -1095.599366612184
738 -1095.59948277225
739 -1095.645972428325
740 -1095.641944195525
741 -1095.68423599686
742 -1095.685909902275
743 -1095.724246555849
744 -1095.727286039576
745 -1095.772462167924
746 -1095.773391357284
747 -1095.821112765566
748 -1095.819585470519
749 -1095.866960229585
750 -1095.864496232247
751 -1095.908599740106
752 -1095.911389601419
753 -1095.953721133606
754 -1095.940258285621
755 -1095.992220050476
756 -1095.981970884033
757 -1096.028099709865
758 -1096.028189553411
759 -1096.067554104372
760 -1096.050834589188
761 -1096.095949377738
762 -1096.091090118941
763 -1096.137839713424
764 -1096.136956338095
765 -1096.174083039425
766 -1096.15792521199
767 -1096.207848440592
768 -1096.188568481662
769 -1096.239294923152
770 -1096.22839541327
771 -1096.266467351917
772 -1096.254867301282
773 -1096.306660612541
774 -1096.294767600194
775 -1096.339693593293
776 -1096.332195814728
777 -1096.37245438326
778 -1096.369930651692
779 -1096.410506720851
780 -1096.401457194715
781 -1096.442149006781
782 -1096.433784891997
783 -1096.470153856455
784 -1096.466293237532
785 -1096.503927732674
786 -1096.48786256629
787 -1096.533454075201
788 -1096.520383077794
789 -1096.562575320551
790 -1096.550639642296
791 -1096.584442134714
792 -1096.576748831527
793 -1096.615020317035
794 -1096.602752481118
795 -1096.638691193163
796 -1096.627250062598
797 -1096.665831982304
798 -1096.652646754983
799 -1096.687546327156
800 -1096.673525070397
801 -1096.715371477684
802 -1096.703896089607
803 -1096.73926082169
804 -1096.735929285461
805 -1096.775721989166
806 -1096.762074244191
807 -1096.793180561317
808 -1096.783059976636
809 -1096.829570277975
810 -1096.807669445256
811 -1096.854885931415
812 -1096.841436118433
813 -1096.877096698754
814 -1096.861012689099
815 -1096.903152746463
816 -1096.885294432444
817 -1096.927757998869
818 -1096.915621397153
819 -1096.94796893886
820 -1096.927727416215
821 -1096.965604129357
822 -1096.948389302033
823 -1096.988976857689
824 -1096.964463107977
825 -1097.002444169093
826 -1096.977248972845
827 -1097.01692471776
828 -1096.995536276362
829 -1097.040147573166
830 -1097.027411891672
831 -1097.062566780632
832 -1097.04713061875
833 -1097.081345701181
834 -1097.069622457885
835 -1097.100717211589
836 -1097.091284969152
837 -1097.127816574039
838 -1097.109941763229
839 -1097.140433846811
840 -1097.128242323632
841 -1097.164363539456
842 -1097.150821977893
843 -1097.187473601672
844 -1097.170840542237
845 -1097.208077484686
846 -1097.193500659701
847 -1097.224088100158
848 -1097.205804509045
849 -1097.233418045094
850 -1097.218910720355
851 -1097.246065535013
852 -1097.229532820371
853 -1097.257622334113
854 -1097.247542657093
855 -1097.270858429737
856 -1097.257368473285
857 -1097.287094949537
858 -1097.269777259873
859 -1097.306968243446
860 -1097.279803831909
861 -1097.32033443465
862 -1097.299506024405
863 -1097.335723586408
864 -1097.317805201654
865 -1097.348750647414
866 -1097.326271266654
867 -1097.367526808127
868 -1097.34540992391
869 -1097.391021258049
870 -1097.374191474982
871 -1097.407065242135
872 -1097.388075493796
873 -1097.429191421112
874 -1097.407402365008
875 -1097.4407114491
876 -1097.424083668614
877 -1097.458352810334
878 -1097.436102623029
879 -1097.466590888766
880 -1097.440217851734
881 -1097.474327959028
882 -1097.447365695538
883 -1097.476659284382
884 -1097.457708456204
885 -1097.485308149589
886 -1097.461486358878
887 -1097.489592176089
888 -1097.466255071114
889 -1097.498453192784
890 -1097.482987929084
891 -1097.511435266255
892 -1097.493889413955
893 -1097.524061995214
894 -1097.503430115447
895 -1097.530740342944
896 -1097.516730463096
897 -1097.547338787743
898 -1097.532446792838
899 -1097.563270184998
900 -1097.543614814072
901 -1097.5735269714
902 -1097.553372718377
903 -1097.585938790492
904 -1097.563902764936
905 -1097.600720099339
906 -1097.582181139768
907 -1097.608025851893
908 -1097.585788686525
909 -1097.62362663706
910 -1097.597492062059
911 -1097.625390341121
912 -1097.610150311656
913 -1097.640977028957
914 -1097.613798316283
915 -1097.646427706336
916 -1097.62331601616
917 -1097.65984279283
918 -1097.636214793709
919 -1097.659718636564
920 -1097.633590278138
921 -1097.66509928223
922 -1097.640424970714
923 -1097.677191558364
924 -1097.654778341857
925 -1097.681198351064
926 -1097.666942085109
927 -1097.692911020244
928 -1097.674825199189
929 -1097.709592234718
930 -1097.690901306713
931 -1097.71975813841
932 -1097.703466432641
933 -1097.736668902407
934 -1097.715542141748
935 -1097.74202881205
936 -1097.725349419656
937 -1097.761395965042
938 -1097.738775876256
939 -1097.767064160362
940 -1097.744402156624
941 -1097.776863711903
942 -1097.755244377442
943 -1097.777106233431
944 -1097.760050498468
945 -1097.783717903412
946 -1097.764291159839
947 -1097.789156108677
948 -1097.773802880488
949 -1097.798439359828
950 -1097.780609588359
951 -1097.808831192545
952 -1097.787456851814
953 -1097.814809912437
954 -1097.795301664699
955 -1097.826117074577
956 -1097.799478618932
957 -1097.837339504436
958 -1097.812895633843
959 -1097.848142823077
960 -1097.823992188597
961 -1097.852901135617
962 -1097.828755685091
963 -1097.868033910276
964 -1097.841405346165
965 -1097.874607254464
966 -1097.85563355264
967 -1097.881384278997
968 -1097.853460869536
969 -1097.885525780915
970 -1097.861850537624
971 -1097.899485859696
972 -1097.875600814937
973 -1097.901051421063
974 -1097.87517848983
975 -1097.901005002801
976 -1097.878857044352
977 -1097.90817083508
978 -1097.878989928574
979 -1097.911205878984
980 -1097.88983592338
981 -1097.912283096877
982 -1097.888990559252
983 -1097.917513424574
984 -1097.892604842288
985 -1097.917466156697
986 -1097.901710189152
987 -1097.931725631702
988 -1097.912995389781
989 -1097.940611921339
990 -1097.923231442738
991 -1097.953529630658
992 -1097.925336422678
993 -1097.956499663674
994 -1097.934758278283
995 -1097.961693087079
996 -1097.937389316978
997 -1097.962568745445
998 -1097.942036120873
999 -1097.971799455407
1000 -1097.947120307599
1001 -1097.968532588879
1002 -1097.949291404933
1003 -1097.977289257514
1004 -1097.955507673714
1005 -1097.979109734904
1006 -1097.954761232244
1007 -1097.978486881977
1008 -1097.954732992917
1009 -1097.981249014282
1010 -1097.950827884294
1011 -1097.986775179696
1012 -1097.958703006839
1013 -1097.99438269586
1014 -1097.974742894688
1015 -1098.000155802306
1016 -1097.970286758764
1017 -1098.004795607104
1018 -1097.98170375988
1019 -1098.01481462841
1020 -1097.987481911707
1021 -1098.009185548913
1022 -1097.986565710218
1023 -1098.019919852502
1024 -1097.992571279904
1025 -1098.025928187511
1026 -1098.006013433422
1027 -1098.035241619977
1028 -1098.011092271571
1029 -1098.034102492373
1030 -1098.014260552439
1031 -1098.036131383813
1032 -1098.010875235699
1033 -1098.037138162799
1034 -1098.007316823423
1035 -1098.034258098091
1036 -1098.007895970667
1037 -1098.031015374099
1038 -1098.013106433401
1039 -1098.038475911127
1040 -1098.012323961593
1041 -1098.035207086239
1042 -1098.019147427071
1043 -1098.040852180184
1044 -1098.023889990082
1045 -1098.050428016908
1046 -1098.03089694639
1047 -1098.058020020228
1048 -1098.030056770164
1049 -1098.058838139828
1050 -1098.035330404797
1051 -1098.06082931169
1052 -1098.038840522003
1053 -1098.067598090219
1054 -1098.04780596816
1055 -1098.070762942126
1056 -1098.048565757712
1057 -1098.073619068055
1058 -1098.049789029397
1059 -1098.071540545025
1060 -1098.047958684527
1061 -1098.069882561613
1062 -1098.036328556786
1063 -1098.067739540627
1064 -1098.0351352465
1065 -1098.061289012036
1066 -1098.035921024225
1067 -1098.063918556409
1068 -1098.02818291521
1069 -1098.062310774314
1070 -1098.03793158436
1071 -1098.067157781078
1072 -1098.042377941269
1073 -1098.068138751077
1074 -1098.040911850282
1075 -1098.071597019722
1076 -1098.042442414461
1077 -1098.074507918927
1078 -1098.051740513731
1079 -1098.06922057111
1080 -1098.05132105353
1081 -1098.075761233727
1082 -1098.051874561429
1083 -1098.08126682309
1084 -1098.054636091977
1085 -1098.076808216371
1086 -1098.052475484109
1087 -1098.07921803715
1088 -1098.050268708801
1089 -1098.072031853364
1090 -1098.047719333627
1091 -1098.070561646858
1092 -1098.04381598674
1093 -1098.064167128263
1094 -1098.048855644506
1095 -1098.070915166297
1096 -1098.04302559916
1097 -1098.06592171071
1098 -1098.042493445811
1099 -1098.065658997602
1100 -1098.04473492486
1101 -1098.068375675701
1102 -1098.045174189368
1103 -1098.073651933893
1104 -1098.044017894356
1105 -1098.066845910268
1106 -1098.047009386976
1107 -1098.071661201482
1108 -1098.049855056754
1109 -1098.082411068975
1110 -1098.060797122313
1111 -1098.088483090756
1112 -1098.068967263361
1113 -1098.09009223195
1114 -1098.070013461116
1115 -1098.088809046679
1116 -1098.062984148052
1117 -1098.093197625888
1118 -1098.065289195327
1119 -1098.094774242379
1120 -1098.066507726534
1121 -1098.090228142261
1122 -1098.058775873279
1123 -1098.09258310206
1124 -1098.063301593611
1125 -1098.09362635578
1126 -1098.065090811382
1127 -1098.083135610214
1128 -1098.050949903002
1129 -1098.081024157664
1130 -1098.049950229731
1131 -1098.077572116913
1132 -1098.049291817032
1133 -1098.080595522472
1134 -1098.061975695504
1135 -1098.082112376981
1136 -1098.056613899086
1137 -1098.084800022108
1138 -1098.064537897188
1139 -1098.093470218614
1140 -1098.069425592654
1141 -1098.101970233539
1142 -1098.075734665617
1143 -1098.095553804482
1144 -1098.073684273122
1145 -1098.100905181677
1146 -1098.073395017339
1147 -1098.101118429441
1148 -1098.08234949128
1149 -1098.106393435955
1150 -1098.081810393647
1151 -1098.101276986466
1152 -1098.080324141639
1153 -1098.104403472298
1154 -1098.083601617305
1155 -1098.103112766748
1156 -1098.079065021371
1157 -1098.101671563218
1158 -1098.077727221938
1159 -1098.097809289627
1160 -1098.06836952511
1161 -1098.091972257889
1162 -1098.070283550328
1163 -1098.093074849598
1164 -1098.071996179339
1165 -1098.096304213859
1166 -1098.075748143245
1167 -1098.099332807107
1168 -1098.071419675198
1169 -1098.107774580685
1170 -1098.081430116474
1171 -1098.112927795823
1172 -1098.097443599104
1173 -1098.121307283842
1174 -1098.091830098948
1175 -1098.123665443352
1176 -1098.097707116895
1177 -1098.130402119213
1178 -1098.104092629189
1179 -1098.130121333651
1180 -1098.097154879791
1181 -1098.131919447817
1182 -1098.101506598159
1183 -1098.127856747739
1184 -1098.104126507256
1185 -1098.125749158183
1186 -1098.100982938208
1187 -1098.117975627361
1188 -1098.09179363639
1189 -1098.115829145984
1190 -1098.092742575019
1191 -1098.117332527278
1192 -1098.090180657472
1193 -1098.116521609062
1194 -1098.091096611339
1195 -1098.120878141192
1196 -1098.095275366638
1197 -1098.121488906721
1198 -1098.096400100258
1199 -1098.122614026389
1200 -1098.096941940015
1201 -1098.125701691469
1202 -1098.103913740941
1203 -1098.137039333074
1204 -1098.111834638006
1205 -1098.137066659339
1206 -1098.117396318581
1207 -1098.14266904455
1208 -1098.11666140492
1209 -1098.145321577478
1210 -1098.119675390174
1211 -1098.146477724232
1212 -1098.118485899598
1213 -1098.143122504262
1214 -1098.124375483229
1215 -1098.147301723986
1216 -1098.114194074098
1217 -1098.138884825608
1218 -1098.110730333775
1219 -1098.143144751693
1220 -1098.113044265686
1221 -1098.144406756448
1222 -1098.115621818875
1223 -1098.140436623889
1224 -1098.111537883572
1225 -1098.139503337507
1226 -1098.113648676997
1227 -1098.145586155208
1228 -1098.118775999054
1229 -1098.14881508456
1230 -1098.121016704315
1231 -1098.15515801872
1232 -1098.127719943398
1233 -1098.161628801943
1234 -1098.132696820973
1235 -1098.160370212941
1236 -1098.136466488733
1237 -1098.165766420364
1238 -1098.140327794134
1239 -1098.161739701404
1240 -1098.130297691654
1241 -1098.156869246554
1242 -1098.130465458114
1243 -1098.151895162724
1244 -1098.130176510005
1245 -1098.156472460998
1246 -1098.127365507997
1247 -1098.146780456396
1248 -1098.12194740345
1249 -1098.152468849675
1250 -1098.125367548006
1251 -1098.155382562363
1252 -1098.126311655215
1253 -1098.152474584973
1254 -1098.128360823188
1255 -1098.152379194178
1256 -1098.128711613671
1257 -1098.153765146995
1258 -1098.13176824869
1259 -1098.161424720979
1260 -1098.134234634739
1261 -1098.156918462266
1262 -1098.137596088658
1263 -1098.15824941018
1264 -1098.136123822088
1265 -1098.16065678129
1266 -1098.137276983099
1267 -1098.163355104665
1268 -1098.141429128435
1269 -1098.163438417651
1270 -1098.134667864875
1271 -1098.167114814889
1272 -1098.130490736488
1273 -1098.162366935963
1274 -1098.135380913161
1275 -1098.156805702619
1276 -1098.123707595198
1277 -1098.159463451482
1278 -1098.12703640505
1279 -1098.155952352411
1280 -1098.129209195239
1281 -1098.151273411172
1282 -1098.122066450648
1283 -1098.151297670634
1284 -1098.125715174663
1285 -1098.157001153859
1286 -1098.130897685668
1287 -1098.154224625921
1288 -1098.128268796327
1289 -1098.151756543394
1290 -1098.126180946402
1291 -1098.153750453475
1292 -1098.128948682686
1293 -1098.159702566501
1294 -1098.132648100493
1295 -1098.156217343178
1296 -1098.129658682336
1297 -1098.156384822854
1298 -1098.131805074075
1299 -1098.155654185421
1300 -1098.127916491145
1301 -1098.153626862117
1302 -1098.128617006286
1303 -1098.148130125462
1304 -1098.126944627698
1305 -1098.15443668696
1306 -1098.128983502656
1307 -1098.160351220895
1308 -1098.128013994986
1309 -1098.157138551269
1310 -1098.132688904117
1311 -1098.15453608085
1312 -1098.133611660608
1313 -1098.161789499442
1314 -1098.135623279144
1315 -1098.160626607424
1316 -1098.13992257639
1317 -1098.163622143256
1318 -1098.141620965796
1319 -1098.166746342024
1320 -1098.137868400632
1321 -1098.163852916821
1322 -1098.142871549522
1323 -1098.168559792428
1324 -1098.138191796507
1325 -1098.172419256581
1326 -1098.145963456049
1327 -1098.177814754858
1328 -1098.145964744045
1329 -1098.171182956063
1330 -1098.139840137796
1331 -1098.171534927668
1332 -1098.137353626557
1333 -1098.172392252856
1334 -1098.147397695319
1335 -1098.166644694607
1336 -1098.1376747613
1337 -1098.165810787204
1338 -1098.134739008373
1339 -1098.161540572275
1340 -1098.13943439053
1341 -1098.16827398298
1342 -1098.138802454723
1343 -1098.162442783079
1344 -1098.131916636587
1345 -1098.160691253201
1346 -1098.132693977764
1347 -1098.15985691264
1348 -1098.131066820413
1349 -1098.161714869575
1350 -1098.139468744376
1351 -1098.165643878044
1352 -1098.140429706766
1353 -1098.165115954195
1354 -1098.145172452483
1355 -1098.170200686228
1356 -1098.139274412174
1357 -1098.169536684414
1358 -1098.142877292143
1359 -1098.164224052354
1360 -1098.138595063065
1361 -1098.162442438658
1362 -1098.133797299245
1363 -1098.159646374576
1364 -1098.131524166226
1365 -1098.151123402393
1366 -1098.129524697894
1367 -1098.148292615175
1368 -1098.122177902753
1369 -1098.1462405399
1370 -1098.116610260953
1371 -1098.14460688956
1372 -1098.120250605532
1373 -1098.142954605985
1374 -1098.113834838808
1375 -1098.143474014506
1376 -1098.116472590656
1377 -1098.15459448646
1378 -1098.129090849709
1379 -1098.155685687722
1380 -1098.125756866034
1381 -1098.160567874122
1382 -1098.130975235772
1383 -1098.164581316461
1384 -1098.13507870039
1385 -1098.162135702255
1386 -1098.127712755376
1387 -1098.162676610377
1388 -1098.13198326492
1389 -1098.167915816719
1390 -1098.141815901849
1391 -1098.164084959189
1392 -1098.13939588918
1393 -1098.161865454187
1394 -1098.137322640645
1395 -1098.158973881398
1396 -1098.129552613856
1397 -1098.152260658316
1398 -1098.123514730798
1399 -1098.147870666068
1400 -1098.1144110706
1401 -1098.136089223149
1402 -1098.114845138858
1403 -1098.142842119223
1404 -1098.11594886674
1405 -1098.146627665996
1406 -1098.123072459409
1407 -1098.148659310631
1408 -1098.126723364005
1409 -1098.153633187273
1410 -1098.132337644369
1411 -1098.165366463219
1412 -1098.136124700024
1413 -1098.16278824113
1414 -1098.146207895914
1415 -1098.172488762453
1416 -1098.146444321046
1417 -1098.17722146882
1418 -1098.152054331235
1419 -1098.18178477729
1420 -1098.152921577119
1421 -1098.178285939091
1422 -1098.15070048805
1423 -1098.169853515201
1424 -1098.146998508162
1425 -1098.166243002143
1426 -1098.139740757787
1427 -1098.163428214779
1428 -1098.132081641997
1429 -1098.163815247811
1430 -1098.135551178037
1431 -1098.165862170293
1432 -1098.140132682509
1433 -1098.160192656251
1434 -1098.129336642589
1435 -1098.165416210007
1436 -1098.132271488069
1437 -1098.167988493807
1438 -1098.144604341339
1439 -1098.172158791368
1440 -1098.135216044784
1441 -1098.172342328976
1442 -1098.143510469978
1443 -1098.17711770359
1444 -1098.152594386901
1445 -1098.184032922884
1446 -1098.160086867821
1447 -1098.184460870627
1448 -1098.1591259122
1449 -1098.186613294268
1450 -1098.158452494434
1451 -1098.183363157635
1452 -1098.155913639294
1453 -1098.186603569228
1454 -1098.163282804106
1455 -1098.187607774837
1456 -1098.15800167002
1457 -1098.178669757553
1458 -1098.151374255327
1459 -1098.182941991849
1460 -1098.156791295475
1461 -1098.181939156656
1462 -1098.152966198083
1463 -1098.177426803806
1464 -1098.15105915048
1465 -1098.178480261757
1466 -1098.15480206526
1467 -1098.179390585795
1468 -1098.153514582535
1469 -1098.183091513481
1470 -1098.160568005472
1471 -1098.18705030061
1472 -1098.164236784625
1473 -1098.18800988017
1474 -1098.167023640545
1475 -1098.195189324324
1476 -1098.169869823701
1477 -1098.198241685856
1478 -1098.172262918325
1479 -1098.191926156636
1480 -1098.167811232271
1481 -1098.20068281022
1482 -1098.169149795254
1483 -1098.202479756655
1484 -1098.17604355348
1485 -1098.193123223646
1486 -1098.16480325631
1487 -1098.193867191594
1488 -1098.16187362445
1489 -1098.190809053836
1490 -1098.168494949162
1491 -1098.193982462956
1492 -1098.16148487359
1493 -1098.192812569745
1494 -1098.163567495538
1495 -1098.191521830401
1496 -1098.164702857275
1497 -1098.188527800499
1498 -1098.164984159186
1499 -1098.189777012574
1500 -1098.162959910984
1501 -1098.18856246259
1502 -1098.16934768646
1503 -1098.190907256619
1504 -1098.16775108989
1505 -1098.191742985425
1506 -1098.165712880726
1507 -1098.193775376657
1508 -1098.170654641454
1509 -1098.194512360636
1510 -1098.173864664798
1511 -1098.199112461805
1512 -1098.167573512785
1513 -1098.188599981142
1514 -1098.167381757628
1515 -1098.192375706878
1516 -1098.160605147388
1517 -1098.18498035998
1518 -1098.162903271862
1519 -1098.186611756942
1520 -1098.158846686329
1521 -1098.180961418045
1522 -1098.157963266397
1523 -1098.176880883957
1524 -1098.148852187088
1525 -1098.168856333217
1526 -1098.151843111939
1527 -1098.171295733199
1528 -1098.149743676122
1529 -1098.174061209061
1530 -1098.143193400077
1531 -1098.17628430534
1532 -1098.14776333992
1533 -1098.180031397123
1534 -1098.156037163629
1535 -1098.174803700421
1536 -1098.147801588085
1537 -1098.179902578932
1538 -1098.149294635255
1539 -1098.176244210698
1540 -1098.153241262007
1541 -1098.175489095458
1542 -1098.143238226381
1543 -1098.174245418848
1544 -1098.144167088445
1545 -1098.177370869255
1546 -1098.151657075123
1547 -1098.174580538615
1548 -1098.143175510169
1549 -1098.171297531776
1550 -1098.146912768413
1551 -1098.170075405596
1552 -1098.141040532823
1553 -1098.163133066765
1554 -1098.140191381275
1555 -1098.16596191627
1556 -1098.140221596666
1557 -1098.168722768536
1558 -1098.147338217229
1559 -1098.170952831944
1560 -1098.145946823281
1561 -1098.173324215762
1562 -1098.149475451327
1563 -1098.169770646362
1564 -1098.150389199922
1565 -1098.180515752208
1566 -1098.152164775252
1567 -1098.181849646646
1568 -1098.151962353189
1569 -1098.176329188307
1570 -1098.153352167562
1571 -1098.175371305665
1572 -1098.144605613082
1573 -1098.16618648382
1574 -1098.147483127049
1575 -1098.172430234936
1576 -1098.148691363007
1577 -1098.165663221868
1578 -1098.143598751993
1579 -1098.167289686696
1580 -1098.135388196967
1581 -1098.162625969643
1582 -1098.142769320784
1583 -1098.162060538927
1584 -1098.132252279739
1585 -1098.167289497772
1586 -1098.135632519724
1587 -1098.167335237329
1588 -1098.14541800891
1589 -1098.172802817699
1590 -1098.14418657247
1591 -1098.177395742298
1592 -1098.148546302041
1593 -1098.183758732725
1594 -1098.157489263823
1595 -1098.181955597746
1596 -1098.14808460647
1597 -1098.176120437173
1598 -1098.150854950199
1599 -1098.181985402482
1600 -1098.155428994187
1601 -1098.176632113534
1602 -1098.150104738248
1603 -1098.171991488409
1604 -1098.147061109287
1605 -1098.172277633234
1606 -1098.141731967328
1607 -1098.164757787445
1608 -1098.137179744548
1609 -1098.165818071428
1610 -1098.134607065873
1611 -1098.153564234631
1612 -1098.130504812025
1613 -1098.157760561934
1614 -1098.139250519637
1615 -1098.167719556012
1616 -1098.142366431915
1617 -1098.170148709567
1618 -1098.150049306884
1619 -1098.177129631761
1620 -1098.15349685096
1621 -1098.180282434677
1622 -1098.15421641472
1623 -1098.18228849306
1624 -1098.154141851819
1625 -1098.179177637964
1626 -1098.152432342172
1627 -1098.181785283275
1628 -1098.152840863173
1629 -1098.181939407378
1630 -1098.16149154019
1631 -1098.183984731105
1632 -1098.155245667007
1633 -1098.178310771473
1634 -1098.148001865893
1635 -1098.177204411295
1636 -1098.142717917248
1637 -1098.17467926837
1638 -1098.143658443574
1639 -1098.167366354065
1640 -1098.133842549473
1641 -1098.166466291566
1642 -1098.137455006218
1643 -1098.172165612009
1644 -1098.143754181709
1645 -1098.1733755656
1646 -1098.144979027138
1647 -1098.176914849958
1648 -1098.15037186779
1649 -1098.183822827572
1650 -1098.156237971527
1651 -1098.186103715704
1652 -1098.164534526476
1653 -1098.187606589981
1654 -1098.167963505809
1655 -1098.193155848535
1656 -1098.164941378656
1657 -1098.196341094395
1658 -1098.171870539706
1659 -1098.194004639535
1660 -1098.168567933499
1661 -1098.194677204306
1662 -1098.168128555101
1663 -1098.18594785023
1664 -1098.16133168227
1665 -1098.186085824663
1666 -1098.161419342983
1667 -1098.183222021891
1668 -1098.15578878087
1669 -1098.182802139696
1670 -1098.156001338599
1671 -1098.178233918648
1672 -1098.153904096519
1673 -1098.174802756419
1674 -1098.152643114325
1675 -1098.178119384352
1676 -1098.154853017943
1677 -1098.18245730676
1678 -1098.159589723199
1679 -1098.186674529852
1680 -1098.159046785627
1681 -1098.186083197777
1682 -1098.162682182158
1683 -1098.189634604025
1684 -1098.169399883633
1685 -1098.194399182474
1686 -1098.169729130025
1687 -1098.192845592169
1688 -1098.164104263231
1689 -1098.199495733315
1690 -1098.168525670023
1691 -1098.198406834166
1692 -1098.165177795811
1693 -1098.192564236743
1694 -1098.158442028585
1695 -1098.190580257158
1696 -1098.15329727945
1697 -1098.181298204508
1698 -1098.156350861495
1699 -1098.184800523793
1700 -1098.149189476821
1701 -1098.181622068043
1702 -1098.148968796423
1703 -1098.174512908079
1704 -1098.148247027165
1705 -1098.175883361599
1706 -1098.147931697087
1707 -1098.174510117592
1708 -1098.150246217161
1709 -1098.177298026521
1710 -1098.155751609749
1711 -1098.181939338877
1712 -1098.154924558908
1713 -1098.182787156452
1714 -1098.161556940418
1715 -1098.192380094016
1716 -1098.168291162303
1717 -1098.195280139714
1718 -1098.171019843946
1719 -1098.203692152017
1720 -1098.169837220757
1721 -1098.197038595305
1722 -1098.173774709062
1723 -1098.197083240007
1724 -1098.16933925834
1725 -1098.196765980651
1726 -1098.172498726002
1727 -1098.199775316319
1728 -1098.169855521858
1729 -1098.193919762796
1730 -1098.17021260496
1731 -1098.191383281785
1732 -1098.164942653083
1733 -1098.190463650574
1734 -1098.166008476984
1735 -1098.193850997601
1736 -1098.168795069056
1737 -1098.191531297604
1738 -1098.158012054636
1739 -1098.193865141131
1740 -1098.160447596116
1741 -1098.19970100339
1742 -1098.170557093434
1743 -1098.193582826192
1744 -1098.166317803434
1745 -1098.200253172367
1746 -1098.172062126562
1747 -1098.204232937624
1748 -1098.178799644765
1749 -1098.207621022575
1750 -1098.179193527064
1751 -1098.21177060773
1752 -1098.17770605023
1753 -1098.211734468754
1754 -1098.182740728373
1755 -1098.206663806991
1756 -1098.178353974041
1757 -1098.203229914321
1758 -1098.174248951548
1759 -1098.198704348706
1760 -1098.169210572079
1761 -1098.192820015906
1762 -1098.166087445603
1763 -1098.188636647628
1764 -1098.161238781129
1765 -1098.185672094104
1766 -1098.159624735288
1767 -1098.184033033958
1768 -1098.159137653377
1769 -1098.187422037976
1770 -1098.16142482125
1771 -1098.184663057082
1772 -1098.160292249198
1773 -1098.185128636641
1774 -1098.165263480175
1775 -1098.192366270116
1776 -1098.161132347773
1777 -1098.189044170258
1778 -1098.167397057133
1779 -1098.191330343466
1780 -1098.162137010492
1781 -1098.187041289809
1782 -1098.167500852945
1783 -1098.191417774582
1784 -1098.164855704321
1785 -1098.181733529391
1786 -1098.16092764062
1787 -1098.184764366724
1788 -1098.158791639762
1789 -1098.186057195561
1790 -1098.157490070299
1791 -1098.18490713351
1792 -1098.149548499586
1793 -1098.179689479581
1794 -1098.146485149014
1795 -1098.179624506406
1796 -1098.149337669431
1797 -1098.172583372052
1798 -1098.145674327209
1799 -1098.181235080908
1800 -1098.150362749276
1801 -1098.182531788654
1802 -1098.161057132975
1803 -1098.184514195682
1804 -1098.151702870989
1805 -1098.190095286516
1806 -1098.159075403297
1807 -1098.191982409362
1808 -1098.162740118624
1809 -1098.188313447278
1810 -1098.161932898517
1811 -1098.184858870384
1812 -1098.156967175402
1813 -1098.180620005395
1814 -1098.152672936701
1815 -1098.178509474339
1816 -1098.150928567944
1817 -1098.177681037753
1818 -1098.146369621729
1819 -1098.177191742389
1820 -1098.146127490427
1821 -1098.169650780597
1822 -1098.14332092616
1823 -1098.164990074403
1824 -1098.140870251326
1825 -1098.169795049211
1826 -1098.143247984223
1827 -1098.167517600305
1828 -1098.144667162379
1829 -1098.174582485439
1830 -1098.147970711357
1831 -1098.17640384211
1832 -1098.14728779597
1833 -1098.177428888817
1834 -1098.150539662161
1835 -1098.177264284965
1836 -1098.151801762964
1837 -1098.18135532404
1838 -1098.15505956717
1839 -1098.181774214682
1840 -1098.156133267891
1841 -1098.180054010362
1842 -1098.1518095203
1843 -1098.183623866657
1844 -1098.149271752517
1845 -1098.178576866837
1846 -1098.14892144606
1847 -1098.175836481601
1848 -1098.13706013941
1849 -1098.167736651337
1850 -1098.138518356003
1851 -1098.171151767266
1852 -1098.139032844219
1853 -1098.168309641439
1854 -1098.142383014261
1855 -1098.175350403365
1856 -1098.14702221508
1857 -1098.177129512148
1858 -1098.148898813907
1859 -1098.170871385568
1860 -1098.145606548097
1861 -1098.173930036401
1862 -1098.149261941795
1863 -1098.167731999906
1864 -1098.144511608131
1865 -1098.169715013774
1866 -1098.144964495917
1867 -1098.166421752129
1868 -1098.141909284152
1869 -1098.165094636343
1870 -1098.143627710216
1871 -1098.166514134386
1872 -1098.142867255277
1873 -1098.168692509169
1874 -1098.144753213876
1875 -1098.162802179359
1876 -1098.137408348279
1877 -1098.158885552811
1878 -1098.133873549869
1879 -1098.155516417028
1880 -1098.136651998553
1881 -1098.162671113708
1882 -1098.136463677965
1883 -1098.156107851534
1884 -1098.135618928413
1885 -1098.164149070889
1886 -1098.139643526836
1887 -1098.16349383363
1888 -1098.135659024012
1889 -1098.163189364272
1890 -1098.140554952183
1891 -1098.163346966827
1892 -1098.146347443479
1893 -1098.168969552358
1894 -1098.148540924168
1895 -1098.171312086412
1896 -1098.146228968848
1897 -1098.179943258849
1898 -1098.15506046955
1899 -1098.184444755943
1900 -1098.155636343279
1901 -1098.177167477187
1902 -1098.148630111633
1903 -1098.182129662943
1904 -1098.15137017796
1905 -1098.176146453453
1906 -1098.150076793474
1907 -1098.173076164855
1908 -1098.141892859991
1909 -1098.175990770352
1910 -1098.14823564679
1911 -1098.175807264246
1912 -1098.151793940814
1913 -1098.174603711597
1914 -1098.148635701904
1915 -1098.167748965536
1916 -1098.14625301258
1917 -1098.175293090981
1918 -1098.152696590647
1919 -1098.177574556571
1920 -1098.150778461068
1921 -1098.180440921114
1922 -1098.155969836467
1923 -1098.180082579009
1924 -1098.161998870629
1925 -1098.186217593636
1926 -1098.164642635504
1927 -1098.193835728415
1928 -1098.168846668972
1929 -1098.192856667412
1930 -1098.169390181502
1931 -1098.186374760325
1932 -1098.161240857606
1933 -1098.189002024471
1934 -1098.16391677929
1935 -1098.184347173737
1936 -1098.161799315577
1937 -1098.186054150126
1938 -1098.158821098922
1939 -1098.178498937578
1940 -1098.151352969532
1941 -1098.171622330835
1942 -1098.14919794329
1943 -1098.169608640878
1944 -1098.139619819809
1945 -1098.162290787036
1946 -1098.134350624634
1947 -1098.164345236881
1948 -1098.140677681807
1949 -1098.175174286467
1950 -1098.151969512188
1951 -1098.180682949945
1952 -1098.154048143852
1953 -1098.185667040076
1954 -1098.162352298114
1955 -1098.193167777101
1956 -1098.168215880758
1957 -1098.195309778646
1958 -1098.167218463499
1959 -1098.198254961042
1960 -1098.169236186848
1961 -1098.200595561719
1962 -1098.175617917609
1963 -1098.196138113491
1964 -1098.172754961355
1965 -1098.195060023148
1966 -1098.174293565159
1967 -1098.191016005114
1968 -1098.162549306717
1969 -1098.181440218755
1970 -1098.157307073604
1971 -1098.171485936244
1972 -1098.150300057092
1973 -1098.173706684499
1974 -1098.146253313796
1975 -1098.169691582398
1976 -1098.14520292118
1977 -1098.17104322998
1978 -1098.147457357732
1979 -1098.166539176735
1980 -1098.145357383043
1981 -1098.173079237931
1982 -1098.152912752187
1983 -1098.176990681222
1984 -1098.155578983392
1985 -1098.179318902539
1986 -1098.157392468537
1987 -1098.179909477013
1988 -1098.161238968803
1989 -1098.18637759393
1990 -1098.165086111156
1991 -1098.184479891209
1992 -1098.160513941166
1993 -1098.185831079784
1994 -1098.162246399197
1995 -1098.180737552133
1996 -1098.154745783113
1997 -1098.182423819394
1998 -1098.151153478748
1999 -1098.173201975151
2000 -1098.142038899126
2001 -1098.17260379578
2002 -1098.141346222685
2003 -1098.167485638793
2004 -1098.146517140841
2005 -1098.168440420055
2006 -1098.140929011921
2007 -1098.169402953039
2008 -1098.140578216064
2009 -1098.171770111649
2010 -1098.14443798267
2011 -1098.165443329597
2012 -1098.133812095331
2013 -1098.168731565878
2014 -1098.142640207726
2015 -1098.173220419942
2016 -1098.146748291686
2017 -1098.175814873811
2018 -1098.149868043712
2019 -1098.171123335507
2020 -1098.14810113938
2021 -1098.173515333325
2022 -1098.148153677999
2023 -1098.164876876093
2024 -1098.143447734465
2025 -1098.163428102634
2026 -1098.138241253289
2027 -1098.155777604336
2028 -1098.129809729999
2029 -1098.160447068676
2030 -1098.133455197688
2031 -1098.155332196788
2032 -1098.129444487252
2033 -1098.151706490232
2034 -1098.128381467655
2035 -1098.152244581516
2036 -1098.125937438481
2037 -1098.146678324521
2038 -1098.130523547507
2039 -1098.154987511771
2040 -1098.128216813569
2041 -1098.152453530469
2042 -1098.129871183122
2043 -1098.150899358904
2044 -1098.127525020819
2045 -1098.150139326952
2046 -1098.130874783732
2047 -1098.157067848107
2048 -1098.130291280571
2049 -1098.15574007798
2050 -1098.122265085126
2051 -1098.153118340957
2052 -1098.123500602717
2053 -1098.158658987071
2054 -1098.129875606737
2055 -1098.153487798033
2056 -1098.115615842047
2057 -1098.150356687799
2058 -1098.116853071137
2059 -1098.147726928294
2060 -1098.119824520529
2061 -1098.14959821804
2062 -1098.118227917601
2063 -1098.147552988036
2064 -1098.121208329871
2065 -1098.154561265518
2066 -1098.129171324818
2067 -1098.156251473516
2068 -1098.12948532169
2069 -1098.155813016646
2070 -1098.130779927681
2071 -1098.159467883487
2072 -1098.130006675142
2073 -1098.157408294016
2074 -1098.13342698473
2075 -1098.161388814276
2076 -1098.137933396989
2077 -1098.169897873478
2078 -1098.144370561011
2079 -1098.169006239257
2080 -1098.143273626896
2081 -1098.170476664832
2082 -1098.141434207414
2083 -1098.160299319241
2084 -1098.136725969409
2085 -1098.163820295561
2086 -1098.13747890911
2087 -1098.162591220733
2088 -1098.132906556684
2089 -1098.164913573525
2090 -1098.136567548813
2091 -1098.159784673622
2092 -1098.131995064206
2093 -1098.161489548107
2094 -1098.134632737949
2095 -1098.15650271874
2096 -1098.13909193289
2097 -1098.166490256272
2098 -1098.139523990396
2099 -1098.171479440493
2100 -1098.143071001976
2101 -1098.169700280589
2102 -1098.14757536623
2103 -1098.172045546927
2104 -1098.14060159617
2105 -1098.175720793987
2106 -1098.146656490883
2107 -1098.185714794615
2108 -1098.15886055167
2109 -1098.18360661775
2110 -1098.152118297874
2111 -1098.182436893153
2112 -1098.149484029909
2113 -1098.188492471052
2114 -1098.16025213804
2115 -1098.180831434403
2116 -1098.152224380371
2117 -1098.185089678004
2118 -1098.153830652419
2119 -1098.185299847351
2120 -1098.157085703456
2121 -1098.183121793208
2122 -1098.155681451835
2123 -1098.183478767018
2124 -1098.156376633718
2125 -1098.183917094796
2126 -1098.159795412614
2127 -1098.190710029428
2128 -1098.158750819262
2129 -1098.185986340067
2130 -1098.162907216782
2131 -1098.191786349631
2132 -1098.165123625959
2133 -1098.190380376248
2134 -1098.175845224142
2135 -1098.199057849024
2136 -1098.175311188059
2137 -1098.204382777709
2138 -1098.179727532018
2139 -1098.1994146174
2140 -1098.17475198257
2141 -1098.20530630944
2142 -1098.177360604496
2143 -1098.200180471009
2144 -1098.176902026792
2145 -1098.202011195546
2146 -1098.173647495833
2147 -1098.197105289089
2148 -1098.168221031155
2149 -1098.187663855774
2150 -1098.166320617646
2151 -1098.192905977143
2152 -1098.16440047526
2153 -1098.188317287091
2154 -1098.154610382189
2155 -1098.189290469169
2156 -1098.154160818457
2157 -1098.186287171246
2158 -1098.162437363972
2159 -1098.190052162719
2160 -1098.156307503887
2161 -1098.19507318915
2162 -1098.168652278276
2163 -1098.205781716442
2164 -1098.179397072905
2165 -1098.209427525113
2166 -1098.174826682388
2167 -1098.207208619589
2168 -1098.17729690954
2169 -1098.209927501661
2170 -1098.182277741999
2171 -1098.210563118559
2172 -1098.179995252109
2173 -1098.204162678842
2174 -1098.180685375631
2175 -1098.203853647272
2176 -1098.176504802645
2177 -1098.201222219587
2178 -1098.171398175315
2179 -1098.198487696714
2180 -1098.166000003593
2181 -1098.190889817793
2182 -1098.163869297538
2183 -1098.187337960412
2184 -1098.161258553976
2185 -1098.190650986893
2186 -1098.164725126607
2187 -1098.18539001495
2188 -1098.164901422839
2189 -1098.198496672427
2190 -1098.176846053173
2191 -1098.20347307569
2192 -1098.183491797893
2193 -1098.208630989465
2194 -1098.186178681793
2195 -1098.205926495433
2196 -1098.184777755809
2197 -1098.216058158835
2198 -1098.189244675957
2199 -1098.208778639995
2200 -1098.186753562126
2201 -1098.211540966578
2202 -1098.189747451889
2203 -1098.21103125159
2204 -1098.184231910039
2205 -1098.205116302669
2206 -1098.180469009721
2207 -1098.198954016098
2208 -1098.166545433909
2209 -1098.194860444136
2210 -1098.165643942386
2211 -1098.189862391281
2212 -1098.16358664947
2213 -1098.181935769155
2214 -1098.151390057818
2215 -1098.184699881872
2216 -1098.153127438474
2217 -1098.18732750126
2218 -1098.160684088726
2219 -1098.183198924236
2220 -1098.154471652961
2221 -1098.192987544941
2222 -1098.16264490367
2223 -1098.193079060811
2224 -1098.170346292288
2225 -1098.196310972106
2226 -1098.176238052192
2227 -1098.201383467855
2228 -1098.173347638531
2229 -1098.200903271857
2230 -1098.179698246096
2231 -1098.203986121435
2232 -1098.176305484972
2233 -1098.200814152455
2234 -1098.179243923945
2235 -1098.201964860242
2236 -1098.176421199776
2237 -1098.199560375101
2238 -1098.172979680931
2239 -1098.200632753055
2240 -1098.169372331491
2241 -1098.192432681209
2242 -1098.166212088187
2243 -1098.189603516646
2244 -1098.165173452511
2245 -1098.189582956338
2246 -1098.171269118826
2247 -1098.189680790786
2248 -1098.161318073385
2249 -1098.182945542182
2250 -1098.164189853114
2251 -1098.187172982401
2252 -1098.159786848231
2253 -1098.186538033685
2254 -1098.166692195941
2255 -1098.188205531994
2256 -1098.166858032177
2257 -1098.191012079217
2258 -1098.165431263146
2259 -1098.196100595971
2260 -1098.169815638017
2261 -1098.199614524654
2262 -1098.176751990788
2263 -1098.192375949452
2264 -1098.165386944113
2265 -1098.191151840528
2266 -1098.162474744664
2267 -1098.188956411787
2268 -1098.162770855007
2269 -1098.183446965181
2270 -1098.152436935181
2271 -1098.180758367209
2272 -1098.147957328642
2273 -1098.172582517704
2274 -1098.150020831836
2275 -1098.169750144953
2276 -1098.145108017007
2277 -1098.167148372827
2278 -1098.140636499028
2279 -1098.161927051742
2280 -1098.135956097558
2281 -1098.163345129168
2282 -1098.138335504783
2283 -1098.157644622277
2284 -1098.141352459322
2285 -1098.164969903366
2286 -1098.143823975721
2287 -1098.167642332981
2288 -1098.145638737518
2289 -1098.174756891638
2290 -1098.151590541795
2291 -1098.169358400801
2292 -1098.14749275489
2293 -1098.172318878557
2294 -1098.150061088603
2295 -1098.171895986376
2296 -1098.151158669316
2297 -1098.173227608933
2298 -1098.145710151513
2299 -1098.166830402108
2300 -1098.14409463925
2301 -1098.171300473368
2302 -1098.142794034366
2303 -1098.158883947028
2304 -1098.135321607669
2305 -1098.154827986149
2306 -1098.134403386133
2307 -1098.154180647193
2308 -1098.126963018633
2309 -1098.155066933127
2310 -1098.136143908788
2311 -1098.160909154919
2312 -1098.131491298761
2313 -1098.163498076945
2314 -1098.133842946014
2315 -1098.166923856493
2316 -1098.141891565978
2317 -1098.164790581305
2318 -1098.137774343078
2319 -1098.165847072365
2320 -1098.141149301607
2321 -1098.175169516293
2322 -1098.14805628302
2323 -1098.170302313774
2324 -1098.13977843422
2325 -1098.171710587204
2326 -1098.143054913596
2327 -1098.173035118788
2328 -1098.147078562846
2329 -1098.176307574822
2330 -1098.148914620202
2331 -1098.168632464117
2332 -1098.14247102926
2333 -1098.167192447865
2334 -1098.141049457326
2335 -1098.161750335777
2336 -1098.135699270388
2337 -1098.160582314368
2338 -1098.136107710305
2339 -1098.163086435044
2340 -1098.137159358715
2341 -1098.16657031048
2342 -1098.149115368019
2343 -1098.172726515739
2344 -1098.15188190759
2345 -1098.177155975182
2346 -1098.157755128432
2347 -1098.182364009104
2348 -1098.161908415481
2349 -1098.190390409287
2350 -1098.16374258542
2351 -1098.184402362249
2352 -1098.161469697124
2353 -1098.184543506105
2354 -1098.163192030525
2355 -1098.183318987959
2356 -1098.158260909592
2357 -1098.180882726832
2358 -1098.16114121953
2359 -1098.181964758222
2360 -1098.158507555412
2361 -1098.178260357139
2362 -1098.151278998457
2363 -1098.181576375881
2364 -1098.153342694256
2365 -1098.187606145681
2366 -1098.163514391506
2367 -1098.185296859104
2368 -1098.153821593169
2369 -1098.188302492884
2370 -1098.156890999134
2371 -1098.187428744455
2372 -1098.1656248734
2373 -1098.191905529123
2374 -1098.166726097359
2375 -1098.192149393599
2376 -1098.169407972316
2377 -1098.201255285841
2378 -1098.179361409831
2379 -1098.202979992438
2380 -1098.179778338921
2381 -1098.202154556496
2382 -1098.182504503777
2383 -1098.203449994113
2384 -1098.177352675889
2385 -1098.195618623937
2386 -1098.173514781769
2387 -1098.194475346977
2388 -1098.17391177184
2389 -1098.201435144939
2390 -1098.174743012195
2391 -1098.192109500096
2392 -1098.169791574366
2393 -1098.193996407364
2394 -1098.172034047571
2395 -1098.18872540263
2396 -1098.169524090948
2397 -1098.19364576996
2398 -1098.173941190133
2399 -1098.194296976047
2400 -1098.17670944267
2401 -1098.205179663196
2402 -1098.18578700643
2403 -1098.210134412283
2404 -1098.185467010792
2405 -1098.212999805255
2406 -1098.19071899755
2407 -1098.21276841479
2408 -1098.191217513829
2409 -1098.215222192572
2410 -1098.193991099537
2411 -1098.215240056659
2412 -1098.194510161479
2413 -1098.219245446855
2414 -1098.19163422923
2415 -1098.21531730841
2416 -1098.189535732042
2417 -1098.217992675974
2418 -1098.187732077392
2419 -1098.208884874953
2420 -1098.172902883634
2421 -1098.207616110082
2422 -1098.176341404715
2423 -1098.204287148275
2424 -1098.17710571954
2425 -1098.195899590655
2426 -1098.16911946395
2427 -1098.203044890548
2428 -1098.1722567909
2429 -1098.206086792973
2430 -1098.181700280898
2431 -1098.206512606034
2432 -1098.184146064404
2433 -1098.205222917724
2434 -1098.183607538479
2435 -1098.206105279176
2436 -1098.178107136203
2437 -1098.204138597048
2438 -1098.184531954262
2439 -1098.210166946237
2440 -1098.180865458219
2441 -1098.209151882838
2442 -1098.184487103844
2443 -1098.206867107163
2444 -1098.183952483519
2445 -1098.20109214626
2446 -1098.179713464538
2447 -1098.199405295758
2448 -1098.173511995172
2449 -1098.197294013536
2450 -1098.1729165206
2451 -1098.190724112379
2452 -1098.166494137786
2453 -1098.184985059341
2454 -1098.163441873599
2455 -1098.185912369455
2456 -1098.15957705197
2457 -1098.181516050508
2458 -1098.161752908461
2459 -1098.18336133104
2460 -1098.163357912093
2461 -1098.189924124721
2462 -1098.165121288876
2463 -1098.186617455239
2464 -1098.165984553
2465 -1098.191421424439
2466 -1098.173169572773
2467 -1098.198937824923
2468 -1098.168443395708
2469 -1098.204663573926
2470 -1098.179886927327
2471 -1098.206363383429
2472 -1098.185582786948
2473 -1098.205502870492
2474 -1098.175573980849
2475 -1098.199751163936
2476 -1098.169521101991
2477 -1098.201294622613
2478 -1098.173296464072
2479 -1098.19652964908
2480 -1098.156737589958
2481 -1098.186842796845
2482 -1098.159404517319
2483 -1098.188562279918
2484 -1098.161969000142
2485 -1098.184561872741
2486 -1098.163651244808
2487 -1098.180576837015
2488 -1098.156090234761
2489 -1098.180092287927
2490 -1098.157167362755
2491 -1098.181958517635
2492 -1098.157929782129
2493 -1098.185074181256
2494 -1098.158943747464
2495 -1098.185999462339
2496 -1098.160633834281
2497 -1098.194176694552
2498 -1098.171833394726
2499 -1098.198534414979
2500 -1098.171727844121
2501 -1098.197668918897
2502 -1098.176861643065
2503 -1098.199647633494
2504 -1098.17223817858
2505 -1098.197439087113
2506 -1098.172182683087
2507 -1098.193915787357
2508 -1098.167421861421
2509 -1098.191630668304
2510 -1098.168976566609
2511 -1098.189057982704
2512 -1098.163319699561
2513 -1098.188467344207
2514 -1098.163423647809
2515 -1098.182425745073
2516 -1098.154540139413
2517 -1098.179461648216
2518 -1098.153212829242
2519 -1098.178848098205
2520 -1098.145066236303
2521 -1098.17838038766
2522 -1098.150548863354
2523 -1098.180588053144
2524 -1098.159411525136
2525 -1098.185495593292
2526 -1098.158263860129
2527 -1098.187053097539
2528 -1098.163512996508
2529 -1098.194709135174
2530 -1098.172464836714
2531 -1098.19549439482
2532 -1098.163704479183
2533 -1098.201553838913
2534 -1098.168130253159
2535 -1098.198222505758
2536 -1098.168276465837
2537 -1098.191116018719
2538 -1098.169553419691
2539 -1098.195288420584
2540 -1098.165034278099
2541 -1098.187299513909
2542 -1098.162819779649
2543 -1098.184210526899
2544 -1098.155679612307
2545 -1098.177115569193
2546 -1098.154110567659
2547 -1098.178805505804
2548 -1098.150844640043
2549 -1098.174602344749
2550 -1098.154836308233
2551 -1098.181771145981
2552 -1098.155195112664
2553 -1098.181525674499
2554 -1098.154660019449
2555 -1098.177020559829
2556 -1098.152725820841
2557 -1098.185863055399
2558 -1098.159364584619
2559 -1098.183683255829
2560 -1098.163641929681
2561 -1098.188651087812
2562 -1098.162659826498
2563 -1098.187945436638
2564 -1098.167199701045
2565 -1098.192550189403
2566 -1098.169517374627
2567 -1098.195839476578
2568 -1098.168555662377
2569 -1098.194834856097
2570 -1098.16390073162
2571 -1098.195640865082
2572 -1098.162376925591
2573 -1098.192470702384
2574 -1098.168497452946
2575 -1098.190139473412
2576 -1098.158867470112
2577 -1098.189942204666
2578 -1098.164207855641
2579 -1098.196264756691
2580 -1098.169088886809
2581 -1098.196678390382
2582 -1098.167120011216
2583 -1098.194548587663
2584 -1098.16976577638
2585 -1098.200822702723
2586 -1098.178974876937
2587 -1098.2059552553
2588 -1098.1752191218
2589 -1098.205200808235
2590 -1098.18214234623
2591 -1098.206955971992
2592 -1098.178104468571
2593 -1098.204168454671
2594 -1098.177179879345
2595 -1098.203166485578
2596 -1098.176611300009
2597 -1098.200865547594
2598 -1098.179084351289
2599 -1098.20378971742
2600 -1098.175305627695
2601 -1098.197394984318
2602 -1098.177865009723
2603 -1098.20202936363
2604 -1098.175570975311
2605 -1098.20421609956
2606 -1098.174600878319
2607 -1098.202168701354
2608 -1098.174756299946
2609 -1098.202537335745
2610 -1098.176790596801
2611 -1098.199461799903
2612 -1098.177445790529
2613 -1098.201968490587
2614 -1098.179722476152
2615 -1098.200888880619
2616 -1098.175096112744
2617 -1098.203258947187
2618 -1098.179408366928
2619 -1098.200738382405
2620 -1098.178615981573
2621 -1098.206393953426
2622 -1098.179533016755
2623 -1098.201682392955
2624 -1098.172416950014
2625 -1098.204170348249
2626 -1098.175557422088
2627 -1098.205528414508
2628 -1098.175445478973
2629 -1098.201043824662
2630 -1098.169807287393
2631 -1098.201140466881
2632 -1098.168205867219
2633 -1098.193572597879
2634 -1098.172013781681
2635 -1098.19736811646
2636 -1098.164228693815
2637 -1098.195842720722
2638 -1098.171958659149
2639 -1098.200058296875
2640 -1098.1799113818
2641 -1098.20538311946
2642 -1098.180357403066
2643 -1098.204980803934
2644 -1098.181384433452
2645 -1098.210858757099
2646 -1098.187755558719
2647 -1098.209715383971
2648 -1098.183161798624
2649 -1098.208986511056
2650 -1098.18697167297
2651 -1098.208513849262
2652 -1098.184541804751
2653 -1098.204593639128
2654 -1098.187920158269
2655 -1098.204900191158
2656 -1098.182577014674
2657 -1098.202130251861
2658 -1098.17845030831
2659 -1098.196481598779
2660 -1098.1740002415
2661 -1098.196312312061
2662 -1098.175329561788
2663 -1098.197903070853
2664 -1098.170802638628
2665 -1098.191629768704
2666 -1098.170881480382
2667 -1098.192099294796
2668 -1098.168849456792
2669 -1098.196359553478
2670 -1098.170833884215
2671 -1098.191771177733
2672 -1098.169243161388
2673 -1098.19044679604
2674 -1098.167147727183
2675 -1098.196252897041
2676 -1098.16882091977
2677 -1098.199936282568
2678 -1098.177382778565
2679 -1098.199792442382
2680 -1098.170494404312
2681 -1098.202336672976
2682 -1098.176144368756
2683 -1098.203832852408
2684 -1098.180214599039
2685 -1098.204328411847
2686 -1098.172562402241
2687 -1098.199735879609
2688 -1098.166821463464
2689 -1098.19612461586
2690 -1098.170394078343
2691 -1098.190154032356
2692 -1098.163260788698
2693 -1098.180381203638
2694 -1098.159196187447
2695 -1098.176846912013
2696 -1098.151573627472
2697 -1098.178700456701
2698 -1098.151440621426
2699 -1098.176084376988
2700 -1098.152719436582
2701 -1098.179516176926
2702 -1098.159678894218
2703 -1098.18197370443
2704 -1098.159466292982
2705 -1098.18269228313
2706 -1098.163019357994
2707 -1098.19020672894
2708 -1098.169350267592
2709 -1098.195507523174
2710 -1098.174478936141
2711 -1098.19532535978
2712 -1098.168972812069
2713 -1098.19198889104
2714 -1098.170139437359
2715 -1098.188970807618
2716 -1098.165074668017
2717 -1098.187853413126
2718 -1098.163311389307
2719 -1098.184389578178
2720 -1098.153756966313
2721 -1098.175965833943
2722 -1098.155345616437
2723 -1098.172997704081
2724 -1098.146080777289
2725 -1098.164575558889
2726 -1098.143896178445
2727 -1098.164073107872
2728 -1098.130849267982
2729 -1098.165077741564
2730 -1098.134583894392
2731 -1098.166561213174
2732 -1098.143344127545
2733 -1098.172569605997
2734 -1098.147573221593
2735 -1098.183862638048
2736 -1098.152474160314
2737 -1098.190725605219
2738 -1098.167250058745
2739 -1098.193971716505
2740 -1098.158232396538
2741 -1098.193135122766
2742 -1098.164988754389
2743 -1098.195712309553
2744 -1098.165482973981
2745 -1098.189866578702
2746 -1098.167963202677
2747 -1098.189672636955
2748 -1098.162774469066
2749 -1098.189439415554
2750 -1098.159804079501
2751 -1098.181336779508
2752 -1098.153535255322
2753 -1098.1778527154
2754 -1098.155732446638
2755 -1098.178056799597
2756 -1098.14749381437
2757 -1098.17587323188
2758 -1098.153571985302
2759 -1098.177646992653
2760 -1098.152237630462
2761 -1098.175977822611
2762 -1098.155840065271
2763 -1098.179925893077
2764 -1098.161015084346
2765 -1098.184426612844
2766 -1098.16617635318
2767 -1098.184374313319
2768 -1098.165749839364
2769 -1098.19072266201
2770 -1098.16779211661
2771 -1098.193771155356
2772 -1098.168800566291
2773 -1098.194604605068
2774 -1098.175791915432
2775 -1098.195571777719
2776 -1098.173840981251
2777 -1098.19602621805
2778 -1098.166330015919
2779 -1098.192137135468
2780 -1098.168477683659
2781 -1098.196053141901
2782 -1098.167915594674
2783 -1098.185314699168
2784 -1098.153448630614
2785 -1098.181857181916
2786 -1098.153880876804
2787 -1098.181712842397
2788 -1098.154090909977
2789 -1098.177978136687
2790 -1098.152000337755
2791 -1098.18273089975
2792 -1098.155886080277
2793 -1098.181389241779
2794 -1098.163036392073
2795 -1098.186178832929
2796 -1098.157534300854
2797 -1098.182994697034
2798 -1098.160310579389
2799 -1098.184534910016
2800 -1098.155510092465
2801 -1098.181704358957
2802 -1098.163178084885
2803 -1098.188106493915
2804 -1098.163264327466
2805 -1098.186369279798
2806 -1098.168910122319
2807 -1098.189734977125
2808 -1098.166495615243
2809 -1098.192604655565
2810 -1098.165970200976
2811 -1098.188287806618
2812 -1098.162694402443
2813 -1098.19031468603
2814 -1098.160775018094
2815 -1098.180821020055
2816 -1098.15665684392
2817 -1098.184254667817
2818 -1098.161723977712
2819 -1098.184958907631
2820 -1098.161666326866
2821 -1098.182830867679
2822 -1098.161041890364
2823 -1098.179973903547
2824 -1098.159687776052
2825 -1098.18263153733
2826 -1098.161280654302
2827 -1098.182420732594
2828 -1098.161106515179
2829 -1098.189526170737
2830 -1098.167338394661
2831 -1098.19063999723
2832 -1098.15833114841
2833 -1098.195009273258
2834 -1098.168261332226
2835 -1098.197289599065
2836 -1098.171629257332
2837 -1098.194312627162
2838 -1098.164869095012
2839 -1098.192420656347
2840 -1098.160732464388
2841 -1098.192120452557
2842 -1098.165614131118
2843 -1098.187319274905
2844 -1098.155045779956
2845 -1098.186934614264
2846 -1098.161323594675
2847 -1098.193691227132
2848 -1098.163209017209
2849 -1098.183111120426
2850 -1098.164253182746
2851 -1098.1862806022
2852 -1098.161319801785
2853 -1098.186080301241
2854 -1098.164196868049
2855 -1098.187502601977
2856 -1098.162059693417
2857 -1098.188280513408
2858 -1098.164300491427
2859 -1098.187386110343
2860 -1098.163818451882
2861 -1098.190247267059
2862 -1098.170946162627
2863 -1098.18889257063
2864 -1098.168815899293
2865 -1098.189909112859
2866 -1098.167991493392
2867 -1098.194415103191
2868 -1098.167563930815
2869 -1098.193496775729
2870 -1098.172320263363
2871 -1098.195168722263
2872 -1098.167498658536
2873 -1098.188830294203
2874 -1098.169057482298
2875 -1098.193007236277
2876 -1098.168056108588
2877 -1098.187934683664
2878 -1098.169779799436
2879 -1098.191350186069
2880 -1098.167733479532
2881 -1098.187923943845
2882 -1098.162385391179
2883 -1098.192200315882
2884 -1098.165733948194
2885 -1098.198689217511
2886 -1098.174527876439
2887 -1098.195342856938
2888 -1098.165259436724
2889 -1098.196241051963
2890 -1098.171977882607
2891 -1098.203637714742
2892 -1098.175265921325
2893 -1098.200235163133
2894 -1098.173218782205
2895 -1098.199869932075
2896 -1098.16864601193
2897 -1098.196393824587
2898 -1098.172260679809
2899 -1098.193745533291
2900 -1098.166549712044
2901 -1098.186492243678
2902 -1098.16337356948
2903 -1098.187815862467
2904 -1098.155368442493
2905 -1098.178267328825
2906 -1098.157673288427
2907 -1098.186646363841
2908 -1098.159029772382
2909 -1098.187691791101
2910 -1098.161847529848
2911 -1098.189119427691
2912 -1098.163322183002
2913 -1098.188186943659
2914 -1098.170605873872
2915 -1098.191011091063
2916 -1098.170440780855
2917 -1098.1977387603
2918 -1098.180328560193
2919 -1098.201911606611
2920 -1098.177442700744
2921 -1098.203267863031
2922 -1098.180740137171
2923 -1098.202315878679
2924 -1098.17667108947
2925 -1098.201644827125
2926 -1098.178032431398
2927 -1098.198423461686
2928 -1098.168236781679
2929 -1098.19187599058
2930 -1098.167097046923
2931 -1098.191432285546
2932 -1098.164019063234
2933 -1098.181536667054
2934 -1098.164089386832
2935 -1098.185633026864
2936 -1098.14988755904
2937 -1098.179414661582
2938 -1098.156591048273
2939 -1098.190589762278
2940 -1098.159088171699
2941 -1098.182073050303
2942 -1098.151417551928
2943 -1098.184882639359
2944 -1098.153931258272
2945 -1098.185788239385
2946 -1098.161935114663
2947 -1098.186128836771
2948 -1098.157361805719
2949 -1098.193069115403
2950 -1098.164689124634
2951 -1098.193306785006
2952 -1098.165966622885
2953 -1098.18937704514
2954 -1098.166425538793
2955 -1098.189016544316
2956 -1098.160351468486
2957 -1098.184876233236
2958 -1098.157513337624
2959 -1098.179955507371
2960 -1098.152631892039
2961 -1098.176871649262
2962 -1098.146246764054
2963 -1098.168730969533
2964 -1098.140365963136
2965 -1098.16539422916
2966 -1098.141664021148
2967 -1098.167725752231
2968 -1098.1382381207
2969 -1098.164641417554
2970 -1098.143125230168
2971 -1098.169385272084
2972 -1098.144875951961
2973 -1098.177603766138
2974 -1098.156560226547
2975 -1098.182712937191
2976 -1098.157345131835
2977 -1098.185649938091
2978 -1098.161106351195
2979 -1098.18705134809
2980 -1098.16156321395
2981 -1098.194926290181
2982 -1098.166221214426
2983 -1098.188100648293
2984 -1098.163294101543
2985 -1098.186266965767
2986 -1098.161299634113
2987 -1098.182836319258
2988 -1098.151948965685
2989 -1098.185393736728
2990 -1098.152086024449
2991 -1098.179662284487
2992 -1098.152997877642
2993 -1098.173081935937
2994 -1098.137942646502
2995 -1098.17360081974
2996 -1098.13415298637
2997 -1098.169700311108
2998 -1098.141433631822
2999 -1098.170180999528
3000 -1098.129868277056
3001 -1098.16478200415
3002 -1098.137448876624
3003 -1098.171843162241
3004 -1098.146768845704
3005 -1098.174435201994
3006 -1098.149911068347
3007 -1098.177234913121
3008 -1098.144028855216
3009 -1098.181019289285
3010 -1098.151262463171
3011 -1098.176693756228
3012 -1098.156088836499
3013 -1098.186619601925
3014 -1098.156977603929
3015 -1098.187797081555
3016 -1098.159244582395
3017 -1098.187817647233
3018 -1098.160571343352
3019 -1098.182204312205
3020 -1098.154767268937
3021 -1098.179188046497
3022 -1098.152814691515
3023 -1098.175398319376
3024 -1098.147360291295
3025 -1098.172118328333
3026 -1098.147101237875
3027 -1098.17016494158
3028 -1098.146692230414
3029 -1098.175386273119
3030 -1098.153661639049
3031 -1098.172945825961
3032 -1098.152993587114
3033 -1098.177666040814
3034 -1098.155439633492
3035 -1098.178400336812
3036 -1098.157837692925
3037 -1098.188973368723
3038 -1098.159588156052
3039 -1098.190381319113
3040 -1098.160353653313
3041 -1098.197536411547
3042 -1098.171212651887
3043 -1098.199752593712
3044 -1098.170462807419
3045 -1098.194756715745
3046 -1098.173235783989
3047 -1098.201089261676
3048 -1098.171744186529
3049 -1098.196380971629
3050 -1098.164120497536
3051 -1098.192364866065
3052 -1098.160478249842
3053 -1098.191693021517
3054 -1098.162501371829
3055 -1098.183071351848
3056 -1098.161731026177
3057 -1098.186425100163
3058 -1098.15859528322
3059 -1098.181753219066
3060 -1098.154131034139
3061 -1098.181453958469
3062 -1098.153806708584
3063 -1098.172223467549
3064 -1098.146117298316
3065 -1098.167086390175
3066 -1098.152306526349
3067 -1098.177196657002
3068 -1098.152183952132
3069 -1098.179722525189
3070 -1098.161929075589
3071 -1098.186271232323
3072 -1098.167250934745
3073 -1098.193914902353
3074 -1098.174121385159
3075 -1098.195758790139
3076 -1098.172251259333
3077 -1098.195242329064
3078 -1098.174586538778
3079 -1098.196939320956
3080 -1098.170769679267
3081 -1098.19413284561
3082 -1098.173124527697
3083 -1098.192077435392
3084 -1098.169853705796
3085 -1098.188692777736
3086 -1098.170777980007
3087 -1098.190250774685
3088 -1098.169045843615
3089 -1098.187375029383
3090 -1098.168642944252
3091 -1098.190789157284
3092 -1098.157476479499
3093 -1098.189551391621
3094 -1098.168554633867
3095 -1098.198039632669
3096 -1098.172183605338
3097 -1098.198308791809
3098 -1098.171320421886
3099 -1098.205347801935
3100 -1098.178856410508
3101 -1098.206544305434
3102 -1098.185659014089
3103 -1098.205606131656
3104 -1098.176499929894
3105 -1098.199462779056
3106 -1098.177503231155
3107 -1098.209593105278
3108 -1098.18165894202
3109 -1098.206409668358
3110 -1098.180381620546
3111 -1098.200980750845
3112 -1098.172846983317
3113 -1098.197333440849
3114 -1098.174616593132
3115 -1098.194810976152
3116 -1098.16777214949
3117 -1098.188453258672
3118 -1098.167025600082
3119 -1098.18743519978
3120 -1098.166985381637
3121 -1098.192818232716
3122 -1098.166372216198
3123 -1098.189968102155
3124 -1098.168682112407
3125 -1098.194986119938
3126 -1098.175413244763
3127 -1098.196929763001
3128 -1098.174210160364
3129 -1098.199345638706
3130 -1098.178113341696
3131 -1098.198221570408
3132 -1098.180681674282
3133 -1098.203116198049
3134 -1098.182614114049
3135 -1098.202561136916
3136 -1098.178643843981
3137 -1098.19728745206
3138 -1098.179733603075
3139 -1098.197125932498
3140 -1098.17349350431
3141 -1098.191616268534
3142 -1098.165888649329
3143 -1098.190765827511
3144 -1098.16418169202
3145 -1098.195611729374
3146 -1098.168823953401
3147 -1098.187652070257
3148 -1098.15850214164
3149 -1098.191000430071
3150 -1098.162045093061
3151 -1098.189764149085
3152 -1098.169588783421
3153 -1098.192997336861
3154 -1098.166117272432
3155 -1098.196445286972
3156 -1098.170844500674
3157 -1098.205164371591
3158 -1098.18088973626
3159 -1098.202565205409
3160 -1098.180757968136
3161 -1098.204782147066
3162 -1098.177131011616
3163 -1098.201612842008
3164 -1098.176484960963
3165 -1098.19953741954
3166 -1098.169851958171
3167 -1098.190117452177
3168 -1098.161172946222
3169 -1098.189931241808
3170 -1098.164134941297
3171 -1098.186426115
3172 -1098.159465795867
3173 -1098.182646807115
3174 -1098.162706250292
3175 -1098.183884470009
3176 -1098.156663229152
3177 -1098.178987882867
3178 -1098.159525204764
3179 -1098.181917174415
3180 -1098.155239465679
3181 -1098.181271625019
3182 -1098.160707075281
3183 -1098.184643097736
3184 -1098.160196051468
3185 -1098.183742896034
3186 -1098.160920590485
3187 -1098.181284469994
3188 -1098.161766520194
3189 -1098.187073835443
3190 -1098.16462449116
3191 -1098.188632988336
3192 -1098.166172941053
3193 -1098.189279412263
3194 -1098.167173177609
3195 -1098.18726496539
3196 -1098.154136360171
3197 -1098.184122238974
3198 -1098.16020880458
3199 -1098.189231526
3200 -1098.157636093198
3201 -1098.179533167645
3202 -1098.14598638851
3203 -1098.174526412057
3204 -1098.142255818044
3205 -1098.1760043399
3206 -1098.149216621753
3207 -1098.172161753988
3208 -1098.138008715113
3209 -1098.168074541004
3210 -1098.145094292771
3211 -1098.176103333921
3212 -1098.150175843808
3213 -1098.174179355858
3214 -1098.154954149458
3215 -1098.180854982987
3216 -1098.153646728742
3217 -1098.183106813548
3218 -1098.157201204775
3219 -1098.182881120157
3220 -1098.160017748821
3221 -1098.187047673626
3222 -1098.157326290338
3223 -1098.178225708066
3224 -1098.15491646898
3225 -1098.179864412177
3226 -1098.155534999239
3227 -1098.179636023124
3228 -1098.153628621393
3229 -1098.180987867468
3230 -1098.156060971265
3231 -1098.171718593395
3232 -1098.147842716037
3233 -1098.172387778839
3234 -1098.147227487015
3235 -1098.165171123853
3236 -1098.1432960915
3237 -1098.170256419748
3238 -1098.144349902521
3239 -1098.166859946689
3240 -1098.138825635622
3241 -1098.168272114133
3242 -1098.145892682071
3243 -1098.170718372262
3244 -1098.145843046424
3245 -1098.171324803978
3246 -1098.147575955036
3247 -1098.185684803188
3248 -1098.153119643957
3249 -1098.188193204134
3250 -1098.166657150166
3251 -1098.191533004225
3252 -1098.160379605765
3253 -1098.19707319473
3254 -1098.172810537207
3255 -1098.200989940772
3256 -1098.175867061985
3257 -1098.20207034006
3258 -1098.166730388871
3259 -1098.198974659052
3260 -1098.164391904968
3261 -1098.191687761185
3262 -1098.167820689572
3263 -1098.188991318158
3264 -1098.15960096472
3265 -1098.182838682787
3266 -1098.159165039596
3267 -1098.183208980437
3268 -1098.157553193003
3269 -1098.180338417827
3270 -1098.159117050528
3271 -1098.179354643253
3272 -1098.156471512234
3273 -1098.180267828027
3274 -1098.163164005537
3275 -1098.192450810746
3276 -1098.164616035977
3277 -1098.194813092467
3278 -1098.175377719456
3279 -1098.202505711642
3280 -1098.181843003959
3281 -1098.208985879071
3282 -1098.186776513329
3283 -1098.210362478102
3284 -1098.19094841917
3285 -1098.213432858062
3286 -1098.188562781907
3287 -1098.207850334106
3288 -1098.183340429654
3289 -1098.210098446463
3290 -1098.183581995453
3291 -1098.206087793576
3292 -1098.17842655778
3293 -1098.199722297405
3294 -1098.177532486891
3295 -1098.202310562143
3296 -1098.176398374204
3297 -1098.198941453126
3298 -1098.176633596057
3299 -1098.194444418161
3300 -1098.164172856601
3301 -1098.197861652398
3302 -1098.164735182513
3303 -1098.192883551191
3304 -1098.170808334692
3305 -1098.190810893956
3306 -1098.166126527956
3307 -1098.201721182288
3308 -1098.170365153818
3309 -1098.203897156905
3310 -1098.183619179039
3311 -1098.210340837785
3312 -1098.184021325397
3313 -1098.21710809672
3314 -1098.191487590736
3315 -1098.221315139139
3316 -1098.193055479275
3317 -1098.216818438279
3318 -1098.195872135831
3319 -1098.217903930945
3320 -1098.188169378991
3321 -1098.209578658554
3322 -1098.184176820329
3323 -1098.20760821613
3324 -1098.183157918757
3325 -1098.202336742992
3326 -1098.181011879532
3327 -1098.203419037961
3328 -1098.175333005819
3329 -1098.197607984048
3330 -1098.175345993496
3331 -1098.200274263116
3332 -1098.174231532363
3333 -1098.201481589835
3334 -1098.179610355274
3335 -1098.204215321248
3336 -1098.181446722357
3337 -1098.210284457597
3338 -1098.188903684532
3339 -1098.211097414748
3340 -1098.190052965925
3341 -1098.215129034008
3342 -1098.195765344559
3343 -1098.213483719872
3344 -1098.189507061007
3345 -1098.2121270586
3346 -1098.19176347647
3347 -1098.217308040101
3348 -1098.192189933814
3349 -1098.220519946626
3350 -1098.188252101241
3351 -1098.220101820489
3352 -1098.18885436949
3353 -1098.215644241779
3354 -1098.19321635338
3355 -1098.214265317806
3356 -1098.17971304514
3357 -1098.210225246412
3358 -1098.181491578709
3359 -1098.213135199283
3360 -1098.184424093366
3361 -1098.206957815391
3362 -1098.175787210619
3363 -1098.206297636531
3364 -1098.177146739413
3365 -1098.20907673825
3366 -1098.188730243572
3367 -1098.213776762739
3368 -1098.189197199501
3369 -1098.214069681543
3370 -1098.186290145743
3371 -1098.211371122241
3372 -1098.186877562461
3373 -1098.218534084925
3374 -1098.189106567381
3375 -1098.212676227523
3376 -1098.18707078679
3377 -1098.214704536792
3378 -1098.191720360747
3379 -1098.214062363973
3380 -1098.191435096973
3381 -1098.212206005057
3382 -1098.188676231117
3383 -1098.207027208105
3384 -1098.18235094056
3385 -1098.210249860248
3386 -1098.181235181911
3387 -1098.206569879182
3388 -1098.17673267386
3389 -1098.201797770391
3390 -1098.17782528069
3391 -1098.197556036394
3392 -1098.1773413181
3393 -1098.202108045603
3394 -1098.179988400048
3395 -1098.201147435625
3396 -1098.181981516844
3397 -1098.207492835263
3398 -1098.181702343128
3399 -1098.205138897713
3400 -1098.177625555411
3401 -1098.203083188546
3402 -1098.172765754838
3403 -1098.20712613978
3404 -1098.175301106777
3405 -1098.203650396712
3406 -1098.179214741344
3407 -1098.206426946875
3408 -1098.169618097738
3409 -1098.201788436169
3410 -1098.170874440935
3411 -1098.201426053408
3412 -1098.171165627749
3413 -1098.193952146399
3414 -1098.164043850545
3415 -1098.197595266794
3416 -1098.161669824347
3417 -1098.18998044851
3418 -1098.168152834452
3419 -1098.193786539538
3420 -1098.163017501729
3421 -1098.189332928791
3422 -1098.163563239795
3423 -1098.188580649046
3424 -1098.159717866684
3425 -1098.181431387725
3426 -1098.159627888675
3427 -1098.188973238366
3428 -1098.160466555389
3429 -1098.186845754398
3430 -1098.164955907266
3431 -1098.193053079005
3432 -1098.16793710107
3433 -1098.191508243962
3434 -1098.171641382693
3435 -1098.195806436564
3436 -1098.169901327477
3437 -1098.192223575654
3438 -1098.169917176461
3439 -1098.187158387643
3440 -1098.16450989991
3441 -1098.184017368732
3442 -1098.155992384229
3443 -1098.178680699332
3444 -1098.153693905496
3445 -1098.175617925458
3446 -1098.150119906765
3447 -1098.173377321273
3448 -1098.145207547119
3449 -1098.166921291496
3450 -1098.145551966707
3451 -1098.166495200001
3452 -1098.145200471718
3453 -1098.160379906106
3454 -1098.146310641197
3455 -1098.166255593244
3456 -1098.137186565296
3457 -1098.165623865105
3458 -1098.141753978879
3459 -1098.174247374174
3460 -1098.1464270635
3461 -1098.170010100996
3462 -1098.14445641509
3463 -1098.175190068944
3464 -1098.144793121497
3465 -1098.171416088607
3466 -1098.145718757909
3467 -1098.167744074497
3468 -1098.137674081955
3469 -1098.169878136888
3470 -1098.138822783028
3471 -1098.165383428125
3472 -1098.135936488959
3473 -1098.156673057341
3474 -1098.132468002141
3475 -1098.153249537421
3476 -1098.124788352653
3477 -1098.151212140657
3478 -1098.124784335384
3479 -1098.146077836439
3480 -1098.120747100328
3481 -1098.14800347722
3482 -1098.119962064798
3483 -1098.142273097173
3484 -1098.120981155957
3485 -1098.147661120646
3486 -1098.128157573159
3487 -1098.154319114555
3488 -1098.12748232569
3489 -1098.152994313029
3490 -1098.134959228864
3491 -1098.160771683878
3492 -1098.139234000531
3493 -1098.164319528618
3494 -1098.144519821908
3495 -1098.165963041441
3496 -1098.141974943242
3497 -1098.16829002658
3498 -1098.143618781424
3499 -1098.170763888155
3500 -1098.14212900978
3501 -1098.15922786832
3502 -1098.1375092783
3503 -1098.158601668364
3504 -1098.133766520275
3505 -1098.155776103807
3506 -1098.125143752343
3507 -1098.156572432849
3508 -1098.130758285018
3509 -1098.161908468001
3510 -1098.13485290798
3511 -1098.156297664206
3512 -1098.127570967114
3513 -1098.161083559829
3514 -1098.135537920539
3515 -1098.165112187124
3516 -1098.145900491164
3517 -1098.177019880295
3518 -1098.146438302707
3519 -1098.179621803599
3520 -1098.155481385684
3521 -1098.187400916077
3522 -1098.163783501596
3523 -1098.186899636382
3524 -1098.165640121199
3525 -1098.190052375097
3526 -1098.165823037883
3527 -1098.189121932958
3528 -1098.163076988269
3529 -1098.190395140825
3530 -1098.162152859315
3531 -1098.18256124387
3532 -1098.15945401573
3533 -1098.185082647498
3534 -1098.162723805076
3535 -1098.182547460568
3536 -1098.159246066557
3537 -1098.181269535157
3538 -1098.158520505335
3539 -1098.181879794909
3540 -1098.151645017985
3541 -1098.180602192557
3542 -1098.154906806264
3543 -1098.178181026814
3544 -1098.152972937582
3545 -1098.177277257883
3546 -1098.160863606487
3547 -1098.18595628023
3548 -1098.16420746951
3549 -1098.186910349649
3550 -1098.173006788691
3551 -1098.198489152294
3552 -1098.175460785965
3553 -1098.2030230286
3554 -1098.179932308334
3555 -1098.202203509391
3556 -1098.178160292296
3557 -1098.204508440261
3558 -1098.17448536133
3559 -1098.203954733369
3560 -1098.176073247842
3561 -1098.202943117848
3562 -1098.177014509077
3563 -1098.196940065594
3564 -1098.167522834712
3565 -1098.198120328727
3566 -1098.167450686868
3567 -1098.191431926023
3568 -1098.164639015645
3569 -1098.186187482092
3570 -1098.157514367013
3571 -1098.186565156103
3572 -1098.156376916384
3573 -1098.188804652949
3574 -1098.16535848821
3575 -1098.191113852675
3576 -1098.1663882174
3577 -1098.192421703372
3578 -1098.171596566041
3579 -1098.19397898472
3580 -1098.168837880694
3581 -1098.192516192212
3582 -1098.172547240049
3583 -1098.193872202679
3584 -1098.172614431316
3585 -1098.191781653647
3586 -1098.169388680757
3587 -1098.192281003282
3588 -1098.170870628249
3589 -1098.204723113148
3590 -1098.17683266848
3591 -1098.200271212111
3592 -1098.17503704608
3593 -1098.198028116178
3594 -1098.172939238183
3595 -1098.196191006491
3596 -1098.164502848446
3597 -1098.188090272878
3598 -1098.166691169435
3599 -1098.186907233548
3600 -1098.159691437118
3601 -1098.181602326965
3602 -1098.158382642659
3603 -1098.181048915944
3604 -1098.159928614753
3605 -1098.183788791744
3606 -1098.163600940891
3607 -1098.185915781812
3608 -1098.160411965159
3609 -1098.186858424357
3610 -1098.162660031477
3611 -1098.187286313937
3612 -1098.156882407786
3613 -1098.190723744289
3614 -1098.163084090873
3615 -1098.197000296022
3616 -1098.167552283946
3617 -1098.192595130174
3618 -1098.167591771412
3619 -1098.200681201293
3620 -1098.166975100954
3621 -1098.194408008218
3622 -1098.168195386869
3623 -1098.188600255713
3624 -1098.154735084722
3625 -1098.183433785252
3626 -1098.153340832257
3627 -1098.185150185251
3628 -1098.155048000037
3629 -1098.182316368333
3630 -1098.154526965303
3631 -1098.178509758277
3632 -1098.147139799465
3633 -1098.170209638957
3634 -1098.14246561081
3635 -1098.172581102544
3636 -1098.141044771776
3637 -1098.169880152109
3638 -1098.145490773559
3639 -1098.171554670494
3640 -1098.141905912968
3641 -1098.163994982569
3642 -1098.145500845674
3643 -1098.170717151226
3644 -1098.149143924979
3645 -1098.173231957058
3646 -1098.150179754155
3647 -1098.172417931735
3648 -1098.149755897725
3649 -1098.178285470785
3650 -1098.150135885171
3651 -1098.173911144598
3652 -1098.145599348347
3653 -1098.171852590347
3654 -1098.150532238904
3655 -1098.173625379929
3656 -1098.150985003188
3657 -1098.174476536906
3658 -1098.151316871922
3659 -1098.176002039922
3660 -1098.152890313399
3661 -1098.172823496824
3662 -1098.146073793105
3663 -1098.177918046904
3664 -1098.14828001248
3665 -1098.178752929206
3666 -1098.152902102543
3667 -1098.182692620784
3668 -1098.152087241908
3669 -1098.186045666222
3670 -1098.159478074615
3671 -1098.18999282146
3672 -1098.166551277836
3673 -1098.195289026949
3674 -1098.167190614793
3675 -1098.19599417724
3676 -1098.165898567811
3677 -1098.193365894128
3678 -1098.170810623492
3679 -1098.193425813129
3680 -1098.162383013657
3681 -1098.18263181936
3682 -1098.15884956213
3683 -1098.18179193947
3684 -1098.150845319095
3685 -1098.180016804499
3686 -1098.151627040199
3687 -1098.176151928116
3688 -1098.149513659137
3689 -1098.174553405331
3690 -1098.147604714057
3691 -1098.170465414696
3692 -1098.150036060313
3693 -1098.174352938046
3694 -1098.156146561512
3695 -1098.18019850752
3696 -1098.153995081259
3697 -1098.180632375123
3698 -1098.161580614408
3699 -1098.184607149216
3700 -1098.159900101202
3701 -1098.188392216058
3702 -1098.167439983409
3703 -1098.18993238175
3704 -1098.167666062998
3705 -1098.18795665505
3706 -1098.165513301098
3707 -1098.186715032028
3708 -1098.161422884354
3709 -1098.189718479166
3710 -1098.167793234008
3711 -1098.183159255619
3712 -1098.162751353851
3713 -1098.181160171761
3714 -1098.151618977531
3715 -1098.178996989575
3716 -1098.152487728494
3717 -1098.182604119883
3718 -1098.160142908197
3719 -1098.183466865322
3720 -1098.151115291364
3721 -1098.184999899226
3722 -1098.155531910631
3723 -1098.187699416189
3724 -1098.159661063573
3725 -1098.182251598545
3726 -1098.153792341157
3727 -1098.187729335955
3728 -1098.162775462971
3729 -1098.19674864157
3730 -1098.171294154568
3731 -1098.191665879444
3732 -1098.17298842692
3733 -1098.202670802312
3734 -1098.174449643299
3735 -1098.196509757874
3736 -1098.169577712406
3737 -1098.199291323009
3738 -1098.171105762048
3739 -1098.196232466253
3740 -1098.16803201016
3741 -1098.192876940122
3742 -1098.170072003237
3743 -1098.19265475969
3744 -1098.164382739468
3745 -1098.187275486338
3746 -1098.164844905152
3747 -1098.189112684548
3748 -1098.161349558488
3749 -1098.186588875317
3750 -1098.163615678021
3751 -1098.188576045084
3752 -1098.164646879069
3753 -1098.188864124526
3754 -1098.17254644841
3755 -1098.194556994264
3756 -1098.170750104948
3757 -1098.200801848469
3758 -1098.181010928603
3759 -1098.205311796764
3760 -1098.186271927655
3761 -1098.209928673467
3762 -1098.184418916541
3763 -1098.206935672462
3764 -1098.186413724635
3765 -1098.21082854131
3766 -1098.187819896122
3767 -1098.207614713366
3768 -1098.181696977585
3769 -1098.214212685695
3770 -1098.183773984571
3771 -1098.206338987093
3772 -1098.185658091982
3773 -1098.207506292618
3774 -1098.181658293822
3775 -1098.205031011888
3776 -1098.176825335888
3777 -1098.205526280819
3778 -1098.17834166693
3779 -1098.200385575283
3780 -1098.165580235567
3781 -1098.196424723929
3782 -1098.169788504894
3783 -1098.19601512032
3784 -1098.171725601544
3785 -1098.196602534266
3786 -1098.177784231384
3787 -1098.200722812747
3788 -1098.179229832793
3789 -1098.202220756682
3790 -1098.17986312852
3791 -1098.203109272099
3792 -1098.179971288816
3793 -1098.212085331922
3794 -1098.181717816389
3795 -1098.204658396596
3796 -1098.181863785393
3797 -1098.209472136506
3798 -1098.182050299296
3799 -1098.205997731857
3800 -1098.183338529363
3801 -1098.204966970272
3802 -1098.180210198111
3803 -1098.200531092501
3804 -1098.17516057953
3805 -1098.19851496535
3806 -1098.174841249765
3807 -1098.191207572183
3808 -1098.167737259511
3809 -1098.191470820625
3810 -1098.167156120907
3811 -1098.18726375291
3812 -1098.165920127532
3813 -1098.191322991945
3814 -1098.170167094529
3815 -1098.190947436554
3816 -1098.168498566363
3817 -1098.191336516681
3818 -1098.165108335083
3819 -1098.196851970906
3820 -1098.169522854359
3821 -1098.202076206647
3822 -1098.180132625798
3823 -1098.203930068428
3824 -1098.175159406799
3825 -1098.200483545643
3826 -1098.180994476223
3827 -1098.214595349224
3828 -1098.188478699508
3829 -1098.210117492405
3830 -1098.185773574499
3831 -1098.213084258571
3832 -1098.184738687106
3833 -1098.21086320305
3834 -1098.182900485911
3835 -1098.203614834938
3836 -1098.178481233045
3837 -1098.198325155314
3838 -1098.175583917247
3839 -1098.196881524646
3840 -1098.170495085133
3841 -1098.191220076953
3842 -1098.166337413621
3843 -1098.189555968187
3844 -1098.167761333074
3845 -1098.191574595985
3846 -1098.167089051617
3847 -1098.185516685834
3848 -1098.164130427462
3849 -1098.195804433923
3850 -1098.169185891255
3851 -1098.194058264068
3852 -1098.172522365853
3853 -1098.200201206824
3854 -1098.179885898456
3855 -1098.206603804145
3856 -1098.182014617333
3857 -1098.207574110519
3858 -1098.183503832122
3859 -1098.206324343287
3860 -1098.181042868475
3861 -1098.201757061297
3862 -1098.175363314046
3863 -1098.192021020923
3864 -1098.169263165724
3865 -1098.190658312086
3866 -1098.165291932784
3867 -1098.186123621357
3868 -1098.156579934339
3869 -1098.185208704436
3870 -1098.160527173485
3871 -1098.179520419772
3872 -1098.14879417774
3873 -1098.178073872519
3874 -1098.150200055636
3875 -1098.176327882956
3876 -1098.149558311824
3877 -1098.175639651891
3878 -1098.145057564832
3879 -1098.177065536056
3880 -1098.147985976877
3881 -1098.17690882667
3882 -1098.158113524153
3883 -1098.183353867779
3884 -1098.152271637274
3885 -1098.180211601496
3886 -1098.157105692933
3887 -1098.19056686099
3888 -1098.162239532986
3889 -1098.190062159341
3890 -1098.165654236382
3891 -1098.190717013603
3892 -1098.162284719894
3893 -1098.185645703988
3894 -1098.159191374773
3895 -1098.182133718237
3896 -1098.157813232385
3897 -1098.184254140678
3898 -1098.15700471376
3899 -1098.182503547616
3900 -1098.154462564727
3901 -1098.180026052407
3902 -1098.155005503016
3903 -1098.173326051286
3904 -1098.148815823128
3905 -1098.179548397261
3906 -1098.150330041494
3907 -1098.176412551262
3908 -1098.153236222546
3909 -1098.183473911181
3910 -1098.16272429176
3911 -1098.186912454737
3912 -1098.158293154291
3913 -1098.186417687872
3914 -1098.163510981354
3915 -1098.186144538442
3916 -1098.160415079665
3917 -1098.181280700857
3918 -1098.160972748738
3919 -1098.186904256478
3920 -1098.15717748138
3921 -1098.178874326594
3922 -1098.149585695703
3923 -1098.181596881116
3924 -1098.150541490885
3925 -1098.183506174359
3926 -1098.155458509246
3927 -1098.180917547629
3928 -1098.145046025986
3929 -1098.176752774568
3930 -1098.146768468742
3931 -1098.177023631076
3932 -1098.147381852017
3933 -1098.174694607829
3934 -1098.148278640077
3935 -1098.177784217047
3936 -1098.149600199107
3937 -1098.182234524906
3938 -1098.156475447394
3939 -1098.184677788176
3940 -1098.160490926598
3941 -1098.186798897627
3942 -1098.159718532077
3943 -1098.182100624495
3944 -1098.159536068062
3945 -1098.186795329146
3946 -1098.156273743776
3947 -1098.184713587459
3948 -1098.157576612905
3949 -1098.186964454419
3950 -1098.160847811969
3951 -1098.187022435246
3952 -1098.160186166558
3953 -1098.184649441175
3954 -1098.163950040037
3955 -1098.181045786569
3956 -1098.15970992805
3957 -1098.185593209004
3958 -1098.158125083409
3959 -1098.177712660286
3960 -1098.158404704245
3961 -1098.185465782149
3962 -1098.161036081101
3963 -1098.186804639746
3964 -1098.161208192221
3965 -1098.186521110377
3966 -1098.165883487785
3967 -1098.188118849482
3968 -1098.167211250227
3969 -1098.19091268119
3970 -1098.168339438561
3971 -1098.188107908069
3972 -1098.171421239706
3973 -1098.193660466089
3974 -1098.167627995224
3975 -1098.199992571576
3976 -1098.166869554026
3977 -1098.196029871192
3978 -1098.176157918093
3979 -1098.201452801087
3980 -1098.168473991149
3981 -1098.19913461333
3982 -1098.167328814819
3983 -1098.193633416651
3984 -1098.164437380216
3985 -1098.193803034557
3986 -1098.158083949665
3987 -1098.183000034941
3988 -1098.156517451105
3989 -1098.192023893966
3990 -1098.16574161367
3991 -1098.186977696952
3992 -1098.164780641888
3993 -1098.185436434904
3994 -1098.165243332779
3995 -1098.18933694844
3996 -1098.164493216465
3997 -1098.189987177396
3998 -1098.171885565603
3999 -1098.198462647197
4000 -1098.168861028972
4001 -1098.19535295437
4002 -1098.176325714634
4003 -1098.202410502225
4004 -1098.180532764758
4005 -1098.206125148155
4006 -1098.178804851374
4007 -1098.201971633861
4008 -1098.17904742012
4009 -1098.203591049673
4010 -1098.181966382726
4011 -1098.204339741745
4012 -1098.179666397928
4013 -1098.198198041449
4014 -1098.17710324794
4015 -1098.197248480695
4016 -1098.171917694884
4017 -1098.196661751243
4018 -1098.173325439588
4019 -1098.198364533215
4020 -1098.16863765181
4021 -1098.19094388577
4022 -1098.171937538638
4023 -1098.19348797028
4024 -1098.170167796872
4025 -1098.191943523145
4026 -1098.174370718169
4027 -1098.199439820235
4028 -1098.169498553371
4029 -1098.199749527353
4030 -1098.179534050384
4031 -1098.209873569653
4032 -1098.182922171649
4033 -1098.20496344708
4034 -1098.180350858602
4035 -1098.212532622842
4036 -1098.181824775874
4037 -1098.215590827865
4038 -1098.191759321715
4039 -1098.212979354758
4040 -1098.180017966009
4041 -1098.205783335772
4042 -1098.179164102776
4043 -1098.205446518719
4044 -1098.174524807833
4045 -1098.201755518936
4046 -1098.175877970696
4047 -1098.196669677082
4048 -1098.168420291653
4049 -1098.187811001105
4050 -1098.162480037635
4051 -1098.185502627321
4052 -1098.161175072464
4053 -1098.184591643819
4054 -1098.166653441903
4055 -1098.187217533246
4056 -1098.16558310031
4057 -1098.193978932796
4058 -1098.170166612844
4059 -1098.198091319172
4060 -1098.173913213776
4061 -1098.199983113217
4062 -1098.178848022606
4063 -1098.201788125746
4064 -1098.182969151337
4065 -1098.211018596513
4066 -1098.189947553273
4067 -1098.210621588686
4068 -1098.185626956417
4069 -1098.207915827071
4070 -1098.187477226559
4071 -1098.20736572358
4072 -1098.182304561501
4073 -1098.202438693907
4074 -1098.17531150346
4075 -1098.195843813926
4076 -1098.170104739591
4077 -1098.19408008109
4078 -1098.16798827957
4079 -1098.18944106073
4080 -1098.158829949535
4081 -1098.184763100742
4082 -1098.15887081092
4083 -1098.185958564873
4084 -1098.163458146586
4085 -1098.180565530577
4086 -1098.154288120313
4087 -1098.188311364572
4088 -1098.157090848215
4089 -1098.188501497304
4090 -1098.166902490155
4091 -1098.194377601096
4092 -1098.164462530489
4093 -1098.201475413197
4094 -1098.173152248867
4095 -1098.201276347079
4096 -1098.178968145713
4097 -1098.206583474038
4098 -1098.177689069321
4099 -1098.198951451291
4100 -1098.173090118231
4101 -1098.19865146354
4102 -1098.171003340798
4103 -1098.18867342607
4104 -1098.162998160485
4105 -1098.185104371237
4106 -1098.159547988875
4107 -1098.183015887615
4108 -1098.15484451788
4109 -1098.178930107976
4110 -1098.157441493996
4111 -1098.181325601391
4112 -1098.153459342623
4113 -1098.172205209256
4114 -1098.149674871622
4115 -1098.176477532131
4116 -1098.150123749262
4117 -1098.175061895389
4118 -1098.149263209325
4119 -1098.174689742036
4120 -1098.150625053732
4121 -1098.176034134485
4122 -1098.153555040041
4123 -1098.172291533371
4124 -1098.157551850639
4125 -1098.184388294182
4126 -1098.162558337749
4127 -1098.185526531115
4128 -1098.158540814537
4129 -1098.183617372613
4130 -1098.152728807518
4131 -1098.182614601101
4132 -1098.154352178407
4133 -1098.184589783991
4134 -1098.159938080966
4135 -1098.179267107397
4136 -1098.149585245219
4137 -1098.177193657389
4138 -1098.151102504881
4139 -1098.180632639537
4140 -1098.150532278182
4141 -1098.171661466084
4142 -1098.144593574794
4143 -1098.175141710365
4144 -1098.143707480019
4145 -1098.170568196634
4146 -1098.151015798917
4147 -1098.178462090038
4148 -1098.151655839872
4149 -1098.177862641091
4150 -1098.159204558707
4151 -1098.183760527321
4152 -1098.160552579957
4153 -1098.184501312906
4154 -1098.158708048324
4155 -1098.181942765315
4156 -1098.152302298774
4157 -1098.18433168175
4158 -1098.163135153689
4159 -1098.188898938343
4160 -1098.161438723104
4161 -1098.183656733012
4162 -1098.165884641705
4163 -1098.190488154273
4164 -1098.16896286847
4165 -1098.196319011716
4166 -1098.170359470999
4167 -1098.193372492545
4168 -1098.16244887247
4169 -1098.188626365079
4170 -1098.160299437136
4171 -1098.185120244073
4172 -1098.158541166237
4173 -1098.18462490999
4174 -1098.162558149075
4175 -1098.183163876723
4176 -1098.161271841943
4177 -1098.189070984335
4178 -1098.168140857573
4179 -1098.190488411879
4180 -1098.170163986923
4181 -1098.193277508867
4182 -1098.165700580016
4183 -1098.192650301867
4184 -1098.167931080894
4185 -1098.206191155809
4186 -1098.177515283082
4187 -1098.198038774214
4188 -1098.170351594663
4189 -1098.206349687783
4190 -1098.182508724126
4191 -1098.211109145347
4192 -1098.184927102725
4193 -1098.201461177956
4194 -1098.177674690548
4195 -1098.206537780118
4196 -1098.177051813964
4197 -1098.20717756586
4198 -1098.178070239052
4199 -1098.200774269166
4200 -1098.175494248438
4201 -1098.201503871757
4202 -1098.174654072982
4203 -1098.198107743894
4204 -1098.175140415146
4205 -1098.207425581045
4206 -1098.180353969544
4207 -1098.198895284185
4208 -1098.177881631858
4209 -1098.202284262478
4210 -1098.179471283208
4211 -1098.200964594454
4212 -1098.177437764763
4213 -1098.203371392636
4214 -1098.18183462534
4215 -1098.200476518134
4216 -1098.179677096254
4217 -1098.210207504669
4218 -1098.18861987167
4219 -1098.20658998364
4220 -1098.183849859927
4221 -1098.207171980654
4222 -1098.185290296157
4223 -1098.202600659556
4224 -1098.178587420504
4225 -1098.201054647674
4226 -1098.175983796286
4227 -1098.197647872779
4228 -1098.171936662467
4229 -1098.192565331423
4230 -1098.171548136158
4231 -1098.191941034612
4232 -1098.168264486192
4233 -1098.19014255362
4234 -1098.171704744391
4235 -1098.189827689234
4236 -1098.161725723954
4237 -1098.197187497209
4238 -1098.169976632864
4239 -1098.198078115683
4240 -1098.172974306376
4241 -1098.199797341184
4242 -1098.172175578995
4243 -1098.201844436458
4244 -1098.178395793567
4245 -1098.21172250292
4246 -1098.187713942378
4247 -1098.205568745565
4248 -1098.174689859196
4249 -1098.204498372102
4250 -1098.178997205359
4251 -1098.202524407251
4252 -1098.173640616485
4253 -1098.191588823232
4254 -1098.172620183352
4255 -1098.191051011465
4256 -1098.163245927024
4257 -1098.184563633122
4258 -1098.161257285166
4259 -1098.186336799079
4260 -1098.159040691328
4261 -1098.185453186794
4262 -1098.160077733417
4263 -1098.182907536205
4264 -1098.163134067982
4265 -1098.18768419314
4266 -1098.164242710074
4267 -1098.189891811719
4268 -1098.163620945051
4269 -1098.195298811557
4270 -1098.176005053324
4271 -1098.196846359443
4272 -1098.176367392534
4273 -1098.20086286238
4274 -1098.179200145912
4275 -1098.203360876763
4276 -1098.180572884521
4277 -1098.206889036185
4278 -1098.183230225995
4279 -1098.206061657012
4280 -1098.180833580731
4281 -1098.200167435567
4282 -1098.178402227855
4283 -1098.197945301587
4284 -1098.174846179213
4285 -1098.199927472305
4286 -1098.165954341001
4287 -1098.192885738956
4288 -1098.162537701377
4289 -1098.190949087386
4290 -1098.166925076353
4291 -1098.185745543929
4292 -1098.154551697209
4293 -1098.182931757631
4294 -1098.159052180352
4295 -1098.189410230002
4296 -1098.163203188817
4297 -1098.192847407461
4298 -1098.161834966389
4299 -1098.197045535062
4300 -1098.166004953649
4301 -1098.203501707192
4302 -1098.177030070801
4303 -1098.199424128234
4304 -1098.180397853032
4305 -1098.205657695471
4306 -1098.178012032338
4307 -1098.200231614321
4308 -1098.173850480224
4309 -1098.198258032689
4310 -1098.172229260791
4311 -1098.194811791647
4312 -1098.16692172835
4313 -1098.19117535739
4314 -1098.167536320595
4315 -1098.19196786546
4316 -1098.163871716763
4317 -1098.194603185819
4318 -1098.16641838805
4319 -1098.189131972363
4320 -1098.159936322853
4321 -1098.18364537489
4322 -1098.161057796017
4323 -1098.180134769694
4324 -1098.153556920153
4325 -1098.182056910511
4326 -1098.158349396808
4327 -1098.181187388589
4328 -1098.158161718475
4329 -1098.183291968289
4330 -1098.158976048428
4331 -1098.185616455495
4332 -1098.165361874596
4333 -1098.195128014526
4334 -1098.172394115753
4335 -1098.195409024851
4336 -1098.173908996848
4337 -1098.201076116569
4338 -1098.174835532609
4339 -1098.201939186727
4340 -1098.165422910377
4341 -1098.196597740669
4342 -1098.166733354441
4343 -1098.19196837007
4344 -1098.168445199626
4345 -1098.189573070954
4346 -1098.158861818814
4347 -1098.18122952251
4348 -1098.153523193724
4349 -1098.183220599755
4350 -1098.161052117455
4351 -1098.181615818121
4352 -1098.145617503888
4353 -1098.176353478863
4354 -1098.15013945583
4355 -1098.180832980287
4356 -1098.149210003201
4357 -1098.174796511829
4358 -1098.152408157176
4359 -1098.177116406582
4360 -1098.152508494011
4361 -1098.174531469052
4362 -1098.156946588063
4363 -1098.179432515517
4364 -1098.155429143367
4365 -1098.18170975123
4366 -1098.158441413831
4367 -1098.184240937794
4368 -1098.158443465876
4369 -1098.185064714836
4370 -1098.158577980892
4371 -1098.185790770036
4372 -1098.156688921804
4373 -1098.176882749516
4374 -1098.158715960064
4375 -1098.180318228151
4376 -1098.15023804533
4377 -1098.16798321854
4378 -1098.144809777371
4379 -1098.164921893949
4380 -1098.1355090787
4381 -1098.160684181704
4382 -1098.135487390077
4383 -1098.15446098614
4384 -1098.130319441678
4385 -1098.153423623571
4386 -1098.129751470567
4387 -1098.15239233609
4388 -1098.135747200333
4389 -1098.159172729618
4390 -1098.130398873582
4391 -1098.157258865542
4392 -1098.132426885925
4393 -1098.166763483371
4394 -1098.141509030389
4395 -1098.165856237405
4396 -1098.135143063073
4397 -1098.169557874799
4398 -1098.139758817168
4399 -1098.170565862374
4400 -1098.146110953007
4401 -1098.16935050033
4402 -1098.144128440171
4403 -1098.170598885294
4404 -1098.145038270078
4405 -1098.175822348877
4406 -1098.148938525417
4407 -1098.172692217592
4408 -1098.142139014366
4409 -1098.170760904394
4410 -1098.139589247226
4411 -1098.164700492875
4412 -1098.136179486997
4413 -1098.161143836884
4414 -1098.135236660535
4415 -1098.157846665242
4416 -1098.135291071566
4417 -1098.164043827005
4418 -1098.138984295804
4419 -1098.164428610377
4420 -1098.140859963108
4421 -1098.166421999739
4422 -1098.143517546927
4423 -1098.170915273874
4424 -1098.146285255055
4425 -1098.175134630503
4426 -1098.153831241296
4427 -1098.182978273868
4428 -1098.155251576889
4429 -1098.185116094261
4430 -1098.164798602008
4431 -1098.189716270147
4432 -1098.167135218516
4433 -1098.18676822956
4434 -1098.166090916046
4435 -1098.190443020012
4436 -1098.161986057258
4437 -1098.187743980156
4438 -1098.163377006198
4439 -1098.186658599017
4440 -1098.157980020286
4441 -1098.181502697762
4442 -1098.160575846054
4443 -1098.186127843295
4444 -1098.155302222947
4445 -1098.188235006064
4446 -1098.161994205598
4447 -1098.192060776064
4448 -1098.168093093111
4449 -1098.190467310966
4450 -1098.15987873808
4451 -1098.191154625386
4452 -1098.163699609454
4453 -1098.200438819163
4454 -1098.175955826545
4455 -1098.198506684976
4456 -1098.170909456784
4457 -1098.205783457082
4458 -1098.177424071596
4459 -1098.203522963858
4460 -1098.180623224825
4461 -1098.206002053549
4462 -1098.178382896932
4463 -1098.199366022234
4464 -1098.172984279884
4465 -1098.198200866028
4466 -1098.172777266898
4467 -1098.19524329571
4468 -1098.165923866166
4469 -1098.196369037816
4470 -1098.17179777746
4471 -1098.194450225631
4472 -1098.172157663481
4473 -1098.19352655094
4474 -1098.172942241814
4475 -1098.196913680734
4476 -1098.169187090772
4477 -1098.1939251683
4478 -1098.170473587631
4479 -1098.198595235911
4480 -1098.173980394193
4481 -1098.203421141716
4482 -1098.178766078521
4483 -1098.20361840973
4484 -1098.181098581233
4485 -1098.211218231789
4486 -1098.187172549571
4487 -1098.210739472323
4488 -1098.185502801405
4489 -1098.205918074055
4490 -1098.182046253178
4491 -1098.205536958492
4492 -1098.179135141929
4493 -1098.201725092138
4494 -1098.173406758919
4495 -1098.202016885534
4496 -1098.172710593571
4497 -1098.19866538687
4498 -1098.175700523737
4499 -1098.202136241006
4500 -1098.169102963553
4501 -1098.2026897057
4502 -1098.17472090447
4503 -1098.200976999887
4504 -1098.179954776877
4505 -1098.207138148188
4506 -1098.170641680126
4507 -1098.209457460589
4508 -1098.181707961345
4509 -1098.213052733211
4510 -1098.193178878865
4511 -1098.21723069985
4512 -1098.192321162208
4513 -1098.218073620401
4514 -1098.199281600889
4515 -1098.219500073965
4516 -1098.197558341402
4517 -1098.222215548818
4518 -1098.193671289491
4519 -1098.21861107367
4520 -1098.191847432917
4521 -1098.222176777975
4522 -1098.194379608665
4523 -1098.219173288429
4524 -1098.192616434148
4525 -1098.219201009808
4526 -1098.192131457879
4527 -1098.215109406389
4528 -1098.185905556351
4529 -1098.210866924472
4530 -1098.188409288483
4531 -1098.207371394064
4532 -1098.181772647153
4533 -1098.207664340733
4534 -1098.184165725954
4535 -1098.212995788243
4536 -1098.183237626386
4537 -1098.21292561696
4538 -1098.188669134728
4539 -1098.21875257422
4540 -1098.193383015668
4541 -1098.221560443016
4542 -1098.195108010313
4543 -1098.214692002196
4544 -1098.192610098068
4545 -1098.219829427573
4546 -1098.197510202683
4547 -1098.221632328999
4548 -1098.18452336288
4549 -1098.216642114893
4550 -1098.190507376416
4551 -1098.220434372551
4552 -1098.192267592394
4553 -1098.211269854608
4554 -1098.180707698417
4555 -1098.208642898556
4556 -1098.17875705347
4557 -1098.207808597552
4558 -1098.18077132795
4559 -1098.199341848112
4560 -1098.162436674871
4561 -1098.188621057276
4562 -1098.161314964968
4563 -1098.197336850525
4564 -1098.166733308054
4565 -1098.191250016862
4566 -1098.166915405277
4567 -1098.189414723797
4568 -1098.163093353929
4569 -1098.191223705571
4570 -1098.167635558641
4571 -1098.189526133209
4572 -1098.169350878291
4573 -1098.198309748604
4574 -1098.172389867967
4575 -1098.196180100026
4576 -1098.170506641471
4577 -1098.202595938474
4578 -1098.174465151292
4579 -1098.201250008441
4580 -1098.172985658324
4581 -1098.202128147607
4582 -1098.175102122685
4583 -1098.193903425743
4584 -1098.172559874565
4585 -1098.193772781622
4586 -1098.168563914556
4587 -1098.184810513249
4588 -1098.15883035702
4589 -1098.182596448716
4590 -1098.156985223144
4591 -1098.179115743838
4592 -1098.152061042033
4593 -1098.173096388988
4594 -1098.147419120493
4595 -1098.171304850447
4596 -1098.145150177
4597 -1098.165652673476
4598 -1098.141926082674
4599 -1098.172427413729
4600 -1098.145348386835
4601 -1098.173903902402
4602 -1098.1539375121
4603 -1098.176996567056
4604 -1098.148097871582
4605 -1098.181349625676
4606 -1098.156896759312
4607 -1098.184147300561
4608 -1098.161029251121
4609 -1098.187106241292
4610 -1098.156888142606
4611 -1098.184897145011
4612 -1098.158105934749
4613 -1098.185793104916
4614 -1098.161965916716
4615 -1098.182785546291
4616 -1098.15269378982
4617 -1098.171576469613
4618 -1098.145886454149
4619 -1098.168956171713
4620 -1098.138508855824
4621 -1098.160544136699
4622 -1098.140999905458
4623 -1098.157708607279
4624 -1098.138700065302
4625 -1098.160078016826
4626 -1098.136674818136
4627 -1098.158342051014
4628 -1098.137953476302
4629 -1098.161833531439
4630 -1098.144465461283
4631 -1098.166761386909
4632 -1098.141051157781
4633 -1098.168352191407
4634 -1098.147854923892
4635 -1098.171254743565
4636 -1098.146532261722
4637 -1098.175609684747
4638 -1098.15525120028
4639 -1098.177938645083
4640 -1098.156575354338
4641 -1098.180930192039
4642 -1098.158558647691
4643 -1098.176983708098
4644 -1098.157435556019
4645 -1098.18095719008
4646 -1098.155744570138
4647 -1098.17812540031
4648 -1098.146925276171
4649 -1098.17151824013
4650 -1098.143833494428
4651 -1098.162493298083
4652 -1098.128257094104
4653 -1098.160500256098
4654 -1098.134662542707
4655 -1098.162444447317
4656 -1098.136503981629
4657 -1098.157576076174
4658 -1098.132341498218
4659 -1098.163330527499
4660 -1098.131665272398
4661 -1098.164237589289
4662 -1098.144544614833
4663 -1098.166493006177
4664 -1098.137957310682
4665 -1098.172871663021
4666 -1098.148218677173
4667 -1098.178114169639
4668 -1098.153266427363
4669 -1098.180789407825
4670 -1098.160065508738
4671 -1098.180797304499
4672 -1098.155957544431
4673 -1098.179983295113
4674 -1098.155816409616
4675 -1098.183964358554
4676 -1098.154697623156
4677 -1098.178996562797
4678 -1098.155233734153
4679 -1098.176661471847
4680 -1098.148444809622
4681 -1098.175494947621
4682 -1098.158711728953
4683 -1098.177475078701
4684 -1098.155350565656
4685 -1098.178888010638
4686 -1098.156534110432
4687 -1098.18074180125
4688 -1098.154243025062
4689 -1098.181936384384
4690 -1098.159592064336
4691 -1098.182606411169
4692 -1098.158013290354
4693 -1098.188525611057
4694 -1098.171281970501
4695 -1098.192738744759
4696 -1098.170645932036
4697 -1098.191297951227
4698 -1098.174801734587
4699 -1098.200285929036
4700 -1098.175824833767
4701 -1098.195416821055
4702 -1098.170516972332
4703 -1098.201093603491
4704 -1098.171459442713
4705 -1098.204208054996
4706 -1098.175480552723
4707 -1098.197214815565
4708 -1098.167987967409
4709 -1098.20068429768
4710 -1098.17344997546
4711 -1098.20106169818
4712 -1098.176683064288
4713 -1098.197859829232
4714 -1098.171257133811
4715 -1098.199230637011
4716 -1098.167683936957
4717 -1098.200591628478
4718 -1098.17639568588
4719 -1098.197989522675
4720 -1098.174832146324
4721 -1098.194844481294
4722 -1098.173531968457
4723 -1098.197392726338
4724 -1098.174787682766
4725 -1098.199045402697
4726 -1098.180288520982
4727 -1098.203524725518
4728 -1098.173321165986
4729 -1098.200407117871
4730 -1098.175521708231
4731 -1098.199339414172
4732 -1098.177131652044
4733 -1098.199335005294
4734 -1098.178486236186
4735 -1098.198408832606
4736 -1098.178086580863
4737 -1098.202339859372
4738 -1098.177695265513
4739 -1098.199344268634
4740 -1098.1705567528
4741 -1098.198617090274
4742 -1098.174555895867
4743 -1098.197983241845
4744 -1098.168871937013
4745 -1098.190837799427
4746 -1098.1696660928
4747 -1098.193046270712
4748 -1098.170417330395
4749 -1098.195079842709
4750 -1098.174025663868
4751 -1098.196370072478
4752 -1098.176634777706
4753 -1098.196045901424
4754 -1098.170478331054
4755 -1098.200778564716
4756 -1098.16924339355
4757 -1098.201435345185
4758 -1098.178363608064
4759 -1098.20584966168
4760 -1098.167367263189
4761 -1098.194540584894
4762 -1098.16766586279
4763 -1098.199110765084
4764 -1098.170882792796
4765 -1098.194637473308
4766 -1098.163754671981
4767 -1098.19132173719
4768 -1098.156076985921
4769 -1098.188405095075
4770 -1098.158484342998
4771 -1098.178184792628
4772 -1098.152017015346
4773 -1098.180467820378
4774 -1098.153961793454
4775 -1098.1762745998
4776 -1098.149392048288
4777 -1098.179140937224
4778 -1098.151701465088
4779 -1098.176692380386
4780 -1098.15236907236
4781 -1098.178399156734
4782 -1098.150224550003
4783 -1098.174332716369
4784 -1098.149558280979
4785 -1098.18347065537
4786 -1098.156316979888
4787 -1098.185348611973
4788 -1098.156785814899
4789 -1098.183768115497
4790 -1098.164327214095
4791 -1098.18848119788
4792 -1098.160617966826
4793 -1098.18096535316
4794 -1098.162886313523
4795 -1098.18206935095
4796 -1098.154810568085
4797 -1098.181100959056
4798 -1098.151721336163
4799 -1098.172197424625
4800 -1098.140898899229
4801 -1098.168927326954
4802 -1098.142349391334
4803 -1098.16418081457
4804 -1098.140808492214
4805 -1098.165527894557
4806 -1098.143585078716
4807 -1098.167173350535
4808 -1098.140207328949
4809 -1098.171302175238
4810 -1098.143334801865
4811 -1098.1747747856
4812 -1098.152651995007
4813 -1098.178502171951
4814 -1098.149147957997
4815 -1098.18574930712
4816 -1098.151643892646
4817 -1098.187536241079
4818 -1098.162470487143
4819 -1098.187994791616
4820 -1098.154152320642
4821 -1098.183546281947
4822 -1098.15513422384
4823 -1098.181235153783
4824 -1098.156265875357
4825 -1098.182126783192
4826 -1098.157225836377
4827 -1098.176527292005
4828 -1098.143986502959
4829 -1098.173436001552
4830 -1098.144758691243
4831 -1098.168173871668
4832 -1098.139837414703
4833 -1098.160650694898
4834 -1098.135198644149
4835 -1098.163707978551
4836 -1098.136171218242
4837 -1098.162622910659
4838 -1098.144954069222
4839 -1098.172613817939
4840 -1098.144461839521
4841 -1098.175035158379
4842 -1098.148253073522
4843 -1098.178718937093
4844 -1098.156443639834
4845 -1098.18473390778
4846 -1098.162559806228
4847 -1098.186196033697
4848 -1098.160765856499
4849 -1098.192580375357
4850 -1098.16994937196
4851 -1098.194436458345
4852 -1098.169034313611
4853 -1098.194427872671
4854 -1098.170149954928
4855 -1098.19713352229
4856 -1098.16355602311
4857 -1098.189844567959
4858 -1098.159285296604
4859 -1098.19240094448
4860 -1098.157642774953
4861 -1098.193522780261
4862 -1098.162607727515
4863 -1098.184047053289
4864 -1098.157698172114
4865 -1098.189825912871
4866 -1098.159129205106
4867 -1098.190974505946
4868 -1098.169824398486
4869 -1098.19592784357
4870 -1098.166417626719
4871 -1098.202568774532
4872 -1098.171384743268
4873 -1098.206270643352
4874 -1098.182991888172
4875 -1098.210149625493
4876 -1098.181914711779
4877 -1098.209081721547
4878 -1098.186962716391
4879 -1098.212353107676
4880 -1098.184856282079
4881 -1098.204824851626
4882 -1098.187988370602
4883 -1098.20861042012
4884 -1098.181463398059
4885 -1098.207935973863
4886 -1098.182242829528
4887 -1098.200239510099
4888 -1098.175938526776
4889 -1098.201839044741
4890 -1098.176614467619
4891 -1098.198381131948
4892 -1098.169093268252
4893 -1098.190054712868
4894 -1098.168405268051
4895 -1098.188301370033
4896 -1098.165861415664
4897 -1098.193306373619
4898 -1098.165236362028
4899 -1098.193985352874
4900 -1098.168114028112
4901 -1098.192469406819
4902 -1098.171618192863
4903 -1098.192465754458
4904 -1098.173183749075
4905 -1098.199823116545
4906 -1098.180664665646
4907 -1098.202967430474
4908 -1098.182411359801
4909 -1098.212888877083
4910 -1098.190650932614
4911 -1098.218992921967
4912 -1098.180580051407
4913 -1098.216653483701
4914 -1098.185323558918
4915 -1098.214280671473
4916 -1098.190289584527
4917 -1098.214731979199
4918 -1098.182699048029
4919 -1098.210423193219
4920 -1098.182453853259
4921 -1098.2132429539
4922 -1098.190573444789
4923 -1098.208281310651
4924 -1098.176879847192
4925 -1098.205251488337
4926 -1098.17656048868
4927 -1098.211415578482
4928 -1098.181961932662
4929 -1098.204784081004
4930 -1098.185357860165
4931 -1098.207948517111
4932 -1098.180088637807
4933 -1098.206184831885
4934 -1098.188739516133
4935 -1098.210584206452
4936 -1098.188422762829
4937 -1098.216331772052
4938 -1098.191433882246
4939 -1098.216695042484
4940 -1098.193643697016
4941 -1098.222317535992
4942 -1098.197608805493
4943 -1098.21588795241
4944 -1098.197829296978
4945 -1098.221398407179
4946 -1098.198709195878
4947 -1098.223114473629
4948 -1098.195431126352
4949 -1098.218583296511
4950 -1098.193173790127
4951 -1098.217318204808
4952 -1098.18699489099
4953 -1098.21227958117
4954 -1098.187542858053
4955 -1098.212202092163
4956 -1098.18425621012
4957 -1098.203957018814
4958 -1098.185516290091
4959 -1098.205995266538
4960 -1098.18249739139
4961 -1098.204590431653
4962 -1098.181256861846
4963 -1098.210567861724
4964 -1098.184205211676
4965 -1098.216391543033
4966 -1098.190817814502
4967 -1098.213271586067
4968 -1098.176133887446
4969 -1098.212537491395
4970 -1098.180635894116
4971 -1098.210929017556
4972 -1098.185122078543
4973 -1098.20990040727
4974 -1098.182716821785
4975 -1098.209298214668
4976 -1098.184441709155
4977 -1098.212922947081
4978 -1098.187338370436
4979 -1098.204838993556
4980 -1098.180384240413
4981 -1098.205457833696
4982 -1098.180201751748
4983 -1098.203685401424
4984 -1098.172155763928
4985 -1098.197020011672
4986 -1098.17061390818
4987 -1098.191982684315
4988 -1098.169222685357
4989 -1098.196246700719
4990 -1098.174902975241
4991 -1098.192014582183
4992 -1098.171253903559
4993 -1098.196582774448
4994 -1098.178611494473
4995 -1098.195112989112
4996 -1098.168876248229
4997 -1098.200777749094
4998 -1098.179250720769
4999 -1098.198599440101
5000 -1098.174215266698
5001 -1098.195663198328
5002 -1098.175747753841
5003 -1098.196634707274
5004 -1098.172736262976
5005 -1098.192823555363
5006 -1098.170736280672
5007 -1098.188227820531
5008 -1098.164535227483
5009 -1098.191199622691
5010 -1098.163291548758
5011 -1098.184359047971
5012 -1098.160729615752
5013 -1098.181702282468
5014 -1098.16310639683
5015 -1098.18170044828
5016 -1098.154522303504
5017 -1098.184116633162
5018 -1098.163092479369
5019 -1098.192346525484
5020 -1098.167339313823
5021 -1098.193709207786
5022 -1098.160676895546
5023 -1098.189644805823
5024 -1098.161612506035
5025 -1098.193963302882
5026 -1098.169854946517
5027 -1098.191287274594
5028 -1098.161193717677
5029 -1098.198090078363
5030 -1098.17015491786
5031 -1098.196250148544
5032 -1098.170279982158
5033 -1098.191409665159
5034 -1098.166701030634
5035 -1098.185693665045
5036 -1098.155768719341
5037 -1098.176080590032
5038 -1098.151268524
5039 -1098.173420974873
5040 -1098.141993215228
5041 -1098.167163765026
5042 -1098.143212256071
5043 -1098.16499828361
5044 -1098.14344469259
5045 -1098.167411677125
5046 -1098.146845736917
5047 -1098.172935701119
5048 -1098.148674878267
5049 -1098.171534617802
5050 -1098.151664189685
5051 -1098.174161950999
5052 -1098.147218148135
5053 -1098.17349116144
5054 -1098.156114555605
5055 -1098.177115584824
5056 -1098.155575035737
5057 -1098.186313163497
5058 -1098.159224327038
5059 -1098.18348976087
5060 -1098.159673797127
5061 -1098.18007642783
5062 -1098.159979504261
5063 -1098.177100313
5064 -1098.152913469019
5065 -1098.173570959679
5066 -1098.151116207873
5067 -1098.1730265258
5068 -1098.142368703629
5069 -1098.17127283555
