"x-rfile"
"Iteration" "x"
("Iteration" "x")
1 2968.589599876436
2 2692.7957926077
3 2004.908440275535
4 1623.856746093162
5 1287.271147567499
6 1041.379243110417
7 805.8251784481251
8 598.4029028545854
9 411.8634473079572
10 268.0835043889542
11 170.318686283839
12 97.86577940260928
13 54.12501690082265
14 25.69060793131276
15 11.43888830617987
16 4.995323283922399
17 4.285714394558807
18 7.562045984947391
19 14.82112073704131
20 23.44792014346305
21 33.81483152277341
22 43.13136745519835
23 51.6384383334679
24 57.80090820149718
25 63.17585636962943
26 67.72107297322914
27 70.71976814697425
28 73.01996520025659
29 74.22470813702716
30 74.95094885829198
31 75.30634361962454
32 75.45852950801755
33 75.22347491725122
34 74.51110112644194
35 73.3539570773421
36 71.82937384618417
37 70.01001694634975
38 67.99965771202704
39 66.11856804673312
40 64.05017779370853
41 61.89787346109352
42 60.10585978901211
43 58.19854779777109
44 56.24911052107156
45 54.30107968013753
46 52.38609350971112
47 50.10530726293156
48 48.43340491469577
49 46.78512471735004
50 45.19353482084863
51 43.65769218169769
52 42.18843344477921
53 40.78359146534119
54 39.44353945041833
55 38.16825992827808
56 37.20969430650843
57 35.96217615081199
58 35.04441607594705
59 34.10278267787313
60 33.174545928398
61 32.03856712846641
62 31.19780234761068
63 30.16021276678948
64 29.37636911264171
65 28.57331601123367
66 27.78281049896686
67 26.99905931300125
68 26.2368541388934
69 25.48998822484036
70 24.76463788302105
71 24.0585923103662
72 23.38020253841859
73 22.71615469296552
74 22.07313890393092
75 21.44861491495397
76 20.84831391909886
77 20.26392022199988
78 19.70054162171867
79 19.15005223314373
80 18.61968012406087
81 18.09942863452307
82 17.59698934047647
83 17.10395666701655
84 16.62410390032985
85 16.15112868550311
86 15.68669825589473
87 15.2290413006844
88 14.78416268596929
89 14.34499900987921
90 13.9187508327405
91 13.49728035782438
92 13.08696877173451
93 12.67984763376344
94 12.28455479540118
95 11.89185868594699
96 11.51237537751669
97 11.13600036965483
98 10.77257567364352
99 10.41314025432473
100 10.06465954635191
101 9.721540734055083
102 9.392182143504643
103 9.068125993533043
104 8.758017289495511
105 8.456364657339535
106 8.168090506080937
107 7.88835171130623
108 7.622000767719014
109 7.365791665153987
110 7.123777613685336
111 6.890837080549089
112 6.671427623498236
113 6.459997951448217
114 6.262218711724247
115 6.07109628491098
116 5.894278748309183
117 5.726065629151908
118 5.568758805440113
119 5.418269890236448
120 5.278424401387319
121 5.14439912793127
122 5.019979107374656
123 4.90137264114442
124 4.790728601199375
125 4.684460632227219
126 4.58712515775989
127 4.492919092514736
128 4.405865023740516
129 4.321156091027071
130 4.242406728409458
131 4.16498635593649
132 4.093944240509184
133 4.022425118220168
134 3.956903189078063
135 3.890399968947341
136 3.830252078401464
137 3.767705023411414
138 3.710042930228232
139 3.651345362029064
140 3.597083329899322
141 3.540605170520348
142 3.487828801383671
143 3.432789392360005
144 3.380935644512475
145 3.326046194158327
146 3.275065846016528
147 3.220991671800855
148 3.169622241569839
149 3.114261246375384
150 3.062302088606296
151 3.006815176249808
152 2.953458165778076
153 2.896116423637034
154 2.841184016115085
155 2.782206251379423
156 2.725653447974502
157 2.66504831962289
158 2.606823414093617
159 2.54508006244289
160 2.484807905846382
161 2.420479945295571
162 2.358013388179248
163 2.292134428601653
164 2.227913888786213
165 2.160836861070195
166 2.096190164917599
167 2.028723214712133
168 1.962473679294029
169 1.89357957067666
170 1.826623239477341
171 1.757420506404741
172 1.691326767247199
173 1.622279180513697
174 1.555567926457138
175 1.487115255104938
176 1.42120730749023
177 1.353011571397719
178 1.287974673856545
179 1.219667298160311
180 1.155465036987294
181 1.088464869595103
182 1.024479599469216
183 0.9584548676951506
184 0.8958059081924674
185 0.8304256176040633
186 0.7692189479132091
187 0.7054061454308653
188 0.645041044322047
189 0.5821351140538767
190 0.5231238237348093
191 0.4612071040033985
192 0.4039805997982659
193 0.3436277212370977
194 0.2872196428993625
195 0.2278092011690493
196 0.1724879364939309
197 0.1134722853751726
198 0.05869621038817585
199 0.0003138520889812701
200 -0.05360583967229204
201 -0.1121226459695375
202 -0.1659391400417243
203 -0.223560199690252
204 -0.2763413388778289
205 -0.3339595826997908
206 -0.3867909614027809
207 -0.444407436720903
208 -0.497601331142899
209 -0.5552193268098866
210 -0.6089847936954365
211 -0.66667309480097
212 -0.7203427181553668
213 -0.7782410676054229
214 -0.8313515106510615
215 -0.8886140558275599
216 -0.9415742710517141
217 -0.9999004195225564
218 -1.075133452006977
219 -1.12917220849248
220 -1.178785476102391
221 -1.254380314435662
222 -1.301532168231067
223 -1.373421457673935
224 -1.418147415441495
225 -1.468770543578714
226 -1.533993737866882
227 -1.582269655100454
228 -1.644616488502779
229 -1.692130808787214
230 -1.734574620983116
231 -1.802124281274274
232 -1.84271593143496
233 -1.908999849269658
234 -1.948883351586395
235 -1.99635090118888
236 -2.058336881572474
237 -2.104720814293466
238 -2.146227381642541
239 -2.21358588691624
240 -2.253853940541743
241 -2.301870874122828
242 -2.345570895833964
243 -2.396278963479212
244 -2.442085450364615
245 -2.494968230079601
246 -2.542097429089857
247 -2.596188561481239
248 -2.644401014250854
249 -2.699371141959956
250 -2.748757244601401
251 -2.804748056334565
252 -2.854811087288866
253 -2.911537792551326
254 -2.96188325184669
255 -3.01878939600317
256 -3.069352405294804
257 -3.126911912942136
258 -3.178009678937567
259 -3.235864736147505
260 -3.2869621875602
261 -3.344069277842014
262 -3.394969380327555
263 -3.451670538076176
264 -3.502422139086189
265 -3.558434888019559
266 -3.608434825693441
267 -3.6642081045257
268 -3.713778237069862
269 -3.769147009919624
270 -3.818140374132092
271 -3.872949855015439
272 -3.921503680204594
273 -3.975419589682405
274 -4.023049928756953
275 -4.076435527675782
276 -4.1231374024819
277 -4.175491777598573
278 -4.221155823646334
279 -4.272707762854425
280 -4.318263799621841
281 -4.369143002594996
282 -4.413443730522877
283 -4.463478278145402
284 -4.507296938549351
285 -4.556871141829436
286 -4.599545861029673
287 -4.648464327349457
288 -4.690380462099305
289 -4.738006455134969
290 -4.778781988223576
291 -4.825102174061844
292 -4.865479368481676
293 -4.911436733261078
294 -4.950838011697035
295 -4.996076358625047
296 -5.03477496578033
297 -5.078334357635043
298 -5.115116278859291
299 -5.157898462007902
300 -5.193846021596584
301 -5.235487879725301
302 -5.270869380694799
303 -5.311705608427254
304 -5.345638587884797
305 -5.384991098610642
306 -5.417282690470348
307 -5.455699132591526
308 -5.487396977407624
309 -5.524358770676164
310 -5.554801066821459
311 -5.590913515182173
312 -5.62006036273209
313 -5.654732915704787
314 -5.683289127718104
315 -5.717131241557635
316 -5.744759339324463
317 -5.777769293611238
318 -5.804691595352358
319 -5.836677972899025
320 -5.862903040737812
321 -5.894135002935537
322 -5.919069135282102
323 -5.94911158810377
324 -5.973574525254977
325 -6.002794273350324
326 -6.026226667216589
327 -6.0548086080691
328 -6.077925918706732
329 -6.106437557145573
330 -6.12895869973677
331 -6.15672241555326
332 -6.178976431178478
333 -6.20610068130809
334 -6.227773280659251
335 -6.254361844693026
336 -6.275494368927737
337 -6.301549766604988
338 -6.322293366709228
339 -6.347959980320558
340 -6.367403644924908
341 -6.392777737477916
342 -6.412496547683646
343 -6.437296386394424
344 -6.457138774801058
345 -6.48203575604545
346 -6.501074591666113
347 -6.525866119744435
348 -6.544489871734902
349 -6.568542123155984
350 -6.586883616543179
351 -6.610602404085347
352 -6.628928155610291
353 -6.652369877244847
354 -6.670493339379905
355 -6.693938990537688
356 -6.711672806525599
357 -6.734518364785785
358 -6.752002850686959
359 -6.774953977702348
360 -6.791976788347315
361 -6.814364903552708
362 -6.83128062181937
363 -6.85289929551524
364 -6.869551312964753
365 -6.891458326315661
366 -6.907976139215096
367 -6.929351438960959
368 -6.945549414944717
369 -6.966825465943754
370 -6.983075118705532
371 -7.004183684673776
372 -7.019969497879875
373 -7.040909657158411
374 -7.056829533114304
375 -7.077091718245139
376 -7.092561728958207
377 -7.1129711381963
378 -7.128306162236498
379 -7.148866132480914
380 -7.164131424531637
381 -7.184743458495946
382 -7.200209865599638
383 -7.22069079820846
384 -7.236042845838889
385 -7.256097953500715
386 -7.270765783078455
387 -7.289890726214965
388 -7.304101132710979
389 -7.323427104891158
390 -7.338035502880556
391 -7.357240165698374
392 -7.371790312022478
393 -7.390777423478115
394 -7.405031467120798
395 -7.423802386090147
396 -7.437666490653524
397 -7.456467258958347
398 -7.470328168659077
399 -7.488629538500867
400 -7.501884270445753
401 -7.520632753849736
402 -7.534012141166929
403 -7.552253622740214
404 -7.565653909898538
405 -7.583715465207558
406 -7.596719637476055
407 -7.614482562791341
408 -7.627143318600279
409 -7.644766516288945
410 -7.657865070317677
411 -7.675422884543619
412 -7.687966065538281
413 -7.705455931387633
414 -7.717523122889983
415 -7.735029075959586
416 -7.746866853416831
417 -7.764095764976738
418 -7.776237775144652
419 -7.793198556938268
420 -7.804468469865061
421 -7.820856025690181
422 -7.832013296748183
423 -7.84832962058935
424 -7.85918961279644
425 -7.875662820595672
426 -7.88711110488033
427 -7.90332573183437
428 -7.914129174706321
429 -7.930269822823508
430 -7.941064210563541
431 -7.957092438147358
432 -7.967798523349494
433 -7.98375850372781
434 -7.99438288920293
435 -8.010184946808186
436 -8.020534834523115
437 -8.03650205703403
438 -8.046705559961705
439 -8.061886690462464
440 -8.07162235152618
441 -8.086877211722571
442 -8.096697601953434
443 -8.111993623703421
444 -8.121910056596155
445 -8.136869024770128
446 -8.146430280695851
447 -8.160986807570156
448 -8.170102468851649
449 -8.18444305518674
450 -8.193704408922322
451 -8.20809459436739
452 -8.217317617128819
453 -8.231589388791356
454 -8.240526194336889
455 -8.254521902794982
456 -8.262551998657882
457 -8.276056979255529
458 -8.284446042680727
459 -8.29817036278116
460 -8.306291021441025
461 -8.320309892919452
462 -8.328708577844093
463 -8.342090053830752
464 -8.350408979804293
465 -8.363398850714423
466 -8.37174664977349
467 -8.384960379453853
468 -8.392616184535115
469 -8.405610092047104
470 -8.413173642215845
471 -8.426177979279606
472 -8.433668367900671
473 -8.446713697598504
474 -8.45412882114454
475 -8.466572769067913
476 -8.473501382051392
477 -8.485461623815944
478 -8.492361306473681
479 -8.504890623781501
480 -8.511755947342847
481 -8.523953523601305
482 -8.530656243556747
483 -8.542354787871755
484 -8.548742166536712
485 -8.560437799455238
486 -8.566774747379521
487 -8.578746152776647
488 -8.585096006093135
489 -8.596846962892682
490 -8.602503900869161
491 -8.613751601588314
492 -8.619277802043264
493 -8.630662446202219
494 -8.636566967680752
495 -8.647919602650225
496 -8.653591706953359
497 -8.664875252657088
498 -8.670355693635154
499 -8.680936889242465
500 -8.686098827497537
501 -8.696881335039492
502 -8.702482217499826
503 -8.713329896443476
504 -8.718584220195787
505 -8.729018183484184
506 -8.734099002514935
507 -8.744247348821073
508 -8.748944605794495
509 -8.759721216277459
510 -8.764421753483346
511 -8.775126644646061
512 -8.779834826689902
513 -8.789567885228411
514 -8.794041099499866
515 -8.803942629438032
516 -8.808114349473657
517 -8.818253071831107
518 -8.822686483280743
519 -8.83277642416031
520 -8.836915666626071
521 -8.846682406350062
522 -8.850463587056691
523 -8.859780485164368
524 -8.86353169582965
525 -8.8728512480065
526 -8.876766538831989
527 -8.88652061570043
528 -8.890300560113598
529 -8.899926005778843
530 -8.903524629507999
531 -8.912575537024626
532 -8.915810081747889
533 -8.92495901322949
534 -8.928533508350363
535 -8.937478554108639
536 -8.9411064880368
537 -8.949834612425379
538 -8.95302676695654
539 -8.961529381254998
540 -8.964572170096778
541 -8.972966972356277
542 -8.975979547428684
543 -8.984265667959928
544 -8.987055421081667
545 -8.995423357547214
546 -8.998236883641763
547 -9.007012380339731
548 -9.00996339551401
549 -9.018415533975629
550 -9.021149483380864
551 -9.029061299710456
552 -9.031112778971599
553 -9.038746376009277
554 -9.041112570006376
555 -9.048980079595049
556 -9.05139818937317
557 -9.059651287555885
558 -9.06207020598884
559 -9.069900385439396
560 -9.072232809688591
561 -9.079366106297506
562 -9.081280877744774
563 -9.088685264424967
564 -9.090723399851012
565 -9.098320133090644
566 -9.100604312815918
567 -9.107977744552912
568 -9.11018446642227
569 -9.117459727098741
570 -9.11902681053143
571 -9.126165573138278
572 -9.127879385252331
573 -9.135028996471775
574 -9.136998738714738
575 -9.143995582247157
576 -9.145543136518345
577 -9.152498858389746
578 -9.154292745476061
579 -9.16127108079562
580 -9.162563590033235
581 -9.169307392399491
582 -9.170590524688677
583 -9.177488268138235
584 -9.179242942360904
585 -9.186282194125939
586 -9.187499743931751
587 -9.194368359294375
588 -9.195337824836527
589 -9.201969500890367
590 -9.202948222225517
591 -9.209563637627193
592 -9.210743336068065
593 -9.217343007088148
594 -9.218459358251014
595 -9.224857924893145
596 -9.225732976797376
597 -9.231910318120907
598 -9.232620169186927
599 -9.239085759298739
600 -9.239262817494831
601 -9.245348078225128
602 -9.246012778567486
603 -9.252060508035543
604 -9.252380295770632
605 -9.258789490253042
606 -9.259083707196826
607 -9.265402520733403
608 -9.265946842800393
609 -9.271726144078558
610 -9.271981363412237
611 -9.278109573100359
612 -9.278373424799701
613 -9.284436598314446
614 -9.285143650425312
615 -9.291127805641569
616 -9.29161266676619
617 -9.297648766772744
618 -9.297949286722339
619 -9.304258149546561
620 -9.304419653302308
621 -9.310376158525633
622 -9.31047954438886
623 -9.316279512280399
624 -9.316060872815889
625 -9.321497104598032
626 -9.32122532598544
627 -9.326794535134026
628 -9.3266986126369
629 -9.332508438388372
630 -9.332227107791798
631 -9.337620446748614
632 -9.337455839966749
633 -9.34252986764351
634 -9.342126205679438
635 -9.347520154683263
636 -9.346989267745858
637 -9.352664976689997
638 -9.352528064914278
639 -9.358247702870989
640 -9.357965385816975
641 -9.36334337721256
642 -9.362952365556124
643 -9.368387451294762
644 -9.36832103204941
645 -9.373651532842098
646 -9.373732951445453
647 -9.379270450495186
648 -9.378848595129524
649 -9.383928445080828
650 -9.383541422975298
651 -9.388562252824139
652 -9.387879369043489
653 -9.392900427925285
654 -9.392342054130566
655 -9.397447570253918
656 -9.396957085961894
657 -9.40191983016873
658 -9.401203143644787
659 -9.406089609575735
660 -9.404892770292424
661 -9.409662136553926
662 -9.408630047299885
663 -9.413214083475069
664 -9.412634930827965
665 -9.417387725775402
666 -9.416454728283384
667 -9.421213559206606
668 -9.420422752766553
669 -9.425128483824443
670 -9.424545349130995
671 -9.429330558555469
672 -9.428705859041376
673 -9.433345362630849
674 -9.432386283215243
675 -9.436766127846631
676 -9.435600812733506
677 -9.440405816166072
678 -9.43985158081829
679 -9.44508448414717
680 -9.444422245791683
681 -9.449047199818294
682 -9.448191373350243
683 -9.452490429649078
684 -9.451430148578519
685 -9.455789422481402
686 -9.454978971618772
687 -9.459019306938304
688 -9.458076729374451
689 -9.462652985161881
690 -9.461427986556229
691 -9.465966644193283
692 -9.464932555637887
693 -9.469642515523995
694 -9.4685579763047
695 -9.472780050222548
696 -9.471265073617747
697 -9.475642408474183
698 -9.474432399964257
699 -9.47884451863025
700 -9.477811110030526
701 -9.481997552358425
702 -9.480448903168135
703 -9.484484996766362
704 -9.483347625233858
705 -9.487604365869386
706 -9.486548962923546
707 -9.49075989122754
708 -9.48957441572578
709 -9.493980998523302
710 -9.49253300375204
711 -9.496652779651951
712 -9.495625705232129
713 -9.499916333186601
714 -9.4985039080448
715 -9.502714674798575
716 -9.500924261405508
717 -9.505074852785473
718 -9.503415967467985
719 -9.507636598618229
720 -9.505991105421547
721 -9.51021816086406
722 -9.508778971458879
723 -9.512675719699093
724 -9.510777590971026
725 -9.514631676226559
726 -9.512904773242694
727 -9.516921372602992
728 -9.51554138524997
729 -9.51959881931351
730 -9.517811510578511
731 -9.522012090271502
732 -9.519997219531735
733 -9.524002027056889
734 -9.522190596688173
735 -9.526040505918203
736 -9.524435077798168
737 -9.528535827716954
738 -9.526747669884401
739 -9.530940597625069
740 -9.52938837347401
741 -9.533225451867775
742 -9.531628507462866
743 -9.535289117881192
744 -9.533385137314012
745 -9.537446679205461
746 -9.536069127891114
747 -9.540009000797928
748 -9.538001088021179
749 -9.542059823846003
750 -9.540122064068402
751 -9.544009876791447
752 -9.541934305830182
753 -9.545528781179275
754 -9.543532035946287
755 -9.547115626312751
756 -9.545016484848862
757 -9.54896095670324
758 -9.54694983877533
759 -9.550869300636672
760 -9.548825983589532
761 -9.552418498779321
762 -9.550378860899036
763 -9.554096061495677
764 -9.552279548142332
765 -9.556062824428864
766 -9.554224003584405
767 -9.558018094806368
768 -9.556069486518162
769 -9.559933770668248
770 -9.558008833358556
771 -9.561457119181295
772 -9.559225000527928
773 -9.563012377264975
774 -9.561150991228224
775 -9.565073851129551
776 -9.563433528771005
777 -9.56722815870619
778 -9.565139025397201
779 -9.568385186564097
780 -9.565912899647518
781 -9.569567723834714
782 -9.5676070005167
783 -9.570974224374877
784 -9.569080834521419
785 -9.572503534049227
786 -9.569871468083226
787 -9.57351997601255
788 -9.571258055856122
789 -9.575104477814948
790 -9.573028466654424
791 -9.576775243663976
792 -9.574685600652312
793 -9.578363640754729
794 -9.5760223441865
795 -9.579537523238988
796 -9.577171032375331
797 -9.580817521275714
798 -9.57858358220628
799 -9.582028942897143
800 -9.579762910812581
801 -9.58338056822056
802 -9.581074529151351
803 -9.584584949618559
804 -9.582144302243407
805 -9.58578124745619
806 -9.583364043313022
807 -9.586685402865113
808 -9.584119808947225
809 -9.587431070003232
810 -9.584865989283539
811 -9.588384132810177
812 -9.586166072194874
813 -9.589624262226685
814 -9.587292773286695
815 -9.590351534082455
816 -9.58794234948174
817 -9.591169961266798
818 -9.588725385494
819 -9.592062409907783
820 -9.589948622558294
821 -9.593394511210564
822 -9.591269199153976
823 -9.594888450035018
824 -9.592708527977189
825 -9.596220638765445
826 -9.594069394009233
827 -9.597472966679437
828 -9.595041517904104
829 -9.598682580410467
830 -9.596359850517031
831 -9.599756839605025
832 -9.597567912585385
833 -9.601056302814868
834 -9.598692504540836
835 -9.601649198521164
836 -9.599247845569975
837 -9.602326037283021
838 -9.59972679077798
839 -9.602832019246494
840 -9.60041833768897
841 -9.603620158747058
842 -9.601096335674892
843 -9.604425171835887
844 -9.60195039242924
845 -9.605300608283182
846 -9.603001340261963
847 -9.606307262711814
848 -9.603839182838936
849 -9.607135826029923
850 -9.60475925824494
851 -9.608001294840005
852 -9.60565613887014
853 -9.608703948507795
854 -9.606482020856808
855 -9.60956472541411
856 -9.607383921109232
857 -9.610768697538148
858 -9.608585909998643
859 -9.611961132992043
860 -9.609536988271039
861 -9.612579392866778
862 -9.609847259659041
863 -9.612890419354921
864 -9.610212770376002
865 -9.613060429734954
866 -9.6103467227857
867 -9.612960732911652
868 -9.610329254593438
869 -9.613657427657488
870 -9.611082867736005
871 -9.614489010085991
872 -9.612223326777007
873 -9.614923504961565
874 -9.612514101402722
875 -9.615297068259652
876 -9.612433194660285
877 -9.615745798540386
878 -9.613326505485713
879 -9.616802710676192
880 -9.614627617721565
881 -9.617903577514353
882 -9.615222293282191
883 -9.618119087404727
884 -9.615483698341599
885 -9.618595688960383
886 -9.616265801554231
887 -9.619649888899094
888 -9.617236881773934
889 -9.620328515532174
890 -9.617440610452258
891 -9.620178684176528
892 -9.617983003841321
893 -9.621375912532951
894 -9.619217072296044
895 -9.622271220404501
896 -9.61988593359329
897 -9.622653384613951
898 -9.619760262006677
899 -9.622599809457888
900 -9.61992695548663
901 -9.623127284162559
902 -9.620439279783708
903 -9.622964066801154
904 -9.620170809015431
905 -9.623045880590922
906 -9.620440181611311
907 -9.623744493679233
908 -9.621605486897193
909 -9.624636840798162
910 -9.622075251046759
911 -9.62474418621272
912 -9.621957588112998
913 -9.625099863828602
914 -9.622765617465225
915 -9.625920999584665
916 -9.623537105671282
917 -9.627156300233265
918 -9.624250425938445
919 -9.62731624920826
920 -9.624664240862069
921 -9.627406935986121
922 -9.62472065006615
923 -9.627787335452995
924 -9.625358006050861
925 -9.628490181574898
926 -9.62564401056062
927 -9.628565594676013
928 -9.625864209831722
929 -9.629031949296973
930 -9.626342314616807
931 -9.629357172040335
932 -9.626572809105863
933 -9.62958261078588
934 -9.626821111695419
935 -9.62986344041671
936 -9.62697397351277
937 -9.629885575654157
938 -9.627403484501309
939 -9.630272006766015
940 -9.627457768578997
941 -9.630861009110616
942 -9.628146928361161
943 -9.631150148687459
944 -9.628667946527866
945 -9.631816144462604
946 -9.629232086914065
947 -9.632372395516475
948 -9.629898976255843
949 -9.633019413620431
950 -9.630546451725429
951 -9.633477992572534
952 -9.630891003841242
953 -9.633892820097197
954 -9.631104730837484
955 -9.634298711899774
956 -9.631761245551079
957 -9.635036759129607
958 -9.632401780820095
959 -9.635559750101612
960 -9.632494676225836
961 -9.635294451748349
962 -9.632326402755593
963 -9.634922559532477
964 -9.63213159593306
965 -9.63495313056514
966 -9.632443824743842
967 -9.63564780531517
968 -9.632843312702853
969 -9.635592854656066
970 -9.632489395985976
971 -9.635577139965513
972 -9.632475038137409
973 -9.63571971463594
974 -9.633081033193239
975 -9.636054712844327
976 -9.63324739647841
977 -9.636418128145008
978 -9.633458721026543
979 -9.636591204118108
980 -9.633758053734175
981 -9.636696048628782
982 -9.634047467697211
983 -9.637174235006333
984 -9.634659928604009
985 -9.637555740284737
986 -9.634594971719944
987 -9.637394985360121
988 -9.634295397569558
989 -9.637426654632744
990 -9.634692607679346
991 -9.637836907373082
992 -9.635100362971109
993 -9.638067092966342
994 -9.635285392923834
995 -9.638299605111207
996 -9.635125800340949
997 -9.638050661589739
998 -9.634916442472884
999 -9.638104915187425
1000 -9.635449714765981
1001 -9.638521567136261
1002 -9.635662691885331
1003 -9.638905355401993
1004 -9.636301529185108
1005 -9.639326064215149
1006 -9.636762975054729
1007 -9.640017838239295
1008 -9.637267464749369
1009 -9.640648044055991
1010 -9.638039948577163
1011 -9.64141826701362
1012 -9.63859643828004
1013 -9.641590125995123
1014 -9.638602519483713
1015 -9.641753512527316
1016 -9.638930674999305
1017 -9.641724672449133
1018 -9.638988080873428
1019 -9.642220018828814
1020 -9.63930061962483
1021 -9.642141699006753
1022 -9.639052446558081
1023 -9.641596473542997
1024 -9.638849006241323
1025 -9.641913617282762
1026 -9.638872241780692
1027 -9.641941994419607
1028 -9.63886105051267
1029 -9.642097392416309
1030 -9.63908906801481
1031 -9.642176480423355
1032 -9.639428235493522
1033 -9.642750582449654
1034 -9.64014460792097
1035 -9.642985084576097
1036 -9.63973645133084
1037 -9.642696542375004
1038 -9.639795746220454
1039 -9.643069902139663
1040 -9.640501189112138
1041 -9.643449448699677
1042 -9.640694834270016
1043 -9.643616160258714
1044 -9.64057614030375
1045 -9.643147480215163
1046 -9.640156557008682
1047 -9.643003807595786
1048 -9.640056228677528
1049 -9.643026742057543
1050 -9.640028864938719
1051 -9.642929857967065
1052 -9.639826877423612
1053 -9.642642740015717
1054 -9.640053719930956
1055 -9.643112149053549
1056 -9.640356102746052
1057 -9.643424085593997
1058 -9.640808295675438
1059 -9.643601345460638
1060 -9.640717532410735
1061 -9.643621626847279
1062 -9.640731603888165
1063 -9.643637965291399
1064 -9.640726924700362
1065 -9.643535888603445
1066 -9.640514463705575
1067 -9.643954131839525
1068 -9.640973525937808
1069 -9.644274213945499
1070 -9.641422795768479
1071 -9.644399495992877
1072 -9.641425712600578
1073 -9.644193895928106
1074 -9.641320224171022
1075 -9.64420540514312
1076 -9.641510459259488
1077 -9.644653185714411
1078 -9.641871203725056
1079 -9.644640859298201
1080 -9.641335350353993
1081 -9.643821658905603
1082 -9.640939089562535
1083 -9.644147566237496
1084 -9.641623769475268
1085 -9.644947378322874
1086 -9.642000312604331
1087 -9.644823384239071
1088 -9.641805883842016
1089 -9.644620677010662
1090 -9.64180760868217
1091 -9.645048800107354
1092 -9.642430167835364
1093 -9.645482687752089
1094 -9.642691453238188
1095 -9.645471702027798
1096 -9.642736660802145
1097 -9.645527823452015
1098 -9.642609022633128
1099 -9.645606525950731
1100 -9.642765221233258
1101 -9.645636352528145
1102 -9.642765437624803
1103 -9.645866171286331
1104 -9.643016488519679
1105 -9.645919455164835
1106 -9.64299122037797
1107 -9.64572183388087
1108 -9.642689065780724
1109 -9.645783946275285
1110 -9.64292379017974
1111 -9.64609191828524
1112 -9.643386370028267
1113 -9.646086214258784
1114 -9.643174125530988
1115 -9.645894597892358
1116 -9.642931844664417
1117 -9.645709600260567
1118 -9.643032674055572
1119 -9.646151953783063
1120 -9.64323689285871
1121 -9.646407695597004
1122 -9.643552580838382
1123 -9.646441859690729
1124 -9.643427800273672
1125 -9.646223075475124
1126 -9.643279996713103
1127 -9.646645254742825
1128 -9.643958313271314
1129 -9.647108930644169
1130 -9.644509405089618
1131 -9.647295360903167
1132 -9.64419134597753
1133 -9.646923048083847
1134 -9.643849640454327
1135 -9.646516231291512
1136 -9.643705201545774
1137 -9.646945166901567
1138 -9.644036690507786
1139 -9.64697616284797
1140 -9.643525062967742
1141 -9.646757104463584
1142 -9.643596354228055
1143 -9.646156553882546
1144 -9.64326451780533
1145 -9.646086265867932
1146 -9.642746857768362
1147 -9.645243222464043
1148 -9.642009208743024
1149 -9.644698505865607
1150 -9.642124582700774
1151 -9.645314166630552
1152 -9.642882778875418
1153 -9.646051132995389
1154 -9.643392259416977
1155 -9.646100382931898
1156 -9.643122567440392
1157 -9.646237031837654
1158 -9.643271132400931
1159 -9.646290303419621
1160 -9.643626164827216
1161 -9.646724466462153
1162 -9.6438115698479
1163 -9.646583481716945
1164 -9.643676518513944
1165 -9.646531045962954
1166 -9.643686816971929
1167 -9.646610399889759
1168 -9.643738525786146
1169 -9.646640020928174
1170 -9.643649863385161
1171 -9.646408302679756
1172 -9.643458232438176
1173 -9.646393983700937
1174 -9.643630015623877
1175 -9.646447932520607
1176 -9.643258350023586
1177 -9.645914680896825
1178 -9.642666418670888
1179 -9.645671660859801
1180 -9.642722984944042
1181 -9.646036284678734
1182 -9.643325942154542
1183 -9.646474998719727
1184 -9.643405709672342
1185 -9.646164928997869
1186 -9.643394505249351
1187 -9.646515308332026
1188 -9.643535703768636
1189 -9.646899195214017
1190 -9.644190836065183
1191 -9.647359470235433
1192 -9.644665046869802
1193 -9.64775645171906
1194 -9.644723624218312
1195 -9.648029175815605
1196 -9.644910004452361
1197 -9.648012264323423
1198 -9.64471343599973
1199 -9.647649075158988
1200 -9.644665197664947
1201 -9.64773410953128
1202 -9.644738979968865
1203 -9.647753552413727
1204 -9.644779279455184
1205 -9.647618927537721
1206 -9.644533166758739
1207 -9.647382039267113
1208 -9.644397286597307
1209 -9.647522832352443
1210 -9.644694308248505
1211 -9.647821733103273
1212 -9.644781398305669
1213 -9.647695140659405
1214 -9.644622796076797
1215 -9.647429743381339
1216 -9.644317233909995
1217 -9.647440729770953
1218 -9.644849220895084
1219 -9.648056451675863
1220 -9.645358938360491
1221 -9.648481418251494
1222 -9.645487436643355
1223 -9.648449600202039
1224 -9.645640319366274
1225 -9.648284015563508
1226 -9.645321090629412
1227 -9.64786209516444
1228 -9.644997087472653
1229 -9.648142843337601
1230 -9.645120829938104
1231 -9.647794218312661
1232 -9.644871601723263
1233 -9.647823784138309
1234 -9.644733269434154
1235 -9.647776025240811
1236 -9.644270970435972
1237 -9.64735102364382
1238 -9.644184590341158
1239 -9.647226486481658
1240 -9.644459444936338
1241 -9.647783483405114
1242 -9.644897322280555
1243 -9.647888907673426
1244 -9.64497171888647
1245 -9.647795768846503
1246 -9.644889666795613
1247 -9.647710776051309
1248 -9.644766744381862
1249 -9.648008438499996
1250 -9.644880360466033
1251 -9.647979318308117
1252 -9.645194035152635
1253 -9.648505573358348
1254 -9.645726531007814
1255 -9.648802577469626
1256 -9.645889125995904
1257 -9.648536853108343
1258 -9.645362477727826
1259 -9.648168921842203
1260 -9.645122800157338
1261 -9.6479621151981
1262 -9.645280095649463
1263 -9.648036484965107
1264 -9.645154264293815
1265 -9.64771314356803
1266 -9.644852429905434
1267 -9.647920889152177
1268 -9.645199837639005
1269 -9.64822206395298
1270 -9.64549711035156
1271 -9.648406975121972
1272 -9.645336197721154
1273 -9.648064500942672
1274 -9.645183078456602
1275 -9.648014897380293
1276 -9.645159132078556
1277 -9.648267874505274
1278 -9.64537310185381
1279 -9.648378294170694
1280 -9.645465799013811
1281 -9.648383662043932
1282 -9.645697389711737
1283 -9.648668373392749
1284 -9.645862161888067
1285 -9.648932369804543
1286 -9.645644845890892
1287 -9.648328232739491
1288 -9.645108536121693
1289 -9.648400958736838
1290 -9.645433033889569
1291 -9.648734404011272
1292 -9.645904163537626
1293 -9.649123464967753
1294 -9.6458293925522
1295 -9.648298713279248
1296 -9.644959752584446
1297 -9.647821595044348
1298 -9.644829640092059
1299 -9.647939968706545
1300 -9.644857354228549
1301 -9.647831367251637
1302 -9.644838284344178
1303 -9.647826115860147
1304 -9.645069913043976
1305 -9.648321392166714
1306 -9.645402568659335
1307 -9.648724345562703
1308 -9.64549304527203
1309 -9.648598894804156
1310 -9.645444936726699
1311 -9.648346346957954
1312 -9.645434379471638
1313 -9.648925545875212
1314 -9.646235955526473
1315 -9.649387465134904
1316 -9.646469429855637
1317 -9.6493265832164
1318 -9.646365949672896
1319 -9.649384597955631
1320 -9.646393833894635
1321 -9.649327977014684
1322 -9.64659520825961
1323 -9.649538616764785
1324 -9.646589168182194
1325 -9.649345206194882
1326 -9.6459492020524
1327 -9.648863151540041
1328 -9.645942190529881
1329 -9.648989348954862
1330 -9.645979047475068
1331 -9.648785485897722
1332 -9.645565652432525
1333 -9.648382694178029
1334 -9.645256512484552
1335 -9.648412946885596
1336 -9.645531221229161
1337 -9.648584623102769
1338 -9.645776699865923
1339 -9.648905378159938
1340 -9.645844021513154
1341 -9.649134576818151
1342 -9.645953891951795
1343 -9.6489274225902
1344 -9.645933001763435
1345 -9.649117538771739
1346 -9.645914588213454
1347 -9.648825939757497
1348 -9.645260719666011
1349 -9.648659917535657
1350 -9.645427303914682
1351 -9.648961040544258
1352 -9.646042811991325
1353 -9.649220455934202
1354 -9.64603319442409
1355 -9.648882388850801
1356 -9.64546431221817
1357 -9.648314880018695
1358 -9.645206891024682
1359 -9.648227594229189
1360 -9.645091457627123
1361 -9.648194316132104
1362 -9.644747577936538
1363 -9.647670127862666
1364 -9.644726984004174
1365 -9.648122750371526
1366 -9.645111973086923
1367 -9.648328039769551
1368 -9.645305681623086
1369 -9.648626116696226
1370 -9.645712632680658
1371 -9.648771326919565
1372 -9.645909032029689
1373 -9.648648236709949
1374 -9.645624417639629
1375 -9.648544046461987
1376 -9.645619284327617
1377 -9.648717968723927
1378 -9.645898505643078
1379 -9.649130346819691
1380 -9.645887523859713
1381 -9.648768624143694
1382 -9.64545000503249
1383 -9.648309426742102
1384 -9.645202094223317
1385 -9.647925459951052
1386 -9.644891423380669
1387 -9.647920135751439
1388 -9.644819280574207
1389 -9.648054149592319
1390 -9.645404728105506
1391 -9.648805168359901
1392 -9.64583436505135
1393 -9.648708586748933
1394 -9.645774772317319
1395 -9.648605243663106
1396 -9.645206461389636
1397 -9.648420813148913
1398 -9.645335868817257
1399 -9.648882314611615
1400 -9.646130680154558
1401 -9.649290573561329
1402 -9.646177907026805
1403 -9.649376072547447
1404 -9.645965225056321
1405 -9.648851523049688
1406 -9.64559535521426
1407 -9.648786196122312
1408 -9.645471089729156
1409 -9.648514266811723
1410 -9.645109993807711
1411 -9.648043100385594
1412 -9.64485579463593
1413 -9.647923371647797
1414 -9.644912943620424
1415 -9.648036878828709
1416 -9.644735016775883
1417 -9.647867965954795
1418 -9.644546450831076
1419 -9.647593595356414
1420 -9.644484389172613
1421 -9.647752017078364
1422 -9.644829710553649
1423 -9.648029346670151
1424 -9.645119197747437
1425 -9.648203777886893
1426 -9.645428590663366
1427 -9.648589067348933
1428 -9.645783488259124
1429 -9.64891899798757
1430 -9.646044555172127
1431 -9.649094162499921
1432 -9.64617275707422
1433 -9.649246227440209
1434 -9.646267042726214
1435 -9.649309827140801
1436 -9.646373098343449
1437 -9.649572448886509
1438 -9.6463981382784
1439 -9.649545931945131
1440 -9.646154294890904
1441 -9.648827944938654
1442 -9.645732577122134
1443 -9.648474284472249
1444 -9.645029312261974
1445 -9.648012594249462
1446 -9.644866074594411
1447 -9.647928352569332
1448 -9.64499862483898
1449 -9.648173288107809
1450 -9.645216209558418
1451 -9.648176181831417
1452 -9.645051370511007
1453 -9.648272432084687
1454 -9.645417481763745
1455 -9.648562883222944
1456 -9.64571431965318
1457 -9.648907655224502
1458 -9.645467971578492
1459 -9.648792726893603
1460 -9.645727337519531
1461 -9.649080547910346
1462 -9.64628502957464
1463 -9.649806361872001
1464 -9.646985230913611
1465 -9.649913645194127
1466 -9.647037752426755
1467 -9.649983549839503
1468 -9.646734530279195
1469 -9.649467554897118
1470 -9.646568523839377
1471 -9.649747440695869
1472 -9.646899102210693
1473 -9.649936127941169
1474 -9.646904094194481
1475 -9.649971657116032
1476 -9.646617562954976
1477 -9.649468598746392
1478 -9.646304195072119
1479 -9.649200217393028
1480 -9.646286690094909
1481 -9.649319665266219
1482 -9.64664828363499
1483 -9.649592586657821
1484 -9.646833536129058
1485 -9.649349595902233
1486 -9.646206439648095
1487 -9.648888150165819
1488 -9.646176212861199
1489 -9.64917818076939
1490 -9.64669695056044
1491 -9.649966996334976
1492 -9.647137003261697
1493 -9.649861179130204
1494 -9.646788941017123
1495 -9.649577515936233
1496 -9.646609698337377
1497 -9.649274811242075
1498 -9.646649034838209
1499 -9.649935213354503
1500 -9.646790618355304
1501 -9.649889366280657
1502 -9.647260845902338
1503 -9.65007036497356
1504 -9.646965741644514
1505 -9.649600620770594
1506 -9.646482401838407
1507 -9.64943346864035
1508 -9.646692985925103
1509 -9.650030478460332
1510 -9.647036101732299
1511 -9.649988065461379
1512 -9.646661899378765
1513 -9.649566667458929
1514 -9.646373083309495
1515 -9.649679389990512
1516 -9.64666843966482
1517 -9.650174470721646
1518 -9.647157255769999
1519 -9.650382318755456
1520 -9.647342040932507
1521 -9.650285064147694
1522 -9.647393507143541
1523 -9.65030066431189
1524 -9.647403413672263
1525 -9.650489275782061
1526 -9.647838911195256
1527 -9.650689865657515
1528 -9.647513202397789
1529 -9.650547581407089
1530 -9.647294196225154
1531 -9.649977514678634
1532 -9.647234627172629
1533 -9.650231750535564
1534 -9.647349303132852
1535 -9.649988591945274
1536 -9.646784763257308
1537 -9.649209796290457
1538 -9.646326777835881
1539 -9.649003901915119
1540 -9.646043023469295
1541 -9.648823604330302
1542 -9.645870768780977
1543 -9.648527618379903
1544 -9.645973059955837
1545 -9.648759531395736
1546 -9.646192831499818
1547 -9.649244140748628
1548 -9.646278861214226
1549 -9.649684772331868
1550 -9.646738838958267
1551 -9.649628531037678
1552 -9.64688171929757
1553 -9.649946459144164
1554 -9.647035771565024
1555 -9.649866572370742
1556 -9.646894726500829
1557 -9.650035878682306
1558 -9.647094050611619
1559 -9.649999248638327
1560 -9.646896831434779
1561 -9.649625611222678
1562 -9.646610510392765
1563 -9.649383196090373
1564 -9.646596286243721
1565 -9.649828439552207
1566 -9.646579713945282
1567 -9.649631534980431
1568 -9.646607957054131
1569 -9.64952526032987
1570 -9.646286616709091
1571 -9.64931672145619
1572 -9.646214236902503
1573 -9.649510100248909
1574 -9.646697583500885
1575 -9.649724747502246
1576 -9.646712066719404
1577 -9.649673564804736
1578 -9.646761414256636
1579 -9.650095137869261
1580 -9.647387322723343
1581 -9.650391384686852
1582 -9.647566554153489
1583 -9.650399422542169
1584 -9.647263102936344
1585 -9.650274525441992
1586 -9.647301835400437
1587 -9.650230627807296
1588 -9.647042973787057
1589 -9.650168312395071
1590 -9.646841190982732
1591 -9.649455396488969
1592 -9.646820326731499
1593 -9.64977293149391
1594 -9.646960280168935
1595 -9.649629087321857
1596 -9.646447833971095
1597 -9.64887364840096
1598 -9.64569376625915
1599 -9.648541860027246
1600 -9.646064124384711
1601 -9.649407977500479
1602 -9.646558216476558
1603 -9.649494707179707
1604 -9.646384240206224
1605 -9.649238378879428
1606 -9.645905627214329
1607 -9.648952816331978
1608 -9.645982218674398
1609 -9.649163228956398
1610 -9.646122746321378
1611 -9.648971831390769
1612 -9.645791114443579
1613 -9.649123662834439
1614 -9.646248556347839
1615 -9.649416794554513
1616 -9.64682749010667
1617 -9.649956467430606
1618 -9.646910222089019
1619 -9.649796659270953
1620 -9.646325128191489
1621 -9.649454219729071
1622 -9.64628026594105
1623 -9.649205925831101
1624 -9.646291611103015
1625 -9.649473015906777
1626 -9.646347403738654
1627 -9.649427931179916
1628 -9.646324852209215
1629 -9.649702830565932
1630 -9.646662861905376
1631 -9.649751808969853
1632 -9.646758058068361
1633 -9.649826064859671
1634 -9.646949922311791
1635 -9.649473764426759
1636 -9.646671849838
1637 -9.649862217295309
1638 -9.646856310396593
1639 -9.649977262514204
1640 -9.647129740002471
1641 -9.650005467196191
1642 -9.646806591872492
1643 -9.649562605337202
1644 -9.646575184225423
1645 -9.649820080043606
1646 -9.646837545695551
1647 -9.649687291074462
1648 -9.646677032347421
1649 -9.649616156329705
1650 -9.646729282601704
1651 -9.649663086859805
1652 -9.646788982088264
1653 -9.649592814631346
1654 -9.646724105498658
1655 -9.649505104562493
1656 -9.646491623366709
1657 -9.649200942193264
1658 -9.646094874813508
1659 -9.648956306642109
1660 -9.64580060237234
1661 -9.649146034096107
1662 -9.646346416676247
1663 -9.649549811932033
1664 -9.647012708740922
1665 -9.64981398411873
1666 -9.646680128284268
1667 -9.649512114370998
1668 -9.646357708252152
1669 -9.649683669688889
1670 -9.646655609440947
1671 -9.649568991353023
1672 -9.646873077113103
1673 -9.650044115711127
1674 -9.647054117524805
1675 -9.650219244037148
1676 -9.647264866438782
1677 -9.65016875815734
1678 -9.646662682829792
1679 -9.649706561478498
1680 -9.646304391259473
1681 -9.649417526070598
1682 -9.646529621249661
1683 -9.649961204716044
1684 -9.64679365204015
1685 -9.6499140130834
1686 -9.646747430982954
1687 -9.649907880026577
1688 -9.646603274360752
1689 -9.649608497462653
1690 -9.646680231874923
1691 -9.64974410707836
1692 -9.646715437590391
1693 -9.649474169812745
1694 -9.646440611483863
1695 -9.649300353726298
1696 -9.646328441365476
1697 -9.649657335818043
1698 -9.647000018987205
1699 -9.650340753575822
1700 -9.647307089315547
1701 -9.650029268717947
1702 -9.646909172841481
1703 -9.649803451977171
1704 -9.646963028073696
1705 -9.650009257836302
1706 -9.647277686428287
1707 -9.650039139534973
1708 -9.646912253664604
1709 -9.649768601613623
1710 -9.646747098740377
1711 -9.649814298927314
1712 -9.647048129176067
1713 -9.649958882573355
1714 -9.647025151786664
1715 -9.649953069072945
1716 -9.64652718080945
1717 -9.649480748492358
1718 -9.646457209336599
1719 -9.649519144671203
1720 -9.646198912288103
1721 -9.648939751436885
1722 -9.645856102882661
1723 -9.648783346974398
1724 -9.645919536824563
1725 -9.649263962962261
1726 -9.646436263420126
1727 -9.649700553656576
1728 -9.646748582716295
1729 -9.650003041960098
1730 -9.646733698716996
1731 -9.649687926025791
1732 -9.646827535830893
1733 -9.650332049916605
1734 -9.64736065080379
1735 -9.650614455840801
1736 -9.647561814873946
1737 -9.650346877084841
1738 -9.647088703152102
1739 -9.65011038354039
1740 -9.646894291208657
1741 -9.650041886505107
1742 -9.647075512196345
1743 -9.649961987732366
1744 -9.646865669132369
1745 -9.649503394827978
1746 -9.646521033183397
1747 -9.64941992788277
1748 -9.646612791540264
1749 -9.649825503031563
1750 -9.647006907835467
1751 -9.649792015413734
1752 -9.646769731630668
1753 -9.649678149485888
1754 -9.646505834677182
1755 -9.649379746204591
1756 -9.646296361803218
1757 -9.649454333219918
1758 -9.646536439559684
1759 -9.649718709613643
1760 -9.646868027658712
1761 -9.649854419507271
1762 -9.647366818698508
1763 -9.650331689979836
1764 -9.647428670759137
1765 -9.650313234779608
1766 -9.647474080198069
1767 -9.650441502638623
1768 -9.647390436200341
1769 -9.650317996548791
1770 -9.647142966755295
1771 -9.64998335012433
1772 -9.646468508297117
1773 -9.649307305718491
1774 -9.646409756906744
1775 -9.649486757753799
1776 -9.64639752787588
1777 -9.649293001033861
1778 -9.646169765013253
1779 -9.649122568428675
1780 -9.64548249474268
1781 -9.648580497545957
1782 -9.64560298204144
1783 -9.648923290931501
1784 -9.646293877424272
1785 -9.649415312370104
1786 -9.646184077086795
1787 -9.649464206858324
1788 -9.646257934322943
1789 -9.649616408590088
1790 -9.646429763882491
1791 -9.649593683347176
1792 -9.646405358607376
1793 -9.649219237758111
1794 -9.646066057269376
1795 -9.64925407958135
1796 -9.646319547770052
1797 -9.649617273577807
1798 -9.646858278710447
1799 -9.649969505527315
1800 -9.64657746673249
1801 -9.649173470520404
1802 -9.646225863740607
1803 -9.649129345175236
1804 -9.646384996867878
1805 -9.649523381131097
1806 -9.646541019629014
1807 -9.649496904778017
1808 -9.64636502448767
1809 -9.649163601169439
1810 -9.645964177438884
1811 -9.649089655622129
1812 -9.6462768170353
1813 -9.649596169346246
1814 -9.646650509619604
1815 -9.649346459458902
1816 -9.64637397664619
1817 -9.649373551120744
1818 -9.646532714439273
1819 -9.649667790140963
1820 -9.646664347560542
1821 -9.649566585112456
1822 -9.646662576400118
1823 -9.649670715782136
1824 -9.64666027800487
1825 -9.649591679393419
1826 -9.646544073058109
1827 -9.649585808500861
1828 -9.646404496874302
1829 -9.649694889418633
1830 -9.646455068046278
1831 -9.649529146397365
1832 -9.646384533740928
1833 -9.649184133900254
1834 -9.645998403772065
1835 -9.648930572569171
1836 -9.645613252745823
1837 -9.648750719818077
1838 -9.645644859363697
1839 -9.648791357072724
1840 -9.645602295744816
1841 -9.648681842877396
1842 -9.645611608040337
1843 -9.648562486260614
1844 -9.645465079783982
1845 -9.648458605114964
1846 -9.645451424533912
1847 -9.64891897830281
1848 -9.645779817519946
1849 -9.648836059166911
1850 -9.64574519397139
1851 -9.648677934387248
1852 -9.645482160053977
1853 -9.648847365811585
1854 -9.64584726314369
1855 -9.649251966124904
1856 -9.646424474377259
1857 -9.649124922179212
1858 -9.646207745210624
1859 -9.649222895909833
1860 -9.646073700640518
1861 -9.649040444196368
1862 -9.64607864382889
1863 -9.648915103664912
1864 -9.645924445242287
1865 -9.648962896158764
1866 -9.645787909214754
1867 -9.648675544698881
1868 -9.645640337053125
1869 -9.64859374955925
1870 -9.645510210802541
1871 -9.64817751482656
1872 -9.645322886515109
1873 -9.648155488868472
1874 -9.645739967823969
1875 -9.648349769679706
1876 -9.645326596025882
1877 -9.648296710386292
1878 -9.645500251681193
1879 -9.648666986447731
1880 -9.646038374564707
1881 -9.649108250995621
1882 -9.646255128454426
1883 -9.649307735522335
1884 -9.646186916594907
1885 -9.648950568529598
1886 -9.645992949796792
1887 -9.648956119693263
1888 -9.646067867510174
1889 -9.64905979162355
1890 -9.645932076136228
1891 -9.648888478283812
1892 -9.645684241684895
1893 -9.648552170981571
1894 -9.645876130654282
1895 -9.649070421781525
1896 -9.64613228136386
1897 -9.649004685027037
1898 -9.646200330414594
1899 -9.649121616082869
1900 -9.6459264440353
1901 -9.649045576889652
1902 -9.6461856625449
1903 -9.649071083436009
1904 -9.646045378673694
1905 -9.648802909749081
1906 -9.645990670982965
1907 -9.64914784929155
1908 -9.646174375318518
1909 -9.649290132119942
1910 -9.646471660803307
1911 -9.649474811287002
1912 -9.646878379392355
1913 -9.649870188597145
1914 -9.647090694660529
1915 -9.649789085129417
1916 -9.646959578681551
1917 -9.649552313972775
1918 -9.646623317461012
1919 -9.649633826163983
1920 -9.646224280725376
1921 -9.648812538739179
1922 -9.646004539392608
1923 -9.648840140517608
1924 -9.645809880587986
1925 -9.648756471543061
1926 -9.645845394825812
1927 -9.648617835123783
1928 -9.645743055816325
1929 -9.648499323082723
1930 -9.64581248712361
1931 -9.648430268910619
1932 -9.64535234645372
1933 -9.64809032329187
1934 -9.645257680799554
1935 -9.648169055868324
1936 -9.645596980524829
1937 -9.648968341304762
1938 -9.646107841144802
1939 -9.649234206698639
1940 -9.64623275169529
1941 -9.649237480045771
1942 -9.646208317496557
1943 -9.649285653450944
1944 -9.646718518974019
1945 -9.649904646040545
1946 -9.646926037669569
1947 -9.649808493600384
1948 -9.646631347416285
1949 -9.649619169980344
1950 -9.64647786974389
1951 -9.649586333561597
1952 -9.646640168113633
1953 -9.64943777355181
1954 -9.646674397176717
1955 -9.64952151617579
1956 -9.645997498279984
1957 -9.648858958411639
1958 -9.645876925842073
1959 -9.648828029372945
1960 -9.645811992693412
1961 -9.649028315122184
1962 -9.646136517773465
1963 -9.649106119222999
1964 -9.646413718913523
1965 -9.649461815938984
1966 -9.64660083153815
1967 -9.649517559115264
1968 -9.646848389626678
1969 -9.649840286221716
1970 -9.647179826373936
1971 -9.64988111497142
1972 -9.647142204835719
1973 -9.650106861245066
1974 -9.647115808238141
1975 -9.649851968528601
1976 -9.647108303844284
1977 -9.650338108369896
1978 -9.647624043469351
1979 -9.650609641213068
1980 -9.64742389925209
1981 -9.650124504489076
1982 -9.646814817831826
1983 -9.649228071573058
1984 -9.646278455911997
1985 -9.649210862020535
1986 -9.646306737535479
1987 -9.649122021679576
1988 -9.645972793601123
1989 -9.648850079181454
1990 -9.645992726779081
1991 -9.649088667440346
1992 -9.646198280041554
1993 -9.649248828841388
1994 -9.646409274128638
1995 -9.649083498579772
1996 -9.645912888228038
1997 -9.649054029320421
1998 -9.646244161981803
1999 -9.649514698345044
2000 -9.646847545782947
2001 -9.649673317001081
2002 -9.646848228944846
2003 -9.649715757878017
2004 -9.646690903435385
2005 -9.649659159587019
2006 -9.646995531071614
2007 -9.64972701960868
2008 -9.64688287485739
2009 -9.649709046720378
2010 -9.646636504431621
2011 -9.649501969008398
2012 -9.646744894940221
2013 -9.649688492986034
2014 -9.646707727330512
2015 -9.649365290714021
2016 -9.646152656192255
2017 -9.648706255111398
2018 -9.645594137808263
2019 -9.648511645531585
2020 -9.645806825000887
2021 -9.649018672916316
2022 -9.646129733541873
2023 -9.648798491585552
2024 -9.64599304981372
2025 -9.648650131870699
2026 -9.645862985260289
2027 -9.648446601499115
2028 -9.645788067513781
2029 -9.648822467227607
2030 -9.645749806103037
2031 -9.648481685401217
2032 -9.645641224212884
2033 -9.648576396681168
2034 -9.64576204601326
2035 -9.64861239812635
2036 -9.645548081098859
2037 -9.648383487250587
2038 -9.645540393124156
2039 -9.648680607392279
2040 -9.645819607278252
2041 -9.648764141068128
2042 -9.645921381869215
2043 -9.648601449694654
2044 -9.645688283765015
2045 -9.648688860828528
2046 -9.645833889513124
2047 -9.648888872403399
2048 -9.64588359394206
2049 -9.648970749226605
2050 -9.645707379123785
2051 -9.648427577308057
2052 -9.645332490282339
2053 -9.648172551140902
2054 -9.645170654623385
2055 -9.64816383566869
2056 -9.645238365203758
2057 -9.648307771664648
2058 -9.645255970604541
2059 -9.648284652217667
2060 -9.645003350474225
2061 -9.648155749320756
2062 -9.645714741944662
2063 -9.649016634604557
2064 -9.646425831592008
2065 -9.649425947580749
2066 -9.64657251222253
2067 -9.649294973720853
2068 -9.645813459030899
2069 -9.648877924871375
2070 -9.64565182709941
2071 -9.648867133796603
2072 -9.646247735812285
2073 -9.649741645372686
2074 -9.646919178025172
2075 -9.649864322310114
2076 -9.646553478884298
2077 -9.649452899510006
2078 -9.646233921717233
2079 -9.649113797917867
2080 -9.646001365245558
2081 -9.648826860281909
2082 -9.645664878009573
2083 -9.64847228345829
2084 -9.64539820182541
2085 -9.648448948232168
2086 -9.645393474768973
2087 -9.648496929746033
2088 -9.645550813655767
2089 -9.648867429217376
2090 -9.645727531356858
2091 -9.648547100800217
2092 -9.645309431507801
2093 -9.648535264021485
2094 -9.645635162942035
2095 -9.648785193768072
2096 -9.646123245625001
2097 -9.649096949541805
2098 -9.645864399182919
2099 -9.648727857155983
2100 -9.645420372587727
2101 -9.648567903553898
2102 -9.645553229606776
2103 -9.648538004551702
2104 -9.645626206436592
2105 -9.648394192672662
2106 -9.644821158914487
2107 -9.647936613117775
2108 -9.644631796352233
2109 -9.647892734993116
2110 -9.645107826153055
2111 -9.648135428466082
2112 -9.645191242609949
2113 -9.647995054392673
2114 -9.644976237173523
2115 -9.647800051127753
2116 -9.644767488240934
2117 -9.647752532602162
2118 -9.644872047803826
2119 -9.647939279685382
2120 -9.645234018506187
2121 -9.648484433566573
2122 -9.645747735096842
2123 -9.648971930928051
2124 -9.646425542839832
2125 -9.649559169875792
2126 -9.646642379270551
2127 -9.649536084012746
2128 -9.646508793372822
2129 -9.649545746613278
2130 -9.646525080952483
2131 -9.649538383554482
2132 -9.646455212272429
2133 -9.649287362090902
2134 -9.646604741361733
2135 -9.649123117137513
2136 -9.64629166439714
2137 -9.64883364165593
2138 -9.64598538004936
2139 -9.648761469110708
2140 -9.646032696867502
2141 -9.64900056071578
2142 -9.646105921318417
2143 -9.648797719603113
2144 -9.645614261163232
2145 -9.648569293248434
2146 -9.645466277376409
2147 -9.648613128408417
2148 -9.645821387478581
2149 -9.649150242469588
2150 -9.64636878712802
2151 -9.649463950508325
2152 -9.646356620772119
2153 -9.649128363364364
2154 -9.64621362621717
2155 -9.648982662402075
2156 -9.646030307664653
2157 -9.649291893309943
2158 -9.646379643942359
2159 -9.649697032601196
2160 -9.646566678966602
2161 -9.64966021584031
2162 -9.646532288917216
2163 -9.649391373801194
2164 -9.646186552139479
2165 -9.649142473095742
2166 -9.645909896182276
2167 -9.648713909290159
2168 -9.645917052044695
2169 -9.649077708376259
2170 -9.645895537553542
2171 -9.648806547742387
2172 -9.645780799418208
2173 -9.648908718777976
2174 -9.646122435836284
2175 -9.64926916213385
2176 -9.646360916644815
2177 -9.649304212647406
2178 -9.646369399370712
2179 -9.649628677252135
2180 -9.646532298711403
2181 -9.649674775859339
2182 -9.64668614629905
2183 -9.649450247387337
2184 -9.646349044376574
2185 -9.649397430601471
2186 -9.646457279311385
2187 -9.649503682162766
2188 -9.64641880182004
2189 -9.649622162256561
2190 -9.646432335760803
2191 -9.649136031684183
2192 -9.646196195531864
2193 -9.648864709171749
2194 -9.646083405859448
2195 -9.649047706771542
2196 -9.646077238295129
2197 -9.649109056194789
2198 -9.645872432813904
2199 -9.648772997833412
2200 -9.645574225956571
2201 -9.648764907926097
2202 -9.645733207308062
2203 -9.649029755915251
2204 -9.646200944050815
2205 -9.64939024206452
2206 -9.646526035015585
2207 -9.649609224512588
2208 -9.64670293216674
2209 -9.649787100583485
2210 -9.647111169427061
2211 -9.649979218472446
2212 -9.647140064850738
2213 -9.650095199818884
2214 -9.646791199180422
2215 -9.649386527251169
2216 -9.646432526851006
2217 -9.649627259876793
2218 -9.646669919087509
2219 -9.64993138608488
2220 -9.646833601616704
2221 -9.649585334992278
2222 -9.646422285848868
2223 -9.649178579659901
2224 -9.646300575849715
2225 -9.649173919370902
2226 -9.646135997172253
2227 -9.649147428691306
2228 -9.646283189829278
2229 -9.649412926620391
2230 -9.646278298565532
2231 -9.649185084189934
2232 -9.646240293667294
2233 -9.649229275021868
2234 -9.646180349498609
2235 -9.648956331274624
2236 -9.645805867488335
2237 -9.648910675776802
2238 -9.646160797238139
2239 -9.64976628405098
2240 -9.647324038390988
2241 -9.650573318176704
2242 -9.647538649325039
2243 -9.650071259669049
2244 -9.646964367149582
2245 -9.649943668718386
2246 -9.647527364616098
2247 -9.650614788961002
2248 -9.648165891503792
2249 -9.650867529978424
2250 -9.647771989600237
2251 -9.650499392970806
2252 -9.647407898094583
2253 -9.650372720616545
2254 -9.647509193081754
2255 -9.650318559164102
2256 -9.647197919692774
2257 -9.650150506833665
2258 -9.647187673294285
2259 -9.650051615217269
2260 -9.646935514869451
2261 -9.649861409362883
2262 -9.64682617940171
2263 -9.649633597717255
2264 -9.64670389323123
2265 -9.649311784476755
2266 -9.646567431681765
2267 -9.649268373944851
2268 -9.646123871398808
2269 -9.649066331728251
2270 -9.646221747341556
2271 -9.649353283581531
2272 -9.646814502441119
2273 -9.650123074677824
2274 -9.647436216992928
2275 -9.650723070441046
2276 -9.647826739447089
2277 -9.650870633282064
2278 -9.647612175283864
2279 -9.650576716728414
2280 -9.647482331594359
2281 -9.650191366263984
2282 -9.647413386000691
2283 -9.650358832183931
2284 -9.64759754043485
2285 -9.650455312129333
2286 -9.647233183768835
2287 -9.649874805392461
2288 -9.646855010973781
2289 -9.649749195605921
2290 -9.646795558949487
2291 -9.649701969796501
2292 -9.646620760481886
2293 -9.649515014211538
2294 -9.646297380673673
2295 -9.648984932331036
2296 -9.645732266792159
2297 -9.648739760187535
2298 -9.645924892059796
2299 -9.649162628408156
2300 -9.646433935654429
2301 -9.649695504274991
2302 -9.646724957451323
2303 -9.649293359205849
2304 -9.646401253530222
2305 -9.649305965193705
2306 -9.646520510903256
2307 -9.649685465221266
2308 -9.647000453011069
2309 -9.65017278826007
2310 -9.647180203343428
2311 -9.650325790293094
2312 -9.647335912642321
2313 -9.650094658640121
2314 -9.647167583037795
2315 -9.649951038385122
2316 -9.646730222308262
2317 -9.649592090430723
2318 -9.646654922993578
2319 -9.649580212379867
2320 -9.646686113365536
2321 -9.6496763415335
2322 -9.646860328899507
2323 -9.649760917200069
2324 -9.646883357380934
2325 -9.649660862936024
2326 -9.646671128314624
2327 -9.650128672895629
2328 -9.647082158302149
2329 -9.650227292424898
2330 -9.647281564599444
2331 -9.650299004498946
2332 -9.646932861346192
2333 -9.6497838648942
2334 -9.646715358824608
2335 -9.649609832014386
2336 -9.647029423788826
2337 -9.650164057967668
2338 -9.647354779813723
2339 -9.650145458223166
2340 -9.646849430698307
2341 -9.649699032240695
2342 -9.646847020020662
2343 -9.649657392301911
2344 -9.646904620035214
2345 -9.64973505591284
2346 -9.646780293310963
2347 -9.649563054719611
2348 -9.646574560030935
2349 -9.64949285208448
2350 -9.646560249016515
2351 -9.649429992155394
2352 -9.646287741597556
2353 -9.648897347389669
2354 -9.645919238061524
2355 -9.648408511780495
2356 -9.645402412051482
2357 -9.648483739805712
2358 -9.645633208708277
2359 -9.648944624816453
2360 -9.646352034543341
2361 -9.649368979787091
2362 -9.64647820442779
2363 -9.649327027962663
2364 -9.64628117794658
2365 -9.649176692843513
2366 -9.646290258918457
2367 -9.649473595192994
2368 -9.646531493714887
2369 -9.649652195135909
2370 -9.646517174657699
2371 -9.649694192543189
2372 -9.646766988512013
2373 -9.650038334963284
2374 -9.647349895874761
2375 -9.650181633723747
2376 -9.647217093805551
2377 -9.650041197904518
2378 -9.647045617530871
2379 -9.64954271057351
2380 -9.646359478013318
2381 -9.649438211495896
2382 -9.646434241513022
2383 -9.649629811804077
2384 -9.647155279958156
2385 -9.650318113388577
2386 -9.647274695744594
2387 -9.650084143456377
2388 -9.647127667670345
2389 -9.65027888445332
2390 -9.64725363587444
2391 -9.649967385513904
2392 -9.6473244514158
2393 -9.65003978132556
2394 -9.647218330163152
2395 -9.649998105711633
2396 -9.647247269325948
2397 -9.650352648931454
2398 -9.647700473935149
2399 -9.650547712111461
2400 -9.647593574197691
2401 -9.650358907364019
2402 -9.647246301014746
2403 -9.649849700685911
2404 -9.646846085845709
2405 -9.649796398744446
2406 -9.647110511083268
2407 -9.650030061076185
2408 -9.647204765232933
2409 -9.650248139409968
2410 -9.647345860346711
2411 -9.650428560847908
2412 -9.647488919338448
2413 -9.650278301995019
2414 -9.647346268517415
2415 -9.649655895901791
2416 -9.646716956051396
2417 -9.649519576049885
2418 -9.646726285798097
2419 -9.649929922748209
2420 -9.647306617802638
2421 -9.650192530563064
2422 -9.647254278511694
2423 -9.65032421960724
2424 -9.647274751898598
2425 -9.650133195009365
2426 -9.647236928313824
2427 -9.650188110440542
2428 -9.647049792242369
2429 -9.650002437062511
2430 -9.646782992308211
2431 -9.649662885736594
2432 -9.646975808968763
2433 -9.649951634772892
2434 -9.647413903496117
2435 -9.650332834736256
2436 -9.647409412889282
2437 -9.650340074012661
2438 -9.64703944202823
2439 -9.649909953324883
2440 -9.646912370921838
2441 -9.65001567640271
2442 -9.647298180252893
2443 -9.65025310834166
2444 -9.647474169700812
2445 -9.650270161230132
2446 -9.647113255902383
2447 -9.649929504547023
2448 -9.647181822232151
2449 -9.650250880100801
2450 -9.64739603742539
2451 -9.650003413222306
2452 -9.646966377614632
2453 -9.649776506828763
2454 -9.647101101361827
2455 -9.650198526562097
2456 -9.647546367825772
2457 -9.650626560902207
2458 -9.647626595747123
2459 -9.650439446543436
2460 -9.647178909197446
2461 -9.650258104661699
2462 -9.647397802044662
2463 -9.650184496857761
2464 -9.647116372202863
2465 -9.649997203806665
2466 -9.646620797145138
2467 -9.64939091826988
2468 -9.646311348401081
2469 -9.649409588310055
2470 -9.646606131504651
2471 -9.649691215683116
2472 -9.646802410272532
2473 -9.649643521652314
2474 -9.646524680389085
2475 -9.648883731181169
2476 -9.6457363014077
2477 -9.64893145198892
2478 -9.645941586373446
2479 -9.649447098303051
2480 -9.646484231919182
2481 -9.649650072377744
2482 -9.646901861469281
2483 -9.650020419680652
2484 -9.647216908582481
2485 -9.650487020612399
2486 -9.647464494749451
2487 -9.650312512050006
2488 -9.647417385345321
2489 -9.650411878746478
2490 -9.647491243540687
2491 -9.650462573904381
2492 -9.647293055581844
2493 -9.65025304993612
2494 -9.64694454609041
2495 -9.649809380242095
2496 -9.646620700062893
2497 -9.649415731102783
2498 -9.646255020418874
2499 -9.649036792732234
2500 -9.645921518103208
2501 -9.649116869856796
2502 -9.646293557270058
2503 -9.649197146454158
2504 -9.64631021878929
2505 -9.648960254747006
2506 -9.645926761877892
2507 -9.648956411150831
2508 -9.646127753161334
2509 -9.649584723784187
2510 -9.647200386796211
2511 -9.65045936517148
2512 -9.647502936982381
2513 -9.650375663515803
2514 -9.647253059695087
2515 -9.650098781503717
2516 -9.646863268902354
2517 -9.650153491948467
2518 -9.64746119973173
2519 -9.650755449094701
2520 -9.647809942364967
2521 -9.650732829048808
2522 -9.647392386628244
2523 -9.650010138931291
2524 -9.646738638821406
2525 -9.649572840592487
2526 -9.646438601240257
2527 -9.649206197417712
2528 -9.645985781900576
2529 -9.648941124960434
2530 -9.645604996926734
2531 -9.648735062213426
2532 -9.645499114181451
2533 -9.648466159573028
2534 -9.645219652462593
2535 -9.648263427124601
2536 -9.645161625099957
2537 -9.648498541293296
2538 -9.645419255121396
2539 -9.648718228836154
2540 -9.645580040241732
2541 -9.648660580974882
2542 -9.645593662759254
2543 -9.648840113059377
2544 -9.64600353167847
2545 -9.649283511029182
2546 -9.646561194206065
2547 -9.649645544548831
2548 -9.646383952305847
2549 -9.649638016398127
2550 -9.646438654200891
2551 -9.649648104823211
2552 -9.646706953372018
2553 -9.649744280281579
2554 -9.646730913172711
2555 -9.649674195715409
2556 -9.646487845707153
2557 -9.649523777025488
2558 -9.64617196592633
2559 -9.649076486248479
2560 -9.646032075354915
2561 -9.648860323229044
2562 -9.645714552259186
2563 -9.648589482211124
2564 -9.645385291734001
2565 -9.648404408265449
2566 -9.645637009334274
2567 -9.649172700306204
2568 -9.646345078126158
2569 -9.649301352893181
2570 -9.646007349509778
2571 -9.6488343450345
2572 -9.645394742234767
2573 -9.648680507779057
2574 -9.64615360960307
2575 -9.649416125580046
2576 -9.646160411908209
2577 -9.648969943254615
2578 -9.64571346761273
2579 -9.648877408276368
2580 -9.64592600269288
2581 -9.649122399488865
2582 -9.646159976172916
2583 -9.649091830606535
2584 -9.646115394380439
2585 -9.64922009677897
2586 -9.646040082284493
2587 -9.64944783858839
2588 -9.646504694671428
2589 -9.649878378704319
2590 -9.646340469118291
2591 -9.649247495384973
2592 -9.645922568968839
2593 -9.649064544926777
2594 -9.645918611220917
2595 -9.649184296469993
2596 -9.646071214281301
2597 -9.649344870367649
2598 -9.645947496617161
2599 -9.648965853975547
2600 -9.645776232424778
2601 -9.648949287559331
2602 -9.646281414863333
2603 -9.649419497498364
2604 -9.64631125147905
2605 -9.649371870638475
2606 -9.646135989058534
2607 -9.649287268564345
2608 -9.646248370549598
2609 -9.649589750752636
2610 -9.646647340519534
2611 -9.649788667410819
2612 -9.646479854472409
2613 -9.649310999107175
2614 -9.646203163264309
2615 -9.649185680052199
2616 -9.646381822255465
2617 -9.649432289928621
2618 -9.646425335953731
2619 -9.649219403852372
2620 -9.646055317915987
2621 -9.649175872361067
2622 -9.646426504588067
2623 -9.649744006126589
2624 -9.646831542703463
2625 -9.64971309841993
2626 -9.646424575308771
2627 -9.649139267391362
2628 -9.645904496857613
2629 -9.649150240637875
2630 -9.646596521125337
2631 -9.649726325887414
2632 -9.647061720817625
2633 -9.650133142835127
2634 -9.647079566841422
2635 -9.649965955045552
2636 -9.647042296839363
2637 -9.650031101737397
2638 -9.647072448507151
2639 -9.650258307969466
2640 -9.647302015526867
2641 -9.650293614619301
2642 -9.647290231433111
2643 -9.650160537288718
2644 -9.647377106267065
2645 -9.650694063401415
2646 -9.64741929090594
2647 -9.650241970136515
2648 -9.647130504148057
2649 -9.650336930099884
2650 -9.64720378278122
2651 -9.650144221181932
2652 -9.646987621163811
2653 -9.649799402046717
2654 -9.646796941787054
2655 -9.649290331428848
2656 -9.64624331728033
2657 -9.648986974122586
2658 -9.646486862299803
2659 -9.649353805973423
2660 -9.646355018361524
2661 -9.649302925632966
2662 -9.646217409480704
2663 -9.649134429695003
2664 -9.6462409608834
2665 -9.649152320463708
2666 -9.646307418378738
2667 -9.649482307142637
2668 -9.646815269984527
2669 -9.650120929408086
2670 -9.647153817508833
2671 -9.649898934247933
2672 -9.647348809807381
2673 -9.650032237939675
2674 -9.647026725569312
2675 -9.649440458031115
2676 -9.646348448448109
2677 -9.649214457196075
2678 -9.646571157449589
2679 -9.649892040992729
2680 -9.64700512376224
2681 -9.649966970570722
2682 -9.647030409571045
2683 -9.649761351732513
2684 -9.646702727290343
2685 -9.649612370403329
2686 -9.64673074047383
2687 -9.64970275436278
2688 -9.646783377050332
2689 -9.6497426594331
2690 -9.646667109951606
2691 -9.649560935542308
2692 -9.646618701660273
2693 -9.649903433880919
2694 -9.646996056086397
2695 -9.650198602569047
2696 -9.647570080609642
2697 -9.650537322938508
2698 -9.647392602223698
2699 -9.650405149397612
2700 -9.647251905226483
2701 -9.650451444990779
2702 -9.647329484141592
2703 -9.650386162108743
2704 -9.647263756477795
2705 -9.650312399104649
2706 -9.64695918980135
2707 -9.649816610108632
2708 -9.646556295820641
2709 -9.649721834681834
2710 -9.646911476347166
2711 -9.649618549881815
2712 -9.646522803980835
2713 -9.64924977230884
2714 -9.64664969545349
2715 -9.649391489693819
2716 -9.646369308776967
2717 -9.649572936174595
2718 -9.646586657783155
2719 -9.649820660362277
2720 -9.647113781575014
2721 -9.650218724135996
2722 -9.647465054625533
2723 -9.650306012065615
2724 -9.64714889971353
2725 -9.649767793652366
2726 -9.646699854304225
2727 -9.649377805886907
2728 -9.646797196460685
2729 -9.649546862167352
2730 -9.646579848029338
2731 -9.649199527096876
2732 -9.64608529686183
2733 -9.649097938175213
2734 -9.64652894482442
2735 -9.649415043602467
2736 -9.646316082142665
2737 -9.649360098487275
2738 -9.64617778891262
2739 -9.649082452580835
2740 -9.645902205283395
2741 -9.648975198807443
2742 -9.646074360998108
2743 -9.649123312582446
2744 -9.646232003651068
2745 -9.649444666840889
2746 -9.646339495153899
2747 -9.649285431275018
2748 -9.646370542404728
2749 -9.649820504361873
2750 -9.646988542573672
2751 -9.650154090189814
2752 -9.647416171996044
2753 -9.650552848745885
2754 -9.647484762305584
2755 -9.650324861686208
2756 -9.647278272678653
2757 -9.650356564571094
2758 -9.647134884460543
2759 -9.650332374898248
2760 -9.647098534650045
2761 -9.649917170533653
2762 -9.647085468343263
2763 -9.650069139164811
2764 -9.646995348863944
2765 -9.649886997900879
2766 -9.646673450992823
2767 -9.649317048450506
2768 -9.646250164988196
2769 -9.649184079670187
2770 -9.646569381766126
2771 -9.649692570726573
2772 -9.646478105900766
2773 -9.649329300465274
2774 -9.646286093212584
2775 -9.649231007074395
2776 -9.646197492406431
2777 -9.649262279590552
2778 -9.646194655403217
2779 -9.649256500907805
2780 -9.646354907266488
2781 -9.649565120477126
2782 -9.646912995668345
2783 -9.649874081234929
2784 -9.647289473744435
2785 -9.64968579825892
2786 -9.646648313917805
2787 -9.649331066250827
2788 -9.646498086637784
2789 -9.649574075619803
2790 -9.646787575746675
2791 -9.649692473501712
2792 -9.646894384966402
2793 -9.649690124228956
2794 -9.646817049242783
2795 -9.649732430623443
2796 -9.646450890621146
2797 -9.649457158918114
2798 -9.646372067483272
2799 -9.649017281316169
2800 -9.645973496484235
2801 -9.649031139543125
2802 -9.646019428952846
2803 -9.649068080494715
2804 -9.646434097173922
2805 -9.649451736733687
2806 -9.646356416152894
2807 -9.649120139098097
2808 -9.645937993669355
2809 -9.649020591611579
2810 -9.646189667733978
2811 -9.64925502507265
2812 -9.64622848076352
2813 -9.649398217281025
2814 -9.646342914979035
2815 -9.649205656072064
2816 -9.646465308791903
2817 -9.649729964835903
2818 -9.647107311759676
2819 -9.650312973851493
2820 -9.647143100238111
2821 -9.650052451502297
2822 -9.647078657621231
2823 -9.649855045335745
2824 -9.64687253488002
2825 -9.649650304159188
2826 -9.646595981746319
2827 -9.649351004131823
2828 -9.64603892734854
2829 -9.649106724404627
2830 -9.64611710632883
2831 -9.649222685509024
2832 -9.64652637102683
2833 -9.649407751748432
2834 -9.646497909070831
2835 -9.64889579764724
2836 -9.645506806626486
2837 -9.648406517389075
2838 -9.645168553671333
2839 -9.647754751783969
2840 -9.64527894164241
2841 -9.648374209762846
2842 -9.645643573234544
2843 -9.648429225325916
2844 -9.645502198910696
2845 -9.648126940289316
2846 -9.645435201909432
2847 -9.64861043223876
2848 -9.645662930358943
2849 -9.648824170852681
2850 -9.645806405423965
2851 -9.648942941985863
2852 -9.646065047067717
2853 -9.649442649049504
2854 -9.646654619553248
2855 -9.649588254312572
2856 -9.64657815283298
2857 -9.649406465531401
2858 -9.646076808339203
2859 -9.649015990710424
2860 -9.645922657689692
2861 -9.649125292247136
2862 -9.646282239403659
2863 -9.649359011042574
2864 -9.64620335045262
2865 -9.648822587877094
2866 -9.645456003980069
2867 -9.648521953530597
2868 -9.645355723659446
2869 -9.648695184153347
2870 -9.645716893337195
2871 -9.648951610370862
2872 -9.64584129170664
2873 -9.648825640190841
2874 -9.645829900396517
2875 -9.649091102361934
2876 -9.64614921990607
2877 -9.649264136901982
2878 -9.64634463714957
2879 -9.649483710824859
2880 -9.646630434303177
2881 -9.649566662890873
2882 -9.647024214943363
2883 -9.649892239229517
2884 -9.646955283880839
2885 -9.649991816607379
2886 -9.646807271607047
2887 -9.649724635432682
2888 -9.646648202819396
2889 -9.649369328140596
2890 -9.646337697569569
2891 -9.649400608088397
2892 -9.646365805266667
2893 -9.649242451255983
2894 -9.646531823573975
2895 -9.649071190273515
2896 -9.646305015612475
2897 -9.649022227022749
2898 -9.645927072536276
2899 -9.648963413387138
2900 -9.646214805161939
2901 -9.649323435692304
2902 -9.64629899810795
2903 -9.649482128246877
2904 -9.646424170610777
2905 -9.649554167301444
2906 -9.64662737383658
2907 -9.649822010274104
2908 -9.646338763882508
2909 -9.649238040522091
2910 -9.646133521122703
2911 -9.649305676643264
2912 -9.646313785454591
2913 -9.649347435290244
2914 -9.646653640996815
2915 -9.649407224495961
2916 -9.645984159137763
2917 -9.648936247893932
2918 -9.645648280549054
2919 -9.648452546496834
2920 -9.645459256276837
2921 -9.648471558724793
2922 -9.645339103487292
2923 -9.648164504359359
2924 -9.645085006013357
2925 -9.648038959578049
2926 -9.64484174378949
2927 -9.647780343418722
2928 -9.644639276170443
2929 -9.647828277838936
2930 -9.644919524820164
2931 -9.648200504722029
2932 -9.645388377737813
2933 -9.648454050829601
2934 -9.645861805098997
2935 -9.648797508892761
2936 -9.645916894750021
2937 -9.648628762203652
2938 -9.64582958162422
2939 -9.648832135380179
2940 -9.645482478348436
2941 -9.648386379396204
2942 -9.64543744416706
2943 -9.648400968416201
2944 -9.645572443084756
2945 -9.648613019654755
2946 -9.645766258719625
2947 -9.648866619829302
2948 -9.645697244003797
2949 -9.648266157331959
2950 -9.645433285717234
2951 -9.648625992467101
2952 -9.64574387263889
2953 -9.648683437585097
2954 -9.646047416602453
2955 -9.648832924790144
2956 -9.645317024366951
2957 -9.648161700683428
2958 -9.64503026407659
2959 -9.648541714604582
2960 -9.645537361495414
2961 -9.648687972910865
2962 -9.64579405272875
2963 -9.648774462283553
2964 -9.645164940969869
2965 -9.648025349702275
2966 -9.645150545084046
2967 -9.648530967667043
2968 -9.645416129774357
2969 -9.648489434712605
2970 -9.645186363126648
2971 -9.648254623116141
2972 -9.645042093556686
2973 -9.648323522755948
2974 -9.645439169009634
2975 -9.648604890262867
2976 -9.645242492619467
2977 -9.648253267357948
2978 -9.645222771484429
2979 -9.648551880905167
2980 -9.645306850612041
2981 -9.648552976504936
2982 -9.645274974366219
2983 -9.648294685671141
2984 -9.645272745603423
2985 -9.648287834964533
2986 -9.645182183837298
2987 -9.648391312284087
2988 -9.645315498759111
2989 -9.648520825138073
2990 -9.645773490667521
2991 -9.648728857615179
2992 -9.645884279194295
2993 -9.64881438954118
2994 -9.645878855963723
2995 -9.648674953217363
2996 -9.645544730932937
2997 -9.648762694438458
2998 -9.645890370649015
2999 -9.64928078880677
3000 -9.64616262962989
3001 -9.649087151858589
3002 -9.64609712536509
3003 -9.648830461281531
3004 -9.64557034232446
3005 -9.648530280027874
3006 -9.645651311608926
3007 -9.6486649247292
3008 -9.645636390703416
3009 -9.648581458616141
3010 -9.64540818592457
3011 -9.648264591049719
3012 -9.645061029720408
3013 -9.648156489857813
3014 -9.645257492831009
3015 -9.648466749423916
3016 -9.645372518987891
3017 -9.648467074081282
3018 -9.645371242699968
3019 -9.648459328456607
3020 -9.645567718081764
3021 -9.648863842678653
3022 -9.646078921923424
3023 -9.649218237323552
3024 -9.646193114998045
3025 -9.649135657952051
3026 -9.64605108315971
3027 -9.648762940397061
3028 -9.645862570464883
3029 -9.649366785766661
3030 -9.646728166427415
3031 -9.649946622488752
3032 -9.647137794781591
3033 -9.65002119472843
3034 -9.646903796258504
3035 -9.649638879588354
3036 -9.646284426113391
3037 -9.649241356122197
3038 -9.64602806224322
3039 -9.648595114180797
3040 -9.645435341063088
3041 -9.648261661722596
3042 -9.645179015634364
3043 -9.648381886283032
3044 -9.645659453148491
3045 -9.648448589254368
3046 -9.64565378117903
3047 -9.648533006219301
3048 -9.645657767662598
3049 -9.648587295112719
3050 -9.645935134331255
3051 -9.648708165116101
3052 -9.645631454670411
3053 -9.64858149546537
3054 -9.645728741863602
3055 -9.649105810846777
3056 -9.646757186441757
3057 -9.650103476222313
3058 -9.647531026000713
3059 -9.650636724928013
3060 -9.647591014772271
3061 -9.650410315765377
3062 -9.64756721916595
3063 -9.650329120664981
3064 -9.647708839354227
3065 -9.650665647172332
3066 -9.647709169686731
3067 -9.650434716467863
3068 -9.647297629927381
3069 -9.650247507825622
3070 -9.647045555343571
3071 -9.650178059646894
3072 -9.646991391124411
3073 -9.650089875945595
3074 -9.647265550240791
3075 -9.650131715552483
3076 -9.646696368054924
3077 -9.649567961034871
3078 -9.646548666317218
3079 -9.649783983947925
3080 -9.647009147674268
3081 -9.650014391771331
3082 -9.647174089545224
3083 -9.650180459164725
3084 -9.647249305561552
3085 -9.650520584028335
3086 -9.64773129257958
3087 -9.650793523044463
3088 -9.647782986211135
3089 -9.650683386272187
3090 -9.64746198923643
3091 -9.650526264689111
3092 -9.647689903449523
3093 -9.650753521201326
3094 -9.647973289779422
3095 -9.650714738196513
3096 -9.647496242840802
3097 -9.650169446457674
3098 -9.647122389457843
3099 -9.649928802769535
3100 -9.647033147106796
3101 -9.649901068967395
3102 -9.646999107638907
3103 -9.649679390487034
3104 -9.646737887421619
3105 -9.649131278221276
3106 -9.646396303470137
3107 -9.649347137324405
3108 -9.646525250887796
3109 -9.650040947451947
3110 -9.647484071523632
3111 -9.650519967325746
3112 -9.647822500806384
3113 -9.650860102185527
3114 -9.647769248718465
3115 -9.650585505635723
3116 -9.647920054003391
3117 -9.651197704071899
3118 -9.64837046914799
3119 -9.651414931746864
3120 -9.64866445247949
3121 -9.651372158915487
3122 -9.64847318839686
3123 -9.650971685701839
3124 -9.64784014612902
3125 -9.650819603529293
3126 -9.647687703461301
3127 -9.650851340548192
3128 -9.647900972369968
3129 -9.650959697075049
3130 -9.648043616394327
3131 -9.651115731837342
3132 -9.648013945955441
3133 -9.650967889664962
3134 -9.648163742229196
3135 -9.650784331404958
3136 -9.647592356662409
3137 -9.650330468961615
3138 -9.647212402087101
3139 -9.650065202365695
3140 -9.647261740540877
3141 -9.650699689264979
3142 -9.64790181808895
3143 -9.650901982523546
3144 -9.647918388476642
3145 -9.650780336333375
3146 -9.647696623110841
3147 -9.650718357338107
3148 -9.647608628704099
3149 -9.650582060458465
3150 -9.647355489468456
3151 -9.650287791627198
3152 -9.647406945536535
3153 -9.650323052794331
3154 -9.647447531721289
3155 -9.650469433172741
3156 -9.647655943945527
3157 -9.650774807856536
3158 -9.648066145643366
3159 -9.650764788047271
3160 -9.647760959501483
3161 -9.650588479991146
3162 -9.647635982914194
3163 -9.650357793327457
3164 -9.647531131208954
3165 -9.65058458487977
3166 -9.647717692497734
3167 -9.650897703153891
3168 -9.647777286316193
3169 -9.650568611794846
3170 -9.64751204351864
3171 -9.650287446767614
3172 -9.647266698338504
3173 -9.650035264412757
3174 -9.647288135358892
3175 -9.650344919966303
3176 -9.647695792273089
3177 -9.650590874935391
3178 -9.647869289830844
3179 -9.650983466594125
3180 -9.64786296004184
3181 -9.650987777816109
3182 -9.647929970188358
3183 -9.650796507319093
3184 -9.647808838445343
3185 -9.650734916210427
3186 -9.647701101846609
3187 -9.650705673362282
3188 -9.647587667080082
3189 -9.650737605446887
3190 -9.647869120678969
3191 -9.650957014363238
3192 -9.647950866410719
3193 -9.65092043539892
3194 -9.647961980674815
3195 -9.65063330945172
3196 -9.647446396778317
3197 -9.650226734681839
3198 -9.64710592017245
3199 -9.650174737812065
3200 -9.647242097334543
3201 -9.650343854496509
3202 -9.647233607334991
3203 -9.649836855037568
3204 -9.646697582099632
3205 -9.649549062858108
3206 -9.646504419461667
3207 -9.649701306396688
3208 -9.647015087038159
3209 -9.650248607424357
3210 -9.647238046603457
3211 -9.650069644565377
3212 -9.646983973461959
3213 -9.649985944187558
3214 -9.647211363865701
3215 -9.650189194524097
3216 -9.647249600756316
3217 -9.650264034092944
3218 -9.64720003161109
3219 -9.649919503635834
3220 -9.646536000060602
3221 -9.649430481387686
3222 -9.64620006327451
3223 -9.649082602685807
3224 -9.646025046240071
3225 -9.648925978877928
3226 -9.646148689945241
3227 -9.649274496821366
3228 -9.646401426843884
3229 -9.649427119618123
3230 -9.646292869677298
3231 -9.649023487229382
3232 -9.646280347434994
3233 -9.649253308506822
3234 -9.646424812957267
3235 -9.649389493563602
3236 -9.646441125342662
3237 -9.649802043597949
3238 -9.646653693727394
3239 -9.649866735853447
3240 -9.646946455417705
3241 -9.650127631817611
3242 -9.647267469252874
3243 -9.650252663623714
3244 -9.646958448178809
3245 -9.650296399052134
3246 -9.647345568995377
3247 -9.650381117039457
3248 -9.647337821593478
3249 -9.650249311240813
3250 -9.64681106895288
3251 -9.649739554459378
3252 -9.646521875134379
3253 -9.64942965635286
3254 -9.646558616075666
3255 -9.649479167636239
3256 -9.646495514360824
3257 -9.649735908276643
3258 -9.646672699958886
3259 -9.649676007711461
3260 -9.646688844930768
3261 -9.649809741577839
3262 -9.646844745907265
3263 -9.649808830020918
3264 -9.64661396150653
3265 -9.64951115601578
3266 -9.646566921574696
3267 -9.649581620234596
3268 -9.646913351162199
3269 -9.650183966380355
3270 -9.64724271850662
3271 -9.649857390023987
3272 -9.646824650270039
3273 -9.649691480145798
3274 -9.646660618596067
3275 -9.649617511540425
3276 -9.646553557195954
3277 -9.649790221429585
3278 -9.646457693979393
3279 -9.649269796437238
3280 -9.646027938356015
3281 -9.649013335516541
3282 -9.646051835895408
3283 -9.649171914173255
3284 -9.646232501057147
3285 -9.649150682400728
3286 -9.645904805395242
3287 -9.648696655339593
3288 -9.645360385136291
3289 -9.648281888657763
3290 -9.645567632262107
3291 -9.64907345448756
3292 -9.646184797742983
3293 -9.649740926700192
3294 -9.646939874246872
3295 -9.65017572961346
3296 -9.646910913142959
3297 -9.649905922349458
3298 -9.646757906779825
3299 -9.649864083683035
3300 -9.646746848624822
3301 -9.649952287655607
3302 -9.647270083278908
3303 -9.65027378558807
3304 -9.647175307497012
3305 -9.649618164440325
3306 -9.646377067400731
3307 -9.649158895881239
3308 -9.646124279884624
3309 -9.64910945142389
3310 -9.646253385090386
3311 -9.649432287279302
3312 -9.646484327860454
3313 -9.648928094839061
3314 -9.645558239921524
3315 -9.648203808159243
3316 -9.64526950552489
3317 -9.648661361777441
3318 -9.645922105642754
3319 -9.649202734538955
3320 -9.646072007037205
3321 -9.64868072353317
3322 -9.645614853929553
3323 -9.648603433652005
3324 -9.645861867386843
3325 -9.649079319391667
3326 -9.646593755636335
3327 -9.649588174597266
3328 -9.646523536454954
3329 -9.649573064252934
3330 -9.646703174555503
3331 -9.649495384001623
3332 -9.646508202496445
3333 -9.649428124843089
3334 -9.646257711109895
3335 -9.649357640158282
3336 -9.646259379242462
3337 -9.649286107171648
3338 -9.646371663583764
3339 -9.64920132066851
3340 -9.646084236915788
3341 -9.649127177879532
3342 -9.645901473582832
3343 -9.648625397577785
3344 -9.645993704043644
3345 -9.649016967876873
3346 -9.64599971330734
3347 -9.649043620764171
3348 -9.645719951379329
3349 -9.648779174718147
3350 -9.645517271669945
3351 -9.648572299423666
3352 -9.645650740621784
3353 -9.648876654227045
3354 -9.646025713802088
3355 -9.649233703955817
3356 -9.646299505271154
3357 -9.649432279457795
3358 -9.646584347191006
3359 -9.649748139776818
3360 -9.646912266722396
3361 -9.64958772809622
3362 -9.646524777628313
3363 -9.649229357479021
3364 -9.646250173249314
3365 -9.649596100759204
3366 -9.646872452285999
3367 -9.650149391329865
3368 -9.647222857684589
3369 -9.650153002124343
3370 -9.646630114363838
3371 -9.649353708179675
3372 -9.646304686728383
3373 -9.649439176693047
3374 -9.6466235445527
3375 -9.649529657072103
3376 -9.646334388077086
3377 -9.649322879778575
3378 -9.646215944578049
3379 -9.649120860821951
3380 -9.646157205043204
3381 -9.649280303124829
3382 -9.646665615277378
3383 -9.649714204892314
3384 -9.646628375403528
3385 -9.649321545312416
3386 -9.646188416042882
3387 -9.648879917440475
3388 -9.645771319006251
3389 -9.649044513834507
3390 -9.64615512910839
3391 -9.649656055023765
3392 -9.646937772729906
3393 -9.650080157159705
3394 -9.647319370934422
3395 -9.650296802811738
3396 -9.646876147614265
3397 -9.649631129071429
3398 -9.646477442159254
3399 -9.649286303666164
3400 -9.646483222117244
3401 -9.649347043773854
3402 -9.646401618285205
3403 -9.64933495996986
3404 -9.646118123509332
3405 -9.649045748430137
3406 -9.645870041005807
3407 -9.649183555122081
3408 -9.646034176613393
3409 -9.649075904558657
3410 -9.645942637809048
3411 -9.648918771314298
3412 -9.645782612886245
3413 -9.648674716594607
3414 -9.645938649256962
3415 -9.64902326152005
3416 -9.646271108916704
3417 -9.649366865217852
3418 -9.64642668520546
3419 -9.64956747589507
3420 -9.646260086758453
3421 -9.649200372217459
3422 -9.646281735139109
3423 -9.649470284831137
3424 -9.646461400187556
3425 -9.64939148804409
3426 -9.64649697081949
3427 -9.649707856452869
3428 -9.646829799361651
3429 -9.649843368791826
3430 -9.64668393843721
3431 -9.649505450960266
3432 -9.646181083885246
3433 -9.648711505351516
3434 -9.645862005235907
3435 -9.648747280203903
3436 -9.646148414851906
3437 -9.649194826410545
3438 -9.646279724040085
3439 -9.649311020596816
3440 -9.646398319851277
3441 -9.649144441271092
3442 -9.646327955102604
3443 -9.649486005845461
3444 -9.646498712018706
3445 -9.649389119799222
3446 -9.646295085935389
3447 -9.649537899364125
3448 -9.64655028371217
3449 -9.649594344530502
3450 -9.646657184236998
3451 -9.649911826635936
3452 -9.646957297966837
3453 -9.64988140715375
3454 -9.647141611234723
3455 -9.650172807541777
3456 -9.647435817852259
3457 -9.650053228876967
3458 -9.646707970087972
3459 -9.649520608314068
3460 -9.64598985459198
3461 -9.649086316610017
3462 -9.645934705561128
3463 -9.648960517082491
3464 -9.645983484452806
3465 -9.648840948006223
3466 -9.645696329649342
3467 -9.648743417286605
3468 -9.645489037535798
3469 -9.648411422973426
3470 -9.645788400522347
3471 -9.648821868302383
3472 -9.646071637102086
3473 -9.6491302633427
3474 -9.646029248064231
3475 -9.648689754353908
3476 -9.645811944248184
3477 -9.648974696395404
3478 -9.646332746080539
3479 -9.649769385615896
3480 -9.646856316633711
3481 -9.649667341547731
3482 -9.646561676026309
3483 -9.64904989486506
3484 -9.645899068151072
3485 -9.648707813048507
3486 -9.64563784985428
3487 -9.648667571902475
3488 -9.645784945173995
3489 -9.648832309401818
3490 -9.646247999496861
3491 -9.649178875712586
3492 -9.646067825778353
3493 -9.648736014721493
3494 -9.645751223435207
3495 -9.648289937035225
3496 -9.645304073973827
3497 -9.648378207825976
3498 -9.645514607444056
3499 -9.648627010261004
3500 -9.645671951616642
3501 -9.648785423226835
3502 -9.64571104917245
3503 -9.648887818510106
3504 -9.645963857157486
3505 -9.648814738441091
3506 -9.646024379070123
3507 -9.649224065543587
3508 -9.646433133675176
3509 -9.649361201369963
3510 -9.646119869937552
3511 -9.648910554720437
3512 -9.646024768193504
3513 -9.648510376108057
3514 -9.645763099646151
3515 -9.648737666051229
3516 -9.645536895078086
3517 -9.648655204136251
3518 -9.645514474732256
3519 -9.648479351008636
3520 -9.645528480753331
3521 -9.648554302169773
3522 -9.645493191247937
3523 -9.648451419130041
3524 -9.64539819337843
3525 -9.648181825685958
3526 -9.645382818482629
3527 -9.648355343211897
3528 -9.645734186124278
3529 -9.648951424293262
3530 -9.646118586797728
3531 -9.648783272096116
3532 -9.645796805755925
3533 -9.64883880279516
3534 -9.646046393701598
3535 -9.6490784014707
3536 -9.64620529677865
3537 -9.649334804861496
3538 -9.646725863431429
3539 -9.650017561003924
3540 -9.647069687493701
3541 -9.649833811634336
3542 -9.646646016920513
3543 -9.649238095518967
3544 -9.646190883799484
3545 -9.649323331958204
3546 -9.646465428060575
3547 -9.649435910459591
3548 -9.646671761647841
3549 -9.649708522328616
3550 -9.646451384599194
3551 -9.649379533314626
3552 -9.646506713650828
3553 -9.649594116383181
3554 -9.64694061739554
3555 -9.649968216838962
3556 -9.646707603208053
3557 -9.649819792442509
3558 -9.646597890645387
3559 -9.649566044856975
3560 -9.646656654670808
3561 -9.649682925741075
3562 -9.64690800359228
3563 -9.649895047674683
3564 -9.646922444159362
3565 -9.649769241169327
3566 -9.646952342202779
3567 -9.649881561668858
3568 -9.647432726586578
3569 -9.650485821931161
3570 -9.647157568024515
3571 -9.64984275366691
3572 -9.646925130116649
3573 -9.650114119268251
3574 -9.647473642180229
3575 -9.650741211240204
3576 -9.647703540561386
3577 -9.650494323995757
3578 -9.647188547690517
3579 -9.649813544518665
3580 -9.646766039829023
3581 -9.649860904762019
3582 -9.646999886828025
3583 -9.649635027132678
3584 -9.64683765356544
3585 -9.649296378682859
3586 -9.646186854251665
3587 -9.648946965497975
3588 -9.645938264087162
3589 -9.649240764649125
3590 -9.646642189886293
3591 -9.649733400995784
3592 -9.646940523637488
3593 -9.649621580311777
3594 -9.646401444717748
3595 -9.648947738211517
3596 -9.645991115962453
3597 -9.649170000911855
3598 -9.646503432860616
3599 -9.649825900462016
3600 -9.647085547398756
3601 -9.64989210921266
3602 -9.646959082168561
3603 -9.649647452010139
3604 -9.64689521012218
3605 -9.650030251967626
3606 -9.647361219487486
3607 -9.650473146634141
3608 -9.64747198646274
3609 -9.650152094140726
3610 -9.646806151224938
3611 -9.64942599618659
3612 -9.646090897943303
3613 -9.649033944899413
3614 -9.646336635415315
3615 -9.6494993896608
3616 -9.646366414116461
3617 -9.649078180602205
3618 -9.645840207785144
3619 -9.648605474358325
3620 -9.645407523422733
3621 -9.648453018412983
3622 -9.645597750175776
3623 -9.648858102355328
3624 -9.646397761109402
3625 -9.64932781609409
3626 -9.646095247264649
3627 -9.649169974722431
3628 -9.645906489196063
3629 -9.649328230014191
3630 -9.646388370399954
3631 -9.649767898525521
3632 -9.647037383149756
3633 -9.650072175166036
3634 -9.647067146947913
3635 -9.650041684457779
3636 -9.646673345802503
3637 -9.649641540117196
3638 -9.646928678040783
3639 -9.650014658930687
3640 -9.646967797502125
3641 -9.649795859424417
3642 -9.646543795933802
3643 -9.649251970494831
3644 -9.645993516318834
3645 -9.648966461748902
3646 -9.645943840129169
3647 -9.649223005629654
3648 -9.646029588522522
3649 -9.648800760926175
3650 -9.645585972250949
3651 -9.64865587539046
3652 -9.645924773809863
3653 -9.649172092563877
3654 -9.646368128956551
3655 -9.649398808550691
3656 -9.646474418134437
3657 -9.649638184560807
3658 -9.646472651719698
3659 -9.649440245718305
3660 -9.646281836748672
3661 -9.649262158315128
3662 -9.646387039047726
3663 -9.649417413773916
3664 -9.646598764883924
3665 -9.649610229194517
3666 -9.646600589531527
3667 -9.649817042037604
3668 -9.646483164232693
3669 -9.649224911155446
3670 -9.646129399777065
3671 -9.64934475817622
3672 -9.646350668201391
3673 -9.649365957406763
3674 -9.646386042287851
3675 -9.649236786057637
3676 -9.646152462278708
3677 -9.648944637448826
3678 -9.646113488648764
3679 -9.64920795364797
3680 -9.64628059910968
3681 -9.64914590295894
3682 -9.645806133321416
3683 -9.648677516551261
3684 -9.645341740310457
3685 -9.648692289770022
3686 -9.64587860000084
3687 -9.649320501657206
3688 -9.646245210603187
3689 -9.649360100372059
3690 -9.646131501516269
3691 -9.648972837613263
3692 -9.645992554295292
3693 -9.649035057134546
3694 -9.646337748425445
3695 -9.649244273132219
3696 -9.646141006130827
3697 -9.648762778545493
3698 -9.645510828436905
3699 -9.648243089846975
3700 -9.645342997315268
3701 -9.648682531328726
3702 -9.645801735388714
3703 -9.648840073423433
3704 -9.645792698649117
3705 -9.648253160729269
3706 -9.645211681302047
3707 -9.648025350665907
3708 -9.645054837318206
3709 -9.648233094011442
3710 -9.64536739366239
3711 -9.648240233531943
3712 -9.645102016702959
3713 -9.647911205210983
3714 -9.645087095030281
3715 -9.648128470476513
3716 -9.645336276563601
3717 -9.648532755915141
3718 -9.645521463547187
3719 -9.648562731815016
3720 -9.645468046919012
3721 -9.648525026378685
3722 -9.645929191632348
3723 -9.649061793258054
3724 -9.645824026564336
3725 -9.648933834624248
3726 -9.645375531749359
3727 -9.648120533261277
3728 -9.645002611218084
3729 -9.648157844227317
3730 -9.645300365417448
3731 -9.64856687323711
3732 -9.645575191569549
3733 -9.648586274089169
3734 -9.645507391447985
3735 -9.648169415214358
3736 -9.645431857214868
3737 -9.648867865362766
3738 -9.645793942147989
3739 -9.648894485772116
3740 -9.645874340486289
3741 -9.649105354689029
3742 -9.646023648533465
3743 -9.648970237211227
3744 -9.645965012763224
3745 -9.649029230550905
3746 -9.646072155021143
3747 -9.648953265746769
3748 -9.646073240609301
3749 -9.649431662519914
3750 -9.646897443654861
3751 -9.64992442153876
3752 -9.647000148219561
3753 -9.649845768892302
3754 -9.646817871710102
3755 -9.649532866626567
3756 -9.646800496652085
3757 -9.650158172450469
3758 -9.647084771556909
3759 -9.650029076233249
3760 -9.646821165278714
3761 -9.649519865391428
3762 -9.646366967278892
3763 -9.649260284668676
3764 -9.646496496814812
3765 -9.649536454669155
3766 -9.646244198572427
3767 -9.649156718938663
3768 -9.64596499683574
3769 -9.648663893381116
3770 -9.645884467167186
3771 -9.648837828591869
3772 -9.645751930188801
3773 -9.648767752698433
3774 -9.646000305033056
3775 -9.648602990115114
3776 -9.645574149737287
3777 -9.648747019350226
3778 -9.645671883758254
3779 -9.648855701552094
3780 -9.645582897041802
3781 -9.648517419697617
3782 -9.645541629733072
3783 -9.648423823893093
3784 -9.645322921388349
3785 -9.648517621896936
3786 -9.64548884657022
3787 -9.648640438759671
3788 -9.645788722655197
3789 -9.648911068162624
3790 -9.645919486502914
3791 -9.648964251585477
3792 -9.646144499011164
3793 -9.649212641400807
3794 -9.646086353096964
3795 -9.648923540200753
3796 -9.645625665495002
3797 -9.648776166993368
3798 -9.64548639238042
3799 -9.648783403581543
3800 -9.646149641453512
3801 -9.649451893331106
3802 -9.647038119068821
3803 -9.649891943620208
3804 -9.646978669613384
3805 -9.649986132458997
3806 -9.647324474088032
3807 -9.650109115904975
3808 -9.647509876656905
3809 -9.650589396350837
3810 -9.647834492587409
3811 -9.650741876766048
3812 -9.647770556267233
3813 -9.650632357082785
3814 -9.647816052378742
3815 -9.650936772819943
3816 -9.648112006887299
3817 -9.651080985329777
3818 -9.648253216090222
3819 -9.650694236802542
3820 -9.647217488630437
3821 -9.64959501445658
3822 -9.646277020952585
3823 -9.649240158446865
3824 -9.646664310628069
3825 -9.649238033642959
3826 -9.646425276002631
3827 -9.649331651401116
3828 -9.646134642471811
3829 -9.648876882144227
3830 -9.646221970093436
3831 -9.649029411636349
3832 -9.646346779050031
3833 -9.649229527158731
3834 -9.646448714862638
3835 -9.649674844881611
3836 -9.64678751041377
3837 -9.649953407577101
3838 -9.647279282320879
3839 -9.650674027083674
3840 -9.647739234027922
3841 -9.650837129047945
3842 -9.647922454874349
3843 -9.650634124812395
3844 -9.647412505771035
3845 -9.650072141425662
3846 -9.647220907913365
3847 -9.650219466012921
3848 -9.647530663639786
3849 -9.6506615855874
3850 -9.647623365867588
3851 -9.650491529307279
3852 -9.647046961370837
3853 -9.649682432222617
3854 -9.64655209089117
3855 -9.649610673883233
3856 -9.646500962337383
3857 -9.649238383224708
3858 -9.646391598200392
3859 -9.649478617601437
3860 -9.646593266618128
3861 -9.649609729074545
3862 -9.646726236559479
3863 -9.649541058678386
3864 -9.646741686841134
3865 -9.64951051166025
3866 -9.646699307501299
3867 -9.649781123125864
3868 -9.646895176225817
3869 -9.65039035660333
3870 -9.647564578356327
3871 -9.650629961077762
3872 -9.647984079454153
3873 -9.650853798309976
3874 -9.647657762087038
3875 -9.650214189618424
3876 -9.647070174824997
3877 -9.650084804611645
3878 -9.647096183736901
3879 -9.650024557521713
3880 -9.64710376271564
3881 -9.649932338071666
3882 -9.646723749094372
3883 -9.649688861644821
3884 -9.646641377485082
3885 -9.649421708915829
3886 -9.646380108804085
3887 -9.649726204140357
3888 -9.64663278786594
3889 -9.649761484348568
3890 -9.6468378196428
3891 -9.649670999826558
3892 -9.646217971887845
3893 -9.649313803848994
3894 -9.646309798420008
3895 -9.649638491716331
3896 -9.646673599685615
3897 -9.649708092658004
3898 -9.646717120805869
3899 -9.64982040406038
3900 -9.646971942404072
3901 -9.650143580749196
3902 -9.64749892968806
3903 -9.650369178047841
3904 -9.647535949487917
3905 -9.650390587124837
3906 -9.647269157201102
3907 -9.650383819389218
3908 -9.64731905318715
3909 -9.650631026571688
3910 -9.647565631292196
3911 -9.650385887227966
3912 -9.647555454595066
3913 -9.6507192636175
3914 -9.648078208103442
3915 -9.650841473028569
3916 -9.647833068338009
3917 -9.650595711353802
3918 -9.64744799477263
3919 -9.650234660040779
3920 -9.647274284830564
3921 -9.650221516330795
3922 -9.647410198008739
3923 -9.650235480589071
3924 -9.647124386213362
3925 -9.6500776434644
3926 -9.647046428973434
3927 -9.650187538884076
3928 -9.64725409804711
3929 -9.650242164431408
3930 -9.647275839237315
3931 -9.650206123014533
3932 -9.647116497752846
3933 -9.650192154135782
3934 -9.647317853053103
3935 -9.650266028471123
3936 -9.647732289962114
3937 -9.651013879426429
3938 -9.648155405005607
3939 -9.651147953323168
3940 -9.64799160557769
3941 -9.650710125384061
3942 -9.647390939918948
3943 -9.650222798447741
3944 -9.647263138256388
3945 -9.650245555155035
3946 -9.647203000923767
3947 -9.650224706283954
3948 -9.646898153154126
3949 -9.650055670902429
3950 -9.646970366220499
3951 -9.650103415007843
3952 -9.647221252604623
3953 -9.650134560482753
3954 -9.646981627612634
3955 -9.649441753152615
3956 -9.646348305234463
3957 -9.649488628563748
3958 -9.64653930921296
3959 -9.649816233357299
3960 -9.647296355373602
3961 -9.650349001746918
3962 -9.647170635819016
3963 -9.649838333208036
3964 -9.646438605243651
3965 -9.649582636532649
3966 -9.646790314544983
3967 -9.649957815383637
3968 -9.647150741822077
3969 -9.650141353950252
3970 -9.647265338737913
3971 -9.650118730563566
3972 -9.647008742465863
3973 -9.649678239952937
3974 -9.64714553985087
3975 -9.649814394581291
3976 -9.647018421199931
3977 -9.649735127725769
3978 -9.646812796933178
3979 -9.649853140587378
3980 -9.647011501952036
3981 -9.649905068179788
3982 -9.647194278204637
3983 -9.650138747101396
3984 -9.647211266185701
3985 -9.649942902322602
3986 -9.646736067510469
3987 -9.649321684031811
3988 -9.646552494644615
3989 -9.649917760045904
3990 -9.647349841565363
3991 -9.650548422600577
3992 -9.647625847734155
3993 -9.650204495456585
3994 -9.647061771204694
3995 -9.649816065893864
3996 -9.64702496837168
3997 -9.650530368343468
3998 -9.647909460712684
3999 -9.650968984715771
4000 -9.647587113505313
4001 -9.650308368626424
4002 -9.647055005639496
4003 -9.649893678070367
4004 -9.647017242699814
4005 -9.650152676775177
4006 -9.647057171054568
4007 -9.65002149472738
4008 -9.646843137044003
4009 -9.649553613225983
4010 -9.646747903044313
4011 -9.649658511928719
4012 -9.64681688969088
4013 -9.649709595211968
4014 -9.64660232530837
4015 -9.649456250423528
4016 -9.646809344690576
4017 -9.649864362200596
4018 -9.64707273167036
4019 -9.650379800798925
4020 -9.647107173231442
4021 -9.650147372739823
4022 -9.647027892346486
4023 -9.649692604582352
4024 -9.646874690069735
4025 -9.649937725130414
4026 -9.647172345824709
4027 -9.650148948706521
4028 -9.646967645883951
4029 -9.649756100581286
4030 -9.646933887468009
4031 -9.649777204111112
4032 -9.647034320082364
4033 -9.649855457511471
4034 -9.647004064898226
4035 -9.649605283437687
4036 -9.64635793831358
4037 -9.649446068488956
4038 -9.646328653321877
4039 -9.649464042338959
4040 -9.646637837654753
4041 -9.6496509046443
4042 -9.646570745960178
4043 -9.649441501948846
4044 -9.646460708376896
4045 -9.649441843674033
4046 -9.646552697645451
4047 -9.649614810412142
4048 -9.64664307909219
4049 -9.649867359858742
4050 -9.646900988341649
4051 -9.650142298170246
4052 -9.647295342090324
4053 -9.650517117639138
4054 -9.647417511352145
4055 -9.650179387078104
4056 -9.646789627758544
4057 -9.649559053519406
4058 -9.64636667436573
4059 -9.649357397994752
4060 -9.646451845067087
4061 -9.649635476758025
4062 -9.646738388719417
4063 -9.649703803036882
4064 -9.646495682961584
4065 -9.649117934431166
4066 -9.646181641548456
4067 -9.649194900324034
4068 -9.646546974069762
4069 -9.649651510291642
4070 -9.646798659370237
4071 -9.649636503293646
4072 -9.646601087499631
4073 -9.649349743401677
4074 -9.646634265079589
4075 -9.649772852175563
4076 -9.646809708123859
4077 -9.649802119889026
4078 -9.64688358317005
4079 -9.649908256631612
4080 -9.646857433116502
4081 -9.649406042443522
4082 -9.646540975522042
4083 -9.649129723386359
4084 -9.646308347967324
4085 -9.649223909043263
4086 -9.646537074202969
4087 -9.64931367418834
4088 -9.646276040188953
4089 -9.64874797299519
4090 -9.645672152738873
4091 -9.648624352716725
4092 -9.645693878542573
4093 -9.648656879939852
4094 -9.645843981044127
4095 -9.64889185888766
4096 -9.645854577963396
4097 -9.648686368695572
4098 -9.645461570021537
4099 -9.648392274085973
4100 -9.645470921167131
4101 -9.648729538153573
4102 -9.646142602860873
4103 -9.649265240855849
4104 -9.646212705590051
4105 -9.648850753034361
4106 -9.645875511339188
4107 -9.648676661008015
4108 -9.645613940847168
4109 -9.649023311746248
4110 -9.646270749709362
4111 -9.649522779913584
4112 -9.646741808293937
4113 -9.649879650582772
4114 -9.647108265442073
4115 -9.649889722672265
4116 -9.646616892989627
4117 -9.649359124871156
4118 -9.646219463122264
4119 -9.649203176373176
4120 -9.646317795491049
4121 -9.649334721015004
4122 -9.646420379649426
4123 -9.649068869474185
4124 -9.645846917730164
4125 -9.648172786824016
4126 -9.64480097610109
4127 -9.647850001810824
4128 -9.645271699726429
4129 -9.648486970844825
4130 -9.645723601426983
4131 -9.648449057204731
4132 -9.644795474290815
4133 -9.64731493336512
4134 -9.644200975201857
4135 -9.647246327921323
4136 -9.64456981298007
4137 -9.647536076307739
4138 -9.644790664544306
4139 -9.647998513319749
4140 -9.645072337250438
4141 -9.648074809940496
4142 -9.645503186277091
4143 -9.648404055418323
4144 -9.645557401284734
4145 -9.648435273689749
4146 -9.64571075155931
4147 -9.648985119416617
4148 -9.646194066726839
4149 -9.649597502806781
4150 -9.646706353034606
4151 -9.649817720887086
4152 -9.64661352604011
4153 -9.649199056113067
4154 -9.645944540432595
4155 -9.648196727978092
4156 -9.644930681291727
4157 -9.647933549170777
4158 -9.644726844996395
4159 -9.647538852117426
4160 -9.644485099784045
4161 -9.647310619417455
4162 -9.644503968254979
4163 -9.647588291303368
4164 -9.644844538273697
4165 -9.647952674475782
4166 -9.644899203303984
4167 -9.647846929812701
4168 -9.644751909114508
4169 -9.647928371312469
4170 -9.645044686834767
4171 -9.648155194046522
4172 -9.645073462544406
4173 -9.648348964191808
4174 -9.64580518284081
4175 -9.649154607706411
4176 -9.646435408797693
4177 -9.649416075461525
4178 -9.646729448688655
4179 -9.649351334004088
4180 -9.646091579251109
4181 -9.648806412577786
4182 -9.645937699011663
4183 -9.648802338461016
4184 -9.646331493496
4185 -9.649432152535296
4186 -9.646568734692719
4187 -9.649427636355391
4188 -9.646023611833723
4189 -9.648422999324328
4190 -9.645416767263312
4191 -9.648157360160674
4192 -9.645579667613788
4193 -9.648720551991286
4194 -9.646194157414149
4195 -9.64888747450123
4196 -9.64601895633915
4197 -9.648711497091387
4198 -9.646008960364915
4199 -9.649038923939163
4200 -9.646263967351944
4201 -9.649274553944892
4202 -9.646502282570594
4203 -9.649302706653145
4204 -9.646279269468671
4205 -9.649446053885221
4206 -9.646499590599692
4207 -9.649429625077202
4208 -9.646469404196582
4209 -9.649227685729374
4210 -9.646173434640197
4211 -9.648989629648703
4212 -9.646068849420164
4213 -9.649038362261336
4214 -9.646013613888542
4215 -9.648757113912175
4216 -9.645656056332502
4217 -9.648401460396329
4218 -9.64539711745376
4219 -9.648237250229318
4220 -9.64552068929887
4221 -9.648929998054218
4222 -9.645956811304334
4223 -9.648742053814829
4224 -9.645741245649797
4225 -9.64850261764551
4226 -9.64561567234597
4227 -9.648632038292538
4228 -9.645873047493911
4229 -9.649486312371309
4230 -9.646705141819705
4231 -9.649623162358623
4232 -9.646953515524427
4233 -9.649772180292549
4234 -9.647024738058438
4235 -9.64988911489627
4236 -9.647069339742533
4237 -9.649754086650111
4238 -9.646878464427814
4239 -9.649574182494137
4240 -9.646709571440233
4241 -9.649488610309154
4242 -9.646526943409537
4243 -9.649219307050387
4244 -9.646305031042901
4245 -9.649244211072833
4246 -9.646499583540567
4247 -9.649268175713978
4248 -9.646395689365061
4249 -9.649120209166336
4250 -9.646289513975757
4251 -9.648866224959178
4252 -9.646101303764885
4253 -9.649090508888882
4254 -9.646628087250972
4255 -9.649409672108366
4256 -9.646595654695298
4257 -9.64938480513837
4258 -9.646402418841536
4259 -9.6495728205901
4260 -9.646550835130428
4261 -9.64969660418042
4262 -9.646878782695573
4263 -9.650020863335479
4264 -9.647224443730794
4265 -9.65024316884546
4266 -9.646895768594106
4267 -9.64950364921577
4268 -9.646496329382952
4269 -9.649648780752038
4270 -9.64654272084268
4271 -9.649440769396138
4272 -9.646477788409991
4273 -9.649352084497599
4274 -9.646554440192492
4275 -9.649405256489956
4276 -9.646301309654941
4277 -9.649458192575011
4278 -9.646617466423386
4279 -9.649901916473327
4280 -9.646915476517124
4281 -9.649780235569787
4282 -9.647051012070927
4283 -9.649770805025515
4284 -9.64658713879375
4285 -9.649583635329336
4286 -9.646977583931049
4287 -9.650001094792524
4288 -9.647312420609127
4289 -9.65013037755949
4290 -9.647107776325671
4291 -9.649722942228696
4292 -9.646968721839709
4293 -9.64979800290946
4294 -9.647035084373698
4295 -9.64990216902005
4296 -9.647027926443139
4297 -9.649801911456255
4298 -9.646925508914578
4299 -9.649783008641732
4300 -9.646798743277094
4301 -9.650075328863437
4302 -9.647081366520188
4303 -9.649927271345915
4304 -9.646805210017561
4305 -9.649751837200656
4306 -9.646789759159217
4307 -9.649557230451286
4308 -9.646662327185883
4309 -9.649702419292746
4310 -9.647030758060749
4311 -9.650167579381646
4312 -9.64733662332117
4313 -9.650408347508497
4314 -9.64732064430626
4315 -9.650278156638661
4316 -9.646940788011076
4317 -9.65019035572405
4318 -9.647234684337619
4319 -9.650652233718336
4320 -9.647606491788491
4321 -9.650623915395981
4322 -9.647374099087092
4323 -9.650018109884758
4324 -9.646994256890268
4325 -9.650215142811705
4326 -9.647121567957045
4327 -9.650321329542928
4328 -9.647589934007771
4329 -9.650759436637259
4330 -9.647617242829636
4331 -9.650427235984049
4332 -9.647085246079122
4333 -9.650228634306883
4334 -9.647182330113441
4335 -9.650244260000136
4336 -9.647254371340161
4337 -9.650242279487928
4338 -9.647154358523599
4339 -9.649945569071107
4340 -9.646646429303894
4341 -9.649441914180194
4342 -9.646559462436977
4343 -9.649690179369783
4344 -9.646940094199111
4345 -9.649739239957295
4346 -9.646970326509642
4347 -9.649814700748216
4348 -9.64685860887926
4349 -9.649940643749824
4350 -9.647210517676097
4351 -9.650307843572691
4352 -9.647818563820266
4353 -9.650502170832594
4354 -9.647515516586745
4355 -9.650348994817097
4356 -9.647005266536823
4357 -9.650005258630571
4358 -9.647007530614692
4359 -9.649968419149557
4360 -9.646982918846978
4361 -9.650002643405436
4362 -9.646933507953078
4363 -9.649785155870127
4364 -9.646959470404164
4365 -9.649957617764047
4366 -9.646765328631533
4367 -9.649440875783862
4368 -9.645969421297531
4369 -9.648695189665476
4370 -9.645749409062207
4371 -9.649317194605663
4372 -9.6465624984153
4373 -9.650007173760235
4374 -9.646925577590642
4375 -9.649964172155931
4376 -9.646501811505876
4377 -9.649328432549821
4378 -9.646446251466594
4379 -9.649741646001448
4380 -9.646811726386986
4381 -9.650021940169676
4382 -9.647137109294315
4383 -9.65020210741193
4384 -9.647155805057377
4385 -9.650150373377249
4386 -9.646950313816015
4387 -9.650027911538697
4388 -9.646848285684804
4389 -9.650160672310944
4390 -9.646979692525166
4391 -9.649713421133068
4392 -9.646523066303317
4393 -9.649335031636705
4394 -9.646370917173934
4395 -9.649226327329302
4396 -9.646048642528262
4397 -9.648668415752807
4398 -9.645400947966463
4399 -9.648317900360359
4400 -9.645280930935183
4401 -9.648159947042258
4402 -9.64567545669086
4403 -9.648461847923281
4404 -9.645442916950431
4405 -9.64808708387705
4406 -9.645136829595925
4407 -9.648149961062229
4408 -9.645485064091453
4409 -9.648783616848107
4410 -9.645965921888335
4411 -9.649279586985246
4412 -9.646295320889143
4413 -9.649535394131552
4414 -9.64674773948671
4415 -9.649816219245482
4416 -9.646898147835072
4417 -9.649915126641796
4418 -9.646753414237542
4419 -9.649442486894726
4420 -9.646199402632993
4421 -9.649117787399744
4422 -9.646152614317147
4423 -9.649371623865614
4424 -9.646749661952818
4425 -9.649910220762237
4426 -9.646565027916015
4427 -9.649533260386091
4428 -9.645977531261368
4429 -9.649117842660695
4430 -9.645847005910795
4431 -9.649066579100589
4432 -9.645997260860998
4433 -9.649244069224052
4434 -9.646256015998402
4435 -9.649491392733113
4436 -9.646242213464182
4437 -9.649467564466587
4438 -9.646234378067664
4439 -9.649318058289587
4440 -9.646252777757207
4441 -9.649372741772826
4442 -9.646778769728398
4443 -9.649880295096526
4444 -9.646850162861643
4445 -9.649952123792163
4446 -9.647081296815948
4447 -9.650059516615325
4448 -9.647017508324
4449 -9.650088540940516
4450 -9.646988488386956
4451 -9.649763522246836
4452 -9.646620488296444
4453 -9.649510100244267
4454 -9.646379895155679
4455 -9.648941509515621
4456 -9.646150117187046
4457 -9.648953164351466
4458 -9.646087338672535
4459 -9.649005018468202
4460 -9.6460301427673
4461 -9.648953299584283
4462 -9.645808205469617
4463 -9.648941380090188
4464 -9.645760456073248
4465 -9.648709955481053
4466 -9.645687204548645
4467 -9.648542110186993
4468 -9.645451659826668
4469 -9.648836661768108
4470 -9.645761790146965
4471 -9.648795735829996
4472 -9.646107160526849
4473 -9.649227814729503
4474 -9.646460472237807
4475 -9.649440064494513
4476 -9.646198421614949
4477 -9.649186419374201
4478 -9.646120506313018
4479 -9.649360255946787
4480 -9.646320965672329
4481 -9.649566188055946
4482 -9.64659030884896
4483 -9.649946882319094
4484 -9.646949393008171
4485 -9.650079718390563
4486 -9.646593886883798
4487 -9.64963621203351
4488 -9.646371289921795
4489 -9.649541593666534
4490 -9.646589261175633
4491 -9.649859673582405
4492 -9.646573134866586
4493 -9.649362701789912
4494 -9.646102914820602
4495 -9.649053635925657
4496 -9.646272133273808
4497 -9.649380542342795
4498 -9.646709008498812
4499 -9.650132063630144
4500 -9.6468049309648
4501 -9.649650711934115
4502 -9.646515067225323
4503 -9.649361486832609
4504 -9.646362889525683
4505 -9.649432306037539
4506 -9.646637908772769
4507 -9.64976104657012
4508 -9.646827073576912
4509 -9.649870631286124
4510 -9.64685427312422
4511 -9.649947374993584
4512 -9.647122844911172
4513 -9.649952925617105
4514 -9.64693903905256
4515 -9.649469278525961
4516 -9.646262306249193
4517 -9.649095073506377
4518 -9.645920715462422
4519 -9.64917618463593
4520 -9.646112613745379
4521 -9.64899642324372
4522 -9.645813950607327
4523 -9.648793301746917
4524 -9.645750241562464
4525 -9.64896046016811
4526 -9.646163742982308
4527 -9.649215858123721
4528 -9.645999875297388
4529 -9.649152604223344
4530 -9.645749945898176
4531 -9.648652471562208
4532 -9.645726145829371
4533 -9.649263016453613
4534 -9.646699037245822
4535 -9.650194598779006
4536 -9.64713296680085
4537 -9.650323413316503
4538 -9.647127375301627
4539 -9.650229947386583
4540 -9.646929865146941
4541 -9.650311383947678
4542 -9.647074005057053
4543 -9.650320684744885
4544 -9.647388772818084
4545 -9.650443498044281
4546 -9.647447643431558
4547 -9.650303119885276
4548 -9.646690871445198
4549 -9.64943330148375
4550 -9.646277061894617
4551 -9.649138640125178
4552 -9.6464857427724
4553 -9.64964622485731
4554 -9.646821427598661
4555 -9.649650054681034
4556 -9.646569664353098
4557 -9.649497678093091
4558 -9.646351436244142
4559 -9.649609349967781
4560 -9.646946632999551
4561 -9.650002765738506
4562 -9.64719573716277
4563 -9.650151496807199
4564 -9.646918321346964
4565 -9.649742801494018
4566 -9.646727074562092
4567 -9.649779486307636
4568 -9.647045580058833
4569 -9.649954338400562
4570 -9.646764628479843
4571 -9.649579053232276
4572 -9.64641080959913
4573 -9.649471407958803
4574 -9.646764761633989
4575 -9.649810162973722
4576 -9.646501872459627
4577 -9.649449800094667
4578 -9.645843771354574
4579 -9.648559727516446
4580 -9.645322262123798
4581 -9.648641061555763
4582 -9.645891457926469
4583 -9.649241301667681
4584 -9.64646854906071
4585 -9.64944792323598
4586 -9.646499990039416
4587 -9.649164853744828
4588 -9.645914505674765
4589 -9.649007475267945
4590 -9.646070749979554
4591 -9.649458564103053
4592 -9.646748188314183
4593 -9.649723814817351
4594 -9.646527252221516
4595 -9.649666682159996
4596 -9.646382572131579
4597 -9.649587184354107
4598 -9.646678882212253
4599 -9.649582493458468
4600 -9.646533524115865
4601 -9.649273021868877
4602 -9.64598620665242
4603 -9.648827404160613
4604 -9.646088364354556
4605 -9.648965532493072
4606 -9.64610729715533
4607 -9.649163221191012
4608 -9.645998032346903
4609 -9.648866448244201
4610 -9.646114382949612
4611 -9.649248801078123
4612 -9.646479227772168
4613 -9.649538846298551
4614 -9.646826569377414
4615 -9.649464114583367
4616 -9.646255819782276
4617 -9.648986493937699
4618 -9.646238451567649
4619 -9.649668499620288
4620 -9.647195710588424
4621 -9.650467522194523
4622 -9.647771553363164
4623 -9.650341385377313
4624 -9.647255108705599
4625 -9.649882370358723
4626 -9.646987749580171
4627 -9.6499823562153
4628 -9.647381207970525
4629 -9.650419981695499
4630 -9.647194521348224
4631 -9.649661072635963
4632 -9.646236043824391
4633 -9.649033382487936
4634 -9.645806902612055
4635 -9.648615284562712
4636 -9.645532101710023
4637 -9.648735821281909
4638 -9.645514672767733
4639 -9.648528751291929
4640 -9.645474252143515
4641 -9.648472975986378
4642 -9.645693783904393
4643 -9.648800545172378
4644 -9.645864372740958
4645 -9.648891635276897
4646 -9.645775995391526
4647 -9.648691361286678
4648 -9.645581934500228
4649 -9.649053458907058
4650 -9.64606959156964
4651 -9.649376333434033
4652 -9.646525349826852
4653 -9.649585635691908
4654 -9.646423055348061
4655 -9.649299241070656
4656 -9.646544633028947
4657 -9.649768624547344
4658 -9.647263313640416
4659 -9.649973391890931
4660 -9.646687174283901
4661 -9.649351203702141
4662 -9.64611790750952
4663 -9.648859123058019
4664 -9.646297342924228
4665 -9.648900351743407
4666 -9.646140316855544
4667 -9.648928215846455
4668 -9.645669839736591
4669 -9.64851626661139
4670 -9.645598200646948
4671 -9.648557740577735
4672 -9.645988120263459
4673 -9.649085452571478
4674 -9.646339651645205
4675 -9.649216044027847
4676 -9.646132395522894
4677 -9.648952983431821
4678 -9.646047896875727
4679 -9.648951585193345
4680 -9.646104651961993
4681 -9.64928684092286
4682 -9.646791018676311
4683 -9.649740902132679
4684 -9.64713813050566
4685 -9.650314958284204
4686 -9.647122116867573
4687 -9.650083750673055
4688 -9.646933107758851
4689 -9.65005262534647
4690 -9.646715097579174
4691 -9.649692489862304
4692 -9.646735363237529
4693 -9.650113588500206
4694 -9.647423399816223
4695 -9.650295249854455
4696 -9.647306795587891
4697 -9.650135506814381
4698 -9.64695676102126
4699 -9.649686122917775
4700 -9.646496653671301
4701 -9.649284740277709
4702 -9.645914450717074
4703 -9.648645554596467
4704 -9.645624884707958
4705 -9.648680478486686
4706 -9.645844098456861
4707 -9.64906386660741
4708 -9.646028784723356
4709 -9.649182677360113
4710 -9.646231203263582
4711 -9.649308756380609
4712 -9.646393376953508
4713 -9.649213025705253
4714 -9.646213749924469
4715 -9.649028604531972
4716 -9.646059640148241
4717 -9.649043063442189
4718 -9.646511972445579
4719 -9.649800079973044
4720 -9.647269916812219
4721 -9.650360445833046
4722 -9.6472859182257
4723 -9.650060483151369
4724 -9.647088605241549
4725 -9.649919091940593
4726 -9.646803176033124
4727 -9.649734437268993
4728 -9.646743948179699
4729 -9.649739504123962
4730 -9.646846283083612
4731 -9.649557056888995
4732 -9.646324406072885
4733 -9.649123536154502
4734 -9.646264028320525
4735 -9.649271806129633
4736 -9.646367377638944
4737 -9.649394600358466
4738 -9.646646942209033
4739 -9.649636167706214
4740 -9.646633120597011
4741 -9.649724733759058
4742 -9.646837731064045
4743 -9.650072351736391
4744 -9.647220281528623
4745 -9.650316336032981
4746 -9.647215045385387
4747 -9.650193724047393
4748 -9.647261908564845
4749 -9.650530505929147
4750 -9.647400641913658
4751 -9.650585816011109
4752 -9.647936347607436
4753 -9.650740297588115
4754 -9.647927491075947
4755 -9.650679897661137
4756 -9.647217870843011
4757 -9.649983064631568
4758 -9.646669869945935
4759 -9.649812372356472
4760 -9.646868748483222
4761 -9.649812770094488
4762 -9.646985010067286
4763 -9.650094767017576
4764 -9.646633331296709
4765 -9.649401485840968
4766 -9.646160639197898
4767 -9.648977612068109
4768 -9.646206851094892
4769 -9.649680000402205
4770 -9.646713861134966
4771 -9.649844146211114
4772 -9.646992402863026
4773 -9.649929440740365
4774 -9.64699473173718
4775 -9.649885162119757
4776 -9.64699679985686
4777 -9.650051878582822
4778 -9.646933979983949
4779 -9.649968755360337
4780 -9.646820658339095
4781 -9.649882155068164
4782 -9.646537586514201
4783 -9.64919304867994
4784 -9.646164722255175
4785 -9.648979955663973
4786 -9.6461106218394
4787 -9.649160876914936
4788 -9.646344024344279
4789 -9.649311526461613
4790 -9.646541122894838
4791 -9.649386033239349
4792 -9.646376877184961
4793 -9.649101585305392
4794 -9.646270744450618
4795 -9.649366162279451
4796 -9.646444072227768
4797 -9.649712405845388
4798 -9.646739923553875
4799 -9.650025888040233
4800 -9.646982520325322
4801 -9.6499749826882
4802 -9.6468683459718
4803 -9.649901743681305
4804 -9.64664359459036
4805 -9.6499029723586
4806 -9.646703947156478
4807 -9.650311843982617
4808 -9.647340765893361
4809 -9.65053301303765
4810 -9.647277882918489
4811 -9.650187076465851
4812 -9.646420614866791
4813 -9.649267439257249
4814 -9.646044560078032
4815 -9.649017820948101
4816 -9.645999564884065
4817 -9.649205487211526
4818 -9.646056970794438
4819 -9.649421681347905
4820 -9.646044230339175
4821 -9.649030388483174
4822 -9.646189863372722
4823 -9.649417074657554
4824 -9.646292192670472
4825 -9.648994143542513
4826 -9.645709433016325
4827 -9.648530317347733
4828 -9.645829046043147
4829 -9.649074136002254
4830 -9.646232511668044
4831 -9.649141560407369
4832 -9.646229543888477
4833 -9.648918083094552
4834 -9.645979376900831
4835 -9.649211720065548
4836 -9.646440527741362
4837 -9.649811880113079
4838 -9.64661020531986
4839 -9.649384372348603
4840 -9.646100690183216
4841 -9.649112943065123
4842 -9.646188786101604
4843 -9.649259143003201
4844 -9.646384143469563
4845 -9.649334952254957
4846 -9.646513363596268
4847 -9.649543102310984
4848 -9.646055342226067
4849 -9.649008671465625
4850 -9.645995116562213
4851 -9.649015063998384
4852 -9.645979596219197
4853 -9.649258990541849
4854 -9.64626723282476
4855 -9.649617265903624
4856 -9.646496365379701
4857 -9.649627069492757
4858 -9.646470432527147
4859 -9.649629819961133
4860 -9.646473044441802
4861 -9.649541684781944
4862 -9.646387459048386
4863 -9.649477773002639
4864 -9.646611746983451
4865 -9.64952966377054
4866 -9.646644002269257
4867 -9.649873538930693
4868 -9.646686984130554
4869 -9.649997961968694
4870 -9.647103205968783
4871 -9.650179540791205
4872 -9.647115637989561
4873 -9.6498668922
4874 -9.646704140599946
4875 -9.649624065562929
4876 -9.646233956588343
4877 -9.649335779400939
4878 -9.646378977749391
4879 -9.64956382777393
4880 -9.646516213452513
4881 -9.649135591558377
4882 -9.646002188217004
4883 -9.648718196872347
4884 -9.645810389741303
4885 -9.648862324608027
4886 -9.646016772631331
4887 -9.648821675409764
4888 -9.645905472922014
4889 -9.648935140467922
4890 -9.645675860934855
4891 -9.648587879650666
4892 -9.645755832858812
4893 -9.649034629551229
4894 -9.646190226076603
4895 -9.649190317195611
4896 -9.646051073030215
4897 -9.648885494757828
4898 -9.645711584070728
4899 -9.648565097553362
4900 -9.645549389637166
4901 -9.648749430322075
4902 -9.645769584360467
4903 -9.648762390197918
4904 -9.645798175730384
4905 -9.648711533940471
4906 -9.645746986766877
4907 -9.648899508924185
4908 -9.645785444723083
4909 -9.649009945193397
4910 -9.645592040541558
4911 -9.648667149980463
4912 -9.645525471198768
4913 -9.648567514185192
4914 -9.645412485520419
4915 -9.648340450746723
4916 -9.645204313972293
4917 -9.64867723358396
4918 -9.645773841693254
4919 -9.64910486457303
4920 -9.646482779691603
4921 -9.649616072551471
4922 -9.646849537151263
4923 -9.649794749625237
4924 -9.646737828126248
4925 -9.649680720466771
4926 -9.64672047046294
4927 -9.65017183211515
4928 -9.647007993874984
4929 -9.649968997902095
4930 -9.646783179300485
4931 -9.649944623243435
4932 -9.646720967948708
4933 -9.649915386976552
4934 -9.647062121746682
4935 -9.649854128610453
4936 -9.646599999881929
4937 -9.649282431281593
4938 -9.645867079005981
4939 -9.648864095292467
4940 -9.645719137223452
4941 -9.648739776815551
4942 -9.645703994146015
4943 -9.648500276759421
4944 -9.645388036761883
4945 -9.64825950053992
4946 -9.645139936924444
4947 -9.648238564964414
4948 -9.645324161435605
4949 -9.648767539019151
4950 -9.645779017705884
4951 -9.64909561187406
4952 -9.646195007519397
4953 -9.64927945862509
4954 -9.646690282637849
4955 -9.649974002056036
4956 -9.646964285620715
4957 -9.65029109183269
4958 -9.647332359634442
4959 -9.650429277482976
4960 -9.64750713334521
4961 -9.650579688197761
4962 -9.647563839795826
4963 -9.650431752986737
4964 -9.64740787843982
4965 -9.650455284430606
4966 -9.647290918304835
4967 -9.650386459495298
4968 -9.647244288485741
4969 -9.650160466930538
4970 -9.64675892396459
4971 -9.649599907233489
4972 -9.646183079012836
4973 -9.649175262407134
4974 -9.646233620405456
4975 -9.649127853722105
4976 -9.646309508273564
4977 -9.649440117105367
4978 -9.646665181126965
4979 -9.649819719449328
4980 -9.646683503923708
4981 -9.649862841472265
4982 -9.646902908236061
4983 -9.649949875768014
4984 -9.646858866805752
4985 -9.650001046407894
4986 -9.647044857177711
4987 -9.650223292549613
4988 -9.647463324343692
4989 -9.65070697227244
4990 -9.647799744198442
4991 -9.650628517934349
4992 -9.647563645336957
4993 -9.650387243839177
4994 -9.647520423098477
4995 -9.650159774597197
4996 -9.647345314520905
4997 -9.650391994888592
4998 -9.647293398364926
4999 -9.649790351718975
5000 -9.646917905603882
5001 -9.649960929684983
5002 -9.647428483219198
5003 -9.650612259950167
5004 -9.647738513094666
5005 -9.650724268336173
5006 -9.647614866421879
5007 -9.650159681904389
5008 -9.646976198564538
5009 -9.650087301095837
5010 -9.647220630056514
5011 -9.650319298229613
5012 -9.647554363351862
5013 -9.650233021025011
5014 -9.647086315015819
5015 -9.649839633025625
5016 -9.646939808450302
5017 -9.649913780975121
5018 -9.647424675510276
5019 -9.650607039629968
5020 -9.647533362296315
5021 -9.650636737852146
5022 -9.647186533934009
5023 -9.649870456459325
5024 -9.646978084282292
5025 -9.65003954125018
5026 -9.647189205937792
5027 -9.65030655792753
5028 -9.646926995666895
5029 -9.649889080001065
5030 -9.64666967391712
5031 -9.649629989433789
5032 -9.647125952123012
5033 -9.650371811773166
5034 -9.6475913187251
5035 -9.650418637188629
5036 -9.647151345893066
5037 -9.650092616932653
5038 -9.646977296216845
5039 -9.650014173189634
5040 -9.647044580077745
5041 -9.65007903606786
5042 -9.646963217352104
5043 -9.649728873456219
5044 -9.646836367571163
5045 -9.649962664033861
5046 -9.647140887679035
5047 -9.650262273728684
5048 -9.647574334588933
5049 -9.65050021703056
5050 -9.647162437920789
5051 -9.649627216358301
5052 -9.646339814005147
5053 -9.648994889256805
5054 -9.646320878037697
5055 -9.649379852111705
5056 -9.646815515823333
5057 -9.649989763272949
5058 -9.646900250019
5059 -9.649654229568164
5060 -9.646553033167208
5061 -9.649498935572668
5062 -9.646261235672965
5063 -9.649325908641648
5064 -9.646655581639127
5065 -9.649691119161055
5066 -9.646835606317993
5067 -9.649732123423657
5068 -9.646766131058339
5069 -9.64962797333412
5070 -9.646674138269308
5071 -9.649351710562938
5072 -9.646422221688647
5073 -9.649249059470378
5074 -9.646588017535356
5075 -9.649539607423753
5076 -9.64629504582207
