"moment_z-rfile"
"Iteration" "moment_z"
("Iteration" "moment_z")
1 -1007.16528448969
2 -989.9620108542407
3 -871.3496327108562
4 -750.7898919930379
5 -593.3257359828638
6 -458.9451523524313
7 -285.9409545335054
8 -88.99184216094281
9 82.11837234663949
10 224.4247736789757
11 339.2166296020166
12 423.0079109838064
13 469.5747344734185
14 490.7109187113552
15 491.8243589482732
16 474.6858239334243
17 445.4611007392686
18 412.8213859468453
19 375.7881086489887
20 338.7888426522239
21 305.926039518819
22 269.2864112530185
23 237.4283337240639
24 207.5865767626524
25 184.5286251900378
26 169.1297069050741
27 158.8585845104708
28 153.7602995513626
29 152.8597450639504
30 155.1976733976923
31 158.4804481869749
32 163.9707657080552
33 168.1479593526659
34 172.7128193787105
35 177.6273866419125
36 182.3079632291184
37 187.7714486965183
38 193.4394241919028
39 198.1285985836127
40 201.5814797165122
41 204.5582160711321
42 206.2571640701264
43 207.4534838646378
44 207.8735203378565
45 207.808399436132
46 207.53073282247
47 207.0992399663182
48 206.5233972659508
49 205.9158573661035
50 205.4383365122319
51 204.9391409882367
52 204.2912225973039
53 203.6609777320141
54 203.1236799353371
55 202.6717487778463
56 202.1636202399499
57 201.8435003646348
58 201.5445049426509
59 201.3911764057335
60 201.2246749574792
61 201.1397008843821
62 201.0799335627382
63 201.047025217725
64 201.0361190500927
65 201.0487253067761
66 201.0778771008258
67 201.1190797858695
68 201.1590476939682
69 201.2688597644924
70 201.3287457822835
71 201.4861549079303
72 201.572789693586
73 201.7752545948387
74 201.9725631175882
75 202.1794876155642
76 202.3020394228488
77 202.5505951912812
78 202.6996347555008
79 202.961348323594
80 203.1109393334102
81 203.3770057037052
82 203.5309841243091
83 203.6878055468311
84 203.8654006089745
85 204.0346789696391
86 204.2129558115323
87 204.3975950141597
88 204.5824717914241
89 204.7666324030094
90 204.9540549008396
91 205.1418285119342
92 205.3351227302866
93 205.5249558413371
94 205.7262483356255
95 205.9244068255759
96 206.1185192320152
97 206.3332483147569
98 206.5345213532437
99 206.7490568924678
100 206.9634619761746
101 207.1742957958739
102 207.3944655261286
103 207.6140981004197
104 207.8439111412045
105 208.0888342781812
106 208.3345700057726
107 208.5945436675812
108 208.8641705125362
109 209.1446210176292
110 209.4288930291148
111 209.7319860501823
112 210.045987173648
113 210.3801822605292
114 210.7077005137562
115 211.0608046506038
116 211.41476083142
117 211.7857454489145
118 212.1632947127165
119 212.5652883681482
120 212.9745350135513
121 213.3995105554182
122 213.8245639476706
123 214.2698703169165
124 214.7051601419884
125 215.1658200370841
126 215.6191639649119
127 216.0945965484785
128 216.5587523039327
129 217.0429918881489
130 217.526650701509
131 218.0293267281347
132 218.5252346516774
133 219.0365110360243
134 219.5420783159857
135 220.0708989349192
136 220.5984217963885
137 221.1411340559148
138 221.6783795877132
139 222.2335167093369
140 222.770576327237
141 223.3404492342747
142 223.8943485383946
143 224.4702261337476
144 225.0453759901428
145 225.6360601562239
146 226.2158865112654
147 226.8151199284429
148 227.3974312751505
149 227.9967810648545
150 228.5877207308941
151 229.1940899344103
152 229.7914190935787
153 230.3856808964244
154 230.9764601999449
155 231.5795343123088
156 232.1737096328071
157 232.7695784412194
158 233.3531273135513
159 233.9482455041209
160 234.526644977362
161 235.1061429683069
162 235.666433529747
163 236.221371203124
164 236.7655385351178
165 237.3061936760702
166 237.8256536603859
167 238.3434480708887
168 238.8454911092878
169 239.3517687644812
170 239.8288816809026
171 240.300424315748
172 240.7499265723692
173 241.1908748055823
174 241.6119102091623
175 242.023183966054
176 242.4154136227256
177 242.7886887977049
178 243.1382420343731
179 243.4715959960077
180 243.7837717270527
181 244.0753045470477
182 244.3452522897868
183 244.5986678556427
184 244.8281870698883
185 245.0401376775537
186 245.2250629819117
187 245.3911094399994
188 245.5347236210499
189 245.6598306168605
190 245.7631108959361
191 245.8500471959913
192 245.9069315788034
193 245.9472607955287
194 245.9640332276098
195 245.9623816405081
196 245.9411132692848
197 245.9020946427941
198 245.840782220751
199 245.7653284432067
200 245.6701453365615
201 245.558462978592
202 245.4302439852862
203 245.2853501395104
204 245.127050393761
205 244.9484782808921
206 244.7605218777896
207 244.5566619482753
208 244.3426734583925
209 244.1168665267959
210 243.8801984350867
211 243.6312647166904
212 243.3744182108383
213 243.1081534782741
214 242.8375228855641
215 242.5520812450522
216 242.2666498485264
217 241.9750146863283
218 241.6834033908839
219 241.3801812082985
220 241.0802566932314
221 240.7775456979743
222 240.4811639902075
223 240.1751843000397
224 239.8818685683032
225 239.5781607898341
226 239.2923074555449
227 238.9975529598529
228 238.720104118549
229 238.4371666159493
230 238.1723305217934
231 237.9023050463952
232 237.6493646944932
233 237.3954970891482
234 237.1583585339056
235 236.920430148633
236 236.7015517021412
237 236.4830406042166
238 236.2840992136461
239 236.0855215614454
240 235.9076892392042
241 235.7277976616678
242 235.5694574697388
243 235.4108735711777
244 235.2747501046301
245 235.1370588938289
246 235.0181030305502
247 234.8968845524955
248 234.7969079232728
249 234.6936217337508
250 234.6097389551449
251 234.5236765235526
252 234.4547925770737
253 234.3839405889172
254 234.3303763869957
255 234.2708557099942
256 234.2287516029207
257 234.1819080126713
258 234.1515542430002
259 234.1145905942344
260 234.0938073322639
261 234.0633735464947
262 234.0506332375943
263 234.027023058006
264 234.0208498213458
265 234.0016403400847
266 233.9999731319615
267 233.983979542277
268 233.9842549303062
269 233.9733758169862
270 233.9783052650559
271 233.9677055119736
272 233.9749805621273
273 233.9665043588172
274 233.9749315922743
275 233.9691632071468
276 233.9781807433437
277 233.9732758220364
278 233.9829219069323
279 233.9767276150124
280 233.9840618250129
281 233.979234313504
282 233.9881531744883
283 233.983241909887
284 233.9925980909299
285 233.9860232337777
286 233.9946602525364
287 233.9886111755185
288 233.9955661393992
289 233.9900497497649
290 233.9984848974741
291 233.9919560124416
292 234.0010904000551
293 233.9958089821271
294 234.0023604052185
295 233.9960856538009
296 234.0032580801281
297 233.997192759804
298 234.0036230909631
299 233.9956676795657
300 234.0037562794016
301 233.9983326429879
302 234.005942750586
303 233.9988024472385
304 234.0053351247802
305 233.9965607864081
306 234.0025074236906
307 233.9936145648385
308 233.9993939926123
309 233.9902519921609
310 233.9950980422046
311 233.9831787115631
312 233.9867641778378
313 233.9741812860645
314 233.9758797578085
315 233.9612243087897
316 233.9617527509934
317 233.9471315371132
318 233.9461654635897
319 233.9286791383306
320 233.927616869116
321 233.9103082400472
322 233.9054402927277
323 233.8868214105126
324 233.8809731180217
325 233.8611680561278
326 233.8531585243365
327 233.8319298505205
328 233.8232717382614
329 233.8009229905639
330 233.7922911253737
331 233.7662081958709
332 233.7571353012854
333 233.7309946426296
334 233.7193984121944
335 233.6921802030933
336 233.6788732740389
337 233.6497257807529
338 233.6349171420111
339 233.6050836112928
340 233.5901455985936
341 233.5605765103427
342 233.5447744213483
343 233.5133851008594
344 233.498545422017
345 233.4680310397402
346 233.4510460946161
347 233.4197045350676
348 233.4039726555832
349 233.373163836171
350 233.3552855831501
351 233.3242958044977
352 233.3072168437506
353 233.2757299689328
354 233.258799814753
355 233.2257067747493
356 233.207000381879
357 233.1757295781691
358 233.1568132021709
359 233.1242053122513
360 233.1052242240383
361 233.0721306357614
362 233.052145895252
363 233.0183888458161
364 232.9992900605903
365 232.9650464154891
366 232.9468686509768
367 232.9122049980993
368 232.8946254645766
369 232.8604991422851
370 232.8420256652425
371 232.8086673391533
372 232.7914987434332
373 232.7583205173227
374 232.7413853400153
375 232.7082006792162
376 232.68967863888
377 232.6588627550362
378 232.6418184558727
379 232.6096654904885
380 232.5937563110073
381 232.5633767051011
382 232.5458043202643
383 232.5160945310152
384 232.4998330768472
385 232.4707907180827
386 232.455024656439
387 232.426620598566
388 232.4102112820117
389 232.3830399393046
390 232.3683706806978
391 232.3412724047321
392 232.327458373725
393 232.3009760442368
394 232.2858737301504
395 232.2577844174757
396 232.2441308340991
397 232.2165217506342
398 232.2037450661444
399 232.1757046595892
400 232.1624142875158
401 232.1342751804227
402 232.1210466067676
403 232.0930027345852
404 232.0805906774251
405 232.0528262532644
406 232.0396792985911
407 232.0116585333424
408 232.0003158648716
409 231.9725077096381
410 231.9617114653633
411 231.9324889611761
412 231.9221803133372
413 231.895026717177
414 231.8853938875998
415 231.8576824670884
416 231.8506619021659
417 231.8249996003427
418 231.8162727367958
419 231.7910953319076
420 231.7837252604338
421 231.7589020519701
422 231.7514645313788
423 231.7279407526317
424 231.7208056461384
425 231.696657042684
426 231.6909776031833
427 231.6661872767349
428 231.6608441247273
429 231.637899202834
430 231.6314712702805
431 231.6068952557812
432 231.6001672470951
433 231.5774393836802
434 231.5701639505891
435 231.5450050909752
436 231.5376100791306
437 231.5138583830976
438 231.5070122393147
439 231.4823662024641
440 231.4753781277475
441 231.452145894804
442 231.4448681182048
443 231.4211565208584
444 231.413792717198
445 231.3895284929157
446 231.3832869153192
447 231.3594111667385
448 231.3511020062064
449 231.3286581017755
450 231.3225391829909
451 231.3001584121034
452 231.2932802489462
453 231.2718937293598
454 231.2637206733691
455 231.2420267457339
456 231.2349173559629
457 231.213374569817
458 231.2086181460478
459 231.1856182376307
460 231.1797547401297
461 231.1583180780503
462 231.1538173248596
463 231.1319531319668
464 231.1284963074832
465 231.1086681275783
466 231.1024541999849
467 231.0813510504568
468 231.0746831217581
469 231.0544940259448
470 231.0481833142929
471 231.0272216194542
472 231.0201981679683
473 230.999049986316
474 230.9932284427592
475 230.9708971531485
476 230.9643078694511
477 230.9447577342481
478 230.9366836541633
479 230.9153663038545
480 230.9069186842409
481 230.8867829860776
482 230.880350890426
483 230.858357798825
484 230.8515463970861
485 230.8313492730897
486 230.8256859609032
487 230.8048836654713
488 230.800603497259
489 230.7813545953844
490 230.777024114056
491 230.756279072424
492 230.7513771276574
493 230.7319572988362
494 230.7279562355212
495 230.7079453541815
496 230.7035877946971
497 230.6859240593581
498 230.6831960702591
499 230.664835199222
500 230.6613885103639
501 230.6447367896532
502 230.6407244304939
503 230.6211549543912
504 230.6185650695345
505 230.6000308952476
506 230.5968754871228
507 230.5781311161627
508 230.574810442333
509 230.556862629561
510 230.5537527774623
511 230.5356133825049
512 230.5328919770978
513 230.5155327508469
514 230.5118745910667
515 230.4927699386853
516 230.4887149477225
517 230.4714668258651
518 230.4677222203912
519 230.4498937827738
520 230.4451583255644
521 230.429140581516
522 230.425545040027
523 230.4074933869682
524 230.4050683585369
525 230.3887990926177
526 230.3854468644173
527 230.3681655467718
528 230.3662718960199
529 230.3497188073886
530 230.3486547202977
531 230.3318221227998
532 230.3302882789505
533 230.3150722899116
534 230.3139738868537
535 230.2978652814515
536 230.2976640790532
537 230.283179875091
538 230.2809204594645
539 230.2659660422102
540 230.2644620410182
541 230.249163324117
542 230.2479227149655
543 230.2319566190592
544 230.23036126825
545 230.2161891165681
546 230.2147000189096
547 230.1989722671008
548 230.1988498270185
549 230.1848427893294
550 230.1824477556301
551 230.1663679390147
552 230.164282723472
553 230.1477581582377
554 230.1478397227163
555 230.131494538286
556 230.1311399461439
557 230.1159233970312
558 230.1154032014144
559 230.1009990684379
560 230.1024338363237
561 230.0898409972696
562 230.0898340199363
563 230.0768088458914
564 230.0780201857278
565 230.0643219672784
566 230.065816678535
567 230.0516544924244
568 230.052926341978
569 230.0405830753782
570 230.0418325974266
571 230.0270085399266
572 230.0303456421391
573 230.0183493073664
574 230.0197369078801
575 230.0057026809552
576 230.0063036659457
577 229.9917649769847
578 229.993468817606
579 229.9778506226506
580 229.9791855594664
581 229.9641630416819
582 229.9667383965524
583 229.951282186463
584 229.9537357569662
585 229.9398173506809
586 229.9415116032048
587 229.9263602084347
588 229.9272150420873
589 229.9127699657892
590 229.9138376678774
591 229.8999383247646
592 229.8998952199962
593 229.8862826389348
594 229.8886971175516
595 229.8745459982592
596 229.8768284905219
597 229.8654819051925
598 229.8669740468447
599 229.854974098751
600 229.8566288004686
601 229.8438454171001
602 229.8473754950729
603 229.8348625596442
604 229.8369497472204
605 229.8253901008873
606 229.8292440292045
607 229.8179642498062
608 229.8219061274109
609 229.8113257545718
610 229.8143953178944
611 229.8022339111193
612 229.8036954543975
613 229.7916285375136
614 229.793398752107
615 229.7818141432307
616 229.7827597163924
617 229.7716166966194
618 229.774075643844
619 229.7605273225279
620 229.7629397138311
621 229.7505991111455
622 229.751884455183
623 229.7391276939383
624 229.7415778626596
625 229.7284531183869
626 229.7323408751872
627 229.7188158330434
628 229.7220020844604
629 229.7080744303918
630 229.7131946542406
631 229.6983563383733
632 229.7041297133954
633 229.6920396775727
634 229.6959711430247
635 229.6827220416861
636 229.6857736088252
637 229.674667742627
638 229.6802899835917
639 229.6687129391284
640 229.6721273863893
641 229.6618330022124
642 229.6663642292991
643 229.654707326471
644 229.6594316116753
645 229.6490138128187
646 229.6533141266751
647 229.6420609998331
648 229.64599254937
649 229.6340939991471
650 229.6393027299285
651 229.626079405792
652 229.629888066856
653 229.617797559782
654 229.6224210612853
655 229.6103625892049
656 229.615705534911
657 229.6042243004019
658 229.6088675043098
659 229.5967203005885
660 229.6004053555792
661 229.588239383203
662 229.5922894230546
663 229.5811107033086
664 229.5841794000937
665 229.5739922664638
666 229.5784751229246
667 229.5667072138359
668 229.5715840156166
669 229.5615275738981
670 229.5653577413992
671 229.5545745394198
672 229.5584160623517
673 229.5494360578309
674 229.5538931813296
675 229.543573181774
676 229.5468012068065
677 229.537477635992
678 229.5422213451189
679 229.5320864114211
680 229.5373736055045
681 229.5286783859855
682 229.5329644708247
683 229.522742705147
684 229.5264709010384
685 229.5166717761816
686 229.5208220668385
687 229.5099019481364
688 229.5132524122215
689 229.5035615955554
690 229.508756929499
691 229.4972680554691
692 229.5021609496429
693 229.4914806670153
694 229.4957970987683
695 229.4855740343539
696 229.4908411718026
697 229.4795577843362
698 229.4858474622186
699 229.4738743987894
700 229.4792660029007
701 229.4677531813694
702 229.473690772972
703 229.4628577779997
704 229.4693073129661
705 229.4586037154082
706 229.4649662141942
707 229.4527397878045
708 229.4585820448478
709 229.4472538858891
710 229.4533023331401
711 229.4415783173457
712 229.4471944759077
713 229.4376795127139
714 229.4449417804098
715 229.4338781116517
716 229.4400295111325
717 229.4307061062327
718 229.4365781781026
719 229.4278119087714
720 229.4323498375112
721 229.4228828830452
722 229.4286454908312
723 229.4182475262378
724 229.4226519688456
725 229.4122766066733
726 229.4178903273951
727 229.4065001813975
728 229.4116272763109
729 229.4009460033831
730 229.4060482001869
731 229.3947699683111
732 229.3991685176031
733 229.387785083054
734 229.3935684048293
735 229.3821921089819
736 229.3875985356253
737 229.3765757237748
738 229.3835661275988
739 229.371591702852
740 229.3789906042631
741 229.368363443906
742 229.3744531621473
743 229.3651407310323
744 229.3717971983569
745 229.3614245830685
746 229.3693855514138
747 229.3595076314072
748 229.3664251084724
749 229.3571218393182
750 229.3649835665146
751 229.3552505394573
752 229.3621020030973
753 229.3543409225091
754 229.3606371779791
755 229.3521397857019
756 229.3577407546448
757 229.3493035144093
758 229.354689990927
759 229.3458431363306
760 229.3502344261653
761 229.3417757809188
762 229.3472636466187
763 229.3374829440831
764 229.3435995833394
765 229.3335171511641
766 229.339461074878
767 229.3281562861238
768 229.3335321490237
769 229.3223199768308
770 229.327975986712
771 229.3162496617218
772 229.3213381546703
773 229.3110737260369
774 229.3187301475127
775 229.3075359801678
776 229.3146075750721
777 229.3052183698187
778 229.3117286876939
779 229.3017013564267
780 229.3082626515155
781 229.298885995988
782 229.3050540532292
783 229.2963610692144
784 229.3019346226687
785 229.2921606536837
786 229.2997065427436
787 229.2903760241888
788 229.2977238466308
789 229.2885578888692
790 229.2950388880178
791 229.2852314443907
792 229.2912239632989
793 229.2813497178931
794 229.2886404787522
795 229.277062779731
796 229.2836157855334
797 229.273236795281
798 229.2802031617357
799 229.2702121542928
800 229.2775448412436
801 229.267724882717
802 229.2747887386023
803 229.2652117310474
804 229.2716836338808
805 229.2611442609026
806 229.268600893116
807 229.2597110705451
808 229.266438424925
809 229.2581843666522
810 229.2652295456347
811 229.2560549986497
812 229.2632899436828
813 229.2558276915113
814 229.2618709691577
815 229.2533206741235
816 229.2594431859645
817 229.250931254406
818 229.2575662837923
819 229.2482888885937
820 229.2541683703189
821 229.2448210589024
822 229.2519962562979
823 229.24278417525
824 229.2507143769529
825 229.2425722165061
826 229.2484476164725
827 229.2403159358416
828 229.2466482016964
829 229.2380525821717
830 229.2443221845691
831 229.2359494898815
832 229.2414934142872
833 229.2321133327566
834 229.2398270491925
835 229.2298706851784
836 229.237071733801
837 229.2279556932578
838 229.2346978129673
839 229.2249180386794
840 229.2327588900071
841 229.2217650643675
842 229.2298317821423
843 229.2185268323298
844 229.226258751076
845 229.2149677574451
846 229.2236245707293
847 229.2130571499276
848 229.2229035808973
849 229.2125112928706
850 229.2205855939357
851 229.2110485246646
852 229.2185902539672
853 229.2097039187773
854 229.2184293821175
855 229.2093831564721
856 229.2163894376299
857 229.2077249039594
858 229.2168691948733
859 229.2067080278275
860 229.2155224284294
861 229.2075582729333
862 229.2149559098581
863 229.2054154533944
864 229.2136077798199
865 229.20377526827
866 229.2124766431831
867 229.2025585854577
868 229.2100516015707
869 229.2004016254116
870 229.2090346525638
871 229.1982203546587
872 229.2063379625442
873 229.1980597356964
874 229.2049725306096
875 229.1942151508356
876 229.2009033299374
877 229.1917584698045
878 229.1975072956719
879 229.1878481266278
880 229.1943832244432
881 229.1866360834241
882 229.194822711793
883 229.1861647804851
884 229.193488033493
885 229.1864861078102
886 229.1930416980756
887 229.1844067322818
888 229.1922300060763
889 229.183329854219
890 229.1923427253141
891 229.1819700059073
892 229.1899361282494
893 229.1818037156725
894 229.1916690502698
895 229.182260143274
896 229.1908935243274
897 229.1822910152111
898 229.1909548799439
899 229.1809197096158
900 229.1887009053925
901 229.1777591034661
902 229.1853678701878
903 229.1746681498771
904 229.1817070323064
905 229.1708806094685
906 229.1788487845099
907 229.1687144454193
908 229.1773243724074
909 229.1678298446996
910 229.1753558005868
911 229.1642838188126
912 229.172540017193
913 229.1622556784968
914 229.1713980376988
915 229.1604661548864
916 229.1690161988826
917 229.1589932037725
918 229.1686655021811
919 229.1572566748172
920 229.1675885086582
921 229.1590439254712
922 229.1686170289303
923 229.1589315107586
924 229.1689423667049
925 229.1596945433837
926 229.1692143191792
927 229.1602626366961
928 229.169038511573
929 229.1596100240444
930 229.1697281068237
931 229.1593279631626
932 229.1681432505353
933 229.1603146637633
934 229.1680085078897
935 229.1596771248257
936 229.166736640245
937 229.1575299251042
938 229.1653322621237
939 229.1554456872831
940 229.1614530226112
941 229.1523994920143
942 229.1603276689279
943 229.1508589200049
944 229.158977528292
945 229.1500444864604
946 229.1577330534398
947 229.1482298860107
948 229.1567993037229
949 229.1472859844956
950 229.1560208953213
951 229.1463638221441
952 229.1546638782932
953 229.1451837235479
954 229.1555101799162
955 229.1453928440255
956 229.1550428525089
957 229.1470948972623
958 229.1564026328334
959 229.1465816410797
960 229.1550613473438
961 229.1453966693385
962 229.1553325246419
963 229.1448229771312
964 229.1536060628568
965 229.1447594714348
966 229.1543757172421
967 229.1452109929981
968 229.1545496654758
969 229.1463683221494
970 229.1543954557178
971 229.144844094365
972 229.1521718830552
973 229.1428867080302
974 229.1503604348951
975 229.1396429384148
976 229.1460428929863
977 229.1367855692029
978 229.14495373033
979 229.1345586664509
980 229.1434181955568
981 229.1341406119252
982 229.1424150371193
983 229.1331759307532
984 229.1417792340834
985 229.131349450743
986 229.1409046402581
987 229.1297531372307
988 229.1382615628919
989 229.1292582347482
990 229.1393586154608
991 229.1290946937772
992 229.1387727099343
993 229.1301395164188
994 229.1400285100031
995 229.1300473629507
996 229.1399781935941
997 229.1315409085164
998 229.1407791628142
999 229.1320020507582
1000 229.1403868204459
1001 229.1318329832144
1002 229.1408992987512
1003 229.1309394526635
1004 229.1399658549988
1005 229.1316510745485
1006 229.1389422780045
1007 229.1297568874497
1008 229.1378964000396
1009 229.129818427994
1010 229.1374237773147
1011 229.1274306677333
1012 229.1337118681593
1013 229.1245953050084
1014 229.1325517673044
1015 229.1230016968393
1016 229.1312346269496
1017 229.1219365106823
1018 229.1296334114087
1019 229.1184503307771
1020 229.1264171374744
1021 229.1168291342653
1022 229.1255548068753
1023 229.1156750169872
1024 229.1244511693111
1025 229.115470818786
1026 229.126148566227
1027 229.116098148631
1028 229.1273080248015
1029 229.1187193365958
1030 229.1275551237771
1031 229.1179788131824
1032 229.1279925808133
1033 229.1184794230622
1034 229.1283228537712
1035 229.117245303353
1036 229.1266288567124
1037 229.1171842161942
1038 229.1273623016807
1039 229.1181328179303
1040 229.1277101418529
1041 229.1199537026968
1042 229.1288976466711
1043 229.1206887025722
1044 229.1294093170279
1045 229.1204969685125
1046 229.1286999146637
1047 229.1199654455821
1048 229.1278502476472
1049 229.119314844006
1050 229.1280605978125
1051 229.1188392014955
1052 229.1264904568843
1053 229.1182839454809
1054 229.1249063466106
1055 229.115754652257
1056 229.1231314643414
1057 229.1139684125323
1058 229.1217018572532
1059 229.1116815294186
1060 229.1191951555964
1061 229.1093505971634
1062 229.1180524089452
1063 229.1069616829307
1064 229.1169697094793
1065 229.1081868491285
1066 229.1170187218096
1067 229.1077347250977
1068 229.1161134475215
1069 229.1082093304754
1070 229.1171946042904
1071 229.1085518122463
1072 229.116643467607
1073 229.1077369005802
1074 229.1182993916013
1075 229.1081243192952
1076 229.1179018612127
1077 229.1101113379277
1078 229.1186571732142
1079 229.1093140490261
1080 229.1180716861904
1081 229.1077535644598
1082 229.1177689261375
1083 229.1070773390514
1084 229.1161463593795
1085 229.1063190969443
1086 229.1161963293381
1087 229.1069234271686
1088 229.11673955236
1089 229.1077222647187
1090 229.1172002920202
1091 229.1074476024753
1092 229.1152936084703
1093 229.1065202997024
1094 229.1140740637188
1095 229.1058335796268
1096 229.1128482482548
1097 229.1054304306099
1098 229.113978971458
1099 229.1050137130564
1100 229.1139768089639
1101 229.1066056856415
1102 229.1136566975043
1103 229.1047782779631
1104 229.1128946347269
1105 229.1046064096743
1106 229.1128813902228
1107 229.104375706556
1108 229.1119738004355
1109 229.1037687353803
1110 229.1129344463824
1111 229.1042627308808
1112 229.1133753374843
1113 229.1057244129472
1114 229.1146961638318
1115 229.1038204409677
1116 229.1117067640307
1117 229.1032958560456
1118 229.1109960100657
1119 229.1007163718098
1120 229.1075932083913
1121 229.0983628488048
1122 229.1062966850419
1123 229.0950603426487
1124 229.1042537778548
1125 229.0956705082363
1126 229.1037377646534
1127 229.0950231114405
1128 229.1037108810444
1129 229.0949647909243
1130 229.1045862734567
1131 229.0942301047178
1132 229.1030416902875
1133 229.0939187535174
1134 229.1040360934255
1135 229.0943769130454
1136 229.1047885650056
1137 229.0970362893557
1138 229.1063664700283
1139 229.0980094981796
1140 229.1069849446802
1141 229.0994683230312
1142 229.1091041196913
1143 229.1007038323233
1144 229.1092546649074
1145 229.1014469637638
1146 229.1112032445624
1147 229.1015194542001
1148 229.110527412766
1149 229.1021008926869
1150 229.109133601699
1151 229.1012725641729
1152 229.1090397150448
1153 229.1000383681731
1154 229.1082125760844
1155 229.0981070614459
1156 229.1055218488541
1157 229.0965730236383
1158 229.1058033552968
1159 229.0959078758083
1160 229.1050221630987
1161 229.0958817188549
1162 229.1050030295085
1163 229.094726821312
1164 229.1042345278206
1165 229.094392388766
1166 229.1039317652528
1167 229.0937750073019
1168 229.1032893302198
1169 229.0948681588125
1170 229.1061218464906
1171 229.0960130998798
1172 229.1061104410423
1173 229.0981938713946
1174 229.1074907573213
1175 229.09704427392
1176 229.1059983730469
1177 229.0974659641879
1178 229.1063839640958
1179 229.0964444680167
1180 229.1047762540408
1181 229.0958752904625
1182 229.105033296479
1183 229.094814661034
1184 229.1034745822143
1185 229.095056240644
1186 229.1034507797453
1187 229.0941562185074
1188 229.1019309375916
1189 229.0928700967625
1190 229.1013519073656
1191 229.0915020542242
1192 229.0987521434036
1193 229.0894856985327
1194 229.0987329240832
1195 229.0885513060973
1196 229.0976402879278
1197 229.0891380801908
1198 229.0974210852826
1199 229.0883949331405
1200 229.0969720631067
1201 229.0877935042763
1202 229.0974408083236
1203 229.0884760773223
1204 229.0966960525354
1205 229.088851446788
1206 229.0987449186421
1207 229.0901703920329
1208 229.0991217748899
1209 229.0918232479132
1210 229.1009104437559
1211 229.0917195112021
1212 229.1007230046735
1213 229.0941294216584
1214 229.1027788483276
1215 229.0951057655497
1216 229.1026550983789
1217 229.0956780211992
1218 229.1046355642649
1219 229.0957106182243
1220 229.1041148287094
1221 229.0957874797636
1222 229.1028052030738
1223 229.0929679633337
1224 229.1005477548797
1225 229.0914351993136
1226 229.0988194898201
1227 229.0881454842389
1228 229.0960546773461
1229 229.0857117944887
1230 229.0942180320854
1231 229.0844079374288
1232 229.0932016365296
1233 229.0839633105598
1234 229.0929009043678
1235 229.0822689524766
1236 229.0919152361201
1237 229.0831734155057
1238 229.0924082614721
1239 229.0826796236089
1240 229.0916337143964
1241 229.0831673822098
1242 229.0940770277439
1243 229.0851079709986
1244 229.0958592195516
1245 229.0883078561762
1246 229.0974012577806
1247 229.0895205342511
1248 229.0988804614164
1249 229.0888364717975
1250 229.0989635154109
1251 229.088177690628
1252 229.0970282965171
1253 229.0884610380899
1254 229.0992602219263
1255 229.0893181063093
1256 229.0989959078626
1257 229.0907085792548
1258 229.099973507842
1259 229.0903113806443
1260 229.0987693615288
1261 229.0895479363894
1262 229.0985132154935
1263 229.0890481329737
1264 229.0972590597218
1265 229.088475541938
1266 229.097216043991
1267 229.0865859349821
1268 229.0958704642613
1269 229.0869532634572
1270 229.095467988758
1271 229.0858637762027
1272 229.0937217229692
1273 229.0842009211026
1274 229.0930972402206
1275 229.0830638591338
1276 229.0909690388973
1277 229.0824654000484
1278 229.0913302747127
1279 229.0814851548809
1280 229.0910083865948
1281 229.0836117245503
1282 229.0926742188872
1283 229.0850803983915
1284 229.0938980826566
1285 229.086753426443
1286 229.0947999035992
1287 229.0873340134566
1288 229.0952631834627
1289 229.0883919362802
1290 229.0978138514403
1291 229.0885082824314
1292 229.0972340771067
1293 229.0896482022817
1294 229.0974589892364
1295 229.0885705142817
1296 229.0971148039538
1297 229.0874692851863
1298 229.0964360654472
1299 229.0850905608342
1300 229.0929440592528
1301 229.0831715993098
1302 229.0918825627543
1303 229.0815401272139
1304 229.090750318672
1305 229.0810306799033
1306 229.0903686979722
1307 229.0786961120845
1308 229.0880503157048
1309 229.0778654182593
1310 229.087517730317
1311 229.0777659473301
1312 229.0863405399823
1313 229.0781516163563
1314 229.0884951343847
1315 229.0794791934017
1316 229.0893741065906
1317 229.0821731956229
1318 229.091386990105
1319 229.0828568366373
1320 229.0920678845064
1321 229.0834564425035
1322 229.0932044757544
1323 229.082929776381
1324 229.0926466907717
1325 229.0837060356475
1326 229.0937540432062
1327 229.0845061148301
1328 229.0945689487625
1329 229.086316073641
1330 229.0955410752877
1331 229.0851982784502
1332 229.0941429100726
1333 229.0859284963883
1334 229.0953377803135
1335 229.0853118454115
1336 229.0934417103573
1337 229.0843456401167
1338 229.0935098936524
1339 229.0835621572012
1340 229.0922985019939
1341 229.0835941842207
1342 229.0908929625796
1343 229.0826968567966
1344 229.09127989554
1345 229.0821780573796
1346 229.090973781108
1347 229.0811808267271
1348 229.0898013343484
1349 229.0812260211725
1350 229.0908038154061
1351 229.0810752258492
1352 229.0907083589843
1353 229.083985928794
1354 229.0936480737218
1355 229.0844269723307
1356 229.0934065015754
1357 229.0856767916894
1358 229.0948256378553
1359 229.0862090350157
1360 229.0950410725081
1361 229.0876608145228
1362 229.0967851168594
1363 229.0868537430562
1364 229.0963193351323
1365 229.0866802049329
1366 229.0948969575431
1367 229.0841732030442
1368 229.092951360787
1369 229.0827615143229
1370 229.0913336135578
1371 229.0812602811558
1372 229.0894620910593
1373 229.0799435403797
1374 229.0890083536391
1375 229.0787750594311
1376 229.0884781813706
1377 229.0805815320354
1378 229.0900377175526
1379 229.0811614445219
1380 229.0903381839567
1381 229.0813840915312
1382 229.0905014390256
1383 229.080984261512
1384 229.0895380795749
1385 229.0813801215184
1386 229.0917388055648
1387 229.0834852467912
1388 229.0934813796104
1389 229.0863194648373
1390 229.0950101056363
1391 229.0864512868476
1392 229.0949800891887
1393 229.0863738787468
1394 229.0958694992167
1395 229.0865803684385
1396 229.0944367362897
1397 229.0854568256169
1398 229.0935826130276
1399 229.0839633918901
1400 229.0921975250603
1401 229.0833033704913
1402 229.0905451945853
1403 229.0799416496229
1404 229.0887815205997
1405 229.07962786506
1406 229.0880283756314
1407 229.0774887779112
1408 229.0851842553883
1409 229.0756352952079
1410 229.085493542652
1411 229.0758178645029
1412 229.0856523644799
1413 229.0780355821315
1414 229.0868022587876
1415 229.0769075159749
1416 229.0860034605223
1417 229.0784913033241
1418 229.0883459742251
1419 229.0792069048526
1420 229.0886223761743
1421 229.0813797143954
1422 229.0919746484707
1423 229.0833242087252
1424 229.09301949518
1425 229.0858538326613
1426 229.0947699505812
1427 229.0864863355209
1428 229.0947938505834
1429 229.0867442839522
1430 229.0955254841825
1431 229.086740054072
1432 229.0940009137787
1433 229.0869415689517
1434 229.0961054628844
1435 229.0862084991227
1436 229.095610654515
1437 229.087986243296
1438 229.0956891838945
1439 229.0851481634971
1440 229.093496064098
1441 229.0831251631037
1442 229.0919847298949
1443 229.0811369773897
1444 229.0892748965033
1445 229.0792620880394
1446 229.08913314519
1447 229.0788739385833
1448 229.0891831634424
1449 229.0811085158905
1450 229.0899038670674
1451 229.080247120261
1452 229.0893763360441
1453 229.0805947298714
1454 229.0903976392178
1455 229.0806703551113
1456 229.0892725255828
1457 229.0814848837381
1458 229.0914192249816
1459 229.0822099467954
1460 229.0923386393794
1461 229.0846590016969
1462 229.0937798404277
1463 229.0855862708034
1464 229.0949245652352
1465 229.0863452957063
1466 229.0952351231944
1467 229.0863821790466
1468 229.0946519906461
1469 229.0864942392784
1470 229.0960011911157
1471 229.0869039441171
1472 229.0961234179352
1473 229.0880219022373
1474 229.0961194261289
1475 229.0861823743305
1476 229.0940161396124
1477 229.0848774762023
1478 229.0917805077134
1479 229.0822651432573
1480 229.089201781414
1481 229.0799842852047
1482 229.0880049288986
1483 229.0780144203486
1484 229.0859706612723
1485 229.0781716713994
1486 229.0847197681958
1487 229.0765012197396
1488 229.0839223719754
1489 229.0758205473042
1490 229.084368786942
1491 229.0757171102394
1492 229.0835702465848
1493 229.0762036568304
1494 229.0856114873166
1495 229.0769138012201
1496 229.0864232543084
1497 229.0794972825249
1498 229.0887053277152
1499 229.0799779853628
1500 229.0899050118106
1501 229.0818272982062
1502 229.091817524058
1503 229.082933069856
1504 229.0914824596771
1505 229.0832183374017
1506 229.0926570276272
1507 229.0836953628656
1508 229.0931480734424
1509 229.083752967641
1510 229.0921744499984
1511 229.0826916816731
1512 229.0907857611127
1513 229.0805352228599
1514 229.0900171416714
1515 229.078413775025
1516 229.0863867834063
1517 229.0761206613257
1518 229.0862478393762
1519 229.0752685341033
1520 229.085581630459
1521 229.0767998773869
1522 229.0866946935512
1523 229.0765983465635
1524 229.0860751489824
1525 229.076478878959
1526 229.0866037128457
1527 229.0769338297149
1528 229.0863762125231
1529 229.0780232785501
1530 229.0891066622082
1531 229.0803425925769
1532 229.0911135447239
1533 229.0841335960373
1534 229.0923943672127
1535 229.084773883541
1536 229.0937095854592
1537 229.0852169198813
1538 229.0949234679463
1539 229.084642888257
1540 229.0934904556198
1541 229.0843384499298
1542 229.0938686343021
1543 229.0835235570757
1544 229.0928247588829
1545 229.0829951546825
1546 229.0913261044077
1547 229.0813451879089
1548 229.0900179925916
1549 229.0800474267178
1550 229.0887850674961
1551 229.0794827086148
1552 229.0865645858314
1553 229.0784638600621
1554 229.0878113047298
1555 229.0786069496467
1556 229.0871437113774
1557 229.0796121820587
1558 229.0879248631111
1559 229.0798663080569
1560 229.0884598716866
1561 229.0807913934441
1562 229.0892503914463
1563 229.0808809395138
1564 229.0884510840851
1565 229.0807826294472
1566 229.0902654039412
1567 229.0822388935586
1568 229.0911921248683
1569 229.0830277604225
1570 229.0923525359413
1571 229.0824386725575
1572 229.0908840250649
1573 229.0825761960764
1574 229.0908540600372
1575 229.081613838736
1576 229.0892924274247
1577 229.0811563456993
1578 229.0910693964177
1579 229.0819520591992
1580 229.0915895782837
1581 229.0828774331194
1582 229.09116388476
1583 229.0814370724055
1584 229.090309287895
1585 229.0811553583883
1586 229.0906077989647
1587 229.0804053936513
1588 229.0889275796595
1589 229.0791773928871
1590 229.0882859211099
1591 229.0781144492433
1592 229.0883429739826
1593 229.0797734540108
1594 229.0885767408528
1595 229.0782485593705
1596 229.0873211910141
1597 229.0780429096121
1598 229.087055093698
1599 229.0773087040973
1600 229.0856505253463
1601 229.0774478406954
1602 229.0871045575506
1603 229.0771338463735
1604 229.0873680685833
1605 229.0795688698755
1606 229.0880416250895
1607 229.0795249608065
1608 229.0887765102683
1609 229.0803846565846
1610 229.0903637886368
1611 229.0807097236519
1612 229.0884464391419
1613 229.0797121419296
1614 229.0895769030705
1615 229.0802940929453
1616 229.0896371779712
1617 229.081134754413
1618 229.0900156107136
1619 229.0818238654609
1620 229.0907105545556
1621 229.0824972454616
1622 229.0906172203202
1623 229.0824457561433
1624 229.0897944745364
1625 229.0814290960912
1626 229.0906722112987
1627 229.0814754967065
1628 229.0904715570536
1629 229.0821684338391
1630 229.0904870377661
1631 229.081865262047
1632 229.0896702180019
1633 229.0824658026271
1634 229.0918402671799
1635 229.0821480688152
1636 229.0901476919092
1637 229.0818684429796
1638 229.0914750186186
1639 229.0822011225416
1640 229.0917328770925
1641 229.0840322448767
1642 229.0928358170132
1643 229.0843147344607
1644 229.0918067010227
1645 229.0844213238335
1646 229.0925262509547
1647 229.0840703650859
1648 229.0913258915864
1649 229.0831538255943
1650 229.0918227454937
1651 229.0818635007006
1652 229.0898743552316
1653 229.0811356168621
1654 229.0883994648376
1655 229.0783813421985
1656 229.0867419583815
1657 229.0766745277734
1658 229.0865297497463
1659 229.0754082935254
1660 229.0844616376061
1661 229.075005449346
1662 229.0859359784887
1663 229.0759569965731
1664 229.0876636422625
1665 229.0786346158551
1666 229.0893811181217
1667 229.0804113303203
1668 229.090274019847
1669 229.0821736811778
1670 229.0919625042853
1671 229.0835381193933
1672 229.0916632876735
1673 229.084844848614
1674 229.0954400077304
1675 229.0867510752236
1676 229.0960067629574
1677 229.0891869658336
1678 229.0971832955038
1679 229.089488068782
1680 229.0971713275297
1681 229.0895479322567
1682 229.0977292148141
1683 229.0886942057768
1684 229.0960579884918
1685 229.0863262581534
1686 229.0942114322519
1687 229.0846448327628
1688 229.0926841853675
1689 229.0840712969994
1690 229.091314409592
1691 229.08051784837
1692 229.0880592438563
1693 229.0790204053617
1694 229.0872329599515
1695 229.0770269290229
1696 229.0841574792877
1697 229.0745869755177
1698 229.0828916457565
1699 229.0744277366495
1700 229.0837569251432
1701 229.0761207370417
1702 229.0848666869062
1703 229.0768749302623
1704 229.08605926025
1705 229.0773992047598
1706 229.0876825676107
1707 229.0786361307053
1708 229.0875165716487
1709 229.0797897071515
1710 229.0895571129786
1711 229.0799862240666
1712 229.0900261506264
1713 229.081483050024
1714 229.0903828957101
1715 229.0810868821235
1716 229.0905886585502
1717 229.0821175019517
1718 229.0913412141859
1719 229.0823937999116
1720 229.0906650066903
1721 229.0818090724682
1722 229.0925352287745
1723 229.0830623796904
1724 229.0920055776425
1725 229.0843188869525
1726 229.092870909277
1727 229.0841126715896
1728 229.0929116512275
1729 229.0839285936769
1730 229.0935372506994
1731 229.0831214704709
1732 229.09147518995
1733 229.081933217106
1734 229.0921092931579
1735 229.0817424791983
1736 229.0909583420869
1737 229.0825096043986
1738 229.0911522974526
1739 229.0806983021701
1740 229.0896140616076
1741 229.0806916566653
1742 229.0890316223973
1743 229.0799570010248
1744 229.0877602740247
1745 229.0798769807261
1746 229.0898095752457
1747 229.0803407220287
1748 229.0898294960742
1749 229.08323210613
1750 229.0917885534012
1751 229.082732003349
1752 229.0908148670286
1753 229.0839003324751
1754 229.0927373848404
1755 229.0834914471722
1756 229.091576741385
1757 229.0834595019662
1758 229.0930227582975
1759 229.0831406814704
1760 229.0925071868377
1761 229.0839605547369
1762 229.0923464830875
1763 229.0820086101232
1764 229.0905836945253
1765 229.0811289838272
1766 229.0892528424559
1767 229.0794058056379
1768 229.0863120038251
1769 229.077729312602
1770 229.086855848898
1771 229.0755435803691
1772 229.084033862178
1773 229.0755681463426
1774 229.0835122532032
1775 229.074927739376
1776 229.083292201709
1777 229.0754279083157
1778 229.0845200910787
1779 229.0757666721488
1780 229.0837827234478
1781 229.0764752071835
1782 229.086043667504
1783 229.0789111416076
1784 229.0886706885376
1785 229.0817156682539
1786 229.0901502008658
1787 229.0825449237194
1788 229.0918019698038
1789 229.0835211933484
1790 229.0934129075021
1791 229.0846952325055
1792 229.0927951186885
1793 229.0850758479623
1794 229.0945922476825
1795 229.0849630717427
1796 229.0943941803577
1797 229.0867914420496
1798 229.0948501879345
1799 229.0839481057892
1800 229.0932395539076
1801 229.0816089924495
1802 229.0914907765579
1803 229.0793356321484
1804 229.0878240039286
1805 229.0783269826309
1806 229.0879116008563
1807 229.0769704193195
1808 229.0878486401878
1809 229.0780193898666
1810 229.0881657268314
1811 229.0777972322806
1812 229.0874191276004
1813 229.0777784727842
1814 229.0875839478252
1815 229.0779158679779
1816 229.0866902834032
1817 229.0786768934432
1818 229.0886631670749
1819 229.0791249856439
1820 229.0883564494309
1821 229.0808598765199
1822 229.089467286784
1823 229.0809118325484
1824 229.089703727518
1825 229.080988820455
1826 229.0907976564558
1827 229.0817283215494
1828 229.0905862590075
1829 229.0812965518952
1830 229.0915653665898
1831 229.0820975166117
1832 229.0913813773074
1833 229.0835513245483
1834 229.0918636124916
1835 229.0816666915703
1836 229.0904767497102
1837 229.0812678505329
1838 229.0905268347436
1839 229.0810716374062
1840 229.0886109170528
1841 229.0807885833737
1842 229.0900132058452
1843 229.0798526815481
1844 229.0885937191778
1845 229.0799447965847
1846 229.0881331774547
1847 229.079345968304
1848 229.0882397566943
1849 229.0793695401677
1850 229.0883597217868
1851 229.078672730343
1852 229.0867772885561
1853 229.0792302073283
1854 229.0893200861035
1855 229.0804001838234
1856 229.0904225696673
1857 229.0827703981612
1858 229.0914869078455
1859 229.08228861114
1860 229.0896563980421
1861 229.0819367761882
1862 229.0904886556547
1863 229.0816935038212
1864 229.089289623749
1865 229.0813690404056
1866 229.0901461457898
1867 229.0804232697816
1868 229.0898054389341
1869 229.0816995020564
1870 229.0889720833349
1871 229.0796952607424
1872 229.0874907068749
1873 229.0788341827493
1874 229.0870926775961
1875 229.076973588239
1876 229.0844726674528
1877 229.0757205430276
1878 229.0852007622216
1879 229.0753292032607
1880 229.0847500126016
1881 229.0766257518771
1882 229.0851233584952
1883 229.0762602886378
1884 229.0847049421404
1885 229.0760428439668
1886 229.0844013997443
1887 229.0759902407335
1888 229.0837101685137
1889 229.0764038222045
1890 229.0858126821113
1891 229.0768250833511
1892 229.0862166808106
1893 229.0789933752757
1894 229.0874369073889
1895 229.0779998374196
1896 229.087053301787
1897 229.0782372261041
1898 229.0880496858086
1899 229.0779044796035
1900 229.0866639076342
1901 229.0781435300262
1902 229.0872355677661
1903 229.0765507690184
1904 229.0864294718005
1905 229.076756787991
1906 229.0860359132359
1907 229.0760483849641
1908 229.0850528972877
1909 229.076194215778
1910 229.0854785063341
1911 229.076013248505
1912 229.0845497950432
1913 229.0760829205961
1914 229.0857223934319
1915 229.0759991647747
1916 229.086101194184
1917 229.0787484153429
1918 229.0872666978551
1919 229.0778580686607
1920 229.0873386383394
1921 229.0787010614503
1922 229.0890862892565
1923 229.0803727736087
1924 229.0896749346333
1925 229.0810308124663
1926 229.0911427081455
1927 229.0821558571631
1928 229.0923073696498
1929 229.0843390382535
1930 229.0931701931055
1931 229.0836243744845
1932 229.0921680342847
1933 229.0838843592047
1934 229.09229057166
1935 229.0828895966238
1936 229.0902874954316
1937 229.0826050739522
1938 229.0913217571092
1939 229.0813777483932
1940 229.0891566421296
1941 229.0814131426945
1942 229.0879616717343
1943 229.0785282742211
1944 229.0861731092052
1945 229.0763417098425
1946 229.0854315820097
1947 229.0746814339087
1948 229.0831928666501
1949 229.0744468950634
1950 229.0841284976752
1951 229.0748068772829
1952 229.0845076134935
1953 229.0761610431622
1954 229.0858739806552
1955 229.0768093123037
1956 229.0869599219745
1957 229.0788461376875
1958 229.0888813502324
1959 229.0797157192353
1960 229.0890960052567
1961 229.0814022785632
1962 229.0920194089303
1963 229.0829943225558
1964 229.0940500863796
1965 229.0858737008267
1966 229.0945819524057
1967 229.0861383751019
1968 229.0938514225964
1969 229.0862346398616
1970 229.0952075550462
1971 229.0864761277737
1972 229.093826925301
1973 229.0846865687617
1974 229.0925681786305
1975 229.0819287510196
1976 229.0888865433652
1977 229.0806974021936
1978 229.0869480176104
1979 229.0770984602447
1980 229.0834556602761
1981 229.0742976035642
1982 229.081120386343
1983 229.0717749748301
1984 229.0795797706727
1985 229.0718377315187
1986 229.0806958400133
1987 229.0713796001042
1988 229.0811125271774
1989 229.0738997678748
1990 229.0832404591528
1991 229.0746563244149
1992 229.0851298009175
1993 229.0767540466029
1994 229.0873410624348
1995 229.0781451275777
1996 229.0873891274339
1997 229.0788342545668
1998 229.0897391346067
1999 229.0806781962067
2000 229.091271140021
2001 229.0832792089413
2002 229.0928152701662
2003 229.0837852698024
2004 229.0936411270422
2005 229.0831663002
2006 229.0925820560648
2007 229.0820656061377
2008 229.0910630416761
2009 229.0809367941349
2010 229.0905023974764
2011 229.0799186840818
2012 229.0889673560575
2013 229.0799973423705
2014 229.0879368487249
2015 229.0775398790069
2016 229.0858979965642
2017 229.0762000270869
2018 229.0845444018845
2019 229.073545344942
2020 229.082332014554
2021 229.0714169548498
2022 229.0808652028345
2023 229.0711692867748
2024 229.0818039564407
2025 229.0733956557592
2026 229.0831671596057
2027 229.0745861125479
2028 229.0846469567213
2029 229.0769412646146
2030 229.0868426694133
2031 229.0780977005876
2032 229.0871514532912
2033 229.0789363673734
2034 229.0896868053054
2035 229.0799572112801
2036 229.0906659646963
2037 229.0825787851662
2038 229.0912582430411
2039 229.0824574400825
2040 229.091643795948
2041 229.0838927597828
2042 229.0930348748962
2043 229.0838585757177
2044 229.0918567524663
2045 229.0823513427214
2046 229.0909592615643
2047 229.0811036343056
2048 229.0897667361294
2049 229.0819885759898
2050 229.0901740377101
2051 229.0802105168586
2052 229.0880840532512
2053 229.0786050272893
2054 229.0873030917809
2055 229.07731986522
2056 229.0840419290098
2057 229.0761419394111
2058 229.0854588711425
2059 229.0754946552082
2060 229.0854349102149
2061 229.0779464736175
2062 229.0857865180263
2063 229.0772301280433
2064 229.0854051305826
2065 229.0767692057273
2066 229.0859556118847
2067 229.0774510950963
2068 229.0864560556317
2069 229.0783585536853
2070 229.0887996169012
2071 229.0800111277068
2072 229.0897582452435
2073 229.0823633619686
2074 229.0904486979953
2075 229.0821858395313
2076 229.0902321771679
2077 229.0832823109236
2078 229.0910773605508
2079 229.0828517248021
2080 229.0901454545891
2081 229.0819892885957
2082 229.0906509263952
2083 229.0802284433868
2084 229.0897729695838
2085 229.0802128081877
2086 229.0883742583144
2087 229.0781147831599
2088 229.0870843753528
2089 229.0761490531015
2090 229.0862907411043
2091 229.0746916276471
2092 229.0832661698856
2093 229.0727178914858
2094 229.0838125441416
2095 229.0741254231178
2096 229.0841463598521
2097 229.0754194601448
2098 229.0852354459905
2099 229.0756114200621
2100 229.0850091223636
2101 229.0768801689725
2102 229.0863796953608
2103 229.0779655503531
2104 229.0867574580356
2105 229.0779751850075
2106 229.0891265346622
2107 229.0802280747403
2108 229.091023615463
2109 229.0833638244832
2110 229.0915830384483
2111 229.0837557496426
2112 229.0926696247754
2113 229.0841778482311
2114 229.0947779537036
2115 229.0851495215427
2116 229.0932202196021
2117 229.0838481658211
2118 229.093608895452
2119 229.083170572704
2120 229.0928867596225
2121 229.0828460145786
2122 229.0914859570666
2123 229.0817931650459
2124 229.0910802102908
2125 229.0810865264426
2126 229.0892388610026
2127 229.0793229297022
2128 229.0873524130734
2129 229.079025334534
2130 229.0886239448744
2131 229.0794635779638
2132 229.088900922751
2133 229.0800044098033
2134 229.0885976095236
2135 229.0796044223632
2136 229.0887340243905
2137 229.08000003442
2138 229.0896065623929
2139 229.0797522723337
2140 229.0886007782596
2141 229.0797697681538
2142 229.0893381106251
2143 229.0795352583513
2144 229.0894126996092
2145 229.0820137030788
2146 229.0908907038978
2147 229.0820549431238
2148 229.0905925458964
2149 229.0819024925944
2150 229.0909014135484
2151 229.0809701270842
2152 229.0874807138221
2153 229.0790767267216
2154 229.0881284221513
2155 229.0790252386628
2156 229.0873025171372
2157 229.0794501083085
2158 229.0872209127814
2159 229.0790200113027
2160 229.0865482295142
2161 229.0792656685919
2162 229.0871843559721
2163 229.0779589042208
2164 229.0854585250652
2165 229.0770696247905
2166 229.0867786778119
2167 229.0774741510925
2168 229.0869292846874
2169 229.0792183387047
2170 229.0882266794051
2171 229.0796657365578
2172 229.0877255563849
2173 229.0800298630393
2174 229.0889197857498
2175 229.0801049689021
2176 229.0879109135254
2177 229.0796387989635
2178 229.0888140357283
2179 229.07924874777
2180 229.089034445329
2181 229.0818365112405
2182 229.0904486128601
2183 229.0811355000416
2184 229.0906098560634
2185 229.0807356404093
2186 229.0906351609197
2187 229.0802737249499
2188 229.0885695004159
2189 229.0784833626112
2190 229.0887673784651
2191 229.0778680842126
2192 229.0870286692619
2193 229.0771948048572
2194 229.0864387209791
2195 229.0757155446547
2196 229.0851123277612
2197 229.0763166425132
2198 229.0865206203129
2199 229.0760346791778
2200 229.0851264031288
2201 229.0764660837007
2202 229.0875268157102
2203 229.0778519951802
2204 229.0893572032059
2205 229.0811442961374
2206 229.090537634241
2207 229.0812970006432
2208 229.0912934735285
2209 229.0827052170129
2210 229.0932794769908
2211 229.0836293869602
2212 229.0920966827148
2213 229.0838428417281
2214 229.0944165996491
2215 229.0838525041725
2216 229.0945946615435
2217 229.0862200127741
2218 229.0952603489021
2219 229.0850063545604
2220 229.093795713148
2221 229.0846710628102
2222 229.0938976483414
2223 229.0851206569835
2224 229.0933952636143
2225 229.0844806057179
2226 229.0933522606706
2227 229.0836310298278
2228 229.092772371014
2229 229.0841037980579
2230 229.0915958303349
2231 229.0816531608143
2232 229.0890238007988
2233 229.0796181250374
2234 229.0877099148412
2235 229.0770581458674
2236 229.0848557438687
2237 229.0765411030004
2238 229.0848572638267
2239 229.0762039359264
2240 229.0850000214118
2241 229.0776547648981
2242 229.0860272746989
2243 229.0774791792842
2244 229.0867964744414
2245 229.0798116521941
2246 229.0888685273153
2247 229.0809807823847
2248 229.0895675730866
2249 229.0817620078355
2250 229.0923299046764
2251 229.0825784366448
2252 229.0923410816236
2253 229.0842781403397
2254 229.093051272691
2255 229.0842444000144
2256 229.0928160534166
2257 229.0843043671138
2258 229.0948362441173
2259 229.0851819002768
2260 229.0927096750424
2261 229.0838137826899
2262 229.0931635037384
2263 229.0825762494729
2264 229.0915258996819
2265 229.0820468274347
2266 229.0899130357278
2267 229.0806483489033
2268 229.0887080102033
2269 229.0795308845875
2270 229.0877717881419
2271 229.0791233557264
2272 229.086282451399
2273 229.0785795318897
2274 229.087533663728
2275 229.0786704995509
2276 229.0880894267984
2277 229.0803068890926
2278 229.0885380572985
2279 229.0804230313452
2280 229.0896398654835
2281 229.0817243424378
2282 229.0909637473603
2283 229.0810914718857
2284 229.0907432983215
2285 229.0826217577913
2286 229.0916517956546
2287 229.0835801361003
2288 229.0931703893889
2289 229.085967538035
2290 229.0942117865931
2291 229.0841413090629
2292 229.0922428227262
2293 229.0822779297228
2294 229.0911331217894
2295 229.0809855089197
2296 229.0877637023697
2297 229.0784445142332
2298 229.0875482701545
2299 229.0765497734865
2300 229.0860990364977
2301 229.0767307749346
2302 229.0852374381993
2303 229.0756601484967
2304 229.0849245091908
2305 229.0751862513775
2306 229.0855695742205
2307 229.0742421287661
2308 229.0832844315084
2309 229.0731510364663
2310 229.0837944753257
2311 229.0735479011674
2312 229.0848060944096
2313 229.0775540755766
2314 229.0874323393354
2315 229.0794709657271
2316 229.0888503639131
2317 229.0820047637759
2318 229.0911241483543
2319 229.0831801980281
2320 229.0919336172224
2321 229.0849620424666
2322 229.0952362572996
2323 229.0862356161339
2324 229.0958189307036
2325 229.0884052860341
2326 229.0953487361397
2327 229.0866316669939
2328 229.0946238562652
2329 229.0861774647793
2330 229.0947125184865
2331 229.0837945652934
2332 229.0910065451767
2333 229.0818000709575
2334 229.0903129044662
2335 229.0794603536188
2336 229.0880115902727
2337 229.0802309411014
2338 229.0878595508177
2339 229.077868771245
2340 229.0857277803285
2341 229.0768410850357
2342 229.085069908643
2343 229.0762303891903
2344 229.083443151035
2345 229.0757656503904
2346 229.084967649419
2347 229.0766432770811
2348 229.0864842578354
2349 229.0784608120593
2350 229.0866672844248
2351 229.0775732962295
2352 229.0859602214531
2353 229.0772205110789
2354 229.0871407416501
2355 229.0779425009312
2356 229.0858769594568
2357 229.0774933882456
2358 229.0871595579476
2359 229.0778743469979
2360 229.0881625584622
2361 229.0792385913053
2362 229.0886856241044
2363 229.079661450114
2364 229.0888391846075
2365 229.0805530165985
2366 229.0902951885722
2367 229.081136673423
2368 229.088774995625
2369 229.0810425568239
2370 229.0905589124296
2371 229.0816085251639
2372 229.0906074624952
2373 229.083137007959
2374 229.0910491181881
2375 229.0819367894599
2376 229.0895715205395
2377 229.0808232376752
2378 229.089922069693
2379 229.0786428087281
2380 229.0867999383223
2381 229.0783632084258
2382 229.0866594459676
2383 229.0764743409091
2384 229.0863324658569
2385 229.0785304231078
2386 229.0870094367191
2387 229.078038585719
2388 229.0874745566239
2389 229.0787929674789
2390 229.0893214417555
2391 229.0792461919993
2392 229.0888197171031
2393 229.0803356197378
2394 229.0911259446351
2395 229.0817496274958
2396 229.0921768848724
2397 229.0835701494489
2398 229.0924175993363
2399 229.0834033270247
2400 229.092336854057
2401 229.0827647723479
2402 229.0924321377486
2403 229.0827891958307
2404 229.0910050094263
2405 229.0807833483047
2406 229.0900848922683
2407 229.0795230323737
2408 229.0886263427508
2409 229.0791642587512
2410 229.087327530378
2411 229.0768706026677
2412 229.0850763293726
2413 229.0766398855391
2414 229.085116585506
2415 229.0763301573429
2416 229.0839988415067
2417 229.0770985823959
2418 229.0873956029022
2419 229.078983952748
2420 229.0874594268014
2421 229.0808521949196
2422 229.0881175380081
2423 229.0809819823322
2424 229.0894352747783
2425 229.0810180254132
2426 229.0898398169614
2427 229.0806921113588
2428 229.0896412995953
2429 229.0822226073214
2430 229.091419100474
2431 229.0835498554982
2432 229.0932575769614
2433 229.0862683004515
2434 229.0943568989624
2435 229.0852432119561
2436 229.0933660606847
2437 229.0850854851682
2438 229.0936454408579
2439 229.0837435804695
2440 229.0912150613325
2441 229.0828652459111
2442 229.0918282992125
2443 229.081415074722
2444 229.0902372866364
2445 229.0822207563364
2446 229.0899366779526
2447 229.0804311378249
2448 229.0883117392566
2449 229.0791017534198
2450 229.0878569414344
2451 229.0782784150779
2452 229.0859498501176
2453 229.0771526038581
2454 229.0864481719885
2455 229.0771683799564
2456 229.0861958030977
2457 229.0781993264621
2458 229.0868933779813
2459 229.0781384525324
2460 229.0868605144822
2461 229.0786196456564
2462 229.087533362729
2463 229.0788867949568
2464 229.0867670239492
2465 229.0782151216824
2466 229.0883394212553
2467 229.0789663114405
2468 229.0884482264795
2469 229.0808438922739
2470 229.0896451301261
2471 229.080851284577
2472 229.0887714452072
2473 229.0798320717446
2474 229.0883186580359
2475 229.0779644033001
2476 229.086346643732
2477 229.0772980290884
2478 229.0872429902733
2479 229.0773498321009
2480 229.086964192299
2481 229.0786663086501
2482 229.0869602080237
2483 229.0770572379595
2484 229.086841028183
2485 229.0781775911034
2486 229.0880106915704
2487 229.0795648055774
2488 229.0886829409973
2489 229.0811433423044
2490 229.0918939225033
2491 229.0828569731086
2492 229.0932709806354
2493 229.0845475147503
2494 229.0935215762631
2495 229.0850310617963
2496 229.0945209368857
2497 229.0866972450423
2498 229.0965437940433
2499 229.0870961497592
2500 229.0959568945534
2501 229.0866543134258
2502 229.0957060868712
2503 229.0858974328102
2504 229.0966027965756
2505 229.0876609341569
2506 229.0966730735741
2507 229.0872396165105
2508 229.0954730115477
2509 229.085819899683
2510 229.0943273000664
2511 229.0829280825002
2512 229.0898516637569
2513 229.0807263826769
2514 229.0900669637459
2515 229.0794853121244
2516 229.087999924521
2517 229.0794989730393
2518 229.0871911488805
2519 229.0779137916428
2520 229.0854511489738
2521 229.075763906386
2522 229.0852415378353
2523 229.0755988638296
2524 229.083860971283
2525 229.0752839405877
2526 229.0843500759032
2527 229.0760322653342
2528 229.0860376039625
2529 229.0793254639727
2530 229.087845252864
2531 229.0809631519107
2532 229.0896307809693
2533 229.0827422945862
2534 229.0922215338231
2535 229.0852005973564
2536 229.0928722954247
2537 229.0852017167495
2538 229.0951644890696
2539 229.0861231016434
2540 229.0953093435218
2541 229.0876589018166
2542 229.0955587599668
2543 229.0853453630969
2544 229.0947528348143
2545 229.0858580099224
2546 229.0952955121848
2547 229.0850296807628
2548 229.0931721706434
2549 229.0833906101808
2550 229.093331273484
2551 229.0821439311636
2552 229.0911685287828
2553 229.0810949362462
2554 229.089858024074
2555 229.0793668163846
2556 229.0882447753274
2557 229.0786050380379
2558 229.0872333084962
2559 229.0781203282736
2560 229.0856996578067
2561 229.0769254144237
2562 229.0861822505227
2563 229.076932388014
2564 229.0871217100049
2565 229.0787689548097
2566 229.087250408201
2567 229.0789902302821
2568 229.088522582531
2569 229.0800596607636
2570 229.090362307738
2571 229.0806064844142
2572 229.0896131639485
2573 229.081518350471
2574 229.0915222437548
2575 229.0823153625524
2576 229.0919237538474
2577 229.084158429927
2578 229.0925860890868
2579 229.0821291712032
2580 229.0907933732101
2581 229.0799274134834
2582 229.088553546928
2583 229.0778868775067
2584 229.0854531562975
2585 229.0749432095968
2586 229.083821602031
2587 229.0742390957704
2588 229.0837676689119
2589 229.0754977630393
2590 229.0834689000207
2591 229.0747763623818
2592 229.0831417223145
2593 229.0744159227646
2594 229.084325064482
2595 229.0748994632698
2596 229.0837075481796
2597 229.0755719779116
2598 229.0858972013444
2599 229.0767103372895
2600 229.0868248817843
2601 229.0792227416535
2602 229.0885926602405
2603 229.0800508309831
2604 229.0899868812417
2605 229.0824495978132
2606 229.0924498378349
2607 229.0840083709329
2608 229.0930511325656
2609 229.0861731027249
2610 229.0961880924632
2611 229.0867024688767
2612 229.0952299016812
2613 229.0875776568743
2614 229.0957368382873
2615 229.0864269836838
2616 229.0943458484813
2617 229.085757721873
2618 229.0943602741907
2619 229.0833208756372
2620 229.090192113267
2621 229.0797361437418
2622 229.0885528118597
2623 229.0777441293417
2624 229.0869278943514
2625 229.0775093359981
2626 229.0855720378873
2627 229.0759480956756
2628 229.0844692085895
2629 229.0758718502939
2630 229.0847650392294
2631 229.0758517350984
2632 229.0837571067229
2633 229.0764190095296
2634 229.0869777353166
2635 229.0778271144751
2636 229.0875709679367
2637 229.0804118396719
2638 229.0875364686145
2639 229.0797201905953
2640 229.0881205108445
2641 229.0792334362836
2642 229.0880355013012
2643 229.0791335846395
2644 229.0873052867798
2645 229.0797480725482
2646 229.0888293390194
2647 229.0807487466058
2648 229.0908947107997
2649 229.083148905754
2650 229.0917371068199
2651 229.0830143295765
2652 229.0907496496233
2653 229.0831640490673
2654 229.0912216717066
2655 229.0815287199847
2656 229.0870160591226
2657 229.0786162214405
2658 229.0871487186756
2659 229.0770389056588
2660 229.0860365015633
2661 229.0770593292714
2662 229.08510925347
2663 229.0759198637726
2664 229.0846575420389
2665 229.0763660274506
2666 229.0857815467422
2667 229.0756786417153
2668 229.0845117834064
2669 229.0752622981937
2670 229.0856378906733
2671 229.0759879673354
2672 229.0862037818461
2673 229.078631488545
2674 229.088053566694
2675 229.0790344843078
2676 229.0879587340515
2677 229.0801560517729
2678 229.0900506707967
2679 229.0806920008812
2680 229.0885205545655
2681 229.0799461552365
2682 229.0892839132985
2683 229.0791055012042
2684 229.0884576193077
2685 229.0799138578086
2686 229.0879407827254
2687 229.0788012178428
2688 229.0875102142265
2689 229.0790240171647
2690 229.0887656674923
2691 229.0782937868068
2692 229.086245128089
2693 229.0783730982388
2694 229.0874804791842
2695 229.0783399204117
2696 229.0884594197031
2697 229.0805125241194
2698 229.0896137414168
2699 229.0806650314782
2700 229.0893475900175
2701 229.0809486103981
2702 229.0901208758915
2703 229.0815001332832
2704 229.0898288860508
2705 229.0820071254722
2706 229.0916999561478
2707 229.0820805281132
2708 229.0918945058889
2709 229.0841966150025
2710 229.0931784964907
2711 229.0830623029489
2712 229.0914689211929
2713 229.0814394791469
2714 229.0910985177956
2715 229.0802854430866
2716 229.0890708575901
2717 229.0797858848254
2718 229.0897023517632
2719 229.0790141225757
2720 229.0892622145181
2721 229.0804669920153
2722 229.0889613415969
2723 229.0803182199985
2724 229.0893032437054
2725 229.078449536393
2726 229.0874545518734
2727 229.0766910967837
2728 229.0846296529715
2729 229.0752563282107
2730 229.0847918386426
2731 229.0747870290083
2732 229.082873393564
2733 229.0747677017306
2734 229.0829364201845
2735 229.0730667624419
2736 229.0819791530393
2737 229.0726795309522
2738 229.082450290203
2739 229.0722824445773
2740 229.0807415909598
2741 229.0730857684336
2742 229.0833239690579
2743 229.0752638967108
2744 229.0864462628528
2745 229.0792114676836
2746 229.0895578951118
2747 229.0799765479933
2748 229.0892526238446
2749 229.081524164784
2750 229.0903398292036
2751 229.0818035653765
2752 229.0895430550329
2753 229.0817232372222
2754 229.0916051649981
2755 229.0811452517915
2756 229.0906486257727
2757 229.0817430772599
2758 229.0892862033492
2759 229.0789828132849
2760 229.0875344647402
2761 229.0773099658086
2762 229.0868844781083
2763 229.0761031378423
2764 229.0849620510904
2765 229.0753092452063
2766 229.0852023720174
2767 229.0752148909228
2768 229.0848892072384
2769 229.0748055608292
2770 229.084193300428
2771 229.0739304703214
2772 229.0833285680934
2773 229.0749271508788
2774 229.0843416384611
2775 229.0754751863697
2776 229.0835831676724
2777 229.0765129422289
2778 229.0871328436264
2779 229.0784704534207
2780 229.0885950315115
2781 229.0818449334596
2782 229.090562203851
2783 229.0830717277308
2784 229.091900773598
2785 229.0845727412991
2786 229.0936260039261
2787 229.0851232481496
2788 229.0930233842534
2789 229.0857939283973
2790 229.0944878820422
2791 229.0849412848988
2792 229.0936110747355
2793 229.0852466047985
2794 229.0929175085861
2795 229.0829610554446
2796 229.0906544015249
2797 229.0818919536932
2798 229.0889538609694
2799 229.0792984068032
2800 229.0866408034148
2801 229.0783040941841
2802 229.0866396784254
2803 229.077464689058
2804 229.0869629160781
2805 229.0788034066159
2806 229.0870697115613
2807 229.0781589310082
2808 229.0873059584333
2809 229.0785313843397
2810 229.0885244995535
2811 229.0782331200388
2812 229.0872288531185
2813 229.0782965014864
2814 229.0895988651843
2815 229.0799078074766
2816 229.0908099317039
2817 229.0826431361579
2818 229.0929652312293
2819 229.083782585817
2820 229.0937918436549
2821 229.0862441788964
2822 229.0962767633041
2823 229.0870378567612
2824 229.0967175890937
2825 229.0886099355334
2826 229.0981251989409
2827 229.087927385266
2828 229.0970141818326
2829 229.0882237093871
2830 229.0948573399522
2831 229.0855190781465
2832 229.0926664646316
2833 229.083236835873
2834 229.0916697089587
2835 229.0806729794917
2836 229.087656724887
2837 229.078260956191
2838 229.0867071327646
2839 229.0767821375637
2840 229.085828944129
2841 229.0762706885093
2842 229.0846485185895
2843 229.0744723597709
2844 229.0833446263204
2845 229.0743788615481
2846 229.0831381263639
2847 229.0746565370037
2848 229.0824542416501
2849 229.075177490184
2850 229.085640006158
2851 229.0765392805307
2852 229.0872862015094
2853 229.0803191364882
2854 229.089445219509
2855 229.080333757141
2856 229.089354342825
2857 229.0816492032686
2858 229.0917667624691
2859 229.0829974626937
2860 229.0916729991088
2861 229.0830765318616
2862 229.0925723152406
2863 229.0832999893087
2864 229.0928398383523
2865 229.0848795459546
2866 229.0934666968858
2867 229.0842808112499
2868 229.0921151781933
2869 229.0828499467223
2870 229.0909893831611
2871 229.080579150253
2872 229.0873226831907
2873 229.0782215927848
2874 229.087602406232
2875 229.0771755234466
2876 229.0859102677675
2877 229.0779618483014
2878 229.0860702459757
2879 229.0765394246529
2880 229.0852604365424
2881 229.0766142373684
2882 229.0864220465139
2883 229.0775398366483
2884 229.0864497000309
2885 229.0777416820014
2886 229.0878195998391
2887 229.0791430185562
2888 229.0904832210984
2889 229.0809753905785
2890 229.0913257861992
2891 229.0813090685072
2892 229.0922592425256
2893 229.0836565093841
2894 229.0943166017205
2895 229.085309601232
2896 229.0944218652459
2897 229.0862458738203
2898 229.0966802649511
2899 229.08601757107
2900 229.0962112624235
2901 229.0869997530025
2902 229.0951429785921
2903 229.0853726619274
2904 229.0945721421469
2905 229.0848221480833
2906 229.0938102579427
2907 229.0834287545963
2908 229.0909141015378
2909 229.0822620812594
2910 229.0897959629202
2911 229.0807379372843
2912 229.0883312182794
2913 229.081825514956
2914 229.0893273451958
2915 229.0812233950651
2916 229.0876046057292
2917 229.0806277260018
2918 229.0883829573172
2919 229.0806731175904
2920 229.0878379383973
2921 229.0808808930748
2922 229.0896385874976
2923 229.081911144687
2924 229.0914362865122
2925 229.0850835452734
2926 229.0926587284054
2927 229.0851920097436
2928 229.0933388686861
2929 229.0847051299585
2930 229.0937501962109
2931 229.0840509421487
2932 229.0920919586153
2933 229.0829304198385
2934 229.0926114899002
2935 229.0821647604608
2936 229.0911333639483
2937 229.082771517762
2938 229.091651598909
2939 229.0818631844768
2940 229.0900811802568
2941 229.0797593812352
2942 229.0884701759543
2943 229.0788904872223
2944 229.0870305863774
2945 229.0769766026507
2946 229.0870515522513
2947 229.0768868071712
2948 229.0873803586076
2949 229.0778122559477
2950 229.0875038518413
2951 229.0786306920766
2952 229.087181008167
2953 229.0781100439574
2954 229.0894440683566
2955 229.0787247885465
2956 229.0888304579339
2957 229.0798717226201
2958 229.0904440979852
2959 229.081326424106
2960 229.0921356579319
2961 229.0834980592258
2962 229.0930292824559
2963 229.0833441404403
2964 229.0920316852144
2965 229.0843276696181
2966 229.0931383154939
2967 229.0845062252713
2968 229.0922549376918
2969 229.0842277893245
2970 229.0933690127094
2971 229.0844768016151
2972 229.0929658798198
2973 229.084994948017
2974 229.0927936727533
2975 229.0841357714653
2976 229.0912627749614
2977 229.0829016648436
2978 229.0916162219483
2979 229.0826190961698
2980 229.0897672347636
2981 229.081155742681
2982 229.0891848457868
2983 229.0811066018122
2984 229.0896830420693
2985 229.0814706764193
2986 229.089339990434
2987 229.0804298677829
2988 229.0886326773802
2989 229.0794964128482
2990 229.0873348781941
2991 229.0795502197217
2992 229.0870994305062
2993 229.0792610531104
2994 229.0888166303486
2995 229.0790006534001
2996 229.0889790801727
2997 229.081851160509
2998 229.0909356032046
2999 229.0818460172155
3000 229.0920629319213
3001 229.0842979944051
3002 229.094989077765
3003 229.0843566331402
3004 229.0946636053406
3005 229.0842658235649
3006 229.0949676519959
3007 229.0844325196263
3008 229.094990591016
3009 229.086618768383
3010 229.0959081523531
3011 229.0853515809521
3012 229.0942131687083
3013 229.0848186399924
3014 229.0940734877568
3015 229.0831639820678
3016 229.090750225794
3017 229.0822347437511
3018 229.0908185500606
3019 229.081093523052
3020 229.0898279244502
3021 229.081945883155
3022 229.0894337100286
3023 229.0801316283928
3024 229.0890063620414
3025 229.0802368841894
3026 229.0896908678739
3027 229.0802632177543
3028 229.0892197468581
3029 229.0815110698582
3030 229.0911811870374
3031 229.0821036870979
3032 229.0920786865128
3033 229.0850938868941
3034 229.0943257276975
3035 229.0846020593306
3036 229.0930765934535
3037 229.0853688375969
3038 229.0943382540874
3039 229.0851656909041
3040 229.0930471462071
3041 229.0843991346431
3042 229.0934315433485
3043 229.0828228182628
3044 229.0923097587146
3045 229.0826440800991
3046 229.0896602758284
3047 229.0801047934784
3048 229.0877342376095
3049 229.0785338829573
3050 229.0868601257474
3051 229.0771405515711
3052 229.0841634363916
3053 229.0757773790555
3054 229.0838321037944
3055 229.0748519715911
3056 229.0836572208141
3057 229.0765784566949
3058 229.0851134252399
3059 229.0769038700547
3060 229.0857168126927
3061 229.0775534667634
3062 229.0871094338113
3063 229.0793382852354
3064 229.0882762658686
3065 229.0812091016858
3066 229.0914206604738
3067 229.0835629517437
3068 229.0935957037355
3069 229.0867663754517
3070 229.0961092407647
3071 229.0878765720682
3072 229.0964012607894
3073 229.0879056357186
3074 229.097494117418
3075 229.0872850568248
3076 229.0959335158658
3077 229.0869696560042
3078 229.0964595885347
3079 229.0862736035684
3080 229.0954368906661
3081 229.0866623431318
3082 229.095145156127
3083 229.0846163546097
3084 229.093318177034
3085 229.0843117645695
3086 229.0922284061609
3087 229.0825078997052
3088 229.0894554594723
3089 229.0805894435142
3090 229.0902713017819
3091 229.0805946190231
3092 229.0895844737055
3093 229.0805960119619
3094 229.0888100692116
3095 229.0799777903447
3096 229.0879943000502
3097 229.0791617659083
3098 229.0887679034824
3099 229.0786802813946
3100 229.0865406271245
3101 229.077610120517
3102 229.0871712547918
3103 229.0778593939468
3104 229.0877178645542
3105 229.0802761165209
3106 229.0898233563785
3107 229.0818056003613
3108 229.0911027904176
3109 229.0816144484656
3110 229.0913946192364
3111 229.0823563097696
3112 229.0905944407319
3113 229.0826251949692
3114 229.0934243730362
3115 229.0839496931126
3116 229.094461577161
3117 229.08651004313
3118 229.0952958261324
3119 229.0858097049805
3120 229.0946471013356
3121 229.0849363384612
3122 229.0947932703453
3123 229.0845369200566
3124 229.0923886276339
3125 229.0827556407133
3126 229.0912120802972
3127 229.0810459679407
3128 229.0896132117976
3129 229.0818235790693
3130 229.0889900287622
3131 229.079267095895
3132 229.0864060144365
3133 229.077968615712
3134 229.0864032591
3135 229.0771908382984
3136 229.0839925489486
3137 229.0773536896471
3138 229.0867728099952
3139 229.0773352385334
3140 229.0870148310804
3141 229.0797679511066
3142 229.0884887550237
3143 229.0795997963485
3144 229.0889450678858
3145 229.0797746218644
3146 229.0899901580029
3147 229.0804726282785
3148 229.0894172728459
3149 229.0807365335509
3150 229.090510830909
3151 229.0808554798808
3152 229.0907831712322
3153 229.0817065074268
3154 229.0905419786252
3155 229.079938059024
3156 229.0885974063769
3157 229.079352389344
3158 229.0873715946063
3159 229.077307250716
3160 229.0858012525475
3161 229.0768595621357
3162 229.0864405091915
3163 229.075543193993
3164 229.0851179703409
3165 229.0766703314658
3166 229.0853563896744
3167 229.0758687330807
3168 229.0850170206619
3169 229.0757942251124
3170 229.0857475539279
3171 229.0764601593186
3172 229.084982446458
3173 229.0779427713266
3174 229.0877497833592
3175 229.0782949657072
3176 229.0877164603811
3177 229.0810009120321
3178 229.0907291082714
3179 229.0815019352265
3180 229.0911362752697
3181 229.0842487797972
3182 229.0934988404614
3183 229.0853569678526
3184 229.0929129380246
3185 229.0860389802585
3186 229.0939186327783
3187 229.0852247082943
3188 229.0938193162073
3189 229.085654663093
3190 229.0928255510745
3191 229.0840297156564
3192 229.0900200239773
3193 229.0822138311748
3194 229.0897264847397
3195 229.0798054501483
3196 229.0864082462157
3197 229.0778133220272
3198 229.0862159275341
3199 229.0774467116834
3200 229.0865039843128
3201 229.079370502008
3202 229.0871264058894
3203 229.0785103612075
3204 229.0867790826515
3205 229.0787808401575
3206 229.0872982445265
3207 229.0786464669877
3208 229.0874547649578
3209 229.0797933700676
3210 229.0901600048341
3211 229.0807300943058
3212 229.0896238455779
3213 229.0833987809289
3214 229.0918163811195
3215 229.0830669176473
3216 229.0902861905778
3217 229.0824172656794
3218 229.0910233226167
3219 229.0799780798209
3220 229.0881747796822
3221 229.0780957210712
3222 229.0875518174689
3223 229.0779444972798
3224 229.0879804211312
3225 229.0782545141737
3226 229.0877618984934
3227 229.0776313526229
3228 229.0868290847603
3229 229.0775229689772
3230 229.0876644750857
3231 229.0783324624072
3232 229.0869314243767
3233 229.0781144341864
3234 229.0883603977288
3235 229.078093684614
3236 229.0883957351803
3237 229.0797936914046
3238 229.0897885223152
3239 229.0802189281113
3240 229.0887420383315
3241 229.0807820770834
3242 229.0903101007047
3243 229.0804323339561
3244 229.0890788899078
3245 229.080307407771
3246 229.0901331076023
3247 229.0804743873858
3248 229.0902119607709
3249 229.0815889545265
3250 229.0904493826953
3251 229.0811365127153
3252 229.0891381081225
3253 229.0812208444238
3254 229.0888563631276
3255 229.0790468344348
3256 229.0864711161059
3257 229.0786758961753
3258 229.088361324362
3259 229.0788106030103
3260 229.0882638397852
3261 229.0801423449938
3262 229.0878353798689
3263 229.0789069878492
3264 229.0867177742381
3265 229.0781945470774
3266 229.0865794394445
3267 229.0765339938552
3268 229.0832413232397
3269 229.076189214624
3270 229.0849364930247
3271 229.0764934652171
3272 229.0846482113167
3273 229.0780207527877
3274 229.0862859293654
3275 229.077174136923
3276 229.0852621566951
3277 229.0772978931325
3278 229.0862759798635
3279 229.0774128517691
3280 229.0860022543915
3281 229.0789977407245
3282 229.0888181397075
3283 229.0797306643678
3284 229.0902490440641
3285 229.0822115376311
3286 229.0917550277294
3287 229.0828861175225
3288 229.0921892898722
3289 229.0838442968907
3290 229.0940030305875
3291 229.0833208926276
3292 229.0915343490212
3293 229.0820894185954
3294 229.0910042823151
3295 229.0813825781479
3296 229.0903184261766
3297 229.0814432428562
3298 229.0900404243236
3299 229.0807519528417
3300 229.0886234066596
3301 229.0799270428228
3302 229.0884367368942
3303 229.0790515278904
3304 229.0873360999933
3305 229.0789773115217
3306 229.0885374863515
3307 229.0786548094379
3308 229.0886621741818
3309 229.0802933234157
3310 229.0897605606158
3311 229.0805722705185
3312 229.0890218816777
3313 229.0804047234427
3314 229.090494971185
3315 229.0812133449776
3316 229.090251784167
3317 229.0814907434423
3318 229.0913394195277
3319 229.0809886098425
3320 229.0905210876062
3321 229.0814830456551
3322 229.0897777075289
3323 229.0803453459536
3324 229.0889549336596
3325 229.0795509256659
3326 229.0883299050554
3327 229.0787078076677
3328 229.0867499398234
3329 229.0783210300214
3330 229.0872763957116
3331 229.0774460161928
3332 229.0858592400961
3333 229.0778789296268
3334 229.0857606890021
3335 229.0755288125803
3336 229.0838172174247
3337 229.0747583926828
3338 229.0841593798554
3339 229.0742342488609
3340 229.0826223891051
3341 229.0730897402786
3342 229.0827471120511
3343 229.0732678167045
3344 229.0843241400482
3345 229.0756304643373
3346 229.0856107435897
3347 229.0772525675571
3348 229.08659614225
3349 229.0791399130752
3350 229.0881642607621
3351 229.0808184700111
3352 229.088941322532
3353 229.0824046238461
3354 229.0928464487158
3355 229.084352373412
3356 229.0934121438623
3357 229.0867630589812
3358 229.0943066667704
3359 229.0855398162585
3360 229.0934737074449
3361 229.0854374584685
3362 229.094316646337
3363 229.083881913318
3364 229.0914939823276
3365 229.0818635039414
3366 229.0904861581972
3367 229.0805438712266
3368 229.0888132723788
3369 229.0799421379332
3370 229.0879533373974
3371 229.0776945844462
3372 229.0859359899456
3373 229.0772691690835
3374 229.0862846448812
3375 229.0768783572356
3376 229.0841540200563
3377 229.0750501030971
3378 229.0837309126349
3379 229.0754618062826
3380 229.0841992961467
3381 229.0763870952759
3382 229.0844292026576
3383 229.0759588712947
3384 229.084812405075
3385 229.0756608887839
3386 229.0854032695458
3387 229.0763337291112
3388 229.085209191584
3389 229.0774236801781
3390 229.0876155351064
3391 229.0788641226488
3392 229.0888331841422
3393 229.0812347962764
3394 229.091188187793
3395 229.0814032627378
3396 229.0906636066507
3397 229.0826494419557
3398 229.0918805077983
3399 229.0823132410654
3400 229.0905245891815
3401 229.08239191803
3402 229.0925791694864
3403 229.0824937120711
3404 229.0916327907432
3405 229.0837685680886
3406 229.0921213235068
3407 229.0823248316077
3408 229.0902618881479
3409 229.0804056181849
3410 229.0890936299226
3411 229.0789203258971
3412 229.0867705986282
3413 229.0774926945123
3414 229.0864055852331
3415 229.0768351755322
3416 229.0854377358019
3417 229.0772502670385
3418 229.085445118709
3419 229.0754167845707
3420 229.0841228200329
3421 229.0753114903027
3422 229.0840856860302
3423 229.0749083531975
3424 229.0826790523072
3425 229.0745564459622
3426 229.0842348438309
3427 229.075222397537
3428 229.0848009919511
3429 229.0775023767937
3430 229.0864882330793
3431 229.0767023518714
3432 229.0858162594949
3433 229.0773594598861
3434 229.0872528541851
3435 229.0763182759936
3436 229.084979237626
3437 229.0749355880629
3438 229.0851661630296
3439 229.0737358042944
3440 229.0839477776828
3441 229.0746011667416
3442 229.0832605392121
3443 229.0728958828524
3444 229.0820137315209
3445 229.0732071546497
3446 229.0823365444837
3447 229.0725716147719
3448 229.0818828628021
3449 229.0730313867757
3450 229.0842772827349
3451 229.07414634385
3452 229.0845745858081
3453 229.0776154557398
3454 229.0871813216786
3455 229.0779964732055
3456 229.0873745630199
3457 229.0797632145951
3458 229.0897748418832
3459 229.0804366599672
3460 229.0891434315286
3461 229.0814012018148
3462 229.0910726622509
3463 229.0823524285532
3464 229.0926998861234
3465 229.0849247619504
3466 229.0940588968773
3467 229.0854130561004
3468 229.0942419521741
3469 229.0856540467759
3470 229.0945195861254
3471 229.0854832329303
3472 229.0924770744778
3473 229.085045833516
3474 229.09351633773
3475 229.0836308867118
3476 229.0920714143745
3477 229.0849904354796
3478 229.0921556528998
3479 229.08146951478
3480 229.0890359557118
3481 229.0802020272336
3482 229.0884897748788
3483 229.0779984477215
3484 229.0851578946669
3485 229.0766928431551
3486 229.0841655458526
3487 229.0756503632369
3488 229.0852439272124
3489 229.0776979555859
3490 229.0866384518214
3491 229.0772889739902
3492 229.0857809004272
3493 229.0774536653287
3494 229.0877505100207
3495 229.0784700756522
3496 229.0877000263623
3497 229.0796674294443
3498 229.0900340864916
3499 229.0802848612274
3500 229.0905872597581
3501 229.0827502930437
3502 229.0918159054085
3503 229.083006977973
3504 229.0921705462994
3505 229.0825234515042
3506 229.0927431556316
3507 229.082091681624
3508 229.0916907538929
3509 229.0814029670656
3510 229.0914830787271
3511 229.0813432341529
3512 229.090633091171
3513 229.0822842888325
3514 229.0899418771775
3515 229.0806671149041
3516 229.0881498535799
3517 229.0796472486944
3518 229.0877877430248
3519 229.0783763562256
3520 229.0854850323494
3521 229.077261974628
3522 229.0859430719132
3523 229.0764785489079
3524 229.0856380400573
3525 229.0772207051366
3526 229.0856870207441
3527 229.0768074275533
3528 229.085724223349
3529 229.0771731252862
3530 229.0875320232642
3531 229.077814890876
3532 229.0873422310444
3533 229.0784853120361
3534 229.0892074726138
3535 229.080142822285
3536 229.090786516766
3537 229.0824537438632
3538 229.0924201710749
3539 229.0828592448471
3540 229.0920693651387
3541 229.0823895997062
3542 229.0909902219528
3543 229.081275063171
3544 229.0905110665147
3545 229.0813288949347
3546 229.0910582970054
3547 229.0808882787684
3548 229.0907243195018
3549 229.0826425299155
3550 229.090498810256
3551 229.0803016898569
3552 229.0885500708308
3553 229.0793421828535
3554 229.0885515529913
3555 229.0777119947282
3556 229.085961407182
3557 229.077062176586
3558 229.0863857621841
3559 229.0773017836987
3560 229.0873325788916
3561 229.0806121234157
3562 229.0893186919389
3563 229.081174701856
3564 229.0910712522758
3565 229.0823776129835
3566 229.0915806600742
3567 229.0826369219796
3568 229.0921619851025
3569 229.0843491583364
3570 229.0936819634942
3571 229.0858950460726
3572 229.0957576764277
3573 229.0891641855991
3574 229.0974945568925
3575 229.088274150732
3576 229.0966018274567
3577 229.0871489581271
3578 229.0959956755587
3579 229.0850351213525
3580 229.0926473228764
3581 229.0826304257667
3582 229.0911009433053
3583 229.0804942743809
3584 229.0907250791109
3585 229.0809421037922
3586 229.0896030362041
3587 229.0795210991159
3588 229.0877484699986
3589 229.0786287814988
3590 229.0876905040808
3591 229.0785599141114
3592 229.0865175198517
3593 229.0783761399591
3594 229.0882592745155
3595 229.0778018182886
3596 229.0879164211205
3597 229.0796351202345
3598 229.0881284601111
3599 229.0804638802942
3600 229.0893172335643
3601 229.0809430929153
3602 229.0904319648579
3603 229.0813675777437
3604 229.0903974013244
3605 229.0819526570093
3606 229.0919675008167
3607 229.0836843818191
3608 229.0938334526315
3609 229.0856007922242
3610 229.0948700024504
3611 229.0853010891006
3612 229.0933831720597
3613 229.0845796674627
3614 229.0929224320135
3615 229.0835887405141
3616 229.0904907165315
3617 229.0822129520825
3618 229.0908982251474
3619 229.0808843572117
3620 229.0896327160226
3621 229.0811064496526
3622 229.0888073281209
3623 229.078588958598
3624 229.0863274756272
3625 229.0776978924593
3626 229.08531108953
3627 229.0765440817347
3628 229.0841781392865
3629 229.0751414912006
3630 229.0840917544234
3631 229.0755081264172
3632 229.0847098402322
3633 229.0774575140073
3634 229.0861063731848
3635 229.0773236931968
3636 229.0860118677536
3637 229.0783790647098
3638 229.0879267447324
3639 229.0796666503464
3640 229.0882252144914
3641 229.0803015872072
3642 229.0903696083661
3643 229.0823047625699
3644 229.0929129145339
3645 229.0854087174073
3646 229.0942255984299
3647 229.0858671452495
3648 229.094668711127
3649 229.0854331186917
3650 229.0949633347336
3651 229.0851052168493
3652 229.0916445704247
3653 229.0827599636404
3654 229.0917527160056
3655 229.0813069699403
3656 229.0900430999856
3657 229.0818342907038
3658 229.0902999638602
3659 229.0798942516146
3660 229.0879387833643
3661 229.0795792478783
3662 229.088795413834
3663 229.0800168834261
3664 229.0880448401633
3665 229.0804395574117
3666 229.089619736176
3667 229.0809677775103
3668 229.0904152813418
3669 229.0825727186424
3670 229.0906400711133
3671 229.082483230151
3672 229.0906461422642
3673 229.0816038560564
3674 229.0912467637856
3675 229.0819644551849
3676 229.0898735528059
3677 229.0810370727922
3678 229.0903477558574
3679 229.0817058379627
3680 229.0909139828429
3681 229.0826973107041
3682 229.0910900882593
3683 229.0819882924949
3684 229.0906760638113
3685 229.0813124283962
3686 229.0903289429196
3687 229.0817971796466
3688 229.0906308386541
3689 229.0817457803865
3690 229.0916336319636
3691 229.0815003619824
3692 229.0909963018821
3693 229.0826072532963
3694 229.0911892697765
3695 229.0807776895082
3696 229.0890696272768
3697 229.0783739217147
3698 229.087872572166
3699 229.0767783156842
3700 229.0859542760114
3701 229.0760883757534
3702 229.0860620088873
3703 229.075988294625
3704 229.0866748352127
3705 229.0776218167321
3706 229.0868705108481
3707 229.0784776816746
3708 229.0876781351138
3709 229.0794055267206
3710 229.0888367140553
3711 229.0796254747532
3712 229.0886168110302
3713 229.080459704853
3714 229.090796191856
3715 229.0804609633994
3716 229.0902115090635
3717 229.0815529678899
3718 229.0906618951995
3719 229.0810032214407
3720 229.0896863920963
3721 229.0805341844755
3722 229.0895791119231
3723 229.0796845569895
3724 229.0878241828244
3725 229.078439562715
3726 229.0873153676461
3727 229.0776527948335
3728 229.0873228440039
3729 229.0784199443461
3730 229.0868357032517
3731 229.0780470745803
3732 229.0858063370339
3733 229.0773861609658
3734 229.0850313905826
3735 229.0777764958373
3736 229.0844227821939
3737 229.0768041266606
3738 229.0861820576938
3739 229.0769891369586
3740 229.0858920309273
3741 229.0791908642597
3742 229.0870290421299
3743 229.078932468485
3744 229.0879744148268
3745 229.080772171998
3746 229.0909073020456
3747 229.0821068592098
3748 229.0911501891485
3749 229.0830138494864
3750 229.0929271485725
3751 229.0832746712806
3752 229.0938280000616
3753 229.0861345241937
3754 229.0954059911107
3755 229.0853047857255
3756 229.0939421382829
3757 229.0852990737587
3758 229.094403685534
3759 229.0842563236309
3760 229.0925895993545
3761 229.0840270438983
3762 229.0926094135
3763 229.0832533211715
3764 229.0926827108966
3765 229.0843779764169
3766 229.0928568452105
3767 229.0834363218812
3768 229.0917332960979
3769 229.081206379451
3770 229.0909051349366
3771 229.0800605268106
3772 229.0889578134374
3773 229.0791732967065
3774 229.0899091538638
3775 229.0793241639859
3776 229.0905692228976
3777 229.0816093618963
3778 229.0919203976592
3779 229.0815889050525
3780 229.0918605097478
3781 229.082955767841
3782 229.0930114534638
3783 229.0839679298033
3784 229.0930016403349
3785 229.0837130117584
3786 229.0936560354838
3787 229.0841411217549
3788 229.093956208429
3789 229.0857324322673
3790 229.0933246983337
3791 229.0850993824759
3792 229.0923266001911
3793 229.0838960219285
3794 229.0917495600457
3795 229.082948354291
3796 229.0901098121452
3797 229.0813234280591
3798 229.0890895240204
3799 229.0787290013061
3800 229.0873323793714
3801 229.0788887333053
3802 229.0866488273344
3803 229.0768942060675
3804 229.0849810607651
3805 229.0763649638616
3806 229.0847053062701
3807 229.0756400732335
3808 229.0839603426746
3809 229.0762972245894
3810 229.0864318688252
3811 229.0777073406248
3812 229.0879380812092
3813 229.0805515823765
3814 229.0899337244517
3815 229.0806451201058
3816 229.0898388736573
3817 229.0811845992274
3818 229.090140796567
3819 229.0809456158807
3820 229.089419614999
3821 229.0815800708282
3822 229.0909637112775
3823 229.0827412527212
3824 229.0920322313939
3825 229.0840222088912
3826 229.0918817032434
3827 229.0827509685653
3828 229.0909882536361
3829 229.0815720481443
3830 229.0905995741923
3831 229.0821011003956
3832 229.0892553003368
3833 229.0811736699084
3834 229.0896626412651
3835 229.0788521307366
3836 229.0877826148245
3837 229.0794211471316
3838 229.0877008511432
3839 229.078210042722
3840 229.0868393351811
3841 229.0771652943173
3842 229.0866166835772
3843 229.0758613814909
3844 229.0842956173683
3845 229.0744863732279
3846 229.0843371303598
3847 229.0749557798265
3848 229.0855506914203
3849 229.0783348993243
3850 229.0877666025398
3851 229.0797347799015
3852 229.0880340281416
3853 229.0805357987796
3854 229.0900712977013
3855 229.0814991105409
3856 229.0891262371302
3857 229.0814375460282
3858 229.0908608875044
3859 229.0827739765489
3860 229.0916716233102
3861 229.0851896622064
3862 229.0927230956346
3863 229.0848807338156
3864 229.0925811804882
3865 229.0840567186686
3866 229.0923903186109
3867 229.0834626124809
3868 229.0907220058757
3869 229.0819039161531
3870 229.090027395939
3871 229.0805259999064
3872 229.0889690531028
3873 229.0816758892139
3874 229.0897754840852
3875 229.080639469908
3876 229.0883085814551
3877 229.0805897768281
3878 229.0886319665209
3879 229.079546290402
3880 229.0871051053755
3881 229.078726039751
3882 229.0884137998803
3883 229.0785042333055
3884 229.0884066025277
3885 229.0797380018954
3886 229.0892882141819
3887 229.0798838304177
3888 229.0895517175821
3889 229.080081179315
3890 229.0909097496648
3891 229.0803983209226
3892 229.0895203623272
3893 229.0808661905195
3894 229.0922533148858
3895 229.0828107013883
3896 229.0939635517636
3897 229.0855507173286
3898 229.0946836481689
3899 229.084472066394
3900 229.0931779221942
3901 229.0830772082299
3902 229.0925249549495
3903 229.0816720033629
3904 229.0892519586241
3905 229.0795194726305
3906 229.0887859161437
3907 229.0782292736091
3908 229.0874855341734
3909 229.078279752377
3910 229.0862958833419
3911 229.0763414462544
3912 229.0839695856646
3913 229.0740710159544
3914 229.0833091147976
3915 229.0735903516924
3916 229.0818039859975
3917 229.0730227843008
3918 229.0825341721252
3919 229.0740510978071
3920 229.0836417204104
3921 229.0769426520071
3922 229.0863196836709
3923 229.0788297910257
3924 229.0886210843397
3925 229.0805121529148
3926 229.0897911414548
3927 229.0826829538622
3928 229.0914262950544
3929 229.0843873661482
3930 229.0940589718297
3931 229.0854342117204
3932 229.0949227111623
3933 229.0870801396806
3934 229.0952452961291
3935 229.0869074594196
3936 229.0939432384838
3937 229.0853193608535
3938 229.0935154051678
3939 229.083426486013
3940 229.0914106167
3941 229.082487723531
3942 229.0904718180233
3943 229.0807756157124
3944 229.0896483208552
3945 229.0806862394729
3946 229.0885601817522
3947 229.0792981351251
3948 229.0867611912862
3949 229.0777246087201
3950 229.0861295754991
3951 229.077394996916
3952 229.0841827438344
3953 229.0771365310015
3954 229.0860011772329
3955 229.0779391729954
3956 229.0874266280388
3957 229.080234576206
3958 229.0891073931745
3959 229.080496703911
3960 229.0902454340241
3961 229.0804441979849
3962 229.0909973042677
3963 229.0809552243642
3964 229.0903915893189
3965 229.0814986133263
3966 229.0916901600565
3967 229.081585817827
3968 229.0912622378871
3969 229.0821222659151
3970 229.0921741674154
3971 229.0819315405033
3972 229.0909389812494
3973 229.0812608644933
3974 229.0904461037179
3975 229.0793864588261
3976 229.0874020233423
3977 229.0774675379309
3978 229.0864977601114
3979 229.0773012738242
3980 229.0862442583772
3981 229.0778841694349
3982 229.0862925819764
3983 229.0773448876564
3984 229.086867022593
3985 229.0775648690393
3986 229.0878924267431
3987 229.0779333085321
3988 229.0874693827981
3989 229.0775025574521
3990 229.0884624982718
3991 229.0779790766349
3992 229.0895382368357
3993 229.0810472735219
3994 229.0918356138699
3995 229.0817046143298
3996 229.0914979541108
3997 229.0831649577416
3998 229.0933143286091
3999 229.0840068771819
4000 229.0926933175812
4001 229.0835875474931
4002 229.0934413026517
4003 229.0834921173648
4004 229.0924400291039
4005 229.0837300372642
4006 229.0904768692272
4007 229.0822062575733
4008 229.089195040102
4009 229.0808070672861
4010 229.0886658010134
4011 229.0790004091971
4012 229.0861642356332
4013 229.0776118590399
4014 229.0857534357858
4015 229.0763162612457
4016 229.0843401881674
4017 229.0764887334657
4018 229.0836852048919
4019 229.0751209847111
4020 229.0823726000563
4021 229.0741704294232
4022 229.0824113442252
4023 229.0746912398819
4024 229.0825471339936
4025 229.0752493166693
4026 229.0850080285677
4027 229.0761285246535
4028 229.0864169670448
4029 229.0786764298676
4030 229.0882117581689
4031 229.0802883879068
4032 229.0890670915416
4033 229.0813900542362
4034 229.0917182303812
4035 229.0830876415041
4036 229.0920424944212
4037 229.0835567473885
4038 229.0942282525492
4039 229.0849649885781
4040 229.0954724335671
4041 229.0873281962247
4042 229.0967035025795
4043 229.0870924603601
4044 229.0961241002374
4045 229.0867456077259
4046 229.0950732576124
4047 229.0853931119459
4048 229.0927608368913
4049 229.0843006306906
4050 229.0935723539839
4051 229.0840423521566
4052 229.0925694909454
4053 229.0852414948883
4054 229.0924520959838
4055 229.083370299001
4056 229.0908021048037
4057 229.0821329946814
4058 229.0899414783514
4059 229.0807429115
4060 229.0877838401366
4061 229.0800403804619
4062 229.088894860665
4063 229.0808797495644
4064 229.0901867842506
4065 229.0825899860081
4066 229.0913594953575
4067 229.0818876015435
4068 229.0912317672473
4069 229.0832260164595
4070 229.0922029336641
4071 229.0829132531291
4072 229.0910785781718
4073 229.0821832138269
4074 229.0915581419927
4075 229.0812944950146
4076 229.0904987528099
4077 229.0819214921611
4078 229.0897474557402
4079 229.0790921125272
4080 229.0871309817363
4081 229.0774381832467
4082 229.0864228425528
4083 229.0765318203698
4084 229.0847293291109
4085 229.0750142459974
4086 229.0835670538018
4087 229.0737109162375
4088 229.0833773624483
4089 229.074141567418
4090 229.0837793063839
4091 229.0738462540681
4092 229.0825716823559
4093 229.0742335971594
4094 229.0831120660875
4095 229.0740720579245
4096 229.0826841049217
4097 229.0747991012695
4098 229.085318193226
4099 229.0763841285875
4100 229.0866813165293
4101 229.0787098738774
4102 229.0882635916397
4103 229.0789206768877
4104 229.0888943252575
4105 229.0797336641865
4106 229.090175989696
4107 229.0802243536153
4108 229.089728195012
4109 229.0809407733663
4110 229.0909936029128
4111 229.0818691671339
4112 229.0917597226853
4113 229.0834697769654
4114 229.0925980701336
4115 229.0823754119611
4116 229.0912806018959
4117 229.0827430880298
4118 229.0909116685767
4119 229.0808538604005
4120 229.0878841575491
4121 229.0798544859506
4122 229.088846460872
4123 229.0794373864123
4124 229.0886635991538
4125 229.080518867002
4126 229.0880473947269
4127 229.0801469646108
4128 229.0880518412181
4129 229.0792735167364
4130 229.0880900488721
4131 229.0783144946994
4132 229.0857056053123
4133 229.0770630986135
4134 229.0861556015088
4135 229.0770596165653
4136 229.0865645481451
4137 229.0794117013297
4138 229.08758231999
4139 229.0788725370588
4140 229.087084676372
4141 229.0805836324508
4142 229.088040054403
4143 229.0798093350193
4144 229.0875454582494
4145 229.0798651948998
4146 229.0891070304052
4147 229.0803107539622
4148 229.0892885926389
4149 229.0821981335951
4150 229.0904413091953
4151 229.0814286370684
4152 229.0900607158098
4153 229.0814803678927
4154 229.0924169303922
4155 229.0824522065613
4156 229.091034988104
4157 229.0821407492317
4158 229.0913058921689
4159 229.0815119378948
4160 229.0912647796168
4161 229.0832186803176
4162 229.0912016629396
4163 229.0811404214654
4164 229.0899702052702
4165 229.0792984251048
4166 229.0895244452477
4167 229.0788676216092
4168 229.088077161856
4169 229.0791412224008
4170 229.0890508421025
4171 229.0788354258172
4172 229.0899749790225
4173 229.0808099782282
4174 229.091330798595
4175 229.0803635952522
4176 229.0903173710004
4177 229.0811215171746
4178 229.0926664418648
4179 229.0823039333534
4180 229.0919369343219
4181 229.080969244374
4182 229.0927709793462
4183 229.0815201084964
4184 229.0921767004957
4185 229.0831283824398
4186 229.0928244990007
4187 229.0822880418755
4188 229.0914172873317
4189 229.0815529818806
4190 229.090504385368
4191 229.0810210533599
4192 229.0885175928056
4193 229.0787614441025
4194 229.0878336680795
4195 229.0763236729523
4196 229.084258740225
4197 229.076664038895
4198 229.0841574391635
4199 229.0757499984954
4200 229.0834820787424
4201 229.0752946221855
4202 229.0842552657131
4203 229.0744407746913
4204 229.0832365181797
4205 229.0744738065712
4206 229.0839955052863
4207 229.0759254025787
4208 229.0861880196383
4209 229.0789500376445
4210 229.0887070100817
4211 229.0803040865266
4212 229.0891892407066
4213 229.0817011625227
4214 229.0916972877449
4215 229.0831580559814
4216 229.0908354693132
4217 229.0833643913989
4218 229.0924328132917
4219 229.082337665252
4220 229.0907532064745
4221 229.0838283338019
4222 229.0904271991321
4223 229.0819050805693
4224 229.0894543836388
4225 229.0811229164757
4226 229.0885388103274
4227 229.0791113394257
4228 229.0863265574366
4229 229.0783592203162
4230 229.0865530299758
4231 229.0764973435165
4232 229.0854363962418
4233 229.077448435628
4234 229.0855530314856
4235 229.0768119721035
4236 229.0849267401045
4237 229.0779735961198
4238 229.0860185135803
4239 229.0767019391542
4240 229.0854489868195
4241 229.0778382269718
4242 229.0876125881496
4243 229.0786809718109
4244 229.0888289595201
4245 229.0812710085705
4246 229.0904602471719
4247 229.0809472137086
4248 229.0906967447335
4249 229.0812217862864
4250 229.0914892664727
4251 229.0819121599928
4252 229.0910883345259
4253 229.0826189805379
4254 229.0925038225205
4255 229.0832789888885
4256 229.0924991779658
4257 229.0839913981658
4258 229.0923245785509
4259 229.081702066738
4260 229.0897850392528
4261 229.0795503172329
4262 229.0881874809771
4263 229.0777563895985
4264 229.0863046696123
4265 229.0777935270452
4266 229.0868385876458
4267 229.0770892425245
4268 229.0863952534118
4269 229.0777716177003
4270 229.0868127112844
4271 229.0773628066656
4272 229.0863296821072
4273 229.0778080492493
4274 229.0881814762632
4275 229.0779107629443
4276 229.08725730028
4277 229.077967647404
4278 229.0874313474737
4279 229.0789295325695
4280 229.0893859100567
4281 229.0814269659118
4282 229.090942950838
4283 229.0820457167503
4284 229.0907933274645
4285 229.0830252524469
4286 229.092412483267
4287 229.0835679041668
4288 229.0916989673004
4289 229.0823360042226
4290 229.0925457082243
4291 229.0815639950093
4292 229.0909339106252
4293 229.0818294850751
4294 229.0896965120675
4295 229.0785147316058
4296 229.0866005570706
4297 229.0759548224035
4298 229.0860298538353
4299 229.0735282327316
4300 229.0820963077086
4301 229.071968157264
4302 229.0815815007149
4303 229.0711310049267
4304 229.0813451338989
4305 229.0729982298019
4306 229.0824974103715
4307 229.0732051236656
4308 229.082623374905
4309 229.0744671411597
4310 229.0847672145526
4311 229.0766017699171
4312 229.0856785970554
4313 229.0793790099742
4314 229.0896217456508
4315 229.0810919758785
4316 229.0909727349502
4317 229.083415791333
4318 229.0918728004291
4319 229.0829558492555
4320 229.0918751329102
4321 229.0836283226984
4322 229.0937686619312
4323 229.0846094573378
4324 229.0933355810905
4325 229.0848801394518
4326 229.0939525216581
4327 229.0847799454073
4328 229.094133623719
4329 229.0862627890909
4330 229.0948943711003
4331 229.084739979656
4332 229.0920449180372
4333 229.0835805332169
4334 229.0924135114347
4335 229.0828415842386
4336 229.0899772770836
4337 229.0814359836436
4338 229.090305101682
4339 229.0805498238789
4340 229.0898852335986
4341 229.0811315394546
4342 229.0892841065328
4343 229.080568020334
