"x-rfile"
"Iteration" "x"
("Iteration" "x")
1 6755.381795927735
2 6060.023882857244
3 4688.99328793171
4 3802.393837755904
5 2915.107320436592
6 2320.127670601577
7 1716.343266012484
8 1177.921991533201
9 790.4951726170357
10 486.0827889323877
11 254.6377758724785
12 84.70135379911108
13 -16.00132623801949
14 -78.92524498227127
15 -116.1711210644857
16 -125.7066094826166
17 -116.3380066151094
18 -96.31057207586058
19 -68.98969123832967
20 -37.50065774824127
21 -10.01512348063349
22 22.10257879014811
23 50.62251406669935
24 79.1903917903484
25 101.5949041967393
26 118.9319238061495
27 131.8323588204977
28 141.1807908490078
29 146.3855771055052
30 150.878849483299
31 152.576300885164
32 153.8160289640241
33 153.751359683237
34 153.2434322616103
35 152.4029350107472
36 151.2618101725573
37 149.7469065256977
38 147.8913487940436
39 145.8822718151997
40 143.7411849732277
41 141.2500080769278
42 139.0465398999461
43 136.4240806079781
44 134.2610710866531
45 132.3779890599295
46 130.5300169252236
47 128.6949168213978
48 127.1977594382074
49 125.7038406138056
50 124.5338979706471
51 123.3388745381128
52 121.8485719499141
53 120.4611051257601
54 119.1823279185006
55 117.9674144183492
56 116.7070410628379
57 115.7374636915059
58 114.7842703097276
59 114.0161365500852
60 113.2825016872698
61 112.6746920341189
62 112.1302252070226
63 111.6224650783518
64 111.1527252350957
65 110.6645044066289
66 110.2045030877121
67 109.7213532331364
68 109.2828660768003
69 108.7687420554602
70 108.3081315639557
71 107.755171795582
72 107.264203817938
73 106.6642399042335
74 106.0637274655921
75 105.436433625251
76 104.9157018435379
77 104.2597391700671
78 103.7331693791913
79 103.0569906605453
80 102.5244002748202
81 101.8430012799198
82 101.3192448574677
83 100.7739513551173
84 100.2471965067982
85 99.70400620050383
86 99.18800594032211
87 98.65937642914146
88 98.15578021538047
89 97.63912201690121
90 97.14720873321869
91 96.65353581857623
92 96.18455471683254
93 95.71451505226804
94 95.27456910521428
95 94.83198548634489
96 94.41798724829512
97 94.00349728474366
98 93.62155050936762
99 93.23468434704932
100 92.8790557725288
101 92.52329516467313
102 92.19467872201103
103 91.86974235746368
104 91.56785256051
105 91.26999864403567
106 90.99188520649984
107 90.72451615021396
108 90.46837142782061
109 90.22011635880754
110 89.98494694334948
111 89.75644770724945
112 89.53745050247461
113 89.32637361323351
114 89.12712018801098
115 88.93205464026035
116 88.74471505091192
117 88.56690478498631
118 88.39375713603067
119 88.23348712785783
120 88.07285401545539
121 87.92791873840949
122 87.78142823858914
123 87.65000508125496
124 87.51322954693573
125 87.39341111330245
126 87.26764551045518
127 87.15804578917489
128 87.04417032416214
129 86.94355436581871
130 86.84253929757941
131 86.75351406024176
132 86.66191943069593
133 86.58268141823997
134 86.50280143402506
135 86.43276091073218
136 86.35783636750895
137 86.29798461785884
138 86.23144406657663
139 86.18173564055836
140 86.12271802891043
141 86.08338286984039
142 86.03644382286802
143 86.00641714521078
144 85.96473347588717
145 85.94398310382495
146 85.90739307470174
147 85.89270700314339
148 85.86036581737197
149 85.85352124131293
150 85.82910896862663
151 85.82959867963196
152 85.80945129871785
153 85.81502556172435
154 85.7956796955512
155 85.80852661802309
156 85.79507799451561
157 85.80913101608375
158 85.79858509667169
159 85.81779487203644
160 85.80775904255214
161 85.82989887527003
162 85.81994964647059
163 85.84266658807192
164 85.83761284991976
165 85.85945772221631
166 85.85802814486485
167 85.88171134027684
168 85.88448182690978
169 85.91149155024073
170 85.91968672464593
171 85.94706404816789
172 85.95611019396858
173 85.98804840855803
174 85.99968257193592
175 86.03530849956783
176 86.04787838579769
177 86.08170895605521
178 86.0945555168165
179 86.13270060359565
180 86.1456506250983
181 86.17960098520351
182 86.19409571295064
183 86.22789539460217
184 86.24138284111343
185 86.27708212888862
186 86.29029711960133
187 86.3240927699095
188 86.33707271409091
189 86.36803832886972
190 86.37760311262097
191 86.4104980896651
192 86.42005725723348
193 86.44569715637198
194 86.4522865684977
195 86.47636162221166
196 86.47902131947296
197 86.49784876695432
198 86.49867614611065
199 86.51833951883894
200 86.51515564605475
201 86.5289918424133
202 86.52214900894505
203 86.5307994050978
204 86.52071608772049
205 86.52419583522517
206 86.51237070951919
207 86.51275129727109
208 86.49818750611686
209 86.49357155522036
210 86.47634302271881
211 86.46906506577716
212 86.45195651983498
213 86.44140529615302
214 86.42247437611528
215 86.41234241577963
216 86.39337340785285
217 86.37856715386158
218 86.35614923480227
219 86.34273190095034
220 86.3205003886568
221 86.30806291428041
222 86.27971652970544
223 86.27329343363523
224 86.24465916363167
225 86.23445751179729
226 86.20834601494683
227 86.19767354127495
228 86.1732765209765
229 86.16312386737813
230 86.14165762645852
231 86.13384178543679
232 86.10938599442426
233 86.10140097632208
234 86.07564626224513
235 86.06787434117756
236 86.04499153173921
237 86.03443499664074
238 86.00892517436071
239 86.00376799292465
240 85.9803310145888
241 85.97266671760462
242 85.94584028707226
243 85.94064158223084
244 85.91803834291957
245 85.9111041149698
246 85.88909558276545
247 85.88607895891722
248 85.86407134903567
249 85.86068733313347
250 85.83896601093039
251 85.83897407448484
252 85.81963002282426
253 85.82077448540825
254 85.80209205128313
255 85.80498071503489
256 85.78607751391081
257 85.78802394735338
258 85.76770203010391
259 85.77194459874312
260 85.7523432250283
261 85.75217355874462
262 85.73298753295518
263 85.73170692110044
264 85.71254499793024
265 85.70976886636376
266 85.69091294785848
267 85.68750594141994
268 85.66627698843375
269 85.66215341683066
270 85.64264910698121
271 85.63758384128832
272 85.6188004664631
273 85.61054963834813
274 85.58954493796017
275 85.58404622843797
276 85.56536744304533
277 85.55721458499895
278 85.53892693708801
279 85.53423036512031
280 85.51538466105586
281 85.51324711555529
282 85.49583235679796
283 85.4953994885775
284 85.47996261361349
285 85.47930747498827
286 85.46406656494085
287 85.46859573065366
288 85.45532164990883
289 85.45575131354047
290 85.44660858714143
291 85.44735554288701
292 85.44116122818386
293 85.44351399352735
294 85.4346129553261
295 85.44115872413067
296 85.43242697423555
297 85.43675919458214
298 85.42768389890206
299 85.43492529172831
300 85.4263884073311
301 85.43128204012635
302 85.42415604960733
303 85.42872338313079
304 85.42022277465138
305 85.42298114383217
306 85.41561040095397
307 85.41803436181908
308 85.41160464325323
309 85.4118954295153
310 85.4045311734575
311 85.40385206259315
312 85.39798661509241
313 85.39520222799453
314 85.38728969194604
315 85.388281605644
316 85.38030322922106
317 85.38024052951391
318 85.37172694759144
319 85.37383107924306
320 85.36756882709965
321 85.36748488572043
322 85.36221034263757
323 85.36462281971673
324 85.35944484369917
325 85.36192276538351
326 85.35899459641043
327 85.36238212786371
328 85.35727584279516
329 85.36316776801496
330 85.35347363363371
331 85.35876257354244
332 85.3502094564126
333 85.3530660991735
334 85.34281857609825
335 85.34779952691827
336 85.33845494713231
337 85.34277564027732
338 85.33160046972722
339 85.33466317431311
340 85.32099227262439
341 85.32208697761524
342 85.311781554275
343 85.31259549727706
344 85.3021086897043
345 85.30077041784149
346 85.28990887604405
347 85.29224254159621
348 85.28160884052197
349 85.28568247877973
350 85.27545938153729
351 85.27829315260148
352 85.27137564589535
353 85.27559057829022
354 85.27064815001738
355 85.27568419469377
356 85.27137705764966
357 85.27711447976334
358 85.27463317602547
359 85.28251579442747
360 85.2814291740698
361 85.29074311735609
362 85.28960261824639
363 85.29752907847154
364 85.29556529773986
365 85.30491398276909
366 85.3033004530544
367 85.31106459922029
368 85.31170859531794
369 85.31954749197905
370 85.31803392506237
371 85.32770626462013
372 85.32448117038886
373 85.33268851056772
374 85.32577649152601
375 85.33573945356392
376 85.32784887835783
377 85.33474742366914
378 85.32552484192567
379 85.33248026394634
380 85.32156218540271
381 85.32503607541501
382 85.30969999635181
383 85.31315764271775
384 85.30059687505913
385 85.30303541908107
386 85.28813087398311
387 85.29356619886204
388 85.27622970872955
389 85.28010289437343
390 85.2658484649322
391 85.26801041581827
392 85.2548711017773
393 85.25524508357275
394 85.2422746864397
395 85.24121248047388
396 85.23513947661856
397 85.23118107674645
398 85.22904828838199
399 85.22485167528544
400 85.22513589160462
401 85.22206949964909
402 85.22492659000405
403 85.22286359415384
404 85.22564446947105
405 85.22678321243158
406 85.23009530500399
407 85.23205485904424
408 85.23748865710901
409 85.23874234507026
410 85.24414473385934
411 85.24794687492083
412 85.25063655826504
413 85.2535303512273
414 85.25709676319134
415 85.25730550461279
416 85.26180719448911
417 85.26098962321188
418 85.26166309538607
419 85.26024470787902
420 85.26083647568507
421 85.26176896838031
422 85.25907965911324
423 85.25736721893168
424 85.25479634593646
425 85.25269813043082
426 85.25080440647176
427 85.24676638773145
428 85.24384085641428
429 85.24153145082626
430 85.23757118858656
431 85.23569092133695
432 85.23232964392807
433 85.23102513570076
434 85.23178055730617
435 85.22995125236214
436 85.22802972712913
437 85.22793142193076
438 85.2297433147728
439 85.22866495460241
440 85.22873328329763
441 85.22749047710569
442 85.22884508764584
443 85.2300541093952
444 85.23251495241962
445 85.23461031628236
446 85.23069741498855
447 85.23382854386742
448 85.22775316427239
449 85.22983751033395
450 85.22160900065808
451 85.22037344820384
452 85.21265268271742
453 85.21053877633335
454 85.2010543346552
455 85.19941393147927
456 85.19023086493132
457 85.18565200266343
458 85.17594835171539
459 85.17278355855063
460 85.16326852617472
461 85.16172515078485
462 85.15188095332695
463 85.15511430781956
464 85.14645730576972
465 85.15135303066614
466 85.14338408817356
467 85.15139971200759
468 85.145326293335
469 85.15355182342115
470 85.15207877387556
471 85.16070643014433
472 85.15796816385692
473 85.16512107555187
474 85.16459085570268
475 85.17118875171271
476 85.1720859802555
477 85.17906882597894
478 85.17685457490607
479 85.18669628469556
480 85.18414131530099
481 85.19459295698459
482 85.18940525444147
483 85.1987847190762
484 85.1907888556896
485 85.20034834306
486 85.19266832127296
487 85.2004988816457
488 85.19274120538633
489 85.2017137186557
490 85.19610083057897
491 85.20161721306131
492 85.19858949757646
493 85.20256869425961
494 85.19797359160903
495 85.20521127463195
496 85.1996749249675
497 85.20368989507033
498 85.19849460767531
499 85.20339146913868
500 85.19909406972351
501 85.20063079111358
502 85.1950315221266
503 85.19690332783124
504 85.18772635824706
505 85.18496131212628
506 85.17885008461174
507 85.17487124942538
508 85.16694422856895
509 85.16267709963252
510 85.15450814175294
511 85.15190311538028
512 85.14785180405181
513 85.14411803796666
514 85.1370822526662
515 85.13686405381551
516 85.13257772144799
517 85.13091756220352
518 85.12857205385404
519 85.12656477763623
520 85.12566032744708
521 85.12478158669201
522 85.12329919311492
523 85.12373548858046
524 85.12291947168889
525 85.12352783391582
526 85.11976293852761
527 85.12084188410212
528 85.11626780738746
529 85.11580305159642
530 85.11328560416763
531 85.11503374864769
532 85.10982445382172
533 85.11473750885445
534 85.11171362733423
535 85.11727578516015
536 85.11434753407062
537 85.12055425615492
538 85.11941525155135
539 85.1258127924965
540 85.12640792697269
541 85.13434021830867
542 85.13593961580867
543 85.14229389548402
544 85.14491993422196
545 85.15377756624042
546 85.15612342755077
547 85.16487323446385
548 85.17098309437782
549 85.17451759541424
550 85.17678760067366
551 85.18416480115397
552 85.18459415809934
553 85.18788331101108
554 85.18408555367465
555 85.1889373348608
556 85.18223931361278
557 85.18255596072153
558 85.17180379082529
559 85.17354773793289
560 85.1598724123219
561 85.15954777946408
562 85.14271218490946
563 85.14342984941885
564 85.12618744833468
565 85.12590925060941
566 85.11106416961964
567 85.10937611771304
568 85.0942457635841
569 85.09484954203971
570 85.08291398827309
571 85.08260182843969
572 85.07070917749914
573 85.07482982631151
574 85.0648181754633
575 85.06961169733336
576 85.0613216135127
577 85.06768156793794
578 85.0640745627768
579 85.07021407335826
580 85.0692564696632
581 85.07625843361983
582 85.07612255820652
583 85.08350691758905
584 85.08699524116412
585 85.09267809631865
586 85.0976641567858
587 85.10319513928371
588 85.1093535947718
589 85.11309763867996
590 85.11499529236889
591 85.11947779801704
592 85.12188975520229
593 85.12271495090037
594 85.12393731775647
595 85.12494918435056
596 85.12545808152542
597 85.12353214796072
598 85.12352527959312
599 85.12379218064335
600 85.12429993567571
601 85.12417323684795
602 85.12216756178778
603 85.12641289174717
604 85.12232141436286
605 85.12627271709653
606 85.12473160321547
607 85.1324517084923
608 85.12902724582455
609 85.13410825713594
610 85.13044348337806
611 85.13632216764842
612 85.13240922955781
613 85.13637054538776
614 85.13267656987284
615 85.13612100600356
616 85.13268409162477
617 85.13446991257723
618 85.13062490427939
619 85.13167087945708
620 85.12621964638419
621 85.12378913764029
622 85.11767172414052
623 85.11598518088508
624 85.10623419714106
625 85.10309106883346
626 85.09629243938792
627 85.09060624945444
628 85.08222224014492
629 85.07586968154735
630 85.07102279407528
631 85.06604704192219
632 85.0597563805003
633 85.05741180638756
634 85.05192313050081
635 85.04826575277889
636 85.04200278810885
637 85.03975373763933
638 85.03895308791428
639 85.03847492554635
640 85.03585260106082
641 85.03728233899896
642 85.03677802308771
643 85.04184841360095
644 85.04188910724551
645 85.0437555933385
646 85.04651691082893
647 85.05223079930293
648 85.05597398108455
649 85.06356627833898
650 85.06450420740312
651 85.07507158166764
652 85.07701913343259
653 85.08667715547003
654 85.08944925634398
655 85.10320862120044
656 85.10679252681435
657 85.11495752792989
658 85.11922796809247
659 85.1295159388367
660 85.13352438453772
661 85.14100059811437
662 85.14637449603691
663 85.14905726538446
664 85.14892637985555
665 85.15098746540404
666 85.15027497783099
667 85.14800931864501
668 85.14170158261429
669 85.1423634171432
670 85.13311375286007
671 85.1306301119143
672 85.11725888052595
673 85.11722503140071
674 85.1036894233654
675 85.10285360728984
676 85.08706610016898
677 85.088123102938
678 85.07531313500316
679 85.07681407596567
680 85.06214546085157
681 85.06531530392451
682 85.05155009246066
683 85.05828059275895
684 85.04389697265053
685 85.05211502269592
686 85.0427033565653
687 85.04844160758893
688 85.03940237615674
689 85.04635917925508
690 85.04057209302968
691 85.04603103028283
692 85.04117921813932
693 85.04894033306712
694 85.04139194584721
695 85.05032342508876
696 85.04240729531018
697 85.05054939876392
698 85.04809162760154
699 85.0551736439637
700 85.0528737895394
701 85.05941638709442
702 85.05888185963818
703 85.0634212712194
704 85.06205129749898
705 85.06616676230811
706 85.06372395896508
707 85.07063242575083
708 85.07188151613158
709 85.07671395665038
710 85.07789203343988
711 85.08281197915427
712 85.08423113108537
713 85.08969431858959
714 85.0896504421306
715 85.09704284428243
716 85.09309138090721
717 85.10024043098548
718 85.09671629198301
719 85.10295382113668
720 85.10151116721731
721 85.10512859466758
722 85.1009627865318
723 85.10561108011493
724 85.10194333144767
725 85.10529106719123
726 85.10229519391829
727 85.10631036847258
728 85.10579262454198
729 85.10774973470693
730 85.1039543469691
731 85.10506932511409
732 85.10106684843872
733 85.10015286797201
734 85.09730349227004
735 85.09461280317367
736 85.08947371523263
737 85.08412498259271
738 85.08031762782814
739 85.07242526693442
740 85.070938514093
741 85.05992534626077
742 85.05384347251702
743 85.04527916367397
744 85.03903258232437
745 85.03133083161272
746 85.02429303899297
747 85.02017200477094
748 85.01247725415519
749 85.01124039044808
750 85.00862468878918
751 85.00702117372938
752 85.00389176894463
753 85.00749006738924
754 85.00738958352918
755 85.0138460555261
756 85.01313691617598
757 85.02269298150759
758 85.02154688518793
759 85.03358160092125
760 85.03345805734006
761 85.04618190865069
762 85.04565625182083
763 85.0570132333899
764 85.05676277111914
765 85.06951026133552
766 85.06921330994584
767 85.08103535613533
768 85.08016997777429
769 85.09170080923236
770 85.08981465037166
771 85.09789890155584
772 85.09374354377923
773 85.09915519247433
774 85.09550533459368
775 85.10007950018537
776 85.09880033830618
777 85.09856435500731
778 85.09566685566796
779 85.09879245368252
780 85.09982330211386
781 85.10015021010022
782 85.0988250050991
783 85.09989391150604
784 85.09896986904164
785 85.09867477954269
786 85.0982175947689
787 85.09942760567324
788 85.0978573477488
789 85.09679944871094
790 85.09074829963518
791 85.09435773531581
792 85.08482049827946
793 85.08999664014378
794 85.07991785757231
795 85.08362562252981
796 85.07069332460044
797 85.07486275039224
798 85.06473821845509
799 85.06413190297535
800 85.05621738996987
801 85.05382486142966
802 85.0440076378581
803 85.04253553811034
804 85.03406104876785
805 85.03323723506598
806 85.02537499163888
807 85.02552540267519
808 85.01578588329085
809 85.01936752600895
810 85.01028657556985
811 85.012967603177
812 85.00587794887058
813 85.00758603575976
814 85.00339982062806
815 85.00866423413088
816 85.00891464268277
817 85.01319571444392
818 85.01507088147739
819 85.0211062205734
820 85.02485748565721
821 85.02870230579217
822 85.03470064770178
823 85.04182447546724
824 85.05181683548984
825 85.05794223347542
826 85.06558427433035
827 85.0702812091367
828 85.07804653804455
829 85.08119598511676
830 85.09007545573988
831 85.0926998704721
832 85.09962177316612
833 85.1006228058742
834 85.10796429845817
835 85.10807626721143
836 85.1103589976298
837 85.10914486225718
838 85.11089506488113
839 85.10766768988012
840 85.10805887439959
841 85.10594565750931
842 85.10246187335213
843 85.10148075729035
844 85.09548137275094
845 85.09346843958876
846 85.08643284840996
847 85.08442630715346
848 85.07574881026814
849 85.07202814290966
850 85.0614517480042
851 85.05679840558193
852 85.04723037635053
853 85.04393904763897
854 85.03744751000679
855 85.03134319638217
856 85.02185492340301
857 85.01947262404461
858 85.01155696863289
859 85.01167860378953
860 85.00489466271669
861 85.00344756775172
862 84.9977590700025
863 85.00159611665553
864 84.99776548139408
865 85.0014963333701
866 85.00037036350105
867 85.00973378233898
868 85.00644528320802
869 85.01841604397977
870 85.01808069816873
871 85.03137315469027
872 85.03095094843187
873 85.04689580342892
874 85.04493386655881
875 85.06160627006845
876 85.05924892403152
877 85.07277663566347
878 85.07058537879618
879 85.08337137236407
880 85.08051269461535
881 85.08693193336595
882 85.08350704857206
883 85.09039813294923
884 85.08477141299295
885 85.08884479387739
886 85.08001220017778
887 85.0861972918285
888 85.07632398847069
889 85.08142315022856
890 85.07506021355304
891 85.07683987919401
892 85.07055221294094
893 85.07313171482477
894 85.07285215601665
895 85.07251802464761
896 85.07286207812817
897 85.07444094159017
898 85.0747529966189
899 85.0760327676691
900 85.07763897768999
901 85.07976850608124
902 85.08193482151876
903 85.08262120279429
904 85.07943299155389
905 85.08201376637145
906 85.07667526017822
907 85.08005193511924
908 85.07281110874167
909 85.0743109303358
910 85.06573597584068
911 85.06498391865034
912 85.05677041584531
913 85.05483906788376
914 85.04563826916812
915 85.04545494653068
916 85.03529990632873
917 85.03185561243451
918 85.0235727293781
919 85.0217892844431
920 85.01590027692686
921 85.01331813335152
922 85.00802646517678
923 85.00763652794792
924 85.00471166031755
925 85.0038465163323
926 85.00390658970191
927 85.00520940023715
928 85.00765075237152
929 85.00712029453025
930 85.01052686756825
931 85.01490423702343
932 85.02054193874442
933 85.02237085500614
934 85.02587477696295
935 85.0305213729544
936 85.03408567859314
937 85.03947633483077
938 85.04360927607162
939 85.04955776876689
940 85.05537280570871
941 85.06076102990025
942 85.06430221397183
943 85.07303779153426
944 85.07504416391279
945 85.0815652144174
946 85.0819805146316
947 85.09021741600665
948 85.08924921824773
949 85.094864033627
950 85.09188178884895
951 85.09601617774101
952 85.09281169629931
953 85.09411929154275
954 85.09116195385297
955 85.09085510347523
956 85.08850123383725
957 85.08330237117322
958 85.08007845157313
959 85.07668876057292
960 85.07335635663165
961 85.0708898267474
962 85.06413003384006
963 85.06054151507593
964 85.05389426677581
965 85.04970346881788
966 85.04601388896255
967 85.04466792469411
968 85.04189661840526
969 85.03906648860999
970 85.03588494303996
971 85.03487943493532
972 85.03179678162338
973 85.03165978453731
974 85.02791224244046
975 85.03127278516008
976 85.02742899551676
977 85.02824953513154
978 85.02600480323403
979 85.02826741061943
980 85.02670566683287
981 85.03078331964326
982 85.0265804535171
983 85.03484632133454
984 85.02885786882418
985 85.04067679978502
986 85.0354347514681
987 85.04505306247931
988 85.0390569319347
989 85.04770658653723
990 85.04376765446261
991 85.05188485163869
992 85.0450915177554
993 85.05476074734345
994 85.04845737556907
995 85.05620320774399
996 85.04793647887811
997 85.05940414294351
998 85.05071330694204
999 85.05869467864571
1000 85.04901548840461
1001 85.05774780595827
1002 85.05298484166426
1003 85.0589524623023
1004 85.05352884384783
1005 85.05733392845856
1006 85.05546176840103
1007 85.06062717903851
1008 85.05970236500663
1009 85.06406484387668
1010 85.06413214815041
1011 85.06741142687054
1012 85.06839223616667
1013 85.07152518361396
1014 85.0716180439583
1015 85.07487245992097
1016 85.0742845481215
1017 85.07577436869042
1018 85.07435382192567
1019 85.07869056660192
1020 85.07499002235116
1021 85.07485973584683
1022 85.07037049685643
1023 85.07039370988139
1024 85.06214811449664
1025 85.06031983714668
1026 85.05150127528444
1027 85.05224704548108
1028 85.04052197564121
1029 85.03896577107105
1030 85.02678182178525
1031 85.02825290484738
1032 85.01783205295339
1033 85.01714362121234
1034 85.00937804557994
1035 85.01058129826842
1036 85.0033640121701
1037 85.00592744228962
1038 85.0069668862857
1039 85.00835199500642
1040 85.01046034491297
1041 85.01291547255065
1042 85.01688170357374
1043 85.01785334729422
1044 85.02093586185312
1045 85.02327950813292
1046 85.03044927862091
1047 85.03341340140275
1048 85.0368814145983
1049 85.04055451160909
1050 85.0437186844262
1051 85.04620062808117
1052 85.05054289027984
1053 85.05180199086311
1054 85.05383017533042
1055 85.05708897019693
1056 85.05727990026054
1057 85.06149395185774
1058 85.06083548235769
1059 85.06515483227464
1060 85.06201790554465
1061 85.06340343788931
1062 85.06324237048709
1063 85.06170752298486
1064 85.06116925600219
1065 85.06083225240872
1066 85.06136874003276
1067 85.0610394908759
1068 85.06016046120634
1069 85.0604004372844
1070 85.06103968459624
1071 85.06034217995052
1072 85.05986183635582
1073 85.0614621703336
1074 85.06282246715311
1075 85.06501236802958
1076 85.06630886930355
1077 85.06830119322687
1078 85.06857926867981
1079 85.06881515912607
1080 85.0728549309262
1081 85.07081220088536
1082 85.07352322592688
1083 85.07000811518492
1084 85.07207891032878
1085 85.06967071694289
1086 85.07172959337962
1087 85.07082785783841
1088 85.06746293020805
1089 85.06693637380356
1090 85.05924457656198
1091 85.06073877210105
1092 85.05068462094771
1093 85.0516876437578
1094 85.04022382909744
1095 85.04131428290745
1096 85.02686230411626
1097 85.02929814885688
1098 85.01637866397738
1099 85.01988567439864
1100 85.00699186687504
1101 85.01231235981125
1102 85.00229492332539
1103 85.0077816312359
1104 84.99767504070394
1105 85.00495083629795
1106 84.99801262585855
1107 85.0051949570705
1108 84.99857577720714
1109 85.00842610142004
1110 85.00789535911345
1111 85.01659876651445
1112 85.01563651617285
1113 85.02629135391453
1114 85.02877882128857
1115 85.04009308670908
1116 85.04345178112584
1117 85.05470742889109
1118 85.05786065460336
1119 85.0643820603398
1120 85.06701126914946
1121 85.0732812438923
1122 85.07336810750928
1123 85.08020783328398
1124 85.07816268694306
1125 85.08525150393449
1126 85.07943248684008
1127 85.08734055605784
1128 85.0804067029045
1129 85.08253033459405
1130 85.07648641375997
1131 85.07875618464702
1132 85.07077406321416
1133 85.07255405005871
1134 85.06452149046279
1135 85.06775174005952
1136 85.05844298486585
1137 85.06009577580667
1138 85.05141537003611
1139 85.05640002828527
1140 85.04888595576435
1141 85.05015775187096
1142 85.04530462146764
1143 85.04649545942053
1144 85.04021192011739
1145 85.04283078265428
1146 85.03851743594852
1147 85.04128709914355
1148 85.036743414734
1149 85.03856974000203
1150 85.03570757492304
1151 85.03647177063642
1152 85.03310607579834
1153 85.03338132911969
1154 85.03171707982149
1155 85.03117336503578
1156 85.02917068720451
1157 85.0301281599757
1158 85.03161608779733
1159 85.03189900019466
1160 85.03344381838411
1161 85.03226923544938
1162 85.03517802630488
1163 85.0351022625411
1164 85.03335476382991
1165 85.03526385495825
1166 85.03579283667359
1167 85.0379608026458
1168 85.03472675247393
1169 85.03770832523503
1170 85.03397063264399
1171 85.03899757850985
1172 85.03481282871809
1173 85.03951738868203
1174 85.03403215240924
1175 85.04030175972098
1176 85.03613469559939
1177 85.04209774157472
1178 85.03732820602755
1179 85.04375070323582
1180 85.0420521648477
1181 85.04784238245888
1182 85.04706779178366
1183 85.05535899725911
1184 85.05279512400753
1185 85.06423506126218
1186 85.05983412465953
1187 85.07129089940555
1188 85.06686351523308
1189 85.07583711915879
1190 85.07161803980729
1191 85.0813209045907
1192 85.07613612491568
1193 85.08303608600595
1194 85.08088142242401
1195 85.08683304396082
1196 85.08525041936603
1197 85.08742478499177
1198 85.08413690781056
1199 85.0877342919193
1200 85.08473598768468
1201 85.08379762478647
1202 85.07630565149094
1203 85.07089181941723
1204 85.06391147097447
1205 85.05738883623788
1206 85.0485560021902
1207 85.04528260334496
1208 85.03597994974447
1209 85.03028691449934
1210 85.01886196655592
1211 85.01775439981658
1212 85.00849561364942
1213 85.00687082857347
1214 85.00127656085373
1215 85.00057359818271
1216 84.99310766835892
1217 84.9971673334127
1218 84.99402051556548
1219 84.99991663818933
1220 84.99920443127176
1221 85.00606884710056
1222 85.00567259152373
1223 85.01306842643176
1224 85.01466161966728
1225 85.02390060141356
1226 85.02831651392216
1227 85.03404454508846
1228 85.03631402078138
1229 85.03927023677571
1230 85.04341238917928
1231 85.04616514998844
1232 85.04941604466197
1233 85.05133824887346
1234 85.05372344775898
1235 85.05499883771218
1236 85.05616367343706
1237 85.05675425190489
1238 85.06031280299325
1239 85.05840744039968
1240 85.06185214341622
1241 85.05988883409638
1242 85.06373209948308
1243 85.06338085459609
1244 85.06523968179268
1245 85.06539035508578
1246 85.06627634222502
1247 85.06737096333183
1248 85.06533573590775
1249 85.07128354199288
1250 85.0696104833781
1251 85.07315401407607
1252 85.07395466005714
1253 85.07921686447361
1254 85.07693148686361
1255 85.08177195415168
1256 85.07951710404696
1257 85.07973643493499
1258 85.07550934899098
1259 85.07653004497782
1260 85.07287613850842
1261 85.07140647385603
1262 85.06474774135972
1263 85.06497566633981
1264 85.0564777842348
1265 85.05558207876635
1266 85.04576527958754
1267 85.04502220721606
1268 85.03683631864762
1269 85.03365871444436
1270 85.02486142065801
1271 85.02544863329449
1272 85.01594150093399
1273 85.01535709811871
1274 85.00838712098519
1275 85.0093425296308
1276 85.00425740426225
1277 85.00823316059167
1278 85.00362815074362
1279 85.00961138216925
1280 85.0045924710419
1281 85.01144308050149
1282 85.00736492029984
1283 85.01501085222817
1284 85.01022610551586
1285 85.01806903553724
1286 85.01551113672859
1287 85.02543434062395
1288 85.02138508769127
1289 85.02956272351651
1290 85.02887415805463
1291 85.0382423365613
1292 85.03676846052699
1293 85.04510580814423
1294 85.04252365161881
1295 85.05424018781564
1296 85.05296553343157
1297 85.06402675079606
1298 85.06043573539509
1299 85.07051420406964
1300 85.07022063582508
1301 85.07824515255955
1302 85.07593835071994
1303 85.08594993263709
1304 85.0832687483435
1305 85.08832096927058
1306 85.08384867463218
1307 85.09295360457872
1308 85.09009440188578
1309 85.08984061050222
1310 85.08400898005844
1311 85.0834515184997
1312 85.07815379075123
1313 85.07546193422581
1314 85.06780722696969
1315 85.06809999014529
1316 85.06012715298786
1317 85.05603047864997
1318 85.04689684867316
1319 85.04395994316069
1320 85.03502748331476
1321 85.03238872025075
1322 85.0251103203897
1323 85.02164993555483
1324 85.01339273703407
1325 85.01286059994925
1326 85.00767619311928
1327 85.01067434103362
1328 85.00541700103139
1329 85.00846947767307
1330 85.00439946986545
1331 85.01123048376303
1332 85.00577255667328
1333 85.01414289192263
1334 85.01184077503032
1335 85.01980215179418
1336 85.01808284041317
1337 85.02534317714117
1338 85.0225696717619
1339 85.03027841699431
1340 85.02907229406276
1341 85.03355566209251
1342 85.03125516007809
1343 85.03572426258667
1344 85.0326063818645
1345 85.03916144117288
1346 85.03685110789553
1347 85.0428351473241
1348 85.04091749696299
1349 85.04301460428979
1350 85.04163988721578
1351 85.0459162104363
1352 85.04613773179777
1353 85.04942634354384
1354 85.04941753196773
1355 85.05786297681217
1356 85.05933613644785
1357 85.06694001118653
1358 85.06880915998543
1359 85.07586488700646
1360 85.07748275505847
1361 85.08242057451464
1362 85.08523147831892
1363 85.09301019207373
1364 85.09442914041421
1365 85.09747016602805
1366 85.0970480537616
1367 85.10092447280945
1368 85.09993954625473
1369 85.10248512280228
1370 85.09919768513808
1371 85.09915986122377
1372 85.09297506509417
1373 85.09325185377691
1374 85.08501381410589
1375 85.0831280015844
1376 85.071211532894
1377 85.06793480242786
1378 85.05832925552356
1379 85.05269914813992
1380 85.04144788896612
1381 85.03509216097096
1382 85.02513928276689
1383 85.01703599549508
1384 85.00864286531191
1385 85.00208514183791
1386 84.99632337513265
1387 84.99305637442521
1388 84.98666958611014
1389 84.98646276539172
1390 84.97895178925278
1391 84.98034367733469
1392 84.97457194133582
1393 84.97915196349186
1394 84.97716304236904
1395 84.98429167737613
1396 84.98462852954243
1397 84.99109970499939
1398 84.99401503795946
1399 85.00271634910773
1400 85.00821262581182
1401 85.01507853444095
1402 85.01980005498159
1403 85.02921082082263
1404 85.03578843850316
1405 85.0446325987615
1406 85.04702887219068
1407 85.05772303492186
1408 85.06202393287164
1409 85.07094125014559
1410 85.07613169053288
1411 85.08400260545585
1412 85.08873901129715
1413 85.09489387630005
1414 85.0990582548756
1415 85.10349714311756
1416 85.1040222949519
1417 85.10675349616106
1418 85.10814897517648
1419 85.10659332326216
1420 85.1036046197261
1421 85.09873621642353
1422 85.09603347447315
1423 85.09136834639807
1424 85.08635228297229
1425 85.0814031401171
1426 85.07536841705544
1427 85.07012259184353
1428 85.06234794303668
1429 85.05777473874387
1430 85.05139122011377
1431 85.04544222098006
1432 85.03798639810007
1433 85.03320320718949
1434 85.03042498938528
1435 85.02683232455389
1436 85.01993295474146
1437 85.01965841444827
1438 85.01400713979494
1439 85.01629178747272
1440 85.01136043828197
1441 85.01340042623789
1442 85.00982210868635
1443 85.01432834641791
1444 85.00956559697484
1445 85.01144297605607
1446 85.00938949692375
1447 85.01403805599712
1448 85.01095811910936
1449 85.01799096082794
1450 85.00972146178746
1451 85.0198129888083
1452 85.01276314848961
1453 85.02396265875214
1454 85.0163035263088
1455 85.02844140569094
1456 85.02116016781409
1457 85.03162339383795
1458 85.02499722857476
1459 85.0378093143663
1460 85.03605874082484
1461 85.04305277210105
1462 85.04100690694631
1463 85.05237643017519
1464 85.04917307735452
1465 85.05987998747591
1466 85.06011712524628
1467 85.07143938912067
1468 85.068933026842
1469 85.07967560788546
1470 85.07724375278902
1471 85.08833278282025
1472 85.08452752772537
1473 85.09266003931731
1474 85.08819160180865
1475 85.09631463810921
1476 85.09017627688497
1477 85.09460725010109
1478 85.09322430324137
1479 85.09426831684476
1480 85.0926779097728
1481 85.09016739450428
1482 85.090304376953
1483 85.08546412730735
1484 85.08336258534825
1485 85.07872189119574
1486 85.07472825591219
1487 85.07128704251507
1488 85.06577503015643
1489 85.05992562232389
1490 85.05298680177891
1491 85.04806786535816
1492 85.03910961331165
1493 85.03075644487053
1494 85.02516062062297
1495 85.01794137811397
1496 85.01366204895081
1497 85.00293322872288
1498 84.99999369243845
1499 84.99442644433252
1500 84.9955149719986
1501 84.98916545770139
1502 84.98821637612662
1503 84.98587410995235
1504 84.98658638146424
1505 84.98684562711814
1506 84.9886554711963
1507 84.99466014831583
1508 84.99574773732863
1509 85.00219611327344
1510 85.00396720550113
1511 85.01563138521244
1512 85.01176482344405
1513 85.02501161939122
1514 85.02271612859961
1515 85.03530255774251
1516 85.03177433964861
1517 85.04773498193019
1518 85.04583640515533
1519 85.06028803998792
1520 85.05561320913615
1521 85.06947424592227
1522 85.06482517099843
1523 85.07796634029897
1524 85.07383504522814
1525 85.08344176224441
1526 85.0814883629785
1527 85.08886416764375
1528 85.083167426849
1529 85.08912948918594
1530 85.08469268048468
1531 85.08746933631305
1532 85.08552447258054
1533 85.08789278807859
1534 85.08386391677955
1535 85.08377039455317
1536 85.08221223831444
1537 85.08101663642417
1538 85.07861792548205
1539 85.07684570517611
1540 85.07514930405236
1541 85.07226537413051
1542 85.07036600101208
1543 85.06862847691824
1544 85.06587673976027
1545 85.06327327965538
1546 85.0597234930577
1547 85.05981304330894
1548 85.0533253670451
1549 85.05559351822349
1550 85.04701062619321
1551 85.04817195781642
1552 85.03737062628852
1553 85.03938634379809
1554 85.02736401483355
1555 85.02937034124373
1556 85.01811470952832
1557 85.018348124063
1558 85.00651186921235
1559 85.00999620909521
1560 85.0016366479816
1561 85.00329466305077
1562 84.99582283637889
1563 84.99948319738979
1564 84.99090081532904
1565 84.99706819310263
1566 84.99269555358327
1567 85.00187823530551
1568 85.00012552457079
1569 85.00698940787869
1570 85.00824132785132
1571 85.01503909054391
1572 85.01674936482871
1573 85.02553753042717
1574 85.03052341592321
1575 85.03808756054808
1576 85.043650896765
1577 85.05221603650897
1578 85.0577134877671
1579 85.06725190737151
1580 85.0716248445368
1581 85.07923947310697
1582 85.0819127354596
1583 85.09072393362145
1584 85.09110497523085
1585 85.09629946207437
1586 85.09784113114816
1587 85.10035174568492
1588 85.09735109026791
1589 85.09819452872263
1590 85.09218624120076
1591 85.09481557799084
1592 85.08843556702996
1593 85.08844329201882
1594 85.08004760752044
1595 85.0809852071207
1596 85.07267598261876
1597 85.06990817413245
1598 85.06243602165387
1599 85.0598112818948
1600 85.05309952653417
1601 85.05025091901085
1602 85.04488956317046
1603 85.04211622293036
1604 85.0358185159422
1605 85.03300535384584
1606 85.02485020518549
1607 85.02278007822959
1608 85.01614436109622
1609 85.01199934189309
1610 85.00724306363684
1611 85.00488087897367
1612 85.00035911804575
1613 84.99964960112557
1614 84.99774361569078
1615 84.99952212101469
1616 84.99736890219638
1617 85.00112788091103
1618 85.00140897813715
1619 85.00705807955616
1620 85.00809445318519
1621 85.01387759966177
1622 85.01613923068895
1623 85.02306822705646
1624 85.02489296938218
1625 85.0332170455835
1626 85.03241521351825
1627 85.04511273511299
1628 85.04171348421167
1629 85.04994385980351
1630 85.04672661179198
1631 85.05662742717689
1632 85.05272848351321
1633 85.0616401391697
1634 85.0560115856167
1635 85.06460303324126
1636 85.05621101928799
1637 85.06638664037499
1638 85.05732153199617
1639 85.06756385481444
1640 85.05807453258195
1641 85.06582309224422
1642 85.05745440288463
1643 85.06700710886385
1644 85.05985573849756
1645 85.06950222858153
1646 85.06637168135231
1647 85.07473285291141
1648 85.06984305209508
1649 85.07895136186751
1650 85.07620926340593
1651 85.0819322270232
1652 85.08061154113322
1653 85.08724936459959
1654 85.0860918969899
1655 85.09002346562959
1656 85.09007368534907
1657 85.09242236109475
1658 85.09085948895533
1659 85.08883403574893
1660 85.08401097863762
1661 85.08214165552221
1662 85.07761726363191
1663 85.07506355115389
1664 85.06401285850509
1665 85.05987565509828
1666 85.04907405649715
1667 85.04524922879034
1668 85.03298992173173
1669 85.02787651022193
1670 85.01640619801219
1671 85.01221420969162
1672 85.00164684041884
1673 84.99778591215113
1674 84.99065748046225
1675 84.98837467576902
1676 84.98408858204094
1677 84.98326479178209
1678 84.97952989526291
1679 84.98409345448587
1680 84.98317163765439
1681 84.98661553363632
1682 84.9910429893521
1683 84.99542000835704
1684 85.00260391617205
1685 85.00857537651891
1686 85.01601870795767
1687 85.02161331890578
1688 85.03235676752726
1689 85.03639274930687
1690 85.04506174548925
1691 85.04821003837499
1692 85.05879853899556
1693 85.06145332389568
1694 85.06872977422437
1695 85.0723929852002
1696 85.07766257784205
1697 85.07918743871078
1698 85.08278125206604
1699 85.0855847290904
1700 85.08683693615781
1701 85.08845650916328
1702 85.08395462039911
1703 85.0858854218454
1704 85.08223168886261
1705 85.08478690944908
1706 85.07861884550412
1707 85.08267435904514
1708 85.07271041715886
1709 85.07743935507889
1710 85.06870283840907
1711 85.07290008879362
1712 85.06469106107978
1713 85.06806893702857
1714 85.05934110447701
1715 85.06010872734149
1716 85.05437819480018
1717 85.05457425967928
1718 85.05013565809115
1719 85.04955279582174
1720 85.04389896452453
1721 85.04498355944023
1722 85.03614379060667
1723 85.03741494537793
1724 85.02880866474516
1725 85.02960561080418
1726 85.02275817580902
1727 85.02411075851708
1728 85.01796105179983
1729 85.01904770349584
1730 85.01243439355906
1731 85.01448478955682
1732 85.0111852564745
1733 85.01356699793743
1734 85.00902130150955
1735 85.01553515963514
1736 85.01159329789027
1737 85.01703684658102
1738 85.01433991670289
1739 85.0225713642776
1740 85.0239521510512
1741 85.03146424226088
1742 85.03251240206218
1743 85.0383701377142
1744 85.03796246473645
1745 85.04414326115695
1746 85.04348664902381
1747 85.05183830736873
1748 85.04976239820746
1749 85.05572161137563
1750 85.05330264876748
1751 85.06240882079452
1752 85.05881160451237
1753 85.06758471032687
1754 85.06488915089797
1755 85.07016470849223
1756 85.06891099966407
1757 85.07543244835843
1758 85.07213481894573
1759 85.07970812008462
1760 85.07758208023571
1761 85.08061645774794
1762 85.08077137519894
1763 85.08281936615245
1764 85.08011968543131
1765 85.08266955787829
1766 85.08111891111622
1767 85.08163919218522
1768 85.07708690157413
1769 85.07659046859345
1770 85.07516575985068
1771 85.07193266740349
1772 85.06841330560866
1773 85.06314036966646
1774 85.05774896777424
1775 85.05418067596183
1776 85.05062826596114
1777 85.04541455404122
1778 85.0413723857001
1779 85.03618884838104
1780 85.03049680978694
1781 85.02416138482002
1782 85.02177126703751
1783 85.01660865908208
1784 85.01180778901937
1785 85.00926544119996
1786 85.00581753329266
1787 85.00644736158432
1788 85.00586370891494
1789 85.00499725955805
1790 85.00535043126061
1791 85.00970030872504
1792 85.01160860534679
1793 85.01463823684927
1794 85.01956816119211
1795 85.02416487908849
1796 85.03003588848205
1797 85.03198751427898
1798 85.03574721183293
1799 85.03805355248834
1800 85.04421241212602
1801 85.0428511758992
1802 85.04648266931193
1803 85.04662267925964
1804 85.04674250062587
1805 85.04434566122093
1806 85.04547819840371
1807 85.04605496632765
1808 85.04541554891178
1809 85.04368571470464
1810 85.04218762523246
1811 85.04317978987777
1812 85.04310042198475
1813 85.04582356539674
1814 85.04652091379623
1815 85.0510950340872
1816 85.04993984820955
1817 85.05416308295737
1818 85.05404961105087
1819 85.0602398787066
1820 85.06142625566136
1821 85.06401352403262
1822 85.0630334446908
1823 85.06856139651684
1824 85.06808241185104
1825 85.07231793327757
1826 85.07098219235993
1827 85.07577409002461
1828 85.07089971274388
1829 85.07618269290211
1830 85.07257949334894
1831 85.07597914621464
1832 85.07139614419633
1833 85.0754377520455
1834 85.07098099057028
1835 85.07114207077592
1836 85.06769762812648
1837 85.06643018873059
1838 85.06453760868101
1839 85.06188148674944
1840 85.05703095867717
1841 85.05269330448886
1842 85.04742448208565
1843 85.04425644327279
1844 85.03644136644823
1845 85.03465559042621
1846 85.02576989929463
1847 85.02513939249602
1848 85.01404531839617
1849 85.01722032536554
1850 85.0080562532959
1851 85.01051777204403
1852 85.00227022374754
1853 85.00720224179258
1854 85.00166430243993
1855 85.00828071558632
1856 85.00398802110182
1857 85.01247932371963
1858 85.01001407014766
1859 85.02015798074734
1860 85.02055008837725
1861 85.02842225613693
1862 85.02934980594992
1863 85.03779893422588
1864 85.03969440186562
1865 85.04828598212836
1866 85.04905941287981
1867 85.05890013743151
1868 85.05948544441625
1869 85.06594314671938
1870 85.06646728901495
1871 85.07518864137113
1872 85.07407925771534
1873 85.07957992877354
1874 85.0764523487781
1875 85.08007686898438
1876 85.07661305134411
1877 85.07840703050169
1878 85.07722973404967
1879 85.07439085740285
1880 85.07419949318299
1881 85.07089476877077
1882 85.06912619759461
1883 85.0666586720378
1884 85.06368559635669
1885 85.06049253402946
1886 85.06044629600433
1887 85.05660424752996
1888 85.05253801861251
1889 85.04884813550363
1890 85.04405649864184
1891 85.04411574786465
1892 85.03902252813724
1893 85.04075646286721
1894 85.03387548151377
1895 85.03723884393389
1896 85.02918750994553
1897 85.03336318711156
1898 85.02934103238162
1899 85.03089055837455
1900 85.02840680226738
1901 85.02969481620296
1902 85.02939674469522
1903 85.03169495564471
1904 85.03002492109059
1905 85.03395674257973
1906 85.03014787756027
1907 85.03383364598896
1908 85.03106167357558
1909 85.03525893037461
1910 85.03403489773923
1911 85.03692384629821
1912 85.03433270202541
1913 85.03683425474664
1914 85.03829842384155
1915 85.0387273059733
1916 85.03843689577542
1917 85.0390037679817
1918 85.03877617589261
1919 85.03844665700953
1920 85.03633614830849
1921 85.03740691231197
1922 85.03698760798575
1923 85.03735864638161
1924 85.03649217323809
1925 85.03804846114033
1926 85.03434764088291
1927 85.04072319780508
1928 85.03711709154955
1929 85.04218560449
1930 85.03675190566696
1931 85.04445236493319
1932 85.03946692097658
1933 85.04810409791179
1934 85.04694243783638
1935 85.05636394704248
1936 85.05505167871199
1937 85.06442998505369
1938 85.0634292383248
1939 85.07540461130314
1940 85.07285743293247
1941 85.0820401678717
1942 85.07691821083637
1943 85.08866715104257
1944 85.07954996300055
1945 85.09135087245879
1946 85.08450131997407
1947 85.09228076203625
1948 85.08375428542649
1949 85.09145030333256
1950 85.08647255650808
1951 85.08658908466933
1952 85.07944301709439
1953 85.07926083819234
1954 85.07255513077816
1955 85.0691174561321
1956 85.0623588838573
1957 85.0576974024214
1958 85.05029793761449
1959 85.04494199821229
1960 85.03655634181864
1961 85.02955526936752
1962 85.02182187075904
1963 85.01604973910861
1964 85.00915503373758
1965 85.00561041603476
1966 84.99857278782987
1967 84.99798586659701
1968 84.99223418555773
1969 84.99310019627669
1970 84.99213870415041
1971 84.99580515397264
1972 84.99138226767285
1973 85.00026803380409
1974 84.99978068525679
1975 85.01144128618384
1976 85.01078574669963
1977 85.02243065132953
1978 85.02478885335046
1979 85.03432325028025
1980 85.03990087178198
1981 85.04464201123935
1982 85.05083274357952
1983 85.05275628936467
1984 85.05793528331701
1985 85.05940422967119
1986 85.06307415881315
1987 85.06348760922506
1988 85.06592792956639
1989 85.06231328081557
1990 85.06160507012223
1991 85.06029618242758
1992 85.06310888358269
1993 85.0567944059149
1994 85.05977758152225
1995 85.05677153640414
1996 85.05965612117198
1997 85.05370904951837
1998 85.05933193280705
1999 85.05471966211003
2000 85.05987083371231
2001 85.05859399408224
2002 85.06071295978762
2003 85.06049795833648
2004 85.06196133622191
2005 85.06483523762691
2006 85.06449781025115
2007 85.06757500460836
2008 85.06550480867654
2009 85.06917602501552
2010 85.06899282709439
2011 85.07028289472487
2012 85.06588304806768
2013 85.06576080433381
2014 85.05939323789782
2015 85.06080161695753
2016 85.05180063740936
2017 85.0528158506083
2018 85.04342803964524
2019 85.04354430528612
2020 85.03541461612134
2021 85.03098812124792
2022 85.02372479155396
2023 85.02511890651911
2024 85.01991327408686
2025 85.01798445582993
2026 85.01331083357604
2027 85.0159833185951
2028 85.01386166395002
2029 85.01242884796328
2030 85.01428041189914
2031 85.01572820917147
2032 85.01653866562302
2033 85.01921697676464
2034 85.02066117529965
2035 85.02696288705133
2036 85.02410902183205
2037 85.03047852566547
2038 85.02635915984072
2039 85.03778089052244
2040 85.03292059520469
2041 85.04412866278518
2042 85.04045926120629
2043 85.04987675546541
2044 85.04670464086271
2045 85.05836859959956
2046 85.05503185868353
2047 85.06875196701102
2048 85.06313037234973
2049 85.07675878491473
2050 85.06928897750812
2051 85.08080232925401
2052 85.07466664188493
2053 85.08249373120994
2054 85.07704739516028
2055 85.08363271574333
2056 85.07681929293926
2057 85.08195994091501
2058 85.07678778282251
2059 85.08036211326473
2060 85.07641942215042
2061 85.07806890074411
2062 85.07171827222427
2063 85.07391967294474
2064 85.06897269744202
2065 85.06965147053381
2066 85.06452012661012
2067 85.06218665898209
2068 85.05784916494181
2069 85.05285633301247
2070 85.0490885185299
2071 85.04601978472552
2072 85.04392905189582
2073 85.03886542766493
2074 85.03472141701637
2075 85.03301203991823
2076 85.03092301488402
2077 85.02486149015387
2078 85.02322306383735
2079 85.02264261817459
2080 85.01771127709732
2081 85.01678855245444
2082 85.01337851061022
2083 85.01535367902841
2084 85.01245459643481
2085 85.01567232105704
2086 85.01131613124782
2087 85.01873495094121
2088 85.01508063305589
2089 85.02156138474093
2090 85.01559012804529
2091 85.0235279973755
2092 85.01747774748486
2093 85.02382221547784
2094 85.01876767377821
2095 85.0250591348979
2096 85.01776632085213
2097 85.02418358104836
2098 85.01903851826037
2099 85.02684578784486
2100 85.0226928457795
2101 85.03060308611745
2102 85.03097607121823
2103 85.03566261499756
2104 85.03442220190601
2105 85.0399058999528
2106 85.04174355029718
2107 85.04629245077163
2108 85.04789819979644
2109 85.05449681515772
2110 85.0555366465549
2111 85.06414556675119
2112 85.06485911753926
2113 85.07407762640919
2114 85.07514671566308
2115 85.08528685910096
2116 85.0870025595799
2117 85.09512132693145
2118 85.09814872778989
2119 85.10531692866314
2120 85.10783924088847
2121 85.1087963957675
2122 85.10564240181593
2123 85.10722167806274
2124 85.1020522022295
2125 85.10239659010983
2126 85.09322609083004
2127 85.09298849407742
2128 85.08145005288398
2129 85.07725597297579
2130 85.06318003864401
2131 85.06186479489809
2132 85.04636799191876
2133 85.0427091882991
2134 85.02650689576406
2135 85.02427165707005
2136 85.01176960659502
2137 85.00830856289535
2138 85.00124228687625
2139 84.99700410452772
2140 84.99533403656604
2141 84.99127772502939
2142 84.99294793920603
2143 84.99193619222257
2144 84.99338169124852
2145 84.99556102556961
2146 84.99701124913847
2147 85.00208136200757
2148 85.00461658883006
2149 85.00869069442147
2150 85.01438077771898
2151 85.02006844397272
2152 85.02425209242188
2153 85.03177826510395
2154 85.03611718911036
2155 85.04424497167253
2156 85.04345020310822
2157 85.05431771676032
2158 85.05216297031258
2159 85.0648620183218
2160 85.06172148249621
2161 85.0720504795008
2162 85.06630552379707
2163 85.07612646278045
2164 85.06986472729669
2165 85.07699683192439
2166 85.07133109066768
2167 85.079204839582
2168 85.07311717920409
2169 85.07877890693334
2170 85.07330720600227
2171 85.07852715564786
2172 85.07282335858667
2173 85.07555868639182
2174 85.07017922989303
2175 85.0703524261049
2176 85.06705814092686
2177 85.06498834629612
2178 85.06144509912983
2179 85.06037937712628
2180 85.06041336852932
2181 85.05601699311018
2182 85.05618689054285
2183 85.05458123304545
2184 85.05274201588523
2185 85.05202676521152
2186 85.05108364838436
2187 85.04962850339332
2188 85.04538864063559
2189 85.04652525031966
2190 85.04352327067151
2191 85.0431996758588
2192 85.0382538808658
2193 85.03967186949326
2194 85.03389252564594
2195 85.03555202483921
2196 85.02791930448251
2197 85.0294872078652
2198 85.0244962542815
2199 85.02405607787779
2200 85.01790487774144
2201 85.0164610845558
2202 85.01175067729621
2203 85.01118275033959
2204 85.00620258726887
2205 85.00687166311778
2206 85.00266547897351
2207 85.00396526285697
2208 85.00095408543034
2209 85.0026474927046
2210 85.00431921543492
2211 85.00541340330864
2212 85.00716786521893
2213 85.01094838882234
2214 85.01695244878614
2215 85.02030136058232
2216 85.0258217519393
2217 85.02967975094695
2218 85.03857269439578
2219 85.04350110005235
2220 85.05222926835957
2221 85.05843756535917
2222 85.06581569135358
2223 85.07284990053316
2224 85.07719254670627
2225 85.08650069188513
2226 85.08921051744699
2227 85.09727739041979
2228 85.09690003383773
2229 85.10619137392524
2230 85.10208179081599
2231 85.11052593448265
2232 85.10303520009997
2233 85.11198566204639
2234 85.1026775984346
2235 85.10846408332247
2236 85.09918940030533
2237 85.10099186392182
2238 85.0904656601425
2239 85.09379843654139
2240 85.08231443560796
2241 85.08330125963634
2242 85.07194438941518
2243 85.07064476849951
2244 85.05908884577042
2245 85.05687439942896
2246 85.04796830424935
2247 85.04665804766108
2248 85.03216654511988
2249 85.03072065100677
2250 85.01941896945539
2251 85.01820018627139
2252 85.00701879793196
2253 85.00678566354493
2254 84.99596568426763
2255 84.99858482417164
2256 84.99112880932536
2257 84.99273141101146
2258 84.98851206951976
2259 84.99101114380625
2260 84.99080451153075
2261 84.99164681027558
2262 84.99303187925779
2263 84.99721219113486
2264 84.99999296415304
2265 85.00536977073203
2266 85.00504957849171
2267 85.01524407037247
2268 85.01511870964778
2269 85.02404817057213
2270 85.02146617979083
2271 85.03238315020596
2272 85.03025025625553
2273 85.03900814918971
2274 85.03709203728306
2275 85.04947730692039
2276 85.04687215321654
2277 85.05565758249477
2278 85.0538538936168
2279 85.0646963865097
2280 85.06305704477199
2281 85.07155004964814
2282 85.06722076234047
2283 85.07662987585977
2284 85.07220430462412
2285 85.07875276493684
2286 85.07372887549579
2287 85.08285687391027
2288 85.07839404451063
2289 85.08211767196059
2290 85.07801614701981
2291 85.0804203446866
2292 85.08031536397274
2293 85.08003500172738
2294 85.08064848586709
2295 85.08067827084663
2296 85.07850300795108
2297 85.0806354245786
2298 85.07883132360513
2299 85.07813572655219
2300 85.07252286673268
2301 85.07228259871719
2302 85.06639097761328
2303 85.06323524457707
2304 85.05675718451319
2305 85.05192604982531
2306 85.04315188080697
2307 85.0392824212861
2308 85.02791443005293
2309 85.02440190743073
2310 85.01362085234182
2311 85.011137807129
2312 84.99873777305585
2313 84.99912740183198
2314 84.98973446355861
2315 84.98913923457211
2316 84.98171113912976
2317 84.98599537474153
2318 84.98225818350214
2319 84.98840835046751
2320 84.98703917070392
2321 84.99356286788459
2322 84.99545165667914
2323 85.0026716147092
2324 85.00797387572273
2325 85.01537711129406
2326 85.02349475821559
2327 85.0310744766264
2328 85.03976488811324
2329 85.0477508614502
2330 85.05746293100466
2331 85.06193146676706
2332 85.07094955354412
2333 85.07662217495097
2334 85.0854173467643
2335 85.08868434576263
2336 85.09335354106602
2337 85.0964050385429
2338 85.09806019160985
2339 85.10123303214181
2340 85.10153356493349
2341 85.10100184599722
2342 85.0973153966461
2343 85.0976572719412
2344 85.08991541744756
2345 85.09019038760705
2346 85.08048300011215
2347 85.08344155602117
2348 85.07236055198288
2349 85.07677594959672
2350 85.06344908480894
2351 85.0684894804087
2352 85.05617238213048
2353 85.06022771966838
2354 85.04935935937402
2355 85.05481183594472
2356 85.04427730176462
2357 85.04661949150245
2358 85.03768652534191
2359 85.04145511371067
2360 85.03567399404962
2361 85.03460094104712
2362 85.02712114014071
2363 85.02608639552314
2364 85.02016997453424
2365 85.02068769595749
2366 85.01498181988201
2367 85.01536282706275
2368 85.01102086449761
2369 85.01028283483097
2370 85.01021152705701
2371 85.00954099457429
2372 85.00844532476111
2373 85.00907683675018
2374 85.01009708556411
2375 85.01110668789205
2376 85.01068023951153
2377 85.0127216509256
2378 85.01425841091837
2379 85.01641663052489
2380 85.01716486522174
2381 85.01879558775079
2382 85.01973243128728
2383 85.02284980908341
2384 85.0272113982646
2385 85.03010668392895
2386 85.0330894286854
2387 85.0382980563255
2388 85.04224798547602
2389 85.04634889899185
2390 85.04638614491286
2391 85.05291886725428
2392 85.05360927643505
2393 85.05740180684971
2394 85.0572451686982
2395 85.06378883110871
2396 85.06714226271137
2397 85.0700116282469
2398 85.07225395080563
2399 85.07734851107786
2400 85.08347792020938
2401 85.08594522180974
2402 85.08940647785019
2403 85.09170366738417
2404 85.09489924950852
2405 85.09482201447041
2406 85.09705818747668
2407 85.09692738999836
2408 85.09649406280775
2409 85.09351490284519
2410 85.09023953189535
2411 85.08986967614634
2412 85.08358456161162
2413 85.07951133357525
2414 85.07426425661392
2415 85.06986412790111
2416 85.05953806483151
2417 85.05499741440195
2418 85.04402142827647
2419 85.04100826424431
2420 85.02852553232607
2421 85.02461681151262
2422 85.01212242341445
2423 85.00994441275421
2424 84.99812603878763
2425 84.99941239591018
2426 84.98926551056971
2427 84.99048673382299
2428 84.98102732937139
2429 84.98496478499268
2430 84.97980873398907
2431 84.98759776300224
2432 84.98340566560633
2433 84.9928293337407
2434 84.99147581412322
2435 85.00536449166076
2436 85.00601063784217
2437 85.0192327876273
2438 85.01960973478934
2439 85.03445657331329
2440 85.03803726694615
2441 85.05102985563231
2442 85.05261103097158
2443 85.06599569110865
2444 85.06669319570646
2445 85.07347696223098
2446 85.07316183769279
2447 85.08155089203949
2448 85.08028152996647
2449 85.08259277169645
2450 85.07862879724074
2451 85.08400541064819
2452 85.07783849926325
2453 85.08167743738983
2454 85.07507443513407
2455 85.07855739662499
2456 85.07003169455749
2457 85.07239416111261
2458 85.06445061463464
2459 85.06691630406792
2460 85.05807870396995
2461 85.06268412577704
2462 85.05867281154535
2463 85.05721553291707
2464 85.05415596117344
2465 85.05299305999213
2466 85.05233383481723
2467 85.05238765594558
2468 85.04928488800606
2469 85.04841754930817
2470 85.04551411576048
2471 85.04723864579923
2472 85.04407522137558
2473 85.04314142170588
2474 85.04015481269039
2475 85.03782262910539
2476 85.03623527407343
2477 85.03302398546315
2478 85.03095658586371
2479 85.03023148847039
2480 85.02758130157669
2481 85.0241858567601
2482 85.02264262362469
2483 85.02047466937121
2484 85.01691991994828
2485 85.01595706720778
2486 85.01353758262005
2487 85.01745036293597
2488 85.01122440177836
2489 85.0171445538933
2490 85.01382410511495
2491 85.02077210717327
2492 85.01879389379936
2493 85.02554886454702
2494 85.02242308445395
2495 85.03135597913023
2496 85.02796903507132
2497 85.03590061214179
2498 85.03288573736882
2499 85.04200404078232
2500 85.0382611414794
2501 85.04605068414686
2502 85.0431361180724
2503 85.0520006726732
2504 85.04608830607928
2505 85.05429001967833
2506 85.05112400487248
2507 85.06029937622974
2508 85.05721135722986
2509 85.0639166527795
2510 85.06300558086247
2511 85.06935702458588
2512 85.06978871577245
2513 85.07655209376627
2514 85.07746152525486
2515 85.08211258314877
2516 85.08441905826444
2517 85.08703800588054
2518 85.08971742127709
2519 85.08916763747523
2520 85.09205939700647
2521 85.09169141042476
2522 85.09175030561741
2523 85.08909572345205
2524 85.08654088586189
2525 85.08288353547596
2526 85.07912966936013
2527 85.07709353744615
2528 85.07122413305609
2529 85.06603855063449
2530 85.05654098181397
2531 85.0552512565019
2532 85.04487877535894
2533 85.04313997094276
2534 85.03270380016909
2535 85.03095957619131
2536 85.02212252137916
2537 85.01818408009871
2538 85.01105130496279
2539 85.00968239157257
2540 85.00663013614798
2541 85.00342763815522
2542 84.99961167214495
2543 85.00283787037782
2544 85.00093485051937
2545 85.00513424540939
2546 85.00778750700674
2547 85.01210557001829
2548 85.01263839460189
2549 85.01939727689246
2550 85.02080344105777
2551 85.02623506773827
2552 85.02744127026058
2553 85.03519705056182
2554 85.03387876886001
2555 85.04069157331537
2556 85.03939941167955
2557 85.04310088126903
2558 85.04446939560418
2559 85.04514945104245
2560 85.04705227069185
2561 85.04643197625384
2562 85.04889824109631
2563 85.04871550203082
2564 85.05004848336705
2565 85.05142929821373
2566 85.0520878449059
2567 85.05423943979255
2568 85.05621026523541
2569 85.05933923150617
2570 85.05837179761247
2571 85.06083149793902
2572 85.06452291954254
2573 85.0652846164208
2574 85.06974389334482
2575 85.07153769295722
2576 85.07456580173329
2577 85.07250485519459
2578 85.07436739973404
2579 85.07611530916925
2580 85.07651714262909
2581 85.07552092585622
2582 85.07712220231991
2583 85.07601286624714
2584 85.07574438305909
2585 85.07307659029567
2586 85.07196729229911
2587 85.07057504914245
2588 85.0679397600054
2589 85.06390349305374
2590 85.05737567774804
2591 85.05311441375935
2592 85.04675666020859
2593 85.04171730643606
2594 85.03377064259141
2595 85.03123986750768
2596 85.02182794989271
2597 85.0210706178179
2598 85.0140189619333
2599 85.01314403320295
2600 85.00724286312285
2601 85.00580480023548
2602 85.00411680134302
2603 85.00641870082538
2604 85.00531624710423
2605 85.00852431744545
2606 85.00922279878112
2607 85.0131030331986
2608 85.01307013546203
2609 85.01981433149393
2610 85.02170648286747
2611 85.02992315742694
2612 85.02730159054875
2613 85.03980577845648
2614 85.03960461550719
2615 85.04921782586868
2616 85.04688461955901
2617 85.06113790635305
2618 85.05853590211196
2619 85.07087162597553
2620 85.06824457152831
2621 85.07686149821038
2622 85.07470349999487
2623 85.08351665832839
2624 85.07999221304026
2625 85.08590501648408
2626 85.07824159408896
2627 85.08506328411261
2628 85.07697428915596
2629 85.08068809435551
2630 85.07224638358525
2631 85.07624824870163
2632 85.06957261161904
2633 85.06620858062045
2634 85.0626879548872
2635 85.05996942598878
2636 85.05933716891685
2637 85.05475459082304
2638 85.05346858339971
2639 85.05209747259747
2640 85.05076692404812
2641 85.05043774851268
2642 85.04866354170159
2643 85.0453982045111
2644 85.04308466866244
2645 85.04316778292309
2646 85.04187687424547
2647 85.04218056991787
2648 85.03990668350082
2649 85.04358779124861
2650 85.03872759184061
2651 85.04483404628392
2652 85.03873171848984
2653 85.0435114851507
2654 85.04020985029173
2655 85.04481713417397
2656 85.04027308127206
2657 85.04347848140483
2658 85.0414798594762
2659 85.04082135453355
2660 85.03980482772891
2661 85.03788314291776
2662 85.0337799502946
2663 85.03529896481191
2664 85.02835968585282
2665 85.03057259486816
2666 85.02415489321514
2667 85.02527219791293
2668 85.02132480434625
2669 85.02099193604279
2670 85.01685740636027
2671 85.01786064929834
2672 85.01470619185881
2673 85.01467986079189
2674 85.01224395046034
2675 85.01651990013612
2676 85.0122237619975
2677 85.01872826397189
2678 85.01815345436914
2679 85.0269541610482
2680 85.0275172283111
2681 85.03560510585787
2682 85.03605270012932
2683 85.04765637179703
2684 85.04843617988392
2685 85.05965780645096
2686 85.05900956625428
2687 85.0718655945071
2688 85.06969556873187
2689 85.08217780608007
2690 85.07959339361058
2691 85.09191867979303
2692 85.08511058505943
2693 85.09591525953746
2694 85.09206955486985
2695 85.09892688334944
2696 85.09225983907371
2697 85.09537586369545
2698 85.08764178883533
2699 85.08869478567506
2700 85.08204332149842
2701 85.08144067927631
2702 85.07329754788763
2703 85.07067166230932
2704 85.06137127473818
2705 85.0600106832284
2706 85.05038618526522
2707 85.04847586049458
2708 85.04189666139887
2709 85.03768035837753
2710 85.03453065693678
2711 85.02992543335215
2712 85.02620788523338
2713 85.02285289488466
2714 85.02031777667916
2715 85.01620677616889
2716 85.01510749510695
2717 85.01034575186789
2718 85.0110482707796
2719 85.01119911440976
2720 85.01468715503856
2721 85.01450678649378
2722 85.01660991924304
2723 85.02005691730453
2724 85.02492434646912
2725 85.02889987152736
2726 85.03179000548947
2727 85.03570278889364
2728 85.04384474533201
2729 85.04316770456276
2730 85.04978009930466
2731 85.05424617058711
2732 85.0565195083082
2733 85.05814991290231
2734 85.05860341624316
2735 85.06190097362959
2736 85.06119610052754
2737 85.06144606013005
2738 85.06185106885081
2739 85.06031785617195
2740 85.05859529033346
2741 85.05616579195927
2742 85.05507064087651
2743 85.05102965142746
2744 85.04863473298688
2745 85.04637916583394
2746 85.04479387182602
2747 85.04228825569638
2748 85.04212929624042
2749 85.04068377166119
2750 85.0431011351299
2751 85.04058871265849
2752 85.04336790134481
2753 85.04348357926386
2754 85.04781549564012
2755 85.05068177111865
2756 85.05383880374828
2757 85.0574225549592
2758 85.06054617356884
2759 85.0641235574774
2760 85.06899297648138
2761 85.07376019379666
2762 85.07314278771196
2763 85.07889995277179
2764 85.07531616647549
2765 85.07954237291486
2766 85.07141261545695
2767 85.07699903013223
2768 85.06627047574263
2769 85.06727167409984
2770 85.05310069907372
2771 85.05677807212167
2772 85.04275738515972
2773 85.04278562377078
2774 85.02964037040545
2775 85.029606586151
2776 85.01678587406873
2777 85.01862345708153
2778 85.00727571248295
2779 85.01220726389857
2780 85.004100838577
2781 85.00715908590857
2782 85.00218041203017
2783 85.00672172654824
2784 85.00250249360806
2785 85.00745756315902
2786 85.00465365486234
2787 85.01173404419715
2788 85.01010335142321
2789 85.01700582910428
2790 85.01517693467446
2791 85.02322923590316
2792 85.02241327611138
2793 85.0326416300086
2794 85.0306252466214
2795 85.04103966121527
2796 85.03850047540632
2797 85.04928885067008
2798 85.04720179302542
2799 85.05799817525185
2800 85.05423556536721
2801 85.06345981119161
2802 85.05964675230263
2803 85.07081451772741
2804 85.06460363391969
2805 85.07559260820493
2806 85.07125747272325
2807 85.07879696068852
2808 85.07336056484678
2809 85.08306906953817
2810 85.0765461549295
2811 85.08447914792964
2812 85.07731712582735
2813 85.08597376636803
2814 85.08078471899672
2815 85.08569128781444
2816 85.08423268541287
2817 85.0845141237573
2818 85.08215404198847
2819 85.08440374114603
2820 85.08283773642842
2821 85.07643309014307
2822 85.07369014901582
2823 85.06820182641219
2824 85.06615759017595
2825 85.05560102904325
2826 85.05334998961567
2827 85.04532008452338
2828 85.04367262088721
2829 85.03522971641767
2830 85.03033302135219
2831 85.02636287261564
2832 85.02017655130784
2833 85.0167326764371
2834 85.01369843717369
2835 85.0115846415508
2836 85.00765000268814
2837 85.00831031033992
2838 85.00409950429361
2839 85.00464810242613
2840 85.00226995364051
2841 85.00539274104176
2842 85.00480335792173
2843 85.0092899444403
2844 85.00576725250977
2845 85.01224193848191
2846 85.01087005468912
2847 85.01539963645553
2848 85.01358242797477
2849 85.01855192057134
2850 85.02237213103105
2851 85.02500106793502
2852 85.02880478244154
2853 85.03243201398972
2854 85.03683408175715
2855 85.04138354973536
2856 85.0448540698393
2857 85.05201696927423
2858 85.05519620001367
2859 85.06052620662227
2860 85.06128388111055
2861 85.06707217562959
2862 85.07064509103283
2863 85.07380200251671
2864 85.07742180715506
2865 85.0824440597498
2866 85.08483854453137
2867 85.08855771719179
2868 85.08953737397887
2869 85.09244559079768
2870 85.09129609473204
2871 85.09305611331666
2872 85.09266465022965
2873 85.09327782152803
2874 85.09080792752015
2875 85.09202311678391
2876 85.08665598234293
2877 85.08446964564156
2878 85.07286401395194
2879 85.07187440255429
2880 85.06224158936597
2881 85.05892482625704
2882 85.04445082054664
2883 85.04087719044624
2884 85.02955295827201
2885 85.02512920005549
2886 85.01374915246336
2887 85.01242837851065
2888 85.00220953820117
2889 85.00194611380657
2890 84.99019409278087
2891 84.9962062184144
2892 84.98691047861519
2893 84.99322546925259
2894 84.98699483277097
2895 84.99743933579535
2896 84.99480478751629
2897 85.00507168863341
2898 85.00415765727678
2899 85.01568055383567
2900 85.01843683502173
2901 85.02614427645096
2902 85.02977772133841
2903 85.03973765783702
2904 85.04200620689808
2905 85.04905452921184
2906 85.05044283261482
2907 85.05790875241209
2908 85.05703065949052
2909 85.06347891106947
2910 85.0604127216061
2911 85.06478068565167
2912 85.06254025673444
2913 85.06574266534768
2914 85.06311942722917
2915 85.06702077553898
2916 85.06269688456065
2917 85.06741678509988
2918 85.06343768961496
2919 85.06383364520107
2920 85.06247302795029
2921 85.06548929223463
2922 85.06240541631695
2923 85.06605825034059
2924 85.06291864531578
2925 85.06773904692497
2926 85.0644273614766
2927 85.07083113272894
2928 85.06543148614394
2929 85.06888661445899
2930 85.06455621299153
2931 85.06667878706335
2932 85.06293196289521
2933 85.06477794006879
2934 85.06243170351458
2935 85.06359715837172
2936 85.05876020441166
2937 85.05976704901857
2938 85.0539290365159
2939 85.05376594516245
2940 85.05176446472232
2941 85.04980512278117
2942 85.0465733034811
2943 85.0421426986604
2944 85.03808806890606
2945 85.03453072789232
2946 85.02820896311998
2947 85.02648940178229
2948 85.0216091100295
2949 85.01939755387635
2950 85.01364403801188
2951 85.01265369771265
2952 85.00809458760301
2953 85.0068875082904
2954 85.00068414550501
2955 85.0028343706404
2956 84.99631419920448
2957 84.99942462747973
2958 84.99316466133273
2959 85.00129122547278
2960 84.99702697070765
2961 85.00105618642696
2962 84.99696709837009
2963 85.00552326013502
2964 85.00475022201772
2965 85.01138007147759
2966 85.01219102902002
2967 85.02334908933189
2968 85.02346297292119
2969 85.03531379010688
2970 85.03816062145816
2971 85.05106645129447
2972 85.05252359112211
2973 85.06787136912784
2974 85.0692896607386
2975 85.08163460706675
2976 85.08370194036816
2977 85.09445869351093
2978 85.09746659059576
2979 85.10565803237961
2980 85.10757669656354
2981 85.11357400605415
2982 85.11084136543339
2983 85.11650544139405
2984 85.11053636067565
2985 85.11307484600174
2986 85.10552961241537
2987 85.10713406907573
2988 85.09827012980494
2989 85.09614320432273
2990 85.08551834125682
2991 85.08113380062466
2992 85.06692868385825
2993 85.06333979286693
2994 85.05102142378163
2995 85.04525797692571
2996 85.0320864428099
2997 85.02642916931724
2998 85.01497735782596
2999 85.01215839914289
3000 85.00213879454598
3001 85.00080318744077
3002 84.99126801831142
3003 84.99220775838455
3004 84.98196027622063
3005 84.986224010764
3006 84.98314069771855
3007 84.98733331145579
3008 84.98720162833472
3009 84.99355579155304
3010 84.99431705085001
3011 85.0034315563347
3012 85.0069090402871
3013 85.01487206118114
3014 85.01809037068544
3015 85.02744679454251
3016 85.03079241302184
3017 85.03818382457996
3018 85.04283181978923
3019 85.04958951274932
3020 85.05483397658259
3021 85.0569062812922
3022 85.06175344894243
3023 85.06548261594658
3024 85.06718849123399
3025 85.06872167306766
3026 85.07002879379448
3027 85.07299291088921
3028 85.07166411463803
3029 85.06934792410537
3030 85.0700500969442
3031 85.07126426072018
3032 85.06963065915313
3033 85.0697399259962
3034 85.07055172267681
3035 85.06924685433522
3036 85.07082853686545
3037 85.07004242445224
3038 85.073428863948
3039 85.06845331680339
3040 85.07131921067746
3041 85.06800546004457
3042 85.07290042787746
3043 85.06770557576363
3044 85.06994823801392
3045 85.06520587940415
3046 85.06550184932831
3047 85.0635937613808
3048 85.06286652423951
3049 85.06038678028429
3050 85.05574038924006
3051 85.05396360913721
3052 85.04865922721528
3053 85.04528373965472
3054 85.04145351983989
3055 85.03727373343202
3056 85.03234530469709
3057 85.02757213098661
3058 85.02222903902521
3059 85.01985706911584
3060 85.01556488656632
3061 85.01305354297614
3062 85.00549742566911
3063 85.00770097779879
3064 84.99729595441175
3065 85.00062764988701
3066 84.99321233722659
3067 85.00275022357681
3068 84.99342851927176
3069 85.00142656684565
3070 84.99232704837813
3071 85.0056127270895
3072 84.99566541126347
3073 85.01118510019521
3074 85.00106438248021
3075 85.01609901206712
3076 85.00770432799601
3077 85.02387608975747
3078 85.01870465613607
3079 85.03572502834744
3080 85.03153843766199
3081 85.04712449144371
3082 85.04466603419252
3083 85.06167929169189
3084 85.05865202827131
3085 85.07233682105601
3086 85.07370218207468
3087 85.08683859452395
3088 85.08492442978331
3089 85.09383036935985
3090 85.09457561687091
3091 85.09841998826444
3092 85.09790030155699
3093 85.10041140458955
3094 85.09869005041371
3095 85.09931640052457
3096 85.09456939651018
3097 85.09442173937086
3098 85.08990784307103
3099 85.08842113575746
3100 85.08287732571247
3101 85.08182370786088
3102 85.07430242718925
3103 85.0754708254334
3104 85.06668609493312
3105 85.06432554244527
3106 85.05597576148548
3107 85.05664601940492
3108 85.04811896824346
3109 85.04756485063135
3110 85.03727816213198
3111 85.04014140574914
3112 85.0297681245853
3113 85.0312655930901
3114 85.02049606337128
3115 85.02369343399486
3116 85.01451243069661
3117 85.0140042769134
3118 85.00564152641935
3119 85.0094051978793
3120 85.005336345789
3121 85.00565436669494
3122 85.00272863638153
3123 85.00522178676886
3124 85.00261520813281
3125 85.00368674570871
3126 85.00279956811519
3127 85.0069139466725
3128 85.00565773808744
3129 85.00746287581488
3130 85.00802543334464
3131 85.01027737220106
3132 85.01089076020317
3133 85.01603725076193
3134 85.02051892596208
3135 85.02532930409573
3136 85.0281862645983
3137 85.03587953389162
3138 85.04117767089507
3139 85.04871773794284
3140 85.05241210276651
3141 85.06279558002704
3142 85.06357827908988
3143 85.0737888171287
3144 85.07261853200519
3145 85.08489965556379
3146 85.08319941087512
3147 85.09390499678913
3148 85.0876241778996
3149 85.09811271865354
3150 85.09583617103299
3151 85.10222807471798
3152 85.09974992048463
3153 85.10173162793262
3154 85.09754902643873
3155 85.09998923051398
3156 85.09599369913491
3157 85.09500319357782
3158 85.08951630658011
3159 85.08678752171055
3160 85.08102169661456
3161 85.07587262504701
3162 85.07119239060776
3163 85.06374490107368
3164 85.0573898165414
3165 85.04803804765326
3166 85.04145960804695
3167 85.03313948612382
3168 85.02684382794166
3169 85.01622527664091
3170 85.00954930231272
3171 85.00169736263555
3172 84.99285987127149
3173 84.98764758079885
3174 84.98313897984515
3175 84.97707299574239
3176 84.97596691400027
3177 84.9751083540677
3178 84.97700600979759
3179 84.97909431644555
3180 84.98168539009943
3181 84.98885943076618
3182 84.99185639073411
3183 85.00033259672884
3184 85.00376361793865
3185 85.01578617504748
3186 85.0187093425575
3187 85.03228277564573
3188 85.03442910792859
3189 85.04881861867653
3190 85.04976225953334
3191 85.06566763452274
3192 85.06108050411207
3193 85.07622349885318
3194 85.07297024023528
3195 85.08441021606068
3196 85.08058762754858
3197 85.09068269857394
3198 85.08566289755146
3199 85.09494009275113
3200 85.08857901300189
3201 85.09327203816825
3202 85.08676590240492
3203 85.09255492829047
3204 85.08412489940088
3205 85.08514848364568
3206 85.08045651243032
3207 85.08087320872761
3208 85.07456489058647
3209 85.07288958131852
3210 85.06740006475356
3211 85.06921614604435
3212 85.06316870683001
3213 85.06156409675836
3214 85.05582704863185
3215 85.05994342337981
3216 85.05463720140018
3217 85.05494046632749
3218 85.04967994378113
3219 85.05391361776283
3220 85.04810635760273
3221 85.04982650363769
3222 85.04501064204177
3223 85.04534750307168
3224 85.03924377421498
3225 85.03990804681013
3226 85.03514082093135
3227 85.03425716573409
3228 85.02771741283046
3229 85.02689541264633
3230 85.02366977656365
3231 85.0206253616918
3232 85.01631005180565
3233 85.014088293182
3234 85.01066405968623
3235 85.00718640969501
3236 85.00484888779215
3237 85.00315520798182
3238 85.00244903610542
3239 84.9995501002448
3240 84.99987864644629
3241 84.99929645936636
3242 85.00467974825629
3243 85.000981622891
3244 85.0048721649096
3245 85.0058379033583
3246 85.01166052016939
3247 85.014000704322
3248 85.02192418624196
3249 85.02453893749704
3250 85.03034015770753
3251 85.03706819846155
3252 85.04432787236088
3253 85.04991487722261
3254 85.05400760268475
3255 85.06266070101354
3256 85.06457630761861
3257 85.07646509006256
3258 85.07649124721637
3259 85.08799828185469
3260 85.08785246892083
3261 85.09658783317526
3262 85.09298438650058
3263 85.10346973210051
3264 85.09694545119139
3265 85.10483794440553
3266 85.09926806635566
3267 85.10526465801426
3268 85.09566161245769
3269 85.10117746217232
3270 85.09323038980445
3271 85.09502519183916
3272 85.08588941491477
3273 85.08579302842584
3274 85.07913141250512
3275 85.07594259548975
3276 85.06691942277101
3277 85.06149307028235
3278 85.05609303645707
3279 85.04793999737909
3280 85.04221307897578
3281 85.03694623476709
3282 85.02727598627546
3283 85.02445936188526
3284 85.01371076298706
3285 85.01096365334828
3286 85.00159715235149
3287 85.00129122446705
3288 84.99252355231805
3289 84.99474157628462
3290 84.98783533653662
3291 84.99107295650022
3292 84.98540554783798
3293 84.99082748963941
3294 84.98997898437995
3295 84.99983893432126
3296 85.00029540153685
3297 85.01097817432309
3298 85.01228267385869
3299 85.02643223230304
3300 85.03232712155467
3301 85.04395407917475
3302 85.04834597526008
3303 85.05820091974218
3304 85.06164023066175
3305 85.06973086485718
3306 85.07003682826226
3307 85.07718624541927
3308 85.0761243738235
3309 85.07885192457071
3310 85.07565719364779
3311 85.07991462759077
3312 85.07541340944304
3313 85.07543534761757
3314 85.07061004258703
3315 85.07284504650855
3316 85.0674435197613
3317 85.06675076055056
3318 85.0630788993293
3319 85.06529674412543
3320 85.06345074454423
3321 85.06468966204406
3322 85.06340935869829
3323 85.06196089012153
3324 85.06322149234539
3325 85.06442786466114
3326 85.06642150609946
3327 85.06641017137137
3328 85.06486275968807
3329 85.06755531697181
3330 85.06622082861033
3331 85.06602183009436
3332 85.06067559891676
3333 85.06004711892693
3334 85.05549759703608
3335 85.05617007644807
3336 85.04976702463983
3337 85.0494742825896
3338 85.04402840713203
3339 85.04177371468877
3340 85.03495124428306
3341 85.03183858375425
3342 85.02251379349657
3343 85.02151346728834
3344 85.01363027637828
3345 85.01250438971576
3346 85.00527316459059
3347 85.00604423265474
3348 85.00060666749006
3349 85.0025229623044
3350 84.99770200884794
3351 85.00171744739234
3352 84.99861707893599
3353 85.00285681442918
3354 85.00330917484919
3355 85.01023467100251
3356 85.01448276035092
3357 85.0165663129505
3358 85.02293414857496
3359 85.02990843370306
3360 85.03441337432956
3361 85.03976114923891
3362 85.04187857365049
3363 85.04848292902426
3364 85.04825522268195
3365 85.05707066516689
3366 85.05926978116798
3367 85.06496007992311
3368 85.06509229725593
3369 85.07183045115475
3370 85.07023473257445
3371 85.07777626620985
3372 85.07394750242845
3373 85.08087868421518
3374 85.07713782653983
3375 85.08203658809487
3376 85.07649110752948
3377 85.08312976470221
3378 85.07679427594051
3379 85.0829600151346
3380 85.07524160596657
3381 85.08136511235338
3382 85.07466366031881
3383 85.08007775411158
3384 85.07175349499163
3385 85.07705711502322
3386 85.07060584097792
3387 85.07590672118475
3388 85.06476687165306
3389 85.07149150922386
3390 85.06102361776112
3391 85.06397679517309
3392 85.0547305711729
3393 85.05552854773659
3394 85.04928939572751
3395 85.04854588783724
3396 85.03988349422147
3397 85.04045585387308
3398 85.03507912781689
3399 85.03128971919668
3400 85.02628604310088
3401 85.0221417491893
3402 85.01884350333047
3403 85.01565619497319
3404 85.01136494665579
3405 85.01109386093862
3406 85.00599889558357
3407 85.01139286284949
3408 85.00798969450649
3409 85.01350868019819
3410 85.01088467483204
3411 85.01798624092785
3412 85.01584453108009
3413 85.02063777171736
3414 85.02229176521149
3415 85.02421394593213
3416 85.02527276005813
3417 85.02505365069383
3418 85.02668092006012
3419 85.0287822657657
3420 85.03411947870393
3421 85.03536049614868
3422 85.03778156938935
3423 85.04032250740376
3424 85.04295674393917
3425 85.04378090873153
3426 85.04788977770512
3427 85.04870024300108
3428 85.0527981205618
3429 85.05252740760906
3430 85.05833074347851
3431 85.05917265859712
3432 85.06470708095792
3433 85.06627105946353
3434 85.0725522295059
3435 85.07418305105644
3436 85.08071312068223
3437 85.08157096522754
3438 85.08609928559821
3439 85.090744257346
3440 85.09129963217434
3441 85.09672672914741
3442 85.09017212248904
3443 85.09538671574107
3444 85.08482083593046
3445 85.08935551080337
3446 85.07794791912711
3447 85.08146034096595
3448 85.06469190796611
3449 85.06614703319795
3450 85.05247380804036
3451 85.05388538882383
3452 85.03849357840021
3453 85.03607066900676
3454 85.02150024839959
3455 85.01933613419442
3456 85.00790029013234
3457 85.00452149318825
3458 84.99614523434401
3459 84.99369566733802
3460 84.988925159671
3461 84.9885495472607
3462 84.98778052817717
3463 84.98850862166918
3464 84.98889775331816
3465 84.99293219928421
3466 84.9960097133812
3467 85.00282395251479
3468 85.0062764538342
3469 85.01185515224704
3470 85.01599915011239
3471 85.0250367989714
3472 85.03081369295893
3473 85.03911671341785
3474 85.04271610540675
3475 85.05353014225766
3476 85.05620953544779
3477 85.06212546086613
3478 85.0639381438172
3479 85.07388652420788
3480 85.07477289248
3481 85.08181350657398
3482 85.07905541210597
3483 85.08688981379125
3484 85.07922762638603
3485 85.08715774029291
3486 85.07594356488207
3487 85.08755113944667
3488 85.07581964985459
3489 85.08425463580286
3490 85.07059189475635
3491 85.07907097739464
3492 85.06429162985046
3493 85.07271972711931
3494 85.06017322922872
3495 85.06390451941131
3496 85.05075240617172
3497 85.05530477351114
3498 85.04502378122361
3499 85.04893043009589
3500 85.04179307645938
3501 85.0457213524646
3502 85.03848162839792
3503 85.04251338016296
3504 85.03766999205624
3505 85.03952203659678
3506 85.03748620291069
3507 85.03917667839339
3508 85.03786344274042
3509 85.03843776778477
3510 85.03993428082322
3511 85.04052431368771
3512 85.04155973962325
3513 85.04123179171492
3514 85.03962955591875
3515 85.04125189425915
3516 85.04006404406056
3517 85.03947310133096
3518 85.03725381668937
3519 85.03595062420713
3520 85.03660693924532
3521 85.03442092947233
3522 85.03309807369915
3523 85.03272093944098
3524 85.03013302824219
3525 85.02897123094917
3526 85.02215452087619
3527 85.02696436578375
3528 85.02071067391398
3529 85.02268972150154
3530 85.01827221218453
3531 85.02218987775187
3532 85.01682143876432
3533 85.01924341571572
3534 85.0158398376297
3535 85.02213785946327
3536 85.01919082712173
3537 85.02447778753356
3538 85.02623922856328
3539 85.03065809744018
3540 85.03434042593479
3541 85.03893685503989
3542 85.04486147864674
3543 85.04813836048825
3544 85.05420601785566
3545 85.05741403232933
3546 85.06387282134422
3547 85.06800126238329
3548 85.07435480692224
3549 85.07766087662101
3550 85.08115888751048
3551 85.08407441371659
3552 85.08905433182213
3553 85.08895602362161
3554 85.09280867302803
3555 85.08884562354578
3556 85.08999589226885
3557 85.08651167903784
3558 85.08756615598763
3559 85.08325824936365
3560 85.08279069486997
3561 85.07628071311848
3562 85.07237759429658
3563 85.06818872867144
3564 85.06331210143402
3565 85.05555031971697
3566 85.05187471095802
3567 85.05081245069096
3568 85.04256109827311
3569 85.03792546289331
3570 85.03202745545138
3571 85.03044993286521
3572 85.02546967190416
3573 85.02266425342752
3574 85.01787643962389
3575 85.01841928530224
3576 85.0154299890322
3577 85.01413325199518
3578 85.01114565652114
3579 85.01522853697124
3580 85.01399498941879
3581 85.01653721622404
3582 85.01659969179588
3583 85.022689700168
3584 85.02278683153995
3585 85.02781810267113
3586 85.02752845829578
3587 85.0365114725667
3588 85.0362603005761
3589 85.04402931970851
3590 85.04345238741877
3591 85.05008506287626
3592 85.0451717849926
3593 85.05546728864219
3594 85.04921362885131
3595 85.05969717328615
3596 85.05194456503732
3597 85.06077793235616
3598 85.05440457141771
3599 85.06276604760147
3600 85.05682473609374
3601 85.06425741961509
3602 85.05694946285087
3603 85.06309558080126
3604 85.0547547712181
3605 85.06148314408907
3606 85.05367935465735
3607 85.0610924552951
3608 85.0565398809013
3609 85.06020694450015
3610 85.05488346969121
3611 85.06178132582347
3612 85.05768738598034
3613 85.06247490525209
3614 85.05953442887487
3615 85.06269436806022
3616 85.06088902332182
3617 85.06230266281032
3618 85.06076644880747
3619 85.06184917411582
3620 85.06234085469818
3621 85.060647422741
3622 85.05925673637083
3623 85.05909269479677
3624 85.05835940528151
3625 85.05697978889995
3626 85.05471844569217
3627 85.05398546349312
3628 85.04905934630449
3629 85.04580209225556
3630 85.04103938975939
3631 85.03799446032168
3632 85.03109366785984
3633 85.02801007273857
3634 85.02228933931404
3635 85.02103768302422
3636 85.01564514344368
3637 85.01700468436616
3638 85.01052156892672
3639 85.01479286909398
3640 85.00896454766637
3641 85.01384266854593
3642 85.00825430345223
3643 85.01478346271392
3644 85.01085129523943
3645 85.01904853536335
3646 85.01695918480247
3647 85.02501383088322
3648 85.02377968840273
3649 85.03051028922692
3650 85.03226040397743
3651 85.03871263314119
3652 85.04170191906064
3653 85.04836717664361
3654 85.053816534956
3655 85.05888037793571
3656 85.05876138725286
3657 85.06273999621688
3658 85.06377694466327
3659 85.06551317408663
3660 85.06531497966833
3661 85.06648087957065
3662 85.06571787068755
3663 85.0632759858986
3664 85.06487527656125
3665 85.06041274136972
3666 85.0623232739087
3667 85.0611983939056
3668 85.06316724976202
3669 85.06040572563802
3670 85.05968387883156
3671 85.06294428518696
3672 85.06215709782703
3673 85.06319947420909
3674 85.06139753407621
3675 85.06505511071263
3676 85.06557964415327
3677 85.06666581389615
3678 85.06701990688229
3679 85.06879314677353
3680 85.07063421894402
3681 85.07240778679868
3682 85.07229994611203
3683 85.07674429864802
3684 85.06958319501409
3685 85.07204907774744
3686 85.06663942575825
3687 85.06723228079855
3688 85.05696337952844
3689 85.05822285541988
3690 85.04923913141248
3691 85.04908024868782
3692 85.03954402141021
3693 85.03970824233036
3694 85.03088697713811
3695 85.03215679917807
3696 85.02165991373677
3697 85.02352399578001
3698 85.01484388666127
3699 85.01623071090502
3700 85.00844519507011
3701 85.01039309801544
3702 85.00273340818869
3703 85.00683697444705
3704 84.99986734606811
3705 85.00604948271311
3706 84.99821947667071
3707 85.00726505377922
3708 85.00055365982753
3709 85.00881579404687
3710 85.00338906743774
3711 85.01646228799257
3712 85.01330478302908
3713 85.02469849295818
3714 85.02111852506386
3715 85.03545141187779
3716 85.03538848856094
3717 85.04432199482824
3718 85.04587857510084
3719 85.05758502535082
3720 85.06016226002426
3721 85.07147917469409
3722 85.0744305918502
3723 85.08245724669952
3724 85.08636751034938
3725 85.09204296209781
3726 85.09391943577185
3727 85.09970349046397
3728 85.10074517049026
3729 85.10267399003908
3730 85.09924808391597
3731 85.10245459904185
3732 85.09698512528431
3733 85.09564251417406
3734 85.08948751558721
3735 85.08885026197503
3736 85.08042482902887
3737 85.07668324928412
3738 85.07039764842803
3739 85.06436836151909
3740 85.05970357546077
3741 85.05037680253784
3742 85.04341051732595
3743 85.03572637804484
3744 85.02843457858253
3745 85.02449278415588
3746 85.01771356665814
3747 85.01606622373612
3748 85.00697112833839
3749 85.00609296520136
3750 85.00039506678735
3751 85.00109029902092
3752 84.9957281327099
3753 84.99801548253865
3754 84.99796284753302
3755 85.00021897639949
3756 85.00331235749935
3757 85.00854796237552
3758 85.012727094705
3759 85.01813851578368
3760 85.0211149547479
3761 85.02638423843476
3762 85.03222834742536
3763 85.03803519040228
3764 85.04306336064836
3765 85.0458729010048
3766 85.04824644440582
3767 85.05276593346464
3768 85.05430390922452
3769 85.05766158146314
3770 85.05777281229655
3771 85.05753374762052
3772 85.05772924256422
3773 85.05675037376301
3774 85.05694539714986
3775 85.05488230566702
3776 85.05539674001014
3777 85.05239824461037
3778 85.05180722077552
3779 85.05397535923011
3780 85.05203428143845
3781 85.05338079357841
3782 85.05312344289564
3783 85.05278759410922
3784 85.05338898659866
3785 85.05541146512184
3786 85.05809013521889
3787 85.06063590184169
3788 85.06178582725308
3789 85.06585338239363
3790 85.06714102786407
3791 85.07099287580142
3792 85.07053877801475
3793 85.07416789050964
3794 85.07371500878494
3795 85.07834161053518
3796 85.07439997753785
3797 85.08109494384216
3798 85.07429042348909
3799 85.0796151866351
3800 85.0734963228003
3801 85.07293371086664
3802 85.06231943240189
3803 85.06315473746425
3804 85.05267532382292
3805 85.05069753455221
3806 85.03897664302049
3807 85.03582946066928
3808 85.02379033320969
3809 85.02045454923261
3810 85.00943911033363
3811 85.00962681544915
3812 85.00019070827742
3813 84.99913345389095
3814 84.99254529100666
3815 84.99563302760419
3816 84.989951853619
3817 84.99054865455737
3818 84.98852453293085
3819 84.99297862883347
3820 84.99159498375347
3821 84.99721673686652
3822 84.99548122176661
3823 85.00304830280548
3824 84.9993426027615
3825 85.01193009969015
3826 85.00756171243398
3827 85.02084396454978
3828 85.01498539919892
3829 85.02885546134942
3830 85.02533345135647
3831 85.03993117787766
3832 85.0366868235779
3833 85.05111759721329
3834 85.05035064344627
3835 85.0659266542486
3836 85.06514432305281
3837 85.07990837360126
3838 85.07997717642363
3839 85.09166936195808
3840 85.09227066338592
3841 85.10297764755016
3842 85.10340163476231
3843 85.10822884781832
3844 85.1060122104784
3845 85.11104481132543
3846 85.10720741056723
3847 85.10923412001989
3848 85.1049282714368
3849 85.1015707869684
3850 85.09287327592574
3851 85.0900453599525
3852 85.08296139495744
3853 85.07575540637869
3854 85.0672545044438
3855 85.06189517101529
3856 85.05228140148728
3857 85.04594495995769
3858 85.03578238512823
3859 85.03426008974148
3860 85.02592223970214
3861 85.02232614522114
3862 85.01172933170086
3863 85.01302472684598
3864 85.00541482314244
3865 85.00487079627688
3866 84.99903841663297
3867 85.00295909861737
3868 85.0004701445213
3869 85.00364280482749
3870 85.00247421796661
3871 85.00736298246949
3872 85.00697118824552
3873 85.01148822760834
3874 85.01025370566192
3875 85.01671250380755
3876 85.01775457833136
3877 85.02142592135615
3878 85.02495740663284
3879 85.02760978876802
3880 85.03109878622683
3881 85.03375812664186
3882 85.03755278981762
3883 85.04007157602365
3884 85.04390567663135
3885 85.04751541538326
3886 85.04859416202672
3887 85.05384608097864
3888 85.05278111058622
3889 85.05915261890443
3890 85.05970063849705
3891 85.06391295114447
3892 85.06167476138371
3893 85.06932669452203
3894 85.07040891796103
3895 85.07368414211635
3896 85.07494931845278
3897 85.07958306769258
3898 85.07949764244944
3899 85.08479827102323
3900 85.08202825359338
3901 85.08622708572692
3902 85.08197732703978
3903 85.08380476758559
3904 85.07738160578299
3905 85.08191782502324
3906 85.07476155942533
3907 85.07898612030903
3908 85.06986703052972
3909 85.07266791528863
3910 85.06549922650427
3911 85.06521643332196
3912 85.05724677175657
3913 85.05697353278349
3914 85.05015364847691
3915 85.0481828218832
3916 85.03898442726083
3917 85.03802048902962
3918 85.0308725940659
3919 85.02724403480562
3920 85.02118507560954
3921 85.01985095519532
3922 85.01360372726862
3923 85.0114669993595
3924 85.00634815204708
3925 85.0045856117531
3926 85.00268756227806
3927 85.0002666428185
3928 84.99983527414135
3929 84.9991180892283
3930 84.99972256885242
3931 85.00196835212537
3932 85.00395257296495
3933 85.00592074802817
3934 85.0090161789082
3935 85.01467753328029
3936 85.01945627217364
3937 85.02505219749105
3938 85.02963779455388
3939 85.03369709793368
3940 85.03724598369756
3941 85.04300581642282
3942 85.04602814714339
3943 85.05025183231248
3944 85.05438700466034
3945 85.05588677282442
3946 85.060582222219
3947 85.06406957824967
3948 85.06674276427793
3949 85.06874670861414
3950 85.07019330746276
3951 85.07513553267837
3952 85.07407305345868
3953 85.07806908919123
3954 85.0774528924138
3955 85.0797305025946
3956 85.0793231501581
3957 85.07937627864059
3958 85.07952720182925
3959 85.08079517699517
3960 85.08189754791067
3961 85.08423206259482
3962 85.08282454028628
3963 85.0826598410154
3964 85.08172441863564
3965 85.08009244335223
3966 85.07846845641572
3967 85.07934350193727
3968 85.07730698740609
3969 85.07548064674867
3970 85.07131087908584
3971 85.06972022757409
3972 85.06352327104119
3973 85.06401964628004
3974 85.05678249669596
3975 85.05461276890736
3976 85.0484136851338
3977 85.04574589149142
3978 85.04065295143754
3979 85.03747063264132
3980 85.03260688986664
3981 85.02849207495353
3982 85.02189002604264
3983 85.02018988899682
3984 85.01214704890188
3985 85.00992820376172
3986 85.00292256119175
3987 85.00328366340879
3988 84.99387080530965
3989 84.99441237628908
3990 84.98694568515749
3991 84.99060304060409
3992 84.98412773841351
3993 84.98929344040023
3994 84.98425409630862
3995 84.99246060702637
3996 84.99056611407495
3997 84.99912671954957
3998 85.00054463414203
3999 85.00974078466351
4000 85.01487727090478
4001 85.02441513133925
4002 85.03064123237633
4003 85.04257204850236
4004 85.05136149379655
4005 85.0614063784991
4006 85.06621025618036
4007 85.07832112757856
4008 85.08309873062292
4009 85.09168587583336
4010 85.09340103683468
4011 85.1016000703826
4012 85.10249963663368
4013 85.10783122803869
4014 85.1066114883002
4015 85.11201397306192
4016 85.10552087284546
4017 85.11103566521196
4018 85.10102477068615
4019 85.10771409693785
4020 85.09794254205497
4021 85.09805607981983
4022 85.08751808036904
4023 85.08687456686891
4024 85.07554236802955
4025 85.07567705609746
4026 85.06315249819262
4027 85.06229267739263
4028 85.04976226158256
4029 85.05096759224905
4030 85.03586980235228
4031 85.03653274742898
4032 85.02139464365725
4033 85.02292781560676
4034 85.00941989035196
4035 85.011287005659
4036 85.00046666640048
4037 85.0018787685308
4038 84.99517105165862
4039 84.99597732870664
4040 84.9923553073295
4041 84.9932543684601
4042 84.99333176724227
4043 84.99775082956864
4044 84.99537957297237
4045 85.00595404966568
4046 85.00493705179758
4047 85.01593945289672
4048 85.01462275555895
4049 85.02451671750279
4050 85.02665457151306
4051 85.03937766498413
4052 85.04011328908314
4053 85.05057656136209
4054 85.04993823374231
4055 85.06145059319479
4056 85.06022701773232
4057 85.06867520016219
4058 85.06641411960841
4059 85.0721381115337
4060 85.0716804221849
4061 85.07253703750553
4062 85.07005114298472
4063 85.07397575685619
4064 85.07025409791484
4065 85.0719469597486
4066 85.0654772099046
4067 85.06831058212566
4068 85.06276681978278
4069 85.06634081996076
4070 85.06048217446104
4071 85.06137275020714
4072 85.05885083024405
4073 85.06135920909915
4074 85.06022828567559
4075 85.06268083409775
4076 85.06192429933265
4077 85.06474618912539
4078 85.0625328514014
4079 85.06859187774231
4080 85.06709424159014
4081 85.07071422873527
4082 85.07123991096111
4083 85.07310280611493
4084 85.07510801999801
4085 85.07470232047817
4086 85.07508324112666
4087 85.07373297535621
4088 85.06873780387316
4089 85.06660119752203
4090 85.05929674285206
4091 85.05752372220572
4092 85.04753371946616
4093 85.04268523964835
4094 85.0318524761347
4095 85.02824127262571
4096 85.01690595420779
4097 85.01256056479899
4098 85.00343600643347
4099 84.99977001454423
4100 84.99614535080094
4101 84.99266056619538
4102 84.98841577799982
4103 84.9876387663261
4104 84.98794686083001
4105 84.98689786973669
4106 84.99236367250055
4107 84.99220316640324
4108 84.9950047352081
4109 84.9976960311721
4110 85.00453231368473
4111 85.01009533038699
4112 85.01428641162384
4113 85.02039710243434
4114 85.02784391674207
4115 85.03365562438702
4116 85.03896376945036
4117 85.04807901163397
4118 85.05619840970816
4119 85.05920538214571
4120 85.06629429082868
4121 85.07105070916847
4122 85.07840384002267
4123 85.08100090576099
4124 85.08538832065953
4125 85.08904489519998
4126 85.08908929889286
4127 85.09392950286414
4128 85.09210598612577
4129 85.09397256611366
4130 85.08989411503296
4131 85.08936036835003
4132 85.08649856405256
4133 85.0867060984033
4134 85.0845696887601
4135 85.08478984124797
4136 85.07904369016781
4137 85.08331540594908
4138 85.07612605469099
4139 85.07820082355595
4140 85.07080070660624
4141 85.07062338557132
4142 85.06466791357083
4143 85.06458488042786
4144 85.05812530579185
4145 85.05734293439419
4146 85.05038339902256
4147 85.05068508325645
4148 85.04323577006481
4149 85.04127207782794
4150 85.03422846316798
4151 85.03298674743067
4152 85.02741310673329
4153 85.02515215868605
4154 85.01895971630597
4155 85.01627968675798
4156 85.01062246263723
4157 85.00889621634828
4158 85.00320633821256
4159 85.00709508268116
4160 85.00284570555401
4161 85.00704460060911
4162 85.00132384502737
4163 85.00916682733298
4164 85.00808687365326
4165 85.01440646157884
4166 85.01830582294589
4167 85.02445534240454
4168 85.02543754929921
4169 85.03278084806257
4170 85.0341171257586
4171 85.04226956220258
4172 85.04025491238585
4173 85.04847428533729
4174 85.04677006150831
4175 85.05354036332861
4176 85.05086544215642
4177 85.05661273551488
4178 85.05733517853596
4179 85.05793856261018
4180 85.05942139657186
4181 85.06207130584001
4182 85.06509054028993
4183 85.06770012960133
4184 85.06733439131561
4185 85.070637313777
4186 85.07062159082173
4187 85.0748882385347
4188 85.07605654225146
4189 85.07702406603249
4190 85.07808396373061
4191 85.08024556480827
4192 85.08065660024563
4193 85.079613982658
4194 85.07821505104869
4195 85.07859243197672
4196 85.07579306758019
4197 85.07389197200452
4198 85.06766531527254
4199 85.06540959877202
4200 85.06041612699728
4201 85.05556858465502
4202 85.04768920775183
4203 85.04530797144828
4204 85.03568438047859
4205 85.03484581069249
4206 85.02273032629627
4207 85.0259024581356
4208 85.0133327864723
4209 85.01562002125597
4210 85.00550786771022
4211 85.00987687006482
4212 85.0016217653105
4213 85.0054853759641
4214 85.00064589164636
4215 85.00667356371022
4216 85.0030434785275
4217 85.0110271456528
4218 85.00951154390765
4219 85.01876648751657
4220 85.01880519955556
4221 85.02756414547143
4222 85.02630165888506
4223 85.03669727312355
4224 85.03573478618128
4225 85.04597304497285
4226 85.04434984390413
4227 85.05286259259118
4228 85.04820736540401
4229 85.05544473595084
4230 85.05072743642096
4231 85.05660664862305
4232 85.0502177921892
4233 85.05707292592037
4234 85.04925398063872
4235 85.05443108549504
4236 85.04629010743669
4237 85.05239226703814
4238 85.04530455412302
4239 85.05025968157777
4240 85.04034575183637
4241 85.04789158050751
4242 85.04208040581617
4243 85.05088368476696
4244 85.04331905634963
4245 85.05356521687834
4246 85.047086130582
4247 85.05794009851732
4248 85.05284899835939
4249 85.0623762234346
4250 85.05883775542759
4251 85.06850622949452
4252 85.06587334099868
4253 85.07579201014207
4254 85.07803547711389
4255 85.0814931738289
4256 85.08160062127688
4257 85.0841112275714
4258 85.08544295180644
4259 85.08490955264983
4260 85.0868544222014
4261 85.08318407854823
4262 85.08372073974729
4263 85.07851939278434
4264 85.07611242351341
4265 85.06993860236452
4266 85.06556332286513
4267 85.05898990428841
4268 85.05409961800383
4269 85.04476119350512
4270 85.03642977819412
4271 85.02877691313316
4272 85.02103210450021
4273 85.01302556039606
4274 85.01100463135397
4275 85.00087432382151
4276 84.99913588187609
4277 84.99403372590137
4278 84.99156185702049
4279 84.99052070803108
4280 84.98905697667138
4281 84.98879363804238
4282 84.98838585143419
4283 84.99198374057937
4284 84.9914648076811
4285 84.99855189925201
4286 85.00313905547799
4287 85.00975581988921
4288 85.0116835466409
4289 85.02118503711284
4290 85.0277047551622
4291 85.03528839233763
4292 85.04096661826547
4293 85.05068764647038
4294 85.05752548114108
4295 85.0666348887752
4296 85.07209280086164
4297 85.07759872990333
4298 85.08253614492655
4299 85.08669729441758
4300 85.09001766818068
4301 85.09166669510175
4302 85.09463374369587
4303 85.09395764099094
4304 85.0943842455363
4305 85.09213060519936
4306 85.09296879911309
4307 85.08673450418092
4308 85.08596843387667
4309 85.07847350619602
4310 85.07915964536883
4311 85.07038535132256
4312 85.06654981051069
4313 85.05985083742382
4314 85.05733475011705
4315 85.05271093516498
4316 85.0473996921272
4317 85.04211112120397
4318 85.03877337147942
4319 85.03331438985921
4320 85.03069363956874
4321 85.02763376712947
4322 85.02517244232313
4323 85.02397767049328
4324 85.02150864956812
4325 85.02488642283078
4326 85.01917068132855
4327 85.02768578978697
4328 85.02485959251476
4329 85.03155515676673
4330 85.02645698494932
4331 85.03423101567662
4332 85.03079715727768
4333 85.03816065952394
4334 85.03472922111271
4335 85.04296372306733
4336 85.03897570772622
4337 85.0459082683664
4338 85.04317153295179
4339 85.04800356918805
4340 85.04496634487299
4341 85.04881592655627
4342 85.04286655215421
4343 85.04972144696688
