"x-rfile"
"Iteration" "x"
("Iteration" "x")
1 4427.384206257388
2 3913.388271550986
3 2968.736565614989
4 2124.980146969386
5 1650.30096796372
6 1201.186341566747
7 931.0810648303428
8 657.3896482339359
9 454.9579035594486
10 272.8755070590001
11 131.5605190959104
12 11.3327365019143
13 -73.50300234485665
14 -134.8451891059835
15 -177.194176165433
16 -206.3310318888049
17 -224.6587970011487
18 -235.3510044503717
19 -241.835130156591
20 -246.78866486746
21 -250.7785509144634
22 -254.2558992870993
23 -258.1992960051489
24 -262.0616697627011
25 -266.7139813052599
26 -271.494535519639
27 -276.5029962669552
28 -282.1835337831941
29 -287.4815376335993
30 -293.677877762123
31 -299.5820545272765
32 -305.5158321796603
33 -311.7451628766303
34 -318.2809969578922
35 -324.5173025417496
36 -331.3140493758016
37 -337.6058152047062
38 -344.5732440367572
39 -350.8191179992396
40 -357.762980446603
41 -364.7737499552227
42 -371.9182746328221
43 -378.9653946673774
44 -386.0759546248942
45 -393.9079892327156
46 -401.1829833584601
47 -408.7283774796953
48 -415.0316615086745
49 -421.9283288522627
50 -427.7812076548485
51 -433.6917782955513
52 -439.6184322933298
53 -445.3390454972645
54 -450.4601211633665
55 -455.7052778115053
56 -460.3306639856247
57 -465.2224243959072
58 -469.3152715412919
59 -474.7690621111633
60 -478.9487642807472
61 -483.3288570728076
62 -487.8324453960512
63 -492.2615884724354
64 -496.6976911204624
65 -500.9434199856126
66 -506.1568442091124
67 -509.7373273921261
68 -514.3770177468756
69 -518.3283741216729
70 -522.1681008868109
71 -525.5873591023116
72 -529.0075966637872
73 -531.528420818462
74 -534.970940684599
75 -537.3957658744686
76 -540.6740707597107
77 -542.9497526012947
78 -545.504908417401
79 -547.8935160965719
80 -550.3998147230893
81 -552.7033619913728
82 -555.0883890181143
83 -557.2482957585338
84 -558.9008292535294
85 -561.2091124742067
86 -562.8285462428018
87 -565.0696191955967
88 -566.5941803481351
89 -568.7205386825754
90 -570.1435698502839
91 -572.1107592678735
92 -573.880938065069
93 -575.4744832643109
94 -576.9999340890881
95 -578.3839457638001
96 -579.7405271549439
97 -580.9872157196551
98 -582.2277404081843
99 -583.0622132095414
100 -584.3473668846854
101 -585.1481917473646
102 -586.3892078393449
103 -587.1373478737783
104 -588.3090911218025
105 -588.9877325157873
106 -590.0778996648125
107 -590.6878688308467
108 -591.7062645356156
109 -592.2614994941005
110 -592.9652435302655
111 -593.5490176924861
112 -594.2367782508462
113 -595.0201304693214
114 -595.5722486255954
115 -596.0551584266916
116 -596.6077405340985
117 -597.0706128720186
118 -597.5910165674328
119 -598.1696058306989
120 -598.5705535798254
121 -598.9104601833133
122 -599.3043635498431
123 -599.720567435425
124 -600.0220548154531
125 -600.2623138577381
126 -600.6469335982007
127 -600.8131583276214
128 -601.0673048755287
129 -601.2745234807115
130 -601.46354999993
131 -601.5799665083238
132 -601.7907772662223
133 -601.858837543955
134 -602.0087907745236
135 -602.0784252115706
136 -602.1742906972909
137 -602.2079971356843
138 -602.2901669511251
139 -602.2987845834291
140 -602.3244017331601
141 -602.3063322423397
142 -602.2997909688921
143 -602.2315296429766
144 -602.2260301641459
145 -602.0999167355785
146 -602.0652961284992
147 -601.9071111948454
148 -601.8418347545403
149 -601.656674029639
150 -601.5762801125235
151 -601.3687519300125
152 -601.2700749545141
153 -601.0441241620385
154 -600.9259566572019
155 -600.6738634941574
156 -600.5384902853251
157 -600.264264436314
158 -600.0235745848041
159 -599.8326581087978
160 -599.5891531312002
161 -599.3821776501297
162 -599.1241027772351
163 -598.8059142785776
164 -598.643465052798
165 -598.3175575227925
166 -598.035965924973
167 -597.6925459612011
168 -597.5199331058795
169 -597.16773134339
170 -596.8930051289963
171 -596.5412584957423
172 -596.2535896449396
173 -595.8983222466878
174 -595.6147769437067
175 -595.2771038266746
176 -595.0052668407849
177 -594.6724648815787
178 -594.4027904318401
179 -594.0761979011722
180 -593.8020795183529
181 -593.4805944272729
182 -593.2212986450601
183 -592.9086041332276
184 -592.6605592841636
185 -592.3335508333248
186 -592.085230564199
187 -591.7695016853704
188 -591.5297053534752
189 -591.2221115642616
190 -590.9697579363442
191 -590.6609256486367
192 -590.3261288581862
193 -590.0211629298819
194 -589.8033176975727
195 -589.5125499832142
196 -589.2228172784487
197 -588.9396522588917
198 -588.7271573990315
199 -588.3689991671744
200 -588.1596350392957
201 -587.9092545348431
202 -587.6187096423829
203 -587.3718302773782
204 -587.1691026532142
205 -586.8500953316383
206 -586.6510808633286
207 -586.3466840153733
208 -586.1538703671787
209 -585.8598713590959
210 -585.6762746191202
211 -585.3983660178028
212 -585.2275316005943
213 -584.9357297411631
214 -584.7631073519537
215 -584.4671897466717
216 -584.3031314512784
217 -584.0044323788777
218 -583.8423791123971
219 -583.5483093560717
220 -583.3787830779856
221 -583.0868627128817
222 -582.9190861278609
223 -582.605032068642
224 -582.4316369228176
225 -582.1051784845322
226 -581.9233882153733
227 -581.5913156264522
228 -581.4042898721507
229 -581.0586423525432
230 -580.853371285558
231 -580.4848390139529
232 -580.2699744158488
233 -579.8872040746591
234 -579.6610687534343
235 -579.2696120516418
236 -579.0285156859907
237 -578.6234723778442
238 -578.3694518017451
239 -577.9417980399355
240 -577.6748223542775
241 -577.2449106342151
242 -576.9608319721739
243 -576.5101408256803
244 -576.2175521927845
245 -575.7372348386053
246 -575.4419653638975
247 -574.9629308701082
248 -574.6409233954294
249 -574.2452019433827
250 -573.7851952362115
251 -573.3846032493674
252 -573.0199852341956
253 -572.5812882142261
254 -572.1918563235374
255 -571.7338813107688
256 -571.328303207192
257 -570.8563287592729
258 -570.4415779986854
259 -569.9496280585829
260 -569.5328813124027
261 -569.0394123628871
262 -568.6188746652972
263 -568.1209443126786
264 -567.7018616474297
265 -567.2085131788143
266 -566.7787558551391
267 -566.2862184257871
268 -565.8597214392046
269 -565.3729799487819
270 -564.9528042632396
271 -564.461531658177
272 -564.0211666819982
273 -563.5247379464396
274 -563.0648385813925
275 -562.5594682784972
276 -562.0973908417791
277 -561.5876239761692
278 -561.1343534663825
279 -560.608407788081
280 -560.1434918149687
281 -559.6067142121898
282 -559.134002036056
283 -558.5839648253292
284 -558.1105836433887
285 -557.5510415642765
286 -557.0526565891594
287 -556.476231621587
288 -555.9738032206831
289 -555.3791037200225
290 -554.8595107518616
291 -554.2554202797796
292 -553.7288292036242
293 -553.1075127931175
294 -552.5845492134589
295 -551.9743608819754
296 -551.43761601708
297 -550.8238377350796
298 -550.2745168990689
299 -549.6514632428899
300 -549.0902599895174
301 -548.6405335276633
302 -548.0157106983053
303 -547.3572695812946
304 -546.7710147892269
305 -546.3061944980248
306 -545.6605028165516
307 -545.0005581320814
308 -544.5875380226158
309 -543.8698768123459
310 -543.4420002871249
311 -542.7018767586574
312 -542.2830212874727
313 -541.5336233094117
314 -541.1115500866775
315 -540.3676765777759
316 -539.9569137696923
317 -539.4173248971867
318 -538.7388537208747
319 -538.2300030743429
320 -537.7684116404247
321 -537.2140309043898
322 -536.7306506083293
323 -536.1628921406216
324 -535.67730079607
325 -535.1105682590982
326 -534.6371581960294
327 -534.0750383107331
328 -533.6191567285367
329 -533.0821281840811
330 -532.6405604601405
331 -532.1214141567555
332 -531.6958148835594
333 -531.2006477996938
334 -530.8000351696818
335 -530.3246351172014
336 -529.9471437753739
337 -529.5040553201434
338 -529.1483029684941
339 -528.7326525097412
340 -528.3933730652702
341 -528.0038948752348
342 -527.690372703059
343 -527.3242051734726
344 -527.0335837168234
345 -526.6872235940244
346 -526.4213190912296
347 -526.0957098994725
348 -525.8585668842708
349 -525.5459606768883
350 -525.3296674160541
351 -525.0389297332384
352 -524.8466245357996
353 -524.5782763622116
354 -524.402489864025
355 -524.1480970182133
356 -523.9892836842474
357 -523.7497953324955
358 -523.6050499306052
359 -523.3818871160971
360 -523.2495055018398
361 -523.0466691480104
362 -522.9320296765278
363 -522.7407806265372
364 -522.6389366133899
365 -522.4685287721528
366 -522.3750505162479
367 -522.2168276587321
368 -522.134312314085
369 -521.9846058376434
370 -521.9136526866747
371 -521.7786515575552
372 -521.7207230061682
373 -521.5957062084783
374 -521.5496938119204
375 -521.4374321974909
376 -521.3996890013138
377 -521.2925331325868
378 -521.2604293108469
379 -521.1634794056606
380 -521.1515587672582
381 -521.0615114015178
382 -521.0603322224308
383 -520.9778571766089
384 -520.9824418934994
385 -520.9144950945746
386 -520.9277619729837
387 -520.8606956727823
388 -520.882852209251
389 -520.823100543354
390 -520.8613382449599
391 -520.8077177574303
392 -520.8508977425433
393 -520.8082567303944
394 -520.8573512212504
395 -520.8283525292698
396 -520.8810021999055
397 -520.8601320186974
398 -520.9235161789373
399 -520.9159417149198
400 -520.9866799155146
401 -520.989140593319
402 -521.0648821050605
403 -521.0779496856381
404 -521.163017542027
405 -521.1838476669861
406 -521.2828028510232
407 -521.3106788181542
408 -521.4195500000184
409 -521.4570587099162
410 -521.579887481839
411 -521.6232625924532
412 -521.7585028578208
413 -521.814420639978
414 -521.9598486301277
415 -522.0252455864515
416 -522.1835933456937
417 -522.2624271564455
418 -522.4285288144417
419 -522.5219123909499
420 -522.6963123737474
421 -522.7990378039885
422 -522.983339841595
423 -523.0981984477836
424 -523.2912405595437
425 -523.4118312894426
426 -523.6157768062805
427 -523.7440908603063
428 -524.0398652494163
429 -524.1657402487056
430 -524.3831883274134
431 -524.5202669025956
432 -524.7481004023379
433 -524.9797575544898
434 -525.2028250206293
435 -525.3498838962362
436 -525.5793762611113
437 -525.8300185826603
438 -526.0559374447774
439 -526.2139184605135
440 -526.4568791416893
441 -526.627133732762
442 -526.9720778830823
443 -527.1348375867252
444 -527.3789348544453
445 -527.5510588324709
446 -527.8070942318855
447 -527.9849499907441
448 -528.2465507284433
449 -528.52873150455
450 -528.785501177567
451 -528.9631875075987
452 -529.2295803558221
453 -529.417469814548
454 -529.6880187743909
455 -529.9781240107561
456 -530.2346768588556
457 -530.4155031469191
458 -530.6889966445333
459 -530.9782356721641
460 -531.232805851577
461 -531.418036356905
462 -531.7860564209986
463 -531.9619141538933
464 -532.2235260128218
465 -532.4094175146919
466 -532.7855599080297
467 -532.958949601317
468 -533.2340016005136
469 -533.5165634218157
470 -533.7759295886476
471 -533.9604105317937
472 -534.3389564343479
473 -534.5144629071164
474 -534.7823354693262
475 -535.0774710934533
476 -535.3369079384763
477 -535.529148819078
478 -535.905953225992
479 -536.08766972919
480 -536.3580042371814
481 -536.6555704617138
482 -536.9110218828666
483 -537.1077026941856
484 -537.4826860572375
485 -537.6682693868772
486 -537.9356694662575
487 -538.2352486521517
488 -538.4926791584996
489 -538.6843597668963
490 -539.0632604956347
491 -539.2462851795239
492 -539.514291282162
493 -539.8155373927963
494 -540.0678795625886
495 -540.2631237428874
496 -540.6376317084097
497 -540.8210482933475
498 -541.0848699678901
499 -541.3826919021581
500 -541.6334405766277
501 -541.9256389425532
502 -542.172763526806
503 -542.4575054862179
504 -542.7051964052577
505 -542.9852356289582
506 -543.2382820101957
507 -543.5087752106249
508 -543.7687914738702
509 -544.0321087665395
510 -544.2928374403646
511 -544.5470089028986
512 -544.8088102399059
513 -544.9699309578145
514 -545.3461704609725
515 -545.5020855584319
516 -545.8743516220474
517 -546.0267766290044
518 -546.3941167226626
519 -546.5455877025857
520 -546.8140899411451
521 -547.0839379813813
522 -547.3382983158797
523 -547.5130283239813
524 -547.8790025307731
525 -548.0444135977401
526 -548.3094819984275
527 -548.5861603467744
528 -548.8435616898136
529 -549.0202715744591
530 -549.3884962260859
531 -549.5549863663703
532 -549.821606390806
533 -550.0028547360332
534 -550.3771422922417
535 -550.5435325911068
536 -550.8173875712019
537 -551.0920430250991
538 -551.3505696319672
539 -551.5281123121691
540 -551.7997713971296
541 -552.0784167269369
542 -552.3384428714777
543 -552.5098821895486
544 -552.8812809315542
545 -553.0345149157251
546 -553.3018144020756
547 -553.5598763872308
548 -553.8115396230791
549 -553.9722248655523
550 -554.2411937970749
551 -554.5035922310094
552 -554.7552654304711
553 -554.922462797976
554 -555.1862653539433
555 -555.3612615592317
556 -555.7267751339024
557 -555.8836042963611
558 -556.1389684078889
559 -556.3121740944817
560 -556.6649016285363
561 -556.8239055046131
562 -557.0761970370137
563 -557.2465135857121
564 -557.5036747092471
565 -557.6795359861565
566 -557.9427248420636
567 -558.2082401196653
568 -558.4542824441754
569 -558.6084187406768
570 -558.8686821924618
571 -559.0284929018407
572 -559.2919009829227
573 -559.451858778343
574 -559.7177588450586
575 -559.8797774945691
576 -560.1476876151961
577 -560.3115249116797
578 -560.5754834097452
579 -560.7403012438032
580 -561.0015577528241
581 -561.1656488718077
582 -561.432069798533
583 -561.5995694929261
584 -561.8627887891698
585 -562.0303747270526
586 -562.2909604451385
587 -562.4523121537084
588 -562.714987953657
589 -562.8707502613253
590 -563.1308593302265
591 -563.287864654053
592 -563.5449231466931
593 -563.7002340651948
594 -563.9545532122927
595 -564.1116640002317
596 -564.3603423089297
597 -564.5142650516228
598 -564.7568669275851
599 -564.9077061857789
600 -565.1495738132377
601 -565.3037330524696
602 -565.5397410153572
603 -565.6901996122165
604 -565.9249606456641
605 -566.0743731718749
606 -566.3085679621364
607 -566.4484402484637
608 -566.6829081426922
609 -566.8181449451952
610 -567.0512514547903
611 -567.1805814996166
612 -567.4121796141425
613 -567.5441686062974
614 -567.7768288760021
615 -567.9059140625948
616 -568.1358299525422
617 -568.2633160828739
618 -568.4888967869922
619 -568.6133547087529
620 -568.8340735741141
621 -568.9582716004101
622 -569.1734454446865
623 -569.2993350446237
624 -569.516222146336
625 -569.6441136314971
626 -569.8577858642466
627 -569.9802619921832
628 -570.1931545314537
629 -570.3123796532806
630 -570.5227920085924
631 -570.6395937669726
632 -570.8504172019038
633 -570.962150263771
634 -571.1723863657102
635 -571.2805902599023
636 -571.4902517031884
637 -571.604038230732
638 -571.8074950801443
639 -571.9160783647266
640 -572.1178231263258
641 -572.2270526468661
642 -572.427359491089
643 -572.5389883605119
644 -572.7382751919521
645 -572.8436091299519
646 -573.0437437440009
647 -573.146705715947
648 -573.3465517864142
649 -573.4541433049829
650 -573.6506738415777
651 -573.7539785796447
652 -573.9497998507009
653 -574.050710798919
654 -574.2488117285485
655 -574.3515005628773
656 -574.5456370122448
657 -574.6464603359794
658 -574.8352364632011
659 -574.9375262668245
660 -575.1233247602893
661 -575.2247344728593
662 -575.4055512534277
663 -575.5030948275277
664 -575.683502175596
665 -575.7749456414062
666 -575.9516440006814
667 -576.0496792001916
668 -576.2227610871107
669 -576.3169521641429
670 -576.4873451397973
671 -576.5800404998604
672 -576.7565852037302
673 -576.8423768409058
674 -577.0181443493893
675 -577.1013988311173
676 -577.2764552156352
677 -577.3552522591538
678 -577.5299246521741
679 -577.6089343111645
680 -577.78149386784
681 -577.8582638708788
682 -578.0304179999741
683 -578.1033322562486
684 -578.2709176095141
685 -578.3407836541566
686 -578.5092261606748
687 -578.5792101084052
688 -578.7423999623976
689 -578.8114574033879
690 -578.9780126146594
691 -579.0479555306164
692 -579.2109115165431
693 -579.2756326943576
694 -579.4356047436783
695 -579.4975194591053
696 -579.6614427299678
697 -579.7176987828966
698 -579.8816940289214
699 -579.9351119008687
700 -580.094266599883
701 -580.1488669863481
702 -580.3063564406051
703 -580.3619246999839
704 -580.5197488839776
705 -580.5794846852564
706 -580.7312515636972
707 -580.7877557869695
708 -580.940060892022
709 -580.996854787428
710 -581.1452448911042
711 -581.1977262304187
712 -581.3440267690987
713 -581.3977206586783
714 -581.5446180305121
715 -581.598780692451
716 -581.7441433591831
717 -581.795681834632
718 -581.9423568409765
719 -581.9903102109472
720 -582.1390388339036
721 -582.1861713447896
722 -582.3350675407505
723 -582.3792379028064
724 -582.5204821889851
725 -582.5709704978296
726 -582.7094912312591
727 -582.7606757964335
728 -582.892578652491
729 -582.9457793957331
730 -583.0721353664909
731 -583.1218103276268
732 -583.244389400109
733 -583.2939957359461
734 -583.4189578540568
735 -583.4671592606492
736 -583.5935908195822
737 -583.640323098434
738 -583.770992919023
739 -583.8173947516862
740 -583.9469489811618
741 -583.9811508656791
742 -584.1135108206339
743 -584.1411998834876
744 -584.2738447379687
745 -584.3060737852815
746 -584.4382326398323
747 -584.4739625279955
748 -584.605334411291
749 -584.6390160974217
750 -584.7691293988576
751 -584.8075362683486
752 -584.9302469892655
753 -584.968661974934
754 -585.0895183003082
755 -585.1260915380633
756 -585.2434326889077
757 -585.2822021608441
758 -585.4035539782902
759 -585.4340993477826
760 -585.556465163367
761 -585.5785597964425
762 -585.7032601536052
763 -585.7268492752603
764 -585.847442947268
765 -585.8705908364543
766 -585.9925835119597
767 -586.0153535173388
768 -586.1378237697946
769 -586.1654387930347
770 -586.2792624491949
771 -586.3062900466815
772 -586.4181705222109
773 -586.4426709834066
774 -586.5592971708037
775 -586.5839130157327
776 -586.694955106672
777 -586.7202033854099
778 -586.831782833747
779 -586.8543441231154
780 -586.9699759713324
781 -586.9949436468573
782 -587.1135286996539
783 -587.1323887471939
784 -587.2461341488901
785 -587.2648466392626
786 -587.3770554479205
787 -587.3958664056518
788 -587.504218018834
789 -587.5275779312016
790 -587.6332066340533
791 -587.660662723161
792 -587.7681917436801
793 -587.7935917129404
794 -587.9003188969132
795 -587.9171580725499
796 -588.0233006580381
797 -588.0393738649339
798 -588.1454708668356
799 -588.1595554561247
800 -588.2644340375402
801 -588.2825696037659
802 -588.3859873904744
803 -588.399199705152
804 -588.5083406143073
805 -588.5204745148848
806 -588.6336301558482
807 -588.6408308721454
808 -588.7487129550642
809 -588.7568967727984
810 -588.8634311456215
811 -588.8785857453282
812 -588.9823589951767
813 -588.9907140153804
814 -589.0985096414792
815 -589.1057564336922
816 -589.209827440744
817 -589.2179255001067
818 -589.3237936234322
819 -589.3285154133506
820 -589.4302295504749
821 -589.4360768060878
822 -589.5425739774261
823 -589.5526986729731
824 -589.6519082468255
825 -589.6581300213854
826 -589.7607445285163
827 -589.7658338507271
828 -589.8682501158347
829 -589.8754915212952
830 -589.9731341396478
831 -589.9815875031383
832 -590.0770851248435
833 -590.0888478481254
834 -590.1812021226802
835 -590.1976504026791
836 -590.2864582336929
837 -590.3020888744845
838 -590.3892571383725
839 -590.4017127136515
840 -590.4902965921679
841 -590.5032310199975
842 -590.5917997141452
843 -590.6002130655659
844 -590.690898872626
845 -590.6943084937117
846 -590.7864212285289
847 -590.7929998126183
848 -590.8879243853232
849 -590.891986705104
850 -590.9876953081417
851 -590.9895060116141
852 -591.0907017910853
853 -591.088714113616
854 -591.18667167441
855 -591.1879489227709
856 -591.2799268283779
857 -591.2780757317717
858 -591.371244132227
859 -591.3740038107211
860 -591.4625465915451
861 -591.4634663464882
862 -591.5525939193312
863 -591.554889990853
864 -591.6438002454372
865 -591.6476481811937
866 -591.7340513218126
867 -591.7386876414223
868 -591.82605022403
869 -591.8227356999031
870 -591.9187112665372
871 -591.9169167434835
872 -592.011323344656
873 -592.0029900745257
874 -592.0988854211686
875 -592.0906313201677
876 -592.188035192285
877 -592.1784752458225
878 -592.2747636177538
879 -592.26397103267
880 -592.3591349471325
881 -592.3533159276357
882 -592.4445365919087
883 -592.4421384600411
884 -592.5320401028966
885 -592.5286038878821
886 -592.6165008639834
887 -592.6127788447618
888 -592.7021293756212
889 -592.6972703842307
890 -592.7899181475549
891 -592.7781844482213
892 -592.8677681768331
893 -592.8550581986582
894 -592.9474177430739
895 -592.9366315047056
896 -593.0272596304089
897 -593.0143418416438
898 -593.1034986546472
899 -593.0963278755358
900 -593.1796219060675
901 -593.1762701130218
902 -593.2577923487037
903 -593.2563988598674
904 -593.3383907327615
905 -593.3404465555923
906 -593.4191912153107
907 -593.4209694557348
908 -593.5003831569783
909 -593.4991001699776
910 -593.5789007985933
911 -593.5709305476583
912 -593.6550574689375
913 -593.6503789005595
914 -593.7378586749639
915 -593.724463899964
916 -593.8125916693633
917 -593.794973382536
918 -593.8844874828552
919 -593.8706828054551
920 -593.9537121610441
921 -593.9402078553869
922 -594.0214271427545
923 -594.0107444286859
924 -594.0937728795658
925 -594.0849246956295
926 -594.1644889428014
927 -594.1497460589518
928 -594.2341572791555
929 -594.2197959266903
930 -594.3021561443121
931 -594.2909517239174
932 -594.378502529043
933 -594.3622366616747
934 -594.4511132128747
935 -594.4348306206748
936 -594.5218544622053
937 -594.5094451011201
938 -594.5904459597186
939 -594.5775959151317
940 -594.6547767078944
941 -594.641430272172
942 -594.719721314184
943 -594.7143738371046
944 -594.7898192439916
945 -594.778699063171
946 -594.853746391998
947 -594.8436788518291
948 -594.9190196960666
949 -594.9073578565497
950 -594.9813599865388
951 -594.9738713367224
952 -595.050312592587
953 -595.0377138811817
954 -595.1139197932612
955 -595.0978825881483
956 -595.1786256534343
957 -595.1604188669968
958 -595.2417185691206
959 -595.2244065005997
960 -595.3042156369125
961 -595.2899355789508
962 -595.3663694643415
963 -595.3522671307828
964 -595.4261624743019
965 -595.4090709323806
966 -595.4911803224378
967 -595.476674336611
968 -595.5512431827013
969 -595.5354910409827
970 -595.6118011852386
971 -595.5940856139933
972 -595.6722038657967
973 -595.653042494121
974 -595.7317291342448
975 -595.7141807022117
976 -595.794420934721
977 -595.7760465146121
978 -595.8549304471198
979 -595.8327861650129
980 -595.914141727073
981 -595.88837940423
982 -595.9678966051192
983 -595.945295833369
984 -596.0230946172912
985 -596.003754587003
986 -596.0769519977265
987 -596.0580346157474
988 -596.1333277393567
989 -596.1143231083933
990 -596.1867980463999
991 -596.1710225414228
992 -596.2400396438603
993 -596.2248840552412
994 -596.2929776569496
995 -596.2828782761075
996 -596.3485599232185
997 -596.3371328505899
998 -596.407839681636
999 -596.390913861483
1000 -596.4614987649933
1001 -596.4380547029635
1002 -596.5103471734081
1003 -596.4875328716347
1004 -596.5616896505993
1005 -596.5369981329872
1006 -596.6084247678778
1007 -596.5873798745929
1008 -596.6595486528184
1009 -596.6413098391818
1010 -596.712318870398
1011 -596.6908809957135
1012 -596.7626560613458
1013 -596.7403712053411
1014 -596.8129168212057
1015 -596.7915292634081
1016 -596.8594843249267
1017 -596.8400912027628
1018 -596.9080943041495
1019 -596.8911070714495
1020 -596.9550441327009
1021 -596.9359679047843
1022 -597.0040196753502
1023 -596.9826517214619
1024 -597.0528791440081
1025 -597.0286649494313
1026 -597.1009888708776
1027 -597.0787669912628
1028 -597.1438472855998
1029 -597.1220273685436
1030 -597.1870810544432
1031 -597.1633364298433
1032 -597.2294605377408
1033 -597.2057547958295
1034 -597.27165495594
1035 -597.2511966714787
1036 -597.3170876682231
1037 -597.2993680072071
1038 -597.3706889196302
1039 -597.3505457011602
1040 -597.4177259179926
1041 -597.3926344386442
1042 -597.4613550134432
1043 -597.4310489774034
1044 -597.5074007729253
1045 -597.476278248022
1046 -597.5564027975962
1047 -597.5189862229927
1048 -597.598528730752
1049 -597.5626462627645
1050 -597.6390715742533
1051 -597.6062125584314
1052 -597.678620335068
1053 -597.6469840907986
1054 -597.7154005209668
1055 -597.6909354261237
1056 -597.7527442811498
1057 -597.7299889871312
1058 -597.7904879265736
1059 -597.7732004580317
1060 -597.8249191886292
1061 -597.8136226197254
1062 -597.8625445074886
1063 -597.8512636663075
1064 -597.9043906478105
1065 -597.8892715668825
1066 -597.9455625143969
1067 -597.9271067108768
1068 -597.9864840666562
1069 -597.9650695650923
1070 -598.0237730894681
1071 -598.0075256703616
1072 -598.0648694510877
1073 -598.0469795266265
1074 -598.1077896450461
1075 -598.0889345079557
1076 -598.1459848092185
1077 -598.1231031824685
1078 -598.1800712976042
1079 -598.1556087441497
1080 -598.2164014809996
1081 -598.1917417050673
1082 -598.2546583395543
1083 -598.2245610761911
1084 -598.2954885821096
1085 -598.2575609134617
1086 -598.3288887590924
1087 -598.290546674028
1088 -598.3612328686551
1089 -598.3224351803751
1090 -598.3908564705587
1091 -598.3533181280847
1092 -598.4210710951273
1093 -598.386677291438
1094 -598.4532597215689
1095 -598.4234791948743
1096 -598.4858547173366
1097 -598.4558502709621
1098 -598.5167273436327
1099 -598.4938734278367
1100 -598.5502883538711
1101 -598.528145037781
1102 -598.5807515764926
1103 -598.5603905032003
1104 -598.6108198179973
1105 -598.5895113066655
1106 -598.6425866279064
1107 -598.61609198306
1108 -598.6762285530408
1109 -598.6477857528324
1110 -598.7089662620923
1111 -598.6841746650335
1112 -598.7452205156177
1113 -598.7177181982763
1114 -598.7773389342998
1115 -598.7453754960792
1116 -598.8043155657869
1117 -598.7725163766071
1118 -598.8319875093308
1119 -598.8020545293605
1120 -598.8588836149595
1121 -598.8265694776998
1122 -598.8927578510965
1123 -598.8604453443165
1124 -598.9246312768917
1125 -598.8944915631487
1126 -598.9525947537506
1127 -598.9211867493701
1128 -598.9837575065994
1129 -598.9502959439492
1130 -599.0104279502024
1131 -598.9749559429339
1132 -599.0309723015105
1133 -598.9967191580746
1134 -599.0524685756179
1135 -599.0185655170594
1136 -599.0719380784981
1137 -599.041538846076
1138 -599.0945133768737
1139 -599.067015774541
1140 -599.1200966519551
1141 -599.0945623625094
1142 -599.148492704458
1143 -599.1181636432774
1144 -599.171287641755
1145 -599.1429897013943
1146 -599.198394715997
1147 -599.1681604753819
1148 -599.2242757562594
1149 -599.1897045871854
1150 -599.2483027021578
1151 -599.2124479625035
1152 -599.2751064024793
1153 -599.2353694459425
1154 -599.3050145097635
1155 -599.2603602551437
1156 -599.3312959206332
1157 -599.2877055322755
1158 -599.3555953966843
1159 -599.3118728688222
1160 -599.3780249799191
1161 -599.3344608173049
1162 -599.3943844263493
1163 -599.3565701833022
1164 -599.412431071788
1165 -599.3799506215765
1166 -599.4296094299907
1167 -599.3970989636223
1168 -599.4425787789684
1169 -599.4132042423561
1170 -599.4586352091375
1171 -599.4314417301292
1172 -599.4799129177943
1173 -599.4526616107514
1174 -599.5013319418218
1175 -599.4745317228628
1176 -599.5249992824561
1177 -599.4935312676794
1178 -599.5486090803344
1179 -599.5155762238107
1180 -599.5709628521518
1181 -599.5315515718025
1182 -599.5920851511711
1183 -599.5500974002887
1184 -599.6113169452531
1185 -599.5668762358597
1186 -599.631408647694
1187 -599.5859288594957
1188 -599.6504790326713
1189 -599.6074258444165
1190 -599.668000429476
1191 -599.6237288859736
1192 -599.6833725550133
1193 -599.6394692871246
1194 -599.6999898385614
1195 -599.6586356605663
1196 -599.7198144042356
1197 -599.67416284945
1198 -599.7361623501978
1199 -599.6881609652953
1200 -599.7481612610449
1201 -599.7020113454228
1202 -599.762811330974
1203 -599.7144169353772
1204 -599.772339289484
1205 -599.7296119436173
1206 -599.7854387855353
1207 -599.7458065033272
1208 -599.8014506340962
1209 -599.7647955945567
1210 -599.8170243411389
1211 -599.7815615789347
1212 -599.8304893109932
1213 -599.8021046475505
1214 -599.8471081808334
1215 -599.8148267885592
1216 -599.864526727914
1217 -599.8246704267276
1218 -599.8806356692182
1219 -599.8387906716682
1220 -599.8937767557478
1221 -599.8462091351887
1222 -599.9075301500205
1223 -599.8616712783411
1224 -599.9222411355507
1225 -599.8764015291182
1226 -599.9345835014173
1227 -599.8855758464454
1228 -599.9372526755972
1229 -599.8909710424761
1230 -599.9466395258771
1231 -599.9087859432125
1232 -599.9596428246446
1233 -599.9238733437669
1234 -599.9696814470775
1235 -599.9365413937522
1236 -599.9836065194654
1237 -599.95041455187
1238 -599.990496691422
1239 -599.9568757253812
1240 -600.0002710124135
1241 -599.9642109530469
1242 -600.012725354398
1243 -599.9783148005016
1244 -600.0271713769318
1245 -599.9879202972807
1246 -600.0356629684094
1247 -599.9959170903268
1248 -600.0449338614014
1249 -600.0013830863018
1250 -600.0537607255392
1251 -600.0102594035491
1252 -600.0617729312837
1253 -600.0192892727551
1254 -600.0752868686004
1255 -600.0317153877797
1256 -600.0824877691109
1257 -600.0358012326277
1258 -600.0904026114285
1259 -600.0416106316601
1260 -600.0969643986595
1261 -600.0435235432815
1262 -600.1036947412694
1263 -600.0485374352749
1264 -600.1095206081347
1265 -600.0592684435338
1266 -600.1171591883769
1267 -600.0715219802677
1268 -600.1272212899478
1269 -600.0816056587721
1270 -600.1348350706733
1271 -600.0867950046193
1272 -600.1378700619481
1273 -600.0941841623911
1274 -600.143635986704
1275 -600.0985886630897
1276 -600.1440046709566
1277 -600.1043555426558
1278 -600.1471556833216
1279 -600.1072386616581
1280 -600.1510361608144
1281 -600.1117578200319
1282 -600.1564065514654
1283 -600.1132905106759
1284 -600.1610240829121
1285 -600.1194427749367
1286 -600.1640066010468
1287 -600.1208716883971
1288 -600.1700067964252
1289 -600.1241914349264
1290 -600.1703762750356
1291 -600.1264784814085
1292 -600.1735690625814
1293 -600.1286038796397
1294 -600.1768318537215
1295 -600.1294407918956
1296 -600.1824011897812
1297 -600.1418648178981
1298 -600.1932747387261
1299 -600.1547592413842
1300 -600.1993319157649
1301 -600.1564963975641
1302 -600.2039738107492
1303 -600.157117355664
1304 -600.2062183261879
1305 -600.1575664646311
1306 -600.2085127128837
1307 -600.159350377598
1308 -600.2115393472487
1309 -600.1671265303447
1310 -600.2116877845338
1311 -600.1659555662935
1312 -600.2125973284146
1313 -600.1666472307079
1314 -600.2176774162075
1315 -600.1742635255032
1316 -600.2206544075902
1317 -600.1782885497678
1318 -600.2250218900001
1319 -600.178493664267
1320 -600.2237520838255
1321 -600.1793679119331
1322 -600.2184126715536
1323 -600.1768833469744
1324 -600.2166162811857
1325 -600.1766205107836
1326 -600.2184355900735
1327 -600.1737635657506
1328 -600.2185732260823
1329 -600.1703924077933
1330 -600.2165063862758
1331 -600.170313971925
1332 -600.2208506317627
1333 -600.1728453963202
1334 -600.2219027283015
1335 -600.1717785604525
1336 -600.2222910825898
1337 -600.1700284541474
1338 -600.2250215711896
1339 -600.1716652968959
1340 -600.2203763735955
1341 -600.1705543557291
1342 -600.2159635743474
1343 -600.1735974710856
1344 -600.2157990631108
1345 -600.1792675409413
1346 -600.2237738726856
1347 -600.1817570005394
1348 -600.2223165194582
1349 -600.1782266934214
1350 -600.2201145677246
1351 -600.173962725597
1352 -600.2190611551683
1353 -600.1668692067585
1354 -600.2168544633649
1355 -600.1656826760601
1356 -600.2211385772581
1357 -600.1644937884651
1358 -600.2188514772563
1359 -600.1593052075274
1360 -600.2122856705613
1361 -600.1533062687727
1362 -600.2060733943681
1363 -600.1535898959046
1364 -600.2037846062954
1365 -600.1544393720685
1366 -600.1983696226397
1367 -600.1531672165537
1368 -600.1953470186666
1369 -600.1496562328998
1370 -600.1879681330722
1371 -600.1408975100056
1372 -600.1850047033064
1373 -600.1361675399127
1374 -600.1857128374332
1375 -600.1365554035389
1376 -600.1834204227827
1377 -600.126399584232
1378 -600.173934031224
1379 -600.118392193463
1380 -600.1662652589295
1381 -600.1142100268171
1382 -600.1626434997945
1383 -600.1145589575369
1384 -600.1621543706798
1385 -600.1120602975088
1386 -600.1599038572797
1387 -600.1096763044709
1388 -600.1490160326841
1389 -600.1006327054123
1390 -600.1449516747182
1391 -600.0939618108748
1392 -600.1399838870241
1393 -600.0907253857252
1394 -600.1355226938009
1395 -600.0856109271319
1396 -600.130194012972
1397 -600.0757532815724
1398 -600.1254932446423
1399 -600.0760601572399
1400 -600.1212034675012
1401 -600.0749892129699
1402 -600.1175373973424
1403 -600.0718201957292
1404 -600.1086671118909
1405 -600.0653930759823
1406 -600.1006273562825
1407 -600.0542888160606
1408 -600.0948414054255
1409 -600.0478008571673
1410 -600.0897402892671
1411 -600.0412396603184
1412 -600.0830394852694
1413 -600.0296372297782
1414 -600.0733975660294
1415 -600.0184011626176
1416 -600.0627002639729
1417 -600.0107947437502
1418 -600.0588120150583
1419 -600.0016689173495
1420 -600.0515007281911
1421 -599.9941572631626
1422 -600.0488260266935
1423 -599.9850609807966
1424 -600.0401805858
1425 -599.978782092278
1426 -600.0298952621101
1427 -599.9733984589059
1428 -600.0247129333773
1429 -599.9736702246016
1430 -600.022538282547
1431 -599.97065348886
1432 -600.0186445112311
1433 -599.9668262523421
1434 -600.0169927474301
1435 -599.9621193575988
1436 -600.007525990546
1437 -599.9539712564567
1438 -599.9976673961792
1439 -599.950326596073
1440 -599.9906230417154
1441 -599.9412065826776
1442 -599.9823449054211
1443 -599.9298587565502
1444 -599.9746665698341
1445 -599.9264417968515
1446 -599.9687386093615
1447 -599.919312145483
1448 -599.9599434944558
1449 -599.9130241964615
1450 -599.9467576312227
1451 -599.9004573589451
1452 -599.9353904302698
1453 -599.8838893372692
1454 -599.9217882172053
1455 -599.868634926792
1456 -599.9076666684055
1457 -599.8567796175781
1458 -599.8949991769697
1459 -599.8482858096753
1460 -599.8855104901958
1461 -599.8330309854339
1462 -599.880192881591
1463 -599.8245106271531
1464 -599.8752021367427
1465 -599.8197061456455
1466 -599.8698513439682
1467 -599.8126991614446
1468 -599.8613521247755
1469 -599.8040543783853
1470 -599.8485181349338
1471 -599.7961255850308
1472 -599.8393877891021
1473 -599.7833985305338
1474 -599.8264381571919
1475 -599.774087670634
1476 -599.8147171283269
1477 -599.7668236935352
1478 -599.8055877137538
1479 -599.7571757531525
1480 -599.7969040614059
1481 -599.7460496719649
1482 -599.7869589047674
1483 -599.7367478355596
1484 -599.7768524139231
1485 -599.7243450193462
1486 -599.7674260133753
1487 -599.7082717914063
1488 -599.759113708309
1489 -599.6958882036399
1490 -599.7447373081347
1491 -599.6823702603768
1492 -599.7253175586525
1493 -599.6660824402589
1494 -599.708040589554
1495 -599.6551977099695
1496 -599.6952783161365
1497 -599.6425999048791
1498 -599.6831761862962
1499 -599.6321958726553
1500 -599.6706855477997
1501 -599.6228312377253
1502 -599.6578774171188
1503 -599.6124138485621
1504 -599.6454161920959
1505 -599.6018452581809
1506 -599.6372745368709
1507 -599.5899334122661
1508 -599.628376670673
1509 -599.5719776620141
1510 -599.6113313408391
1511 -599.554857069362
1512 -599.5967635635111
1513 -599.5444235158844
1514 -599.5862629611825
1515 -599.5361707565751
1516 -599.5789858068056
1517 -599.5288053330287
1518 -599.5667084079015
1519 -599.5123132279941
1520 -599.5524748752947
1521 -599.4962951902866
1522 -599.5346033671898
1523 -599.4815859038492
1524 -599.5226655083868
1525 -599.4712143628252
1526 -599.5167424387038
1527 -599.4558483485098
1528 -599.5033635831022
1529 -599.4418096974759
1530 -599.4887105762834
1531 -599.4265847110463
1532 -599.4757771457517
1533 -599.4130471968224
1534 -599.4631266321525
1535 -599.409127852789
1536 -599.447615857487
1537 -599.3955805058116
1538 -599.4313993738792
1539 -599.3783536181534
1540 -599.4123446114058
1541 -599.3603880434204
1542 -599.3949343198274
1543 -599.3471741346129
1544 -599.3837211039328
1545 -599.3354564584735
1546 -599.3691406753813
1547 -599.3215411505321
1548 -599.3556964513496
1549 -599.3078985244107
1550 -599.3455658693503
1551 -599.2879510997998
1552 -599.331019665978
1553 -599.2745991177362
1554 -599.3210346155687
1555 -599.2680464333893
1556 -599.3128569015812
1557 -599.2592385493851
1558 -599.3002499452419
1559 -599.2442830749155
1560 -599.2846341374102
1561 -599.2343226664359
1562 -599.2696529483217
1563 -599.2174919240572
1564 -599.2527481475732
1565 -599.200649532761
1566 -599.2377617380342
1567 -599.1915793292376
1568 -599.2246966826709
1569 -599.1798464160613
1570 -599.2151953458189
1571 -599.1659477720153
1572 -599.2018143161417
1573 -599.1488775511539
1574 -599.187396829313
1575 -599.1284363831425
1576 -599.1688282266074
1577 -599.1100656331007
1578 -599.1501551495272
1579 -599.0939467987013
1580 -599.130029871313
1581 -599.0740042366588
1582 -599.1117976932228
1583 -599.0536500030621
1584 -599.0959479081922
1585 -599.0387628726213
1586 -599.0838353120232
1587 -599.0277149058378
1588 -599.0769664634258
1589 -599.0171539199847
1590 -599.0613729159002
1591 -599.003722801562
1592 -599.0443359902848
1593 -598.9851651868341
1594 -599.0294179608513
1595 -598.9689906993207
1596 -599.0090589331218
1597 -598.9503041224307
1598 -598.9940337299164
1599 -598.9401626820335
1600 -598.9757603461184
1601 -598.926477058019
1602 -598.961113148494
1603 -598.9136609905058
1604 -598.9494209319556
1605 -598.8991596357299
1606 -598.9288091392268
1607 -598.8802184706905
1608 -598.9136326084204
1609 -598.8636427253969
1610 -598.8979829453465
1611 -598.8442685052097
1612 -598.8770426159066
1613 -598.822378622307
1614 -598.8599611486728
1615 -598.8078653362405
1616 -598.84658174021
1617 -598.792194643831
1618 -598.8306421153244
1619 -598.7762681792022
1620 -598.8125994878627
1621 -598.7567817374714
1622 -598.7952915520134
1623 -598.7383440086078
1624 -598.7747738718418
1625 -598.720843169294
1626 -598.7596232004787
1627 -598.7048889811803
1628 -598.7451330107915
1629 -598.6884891782823
1630 -598.7277083479522
1631 -598.6719588108999
1632 -598.7118137131737
1633 -598.6601055581203
1634 -598.6955632185908
1635 -598.6408589282786
1636 -598.6783853892964
1637 -598.6239169934533
1638 -598.6617323642816
1639 -598.6062822080351
1640 -598.6457443184732
1641 -598.5889401354866
1642 -598.6299816267107
1643 -598.5702829574053
1644 -598.6114978384596
1645 -598.5508995889669
1646 -598.5922272696544
1647 -598.5329405888228
1648 -598.5754139581039
1649 -598.5155864488638
1650 -598.5598153370925
1651 -598.5051244943062
1652 -598.5429086378888
1653 -598.4877495487301
1654 -598.5202032777361
1655 -598.4723961825882
1656 -598.5048696481084
1657 -598.4536539141842
1658 -598.489019343467
1659 -598.4352805475802
1660 -598.4736769448723
1661 -598.4133005652377
1662 -598.455297205738
1663 -598.3947537250287
1664 -598.4386590206558
1665 -598.3770871149148
1666 -598.4156959915289
1667 -598.3580632716341
1668 -598.4015035650186
1669 -598.3433019273934
1670 -598.3839400995023
1671 -598.3281072616912
1672 -598.364939643506
1673 -598.3147773555934
1674 -598.3452680129178
1675 -598.300165635966
1676 -598.3280302111497
1677 -598.2838777708887
1678 -598.3185455544858
1679 -598.270936333857
1680 -598.3000159791368
1681 -598.2505276764055
1682 -598.2848407792433
1683 -598.2276951665184
1684 -598.267685222275
1685 -598.2043439313926
1686 -598.2535025209039
1687 -598.1891076899816
1688 -598.2384632073769
1689 -598.1724455059069
1690 -598.2171585667165
1691 -598.1514777756266
1692 -598.1964836445336
1693 -598.1354693953484
1694 -598.176911056641
1695 -598.1141526914681
1696 -598.1557821274398
1697 -598.094776636435
1698 -598.1348679553462
1699 -598.0789863333587
1700 -598.1150673144648
1701 -598.0610760133555
1702 -598.0970724595041
1703 -598.0430159935659
1704 -598.0796773471816
1705 -598.0272579134827
1706 -598.0590536146269
1707 -598.0023069193464
1708 -598.0375232435783
1709 -597.9846146514313
1710 -598.0202906972627
1711 -597.9700629786263
1712 -598.0042768242218
1713 -597.9541608713205
1714 -597.9877300634893
1715 -597.9337080002339
1716 -597.9703291854108
1717 -597.9175943439443
1718 -597.9522218895684
1719 -597.9028354800195
1720 -597.9359132961195
1721 -597.8850248221365
1722 -597.9224701171818
1723 -597.86403006903
1724 -597.9027688123617
1725 -597.8384138614621
1726 -597.8821173633315
1727 -597.8148977223956
1728 -597.8596659256507
1729 -597.7963894266686
1730 -597.8391694466507
1731 -597.7778090030224
1732 -597.8190221617796
1733 -597.758280086513
1734 -597.8010168329291
1735 -597.7448951761613
1736 -597.7795241380946
1737 -597.724853881192
1738 -597.760090573246
1739 -597.70710972881
1740 -597.7409305758532
1741 -597.6914449601094
1742 -597.7225234498803
1743 -597.6686715527766
1744 -597.7000353794296
1745 -597.6462173475129
1746 -597.6820665504848
1747 -597.6270797693218
1748 -597.6663265183237
1749 -597.6107487885815
1750 -597.6522111633212
1751 -597.6010397740326
1752 -597.6387474719666
1753 -597.5855383284537
1754 -597.6218339271887
1755 -597.5639939418318
1756 -597.6006944919239
1757 -597.5404873035437
1758 -597.5783967161547
1759 -597.5175942409574
1760 -597.5584644525135
1761 -597.4961267591465
1762 -597.5367148966643
1763 -597.4770977668978
1764 -597.5148707842361
1765 -597.4556116649742
1766 -597.4956466722061
1767 -597.4374310656324
1768 -597.4805399308468
1769 -597.4223565210943
1770 -597.460609924414
1771 -597.402649843738
1772 -597.438175334685
1773 -597.3774013262793
1774 -597.4135280114143
1775 -597.357133864655
1776 -597.3868108212102
1777 -597.3392144619354
1778 -597.3688198041291
1779 -597.3245514113394
1780 -597.3550747207387
1781 -597.307049366616
1782 -597.334129217713
1783 -597.292317027958
1784 -597.3112111064776
1785 -597.2713443092903
1786 -597.292914548118
1787 -597.2472731545251
1788 -597.2734866605095
1789 -597.2278866788398
1790 -597.2576504329405
1791 -597.2050683629527
1792 -597.2394364905189
1793 -597.1803438944465
1794 -597.2204359950765
1795 -597.1628778324396
1796 -597.2037197491687
1797 -597.143023500906
1798 -597.1849063835392
1799 -597.1197017813593
1800 -597.1628302056516
1801 -597.0951366266372
1802 -597.1387677807923
1803 -597.0735121111977
1804 -597.1175026170578
1805 -597.0569880210462
1806 -597.0967769714384
1807 -597.0386978534946
1808 -597.0767899703028
1809 -597.0198657357498
1810 -597.0535097474828
1811 -596.9958688757549
1812 -597.0327637860034
1813 -596.9753068774045
1814 -597.0105114210451
1815 -596.9566699231867
1816 -596.9882085745551
1817 -596.9401767876831
1818 -596.9708958513478
1819 -596.9172941664837
1820 -596.9452147636489
1821 -596.8921348767954
1822 -596.9196547736414
1823 -596.8685456360945
1824 -596.9040779465781
1825 -596.8525026463003
1826 -596.8890319583465
1827 -596.8384854351502
1828 -596.8716874555263
1829 -596.8206850936573
1830 -596.8487801941694
1831 -596.795116773913
1832 -596.8219944071052
1833 -596.7642167130369
1834 -596.7970541275297
1835 -596.7404092628656
1836 -596.780015707687
1837 -596.7202634613407
1838 -596.7629839362777
1839 -596.6995356977139
1840 -596.7394378899443
1841 -596.6767887545263
1842 -596.7178058077023
1843 -596.6558436412934
1844 -596.7002812634329
1845 -596.6375592909275
1846 -596.6769384616168
1847 -596.6164869351267
1848 -596.6525017231517
1849 -596.5994588901425
1850 -596.6311315311289
1851 -596.5806134877682
1852 -596.6117706196934
1853 -596.5624876683991
1854 -596.5955244072047
1855 -596.5481893986356
1856 -596.5772323600368
1857 -596.5272718533602
1858 -596.5604341704825
1859 -596.5098420618556
1860 -596.5443266050901
1861 -596.4925810304866
1862 -596.5298235503183
1863 -596.4717847693237
1864 -596.5116374974442
1865 -596.4467768814675
1866 -596.4872281729665
1867 -596.4192487360972
1868 -596.4620755846757
1869 -596.3958706958376
1870 -596.4354926765722
1871 -596.377213323671
1872 -596.4161828309432
1873 -596.356967388202
1874 -596.394601253278
1875 -596.3355431351029
1876 -596.3721279730121
1877 -596.3117004885813
1878 -596.3496044977821
1879 -596.2929282235133
1880 -596.3283446448793
1881 -596.2723634107357
1882 -596.3072928151595
1883 -596.2487924419311
1884 -596.2823642526754
1885 -596.2238062605446
1886 -596.2594244312066
1887 -596.201432959976
1888 -596.2349974877737
1889 -596.1821804422991
1890 -596.2158038257492
1891 -596.1665943914726
1892 -596.1949531237403
1893 -596.1481987485181
1894 -596.1725615080927
1895 -596.1265579666809
1896 -596.1515974528312
1897 -596.0981816561005
1898 -596.1277183968966
1899 -596.0728305815104
1900 -596.1056858023593
1901 -596.0476842347709
1902 -596.0850022735134
1903 -596.0279176542928
1904 -596.0680371272249
1905 -596.006174110136
1906 -596.0428224921345
1907 -595.9809929585095
1908 -596.0170525012468
1909 -595.9589253116017
1910 -595.9922807034748
1911 -595.9327217029354
1912 -595.9679307419815
1913 -595.9129121442911
1914 -595.9436073411448
1915 -595.8879343131614
1916 -595.9218875634213
1917 -595.8637427818106
1918 -595.9002104268919
1919 -595.8437944606461
1920 -595.8772938406573
1921 -595.8184075419974
1922 -595.8577780777848
1923 -595.793927108206
1924 -595.833282225925
1925 -595.7720904526971
1926 -595.8134818432591
1927 -595.7520377960707
1928 -595.7925255418453
1929 -595.7327230608173
1930 -595.7679112169233
1931 -595.7119403327068
1932 -595.7444175478848
1933 -595.6907016134584
1934 -595.7243500032944
1935 -595.6725154995723
1936 -595.6990969102201
1937 -595.6460918429831
1938 -595.6791953027049
1939 -595.6290679940621
1940 -595.6588097936747
1941 -595.6061660444756
1942 -595.6381424139789
1943 -595.5800108863624
1944 -595.6118519731459
1945 -595.5548647019267
1946 -595.5910581028921
1947 -595.5315621647297
1948 -595.5664564945702
1949 -595.5061294606112
1950 -595.5455712525447
1951 -595.4879596262743
1952 -595.5221044260855
1953 -595.4623667962205
1954 -595.4975029955166
1955 -595.4381475098495
1956 -595.4721208109667
1957 -595.4205215595359
1958 -595.451772895277
1959 -595.3993074730442
1960 -595.4334897768352
1961 -595.3763229550678
1962 -595.4143597247312
1963 -595.3564122300278
1964 -595.3940263330185
1965 -595.3350603947493
1966 -595.3740864732173
1967 -595.3134758239379
1968 -595.3478699773915
1969 -595.2860774059026
1970 -595.3260277022523
1971 -595.2609260479655
1972 -595.3009450895183
1973 -595.2365227979728
1974 -595.2771757363527
1975 -595.2120232493152
1976 -595.2539050924921
1977 -595.1890661888259
1978 -595.2264772426884
1979 -595.1635261513832
1980 -595.2051627502301
1981 -595.1431990530963
1982 -595.1748509225149
1983 -595.1169148221219
1984 -595.1455376095631
1985 -595.0880235196923
1986 -595.1199640726236
1987 -595.0635459348694
1988 -595.0949319038766
1989 -595.0406871252757
1990 -595.0725363693297
1991 -595.016714478469
1992 -595.0523809862005
1993 -594.9947581204834
1994 -595.0362866724166
1995 -594.9760490250416
1996 -595.0110393358156
1997 -594.9540667598635
1998 -594.9839816638959
1999 -594.9252384725269
2000 -594.9545977485491
2001 -594.8991711782384
2002 -594.9258774856698
2003 -594.8731287889134
2004 -594.8973918171463
2005 -594.8491992264231
2006 -594.8725043314125
2007 -594.8250111144399
2008 -594.8471535170223
2009 -594.7957163350339
2010 -594.822325559151
2011 -594.7705862328269
2012 -594.8016873180713
2013 -594.7429692700892
2014 -594.7782328254751
2015 -594.715688488861
2016 -594.7535172726978
2017 -594.6915651224808
2018 -594.7324510313938
2019 -594.6673637288243
2020 -594.7059799578276
2021 -594.6452002481767
2022 -594.6866754855579
2023 -594.6260042672254
2024 -594.6644689241051
2025 -594.6047031336099
2026 -594.6399327427123
2027 -594.5762421397924
2028 -594.612803675293
2029 -594.5477679035029
2030 -594.5824074483716
2031 -594.5196136639086
2032 -594.5542670434195
2033 -594.4910946611988
2034 -594.5270133861978
2035 -594.4599633392334
2036 -594.496264544984
2037 -594.4299563266075
2038 -594.466667372224
2039 -594.4018855344619
2040 -594.4399327753194
2041 -594.3806252414472
2042 -594.4118200193726
2043 -594.3551954905237
2044 -594.3795967223514
2045 -594.3256806328214
2046 -594.3491770175541
2047 -594.2956148773102
2048 -594.3180585719472
2049 -594.2694447035514
2050 -594.2938307687945
2051 -594.2413793377945
2052 -594.2716068205175
2053 -594.2182192940068
2054 -594.2468449816874
2055 -594.188194745003
2056 -594.2200670483792
2057 -594.1576716646109
2058 -594.1958257974688
2059 -594.129592616132
2060 -594.1681125102325
2061 -594.0999561071565
2062 -594.1378795007323
2063 -594.0721752533566
2064 -594.1110235807189
2065 -594.0508576544003
2066 -594.0832922290539
2067 -594.0194815825489
2068 -594.0503953248658
2069 -593.9876484403451
2070 -594.0205169392005
2071 -593.9604145533292
2072 -593.9932491033852
2073 -593.9315762539842
2074 -593.9658858086231
2075 -593.9055307758171
2076 -593.9356468882086
2077 -593.8787414950807
2078 -593.9109619020478
2079 -593.8488619832262
2080 -593.8815322046928
2081 -593.8207609400421
2082 -593.8525902759442
2083 -593.7952360542689
2084 -593.8239559289644
2085 -593.7662390623901
2086 -593.7943586493657
2087 -593.7400226427503
2088 -593.7647765818957
2089 -593.7094006521014
2090 -593.7356194725578
2091 -593.6764087150623
2092 -593.7043310919344
2093 -593.6445935185667
2094 -593.6749821767303
2095 -593.6165313619525
2096 -593.6512469152756
2097 -593.5930143758084
2098 -593.6260308903197
2099 -593.5643426579595
2100 -593.6007812472575
2101 -593.5350609094523
2102 -593.570976793688
2103 -593.5012102323725
2104 -593.5372058321801
2105 -593.4711184159598
2106 -593.5069203705031
2107 -593.4492809518143
2108 -593.4753561061152
2109 -593.4211249391029
2110 -593.4486079626733
2111 -593.3956983285494
2112 -593.4201404117467
2113 -593.3682506156368
2114 -593.3901307243233
2115 -593.3369655435612
2116 -593.360103381291
2117 -593.3063594236409
2118 -593.3310739081907
2119 -593.2751744511091
2120 -593.2992773355327
2121 -593.2437048605868
2122 -593.2702426557577
2123 -593.2111404241358
2124 -593.2404636537681
2125 -593.1776660190377
2126 -593.2126361107405
2127 -593.1496419322016
2128 -593.1871544428815
2129 -593.1199924990233
2130 -593.1569203538013
2131 -593.0901607904817
2132 -593.1246217512273
2133 -593.0582477928057
2134 -593.0888178547107
2135 -593.0252237745113
2136 -593.062099172892
2137 -592.9938692903161
2138 -593.0295014491772
2139 -592.9595975955797
2140 -592.9994538286667
2141 -592.9301500728657
2142 -592.967096094651
2143 -592.9017019797368
2144 -592.9431752094448
2145 -592.873604449857
2146 -592.9109323261848
2147 -592.8427149752707
2148 -592.88077298232
2149 -592.8139184145052
2150 -592.8462147176966
2151 -592.7830815214473
2152 -592.8103030819323
2153 -592.7538883092594
2154 -592.7829536634184
2155 -592.7285793364159
2156 -592.7573939308497
2157 -592.7033573460573
2158 -592.7286005387913
2159 -592.6757197022894
2160 -592.6976875135433
2161 -592.6495254401536
2162 -592.6710944636025
2163 -592.6177087459716
2164 -592.6438248985793
2165 -592.5872657935473
2166 -592.6209246364699
2167 -592.564320067832
2168 -592.5959600931056
2169 -592.5328661410964
2170 -592.5660674317365
2171 -592.5020586588358
2172 -592.5357765879048
2173 -592.4724402111304
2174 -592.5094883100224
2175 -592.4414855712428
2176 -592.4758089059917
2177 -592.4085562159302
2178 -592.4457163634106
2179 -592.3825321961464
2180 -592.4128769640262
2181 -592.3500544836737
2182 -592.3844237234881
2183 -592.3218101355558
2184 -592.3558566127193
2185 -592.2953351109411
2186 -592.3278445088876
2187 -592.261723756898
2188 -592.2940483715446
2189 -592.2258555324265
2190 -592.2617799178003
2191 -592.1943922953537
2192 -592.2282901419713
2193 -592.161740679874
2194 -592.1917878236765
2195 -592.1270878870428
2196 -592.1615834423791
2197 -592.1027667836631
2198 -592.1323681867536
2199 -592.073122319707
2200 -592.1022347345126
2201 -592.0400007565173
2202 -592.068839240748
2203 -592.0057223934059
2204 -592.0332058175557
2205 -591.9699447337895
2206 -592.002002177122
2207 -591.9370460945674
2208 -591.9730802558504
2209 -591.9099148752159
2210 -591.9432471159507
2211 -591.8791191295657
2212 -591.9132862036565
2213 -591.84667905461
2214 -591.8801866430467
2215 -591.817280466321
2216 -591.8501501193977
2217 -591.7902247969736
2218 -591.819419090485
2219 -591.7602467312602
2220 -591.7822070867608
2221 -591.7262327305667
2222 -591.747531052969
2223 -591.6904528493582
2224 -591.7098835922379
2225 -591.6539483769053
2226 -591.6805271004607
2227 -591.6227936184607
2228 -591.6444554500548
2229 -591.581943888307
2230 -591.6102645837192
2231 -591.5423087530759
2232 -591.5736847379209
2233 -591.5026811611858
2234 -591.5388604006546
2235 -591.4681496232081
2236 -591.5030619440334
2237 -591.4370801509108
2238 -591.4683334240665
2239 -591.4065702023312
2240 -591.4370774760082
2241 -591.3718372615741
2242 -591.4025577667749
2243 -591.3392653829227
2244 -591.3665950708294
2245 -591.3057381607417
2246 -591.3347623752688
2247 -591.271186094628
2248 -591.2966981415129
2249 -591.2335583910844
2250 -591.2579857313268
2251 -591.1955885901567
2252 -591.2245886620123
2253 -591.1556469112049
2254 -591.1874601617012
2255 -591.1165211044602
2256 -591.1481327321965
2257 -591.0788353302427
2258 -591.1083543511229
2259 -591.0432617534614
2260 -591.066056797031
2261 -591.0016367392606
2262 -591.022978221521
2263 -590.9617716182809
2264 -590.9845700398064
2265 -590.9195435584859
2266 -590.9442990497081
2267 -590.8792748498975
2268 -590.9043731191603
2269 -590.8430093613873
2270 -590.8732665757294
2271 -590.8077572371911
2272 -590.8369189423886
2273 -590.7686369426084
2274 -590.7996128291899
2275 -590.7331406250361
2276 -590.7663757803253
2277 -590.6988138169047
2278 -590.7317598301007
2279 -590.6672994253943
2280 -590.6981670856569
2281 -590.6386713943352
2282 -590.6606390325293
2283 -590.6012680547598
2284 -590.6228214275525
2285 -590.5640413819715
2286 -590.5850570565475
2287 -590.5263664109488
2288 -590.544663727442
2289 -590.4869878054274
2290 -590.5092779857465
2291 -590.4456287287819
2292 -590.4714186831598
2293 -590.408958015357
2294 -590.4375621807519
2295 -590.3710024612435
2296 -590.4046167904713
2297 -590.3360351349015
2298 -590.3726730488662
2299 -590.2972054690287
2300 -590.3355265087548
2301 -590.2558804037649
2302 -590.2886842887558
2303 -590.2149883458957
2304 -590.2474054130843
2305 -590.1740823203028
2306 -590.2069486723177
2307 -590.1327118024014
2308 -590.1659018974447
2309 -590.0944255992258
2310 -590.1303990578542
2311 -590.0632683559493
2312 -590.0898014085641
2313 -590.0290404523777
2314 -590.0522988216084
2315 -589.9902338226805
2316 -590.0119348252381
2317 -589.9511799836415
2318 -589.9731237739263
2319 -589.9111801855164
2320 -589.9330083114928
2321 -589.8748682457712
2322 -589.8968800002073
2323 -589.8406498258519
2324 -589.862061857501
2325 -589.8050027013331
2326 -589.826322056586
2327 -589.7689128294655
2328 -589.7850330378539
2329 -589.7302479960932
2330 -589.7490242067674
2331 -589.6873372029584
2332 -589.7132173305093
2333 -589.6475699379574
2334 -589.6753148125197
2335 -589.6135713394743
2336 -589.6367122097876
2337 -589.5746239231011
2338 -589.6009897800943
2339 -589.5334201679849
2340 -589.5597846203468
2341 -589.4895314323733
2342 -589.5199820024933
2343 -589.4452947845709
2344 -589.4772445993935
2345 -589.4022702115685
2346 -589.4370117844626
2347 -589.3663042509684
2348 -589.394854806179
2349 -589.3227872638138
2350 -589.3495513957982
2351 -589.2769489254401
2352 -589.2984806726174
2353 -589.2306392195613
2354 -589.2515586949014
2355 -589.1803125953757
2356 -589.1991757645128
2357 -589.1344071373283
2358 -589.1516505618852
2359 -589.0868508964207
2360 -589.1042547955237
2361 -589.0369864064472
2362 -589.0540873705776
2363 -588.9869337885222
2364 -589.0070053591304
2365 -588.93917744149
2366 -588.9615587324541
2367 -588.8905082488941
2368 -588.9140045284781
2369 -588.8403947992614
2370 -588.8667725491559
2371 -588.7946499864781
2372 -588.8166040617976
2373 -588.7476312126491
2374 -588.7693539369379
2375 -588.7014978868135
2376 -588.7257567566934
2377 -588.6592572518897
2378 -588.6815527359471
2379 -588.6169269841503
2380 -588.6441608574501
2381 -588.5805300750853
2382 -588.6074623533145
2383 -588.5420197009826
2384 -588.5676864568184
2385 -588.4988443261673
2386 -588.5222307703436
2387 -588.4560138360902
2388 -588.4791600521385
2389 -588.4185330802976
2390 -588.4374271240848
2391 -588.381271913377
2392 -588.3992833327763
2393 -588.3428065010776
2394 -588.3625976492129
2395 -588.3079239828834
2396 -588.3306664624955
2397 -588.2793528800366
2398 -588.3013079819749
2399 -588.2473423795258
2400 -588.2766339146179
2401 -588.2169524185699
2402 -588.2460727537248
2403 -588.1755536067881
2404 -588.2160493156887
2405 -588.1435845594262
2406 -588.1855571239309
2407 -588.1081170602516
2408 -588.1535217865929
2409 -588.0766656269745
2410 -588.1189874935676
2411 -588.0462349105617
2412 -588.0843381280781
2413 -588.0137768582249
2414 -588.0494723885035
2415 -587.979712600822
2416 -588.0118138301299
2417 -587.9456007796921
2418 -587.9723138761741
2419 -587.9105200976069
2420 -587.935654382109
2421 -587.8731674557313
2422 -587.8965789985135
2423 -587.8356664002729
2424 -587.8561488271829
2425 -587.7915739513645
2426 -587.817759359893
2427 -587.7462152388625
2428 -587.7755126935425
2429 -587.7067936732158
2430 -587.7353450440788
2431 -587.6682162875029
2432 -587.6927392323227
2433 -587.6276278591786
2434 -587.6512043658197
2435 -587.5825976694051
2436 -587.60812666587
2437 -587.5446806129843
2438 -587.5703740453179
2439 -587.5062855717711
2440 -587.5291045374906
2441 -587.4646381435898
2442 -587.4882663927218
2443 -587.4258007515105
2444 -587.448175824909
2445 -587.3842512902125
2446 -587.4085072389069
2447 -587.3373125402644
2448 -587.3685531181138
2449 -587.2987558802542
2450 -587.3231829419126
2451 -587.2547916206647
2452 -587.2768054956013
2453 -587.2074282031904
2454 -587.2330568618437
2455 -587.1679301107567
2456 -587.1894610531245
2457 -587.1261942653671
2458 -587.1407169674106
2459 -587.072697341459
2460 -587.0873917176131
2461 -587.0175096586468
2462 -587.0311959825257
2463 -586.9643926492017
2464 -586.9764483620218
2465 -586.9083099079853
2466 -586.9283273622292
2467 -586.8593169731739
2468 -586.8808375968867
2469 -586.8096384446678
2470 -586.8334284158663
2471 -586.7587603247275
2472 -586.7835373650375
2473 -586.7059210145802
2474 -586.729856777015
2475 -586.65284675634
2476 -586.6729596893015
2477 -586.5969752487882
2478 -586.6211973532945
2479 -586.5474712750414
2480 -586.5679995267496
2481 -586.4953782645146
2482 -586.5152541158234
2483 -586.4456692005343
2484 -586.4656850401997
2485 -586.3988747777749
2486 -586.4175316413815
2487 -586.3516155421432
2488 -586.3736469357958
2489 -586.3084259175766
2490 -586.3355332311721
2491 -586.2706556786311
2492 -586.2938225494039
2493 -586.2264549244312
2494 -586.2543761574592
2495 -586.185333784367
2496 -586.2086207315771
2497 -586.1475422724704
2498 -586.1723489566713
2499 -586.1081849022981
2500 -586.1336096265293
2501 -586.0703711033221
2502 -586.0914158000837
2503 -586.0293269346189
2504 -586.0498079169555
2505 -585.9863130722185
2506 -586.0053212028342
2507 -585.9449210914516
2508 -585.9643916583163
2509 -585.9049327536924
2510 -585.9243911894998
2511 -585.8598553167753
2512 -585.8842096876084
2513 -585.8191561623955
2514 -585.8458572911835
2515 -585.7765575697777
2516 -585.807419018255
2517 -585.7424052152505
2518 -585.7689133249997
2519 -585.700037960296
2520 -585.72867743858
2521 -585.6611624173352
2522 -585.6878610639809
2523 -585.6175604749301
2524 -585.6430028441827
2525 -585.571212301812
2526 -585.5998566007019
2527 -585.5306402208033
2528 -585.5572621401234
2529 -585.4892113365072
2530 -585.5183299639585
2531 -585.4458258113135
2532 -585.4757431300376
2533 -585.4048820512259
2534 -585.4282573309658
2535 -585.3556172280296
2536 -585.3787943344548
2537 -585.3031548263452
2538 -585.3270137278233
2539 -585.2514535663386
2540 -585.2708120846671
2541 -585.2023827746165
2542 -585.2177930113332
2543 -585.1506782354452
2544 -585.1653331617109
2545 -585.1028188501954
2546 -585.1179273560625
2547 -585.0547432565252
2548 -585.0636539164763
2549 -584.9995388267639
2550 -585.0110670219137
2551 -584.9472200794651
2552 -584.9558161653022
2553 -584.889495029879
2554 -584.8991918387379
2555 -584.8255171590645
2556 -584.8410326657321
2557 -584.7625903028986
2558 -584.777578693059
2559 -584.6947865327945
2560 -584.702687302468
2561 -584.6189499411975
2562 -584.6291136832951
2563 -584.5414762343351
2564 -584.5523141646788
2565 -584.4632960202276
2566 -584.4728676910905
2567 -584.3861107421286
2568 -584.3998719629067
2569 -584.3179700318315
2570 -584.3288419940625
2571 -584.2412548906182
2572 -584.25140091117
2573 -584.1688862187174
2574 -584.178483327811
2575 -584.0919039155336
2576 -584.1053686620188
2577 -584.0162301838487
2578 -584.0346662208677
2579 -583.943993629253
2580 -583.9670513670972
2581 -583.8767854512479
2582 -583.8965294954586
2583 -583.8150668195042
2584 -583.8323327600885
2585 -583.7582532949091
2586 -583.7737964870521
2587 -583.7003432890641
2588 -583.712764022769
2589 -583.640792479438
2590 -583.6560706446115
2591 -583.5926702167623
2592 -583.6079627946694
2593 -583.5501643080216
2594 -583.5684350967286
2595 -583.5099510643298
2596 -583.5340773935549
2597 -583.4696387034157
2598 -583.4980880745521
2599 -583.4361658285712
2600 -583.4703233115177
2601 -583.4033601823554
2602 -583.4489898116258
2603 -583.3831873260452
2604 -583.4289304553188
2605 -583.3648227429085
2606 -583.4062079719816
2607 -583.3439029378853
2608 -583.3847877557016
2609 -583.3277529135286
2610 -583.3656303130163
2611 -583.317066687433
2612 -583.3497342456043
2613 -583.2987900111781
2614 -583.3349539612858
2615 -583.2851449204989
2616 -583.3178741208727
2617 -583.2719718222542
2618 -583.3009635052314
2619 -583.2510110191162
2620 -583.2772890540219
2621 -583.221185520286
2622 -583.2463483024687
2623 -583.1896478592348
2624 -583.2177521761539
2625 -583.1553837950953
2626 -583.1817668816303
2627 -583.114944116528
2628 -583.1417762541917
2629 -583.0782274566295
2630 -583.1010652323423
2631 -583.0355137876776
2632 -583.0592376345803
2633 -582.9912308473731
2634 -583.0163150177303
2635 -582.9376857332413
2636 -582.9619728911524
2637 -582.8792764450825
2638 -582.90502305702
2639 -582.8166772539112
2640 -582.8463068772232
2641 -582.7572316303147
2642 -582.7882248882133
2643 -582.6993451556834
2644 -582.7238482818734
2645 -582.6328150214597
2646 -582.6576945729112
2647 -582.5755232773827
2648 -582.5910390678021
2649 -582.5146980581851
2650 -582.53199727177
2651 -582.4582311539644
2652 -582.4793701086827
2653 -582.4103162318688
2654 -582.4217981689308
2655 -582.3561138251124
2656 -582.3670707417967
2657 -582.3012112757407
2658 -582.3199613734523
2659 -582.2557408843643
2660 -582.274089398426
2661 -582.2094751419662
2662 -582.2296174366736
2663 -582.1623041512904
2664 -582.1861319517941
2665 -582.118755460333
2666 -582.1432911105518
2667 -582.078905651021
2668 -582.1059648016225
2669 -582.0460901973867
2670 -582.0754203199118
2671 -582.0187268981772
2672 -582.0492765372729
2673 -581.9868363895787
2674 -582.018272269986
2675 -581.9541523514434
2676 -581.9914588933367
2677 -581.9288527642187
2678 -581.9706829189996
2679 -581.9050360326172
2680 -581.9444821613142
2681 -581.8778719144755
2682 -581.9208033737265
2683 -581.8563165393119
2684 -581.8972938881676
2685 -581.8271869843635
2686 -581.8705183515917
2687 -581.801128856108
2688 -581.8397852323184
2689 -581.7722984854782
2690 -581.8026957493148
2691 -581.7363095036675
2692 -581.7629288486066
2693 -581.7021265584849
2694 -581.7263162385104
2695 -581.6655636510832
2696 -581.6874708788202
2697 -581.6239462191793
2698 -581.6456556704519
2699 -581.578591378375
2700 -581.5944675558128
2701 -581.5288927442346
2702 -581.5450133147269
2703 -581.4791679745528
2704 -581.4949468715085
2705 -581.4250044115848
2706 -581.4428246439372
2707 -581.3636168330762
2708 -581.3810704799048
2709 -581.300021463113
2710 -581.3167351492234
2711 -581.2339976158268
2712 -581.2532724503278
2713 -581.1704489854368
2714 -581.189741181858
2715 -581.1072769850355
2716 -581.1287132234272
2717 -581.0478441531868
2718 -581.0656966424722
2719 -580.9886398542646
2720 -581.0014846011941
2721 -580.9271505957164
2722 -580.9368872224762
2723 -580.8635006306876
2724 -580.8719189053902
2725 -580.8014065844403
2726 -580.8109011731215
2727 -580.7430900553568
2728 -580.755771416514
2729 -580.6875343996238
2730 -580.7043381080516
2731 -580.6347346487996
2732 -580.651513960598
2733 -580.5801192191816
2734 -580.6016402331326
2735 -580.529937776968
2736 -580.5545290156526
2737 -580.4850821576405
2738 -580.509739398392
2739 -580.4452229986866
2740 -580.474459429267
2741 -580.4055162070372
2742 -580.4356853140259
2743 -580.3656182446613
2744 -580.4003450331029
2745 -580.334180033791
2746 -580.3700291739514
2747 -580.3018762515886
2748 -580.3385620669767
2749 -580.2684718979068
2750 -580.3068174569077
2751 -580.2372221949552
2752 -580.2742107263288
2753 -580.2070035379953
2754 -580.2471806609253
2755 -580.1851450451057
2756 -580.2187100587669
2757 -580.159699982145
2758 -580.1908028206951
2759 -580.1370262224182
2760 -580.1633098791725
2761 -580.1155409025382
2762 -580.1417902898743
2763 -580.0933438469959
2764 -580.1184996029513
2765 -580.0715532347687
2766 -580.1010932159859
2767 -580.0543666540703
2768 -580.0835672035903
2769 -580.0295975315379
2770 -580.0669082622362
2771 -580.0108228351974
2772 -580.0481434262254
2773 -579.9931000453686
2774 -580.0345395438763
2775 -579.9730176448794
2776 -580.0131848069303
2777 -579.9576170917591
2778 -579.9909367702352
2779 -579.9374809302288
2780 -579.9673447974237
2781 -579.9116516150833
2782 -579.9432213744805
2783 -579.8870117509409
2784 -579.9157365477187
2785 -579.8591820316593
2786 -579.8911596249807
2787 -579.8313090845887
2788 -579.8666476939595
2789 -579.8064054251
2790 -579.8384809261429
2791 -579.7799468623811
2792 -579.8191699416925
2793 -579.7549729944704
2794 -579.7952563350425
2795 -579.7297851718049
2796 -579.771492115745
2797 -579.7113254632808
2798 -579.7475085219828
2799 -579.6908020452984
2800 -579.724766677093
2801 -579.671140798466
2802 -579.7083110934715
2803 -579.6568330505999
2804 -579.6899586474841
2805 -579.6337314805797
2806 -579.6704224381587
2807 -579.6096717480468
2808 -579.6502728333618
2809 -579.5886647022268
2810 -579.6282413320226
2811 -579.5676670580592
2812 -579.6100044349479
2813 -579.5424317641626
2814 -579.5859552817678
2815 -579.5180972032574
2816 -579.5600107240358
2817 -579.493162162329
2818 -579.534302082077
2819 -579.46806234554
2820 -579.5040406121929
2821 -579.4399415146762
2822 -579.4746562488563
2823 -579.4174913781204
2824 -579.4424098398505
2825 -579.3861443839062
2826 -579.4103254718393
2827 -579.3540699894571
2828 -579.3787693563147
2829 -579.3191877389535
2830 -579.3484532243236
2831 -579.2849316631209
2832 -579.3144808919878
2833 -579.2494922704832
2834 -579.2801609992006
2835 -579.2109898764908
2836 -579.2375349601498
2837 -579.1669363490512
2838 -579.1909292278463
2839 -579.1223113137302
2840 -579.1456014696323
2841 -579.0745012852511
2842 -579.0974822424075
2843 -579.028004458576
2844 -579.0492215980012
2845 -578.9807140345013
2846 -578.9991261757411
2847 -578.9299427067135
2848 -578.9461764929875
2849 -578.8731833966497
2850 -578.8948022909793
2851 -578.8187599639709
2852 -578.8481776696376
2853 -578.7684103943873
2854 -578.8016484434906
2855 -578.7245261665188
2856 -578.7603926815609
2857 -578.6862052488503
2858 -578.7193300401974
2859 -578.643845074038
2860 -578.6783212071427
2861 -578.6089252005137
2862 -578.6419407981936
2863 -578.5802480314923
2864 -578.611358270671
2865 -578.5505273152393
2866 -578.5795976634819
2867 -578.5221232729299
2868 -578.5529446151081
2869 -578.5003074892429
2870 -578.5301678156274
2871 -578.4801692571276
2872 -578.5135060733329
2873 -578.4653259091888
2874 -578.5025872528092
2875 -578.4548646391968
2876 -578.4948347742163
2877 -578.4432287731728
2878 -578.4865589150871
2879 -578.4288738679276
2880 -578.4727338330666
2881 -578.419235153663
2882 -578.4621566315942
2883 -578.4074113076732
2884 -578.4507400719037
2885 -578.3964185982733
2886 -578.4403066690879
2887 -578.3864947954141
2888 -578.4227547668003
2889 -578.3671704645153
2890 -578.4055129083883
2891 -578.3494768110422
2892 -578.3867296702165
2893 -578.3278924691693
2894 -578.359748476302
2895 -578.2981656361106
2896 -578.326573644753
2897 -578.261622958708
2898 -578.2883321448612
2899 -578.2201580169976
2900 -578.2437458390268
2901 -578.1758130491257
2902 -578.2004319900595
2903 -578.1275730900975
2904 -578.1479953422225
2905 -578.0707368234544
2906 -578.0869972097033
2907 -578.0059627684849
2908 -578.0208436881076
2909 -577.9378503031977
2910 -577.9534182478617
2911 -577.8626509699228
2912 -577.875607465051
2913 -577.7828376473743
2914 -577.7980597310396
2915 -577.7009440841628
2916 -577.7148523470261
2917 -577.6139435438803
2918 -577.6250170597137
2919 -577.5253932810838
2920 -577.5339667811375
2921 -577.4351179690642
2922 -577.4435937532514
2923 -577.3452166590083
2924 -577.3567728122383
2925 -577.2635084986598
2926 -577.2654879878803
2927 -577.1790080133175
2928 -577.1785363401349
2929 -577.0912872992026
2930 -577.0922921085037
2931 -577.009824480258
2932 -577.0136098565985
2933 -576.9358841859263
2934 -576.938399472672
2935 -576.8620099563601
2936 -576.8668600554813
2937 -576.7897307653836
2938 -576.8019417999486
2939 -576.723581765336
2940 -576.7401233852954
2941 -576.6682737575562
2942 -576.6891233848345
2943 -576.6136098125422
2944 -576.6390102519687
2945 -576.562125313638
2946 -576.5847935962428
2947 -576.508251554294
2948 -576.5386289566782
2949 -576.4633320967223
2950 -576.4946993507975
2951 -576.4233772328132
2952 -576.4566766491486
2953 -576.3943381715579
2954 -576.4251845983543
2955 -576.3603942250402
2956 -576.3913119923509
2957 -576.327286263508
2958 -576.3622755273516
2959 -576.3009457928947
2960 -576.3387951372721
2961 -576.2785292450316
2962 -576.3216731001553
2963 -576.2563018857475
2964 -576.2978873240278
2965 -576.2335773655234
2966 -576.2733263479571
2967 -576.2091667189436
2968 -576.2463065628874
2969 -576.1827751756408
2970 -576.2215431261646
2971 -576.1619990821281
2972 -576.198136614498
2973 -576.1407533195064
2974 -576.1677521110506
2975 -576.1124029898853
2976 -576.1403638764648
2977 -576.0862246553166
2978 -576.1145164033951
2979 -576.0544572283644
2980 -576.0817038366091
2981 -576.0193198959319
2982 -576.0489362849955
2983 -575.9836863237811
2984 -576.015517243913
2985 -575.9489518542653
2986 -575.982895928844
2987 -575.909014376895
2988 -575.94660611084
2989 -575.8738088355027
2990 -575.9038217156591
2991 -575.8314718645654
2992 -575.8635440068571
2993 -575.7979235904326
2994 -575.8254345934573
2995 -575.7634181851134
2996 -575.7869672198689
2997 -575.7283129298565
2998 -575.7496638530641
2999 -575.6908705737121
3000 -575.7143877367439
3001 -575.6549661308178
3002 -575.6768472129312
3003 -575.6122992781646
3004 -575.6372079180794
3005 -575.5764786984789
3006 -575.6027356105226
3007 -575.5364880153367
3008 -575.562553438251
3009 -575.4960194281742
3010 -575.5209375541868
3011 -575.4538508623456
3012 -575.4792277164441
3013 -575.4130393777508
3014 -575.4401759549289
3015 -575.3764342337612
3016 -575.4029607731444
3017 -575.3492575471098
3018 -575.3740840500471
3019 -575.3146301931367
3020 -575.3405054478563
3021 -575.2734044796706
3022 -575.3025570789036
3023 -575.2275012622382
3024 -575.2618578537031
3025 -575.1876490058911
3026 -575.2267040080536
3027 -575.1524946797069
3028 -575.1835285117625
3029 -575.1097066158875
3030 -575.1392572858189
3031 -575.0696826930672
3032 -575.0959282562571
3033 -575.032865988676
3034 -575.0561786255453
3035 -574.9951594729652
3036 -575.0168779416091
3037 -574.9631465171368
3038 -574.9776211379261
3039 -574.929429473633
3040 -574.9445063565111
3041 -574.8904966656602
3042 -574.9093275785915
3043 -574.8530862122939
3044 -574.8717500822822
3045 -574.8158944543844
3046 -574.8431912858317
3047 -574.7795251970402
3048 -574.8132386217054
3049 -574.7532530428909
3050 -574.7826866986103
3051 -574.7228288601075
3052 -574.7491741139415
3053 -574.6915726920549
3054 -574.7180518838838
3055 -574.6607587652383
3056 -574.6852352787231
3057 -574.627669262632
3058 -574.6546418174611
3059 -574.595800567628
3060 -574.6237797366042
3061 -574.5696083347765
3062 -574.5976616987217
3063 -574.5389510675433
3064 -574.5738972912811
3065 -574.5107398839242
3066 -574.5509337152531
3067 -574.4869353818831
3068 -574.5259460786127
3069 -574.4598225103695
3070 -574.5001241868885
3071 -574.4374951288864
3072 -574.4803571712101
3073 -574.4196884454608
3074 -574.4623967393933
3075 -574.40727865722
3076 -574.4471569395704
3077 -574.3959802761223
3078 -574.4320380125004
3079 -574.3813564385862
3080 -574.4179458309334
3081 -574.3672177702975
3082 -574.4000900723262
3083 -574.3519884150149
3084 -574.3905711070338
3085 -574.3401811625265
3086 -574.3836384525466
3087 -574.3333035287072
3088 -574.3742652062236
3089 -574.317551336705
3090 -574.3594613870742
3091 -574.3001238650453
3092 -574.3427152174656
3093 -574.2867209215226
3094 -574.3302164418901
3095 -574.2782395031492
3096 -574.3204678511553
3097 -574.2693495606251
3098 -574.3111154834102
3099 -574.2567355758625
3100 -574.2928458071189
3101 -574.2456069912935
3102 -574.2845894771414
3103 -574.2385973069605
3104 -574.2778844352052
3105 -574.230100602158
3106 -574.2690022837223
3107 -574.2172951135279
3108 -574.2569217383657
3109 -574.2069595182766
3110 -574.2462550048734
3111 -574.1938479423327
3112 -574.2353983181217
3113 -574.1853739968105
3114 -574.2268325905375
3115 -574.175349877496
3116 -574.2196982047216
3117 -574.1677602343613
3118 -574.2086180562779
3119 -574.1566630755973
3120 -574.1968366218025
3121 -574.1493804594162
3122 -574.1941628230352
3123 -574.1436217909319
3124 -574.1835097679502
3125 -574.1342387533379
3126 -574.1750271644515
3127 -574.1284086250623
3128 -574.1654612319885
3129 -574.1175731856596
3130 -574.1594968558755
3131 -574.1090406454308
3132 -574.1532627838376
3133 -574.1027466258622
3134 -574.1463857984319
3135 -574.094540479195
3136 -574.1396868080025
3137 -574.0895827474022
3138 -574.1326173752834
3139 -574.0816494308554
3140 -574.1231062157024
3141 -574.0655503902804
3142 -574.111299193363
3143 -574.0535513058499
3144 -574.0991480575718
3145 -574.0453210386667
3146 -574.0881564328902
3147 -574.0349547511299
3148 -574.0759260894202
3149 -574.0215375293819
3150 -574.0602958978972
3151 -574.0044813009272
3152 -574.0445207271723
3153 -573.9834819847637
3154 -574.0265888331355
3155 -573.9656602264984
3156 -574.0062339706083
3157 -573.9516471161459
3158 -573.9891326630475
3159 -573.9354400054912
3160 -573.9716228816967
3161 -573.9181135081354
3162 -573.9535539959595
3163 -573.9043373973986
3164 -573.9316292249567
3165 -573.8830286702788
3166 -573.9103461061829
3167 -573.8597678214048
3168 -573.8871630530356
3169 -573.8403393718349
3170 -573.8669007428828
3171 -573.8156335229797
3172 -573.8427625735839
3173 -573.7872066868626
3174 -573.8205581455186
3175 -573.7590290721218
3176 -573.8002547123356
3177 -573.7354472999879
3178 -573.7787001302743
3179 -573.7139716582387
3180 -573.7590360802566
3181 -573.6952895849897
3182 -573.7414106614513
3183 -573.6766024459481
3184 -573.7174008071482
3185 -573.6561250455003
3186 -573.6945757314689
3187 -573.6347372486193
3188 -573.6737766835345
3189 -573.6148847432178
3190 -573.6518832921959
3191 -573.5913039130049
3192 -573.6311115897566
3193 -573.5728178093549
3194 -573.6181675064424
3195 -573.5604409893317
3196 -573.6061732688012
3197 -573.5540233161421
3198 -573.5966231548543
3199 -573.5448535468274
3200 -573.5824824242828
3201 -573.5289472052747
3202 -573.5669634624469
3203 -573.5196019427444
3204 -573.5596975294272
3205 -573.5168001955816
3206 -573.5511256558807
3207 -573.5086540729426
3208 -573.5415375786504
3209 -573.5053103207288
3210 -573.5399806698334
3211 -573.5038928230927
3212 -573.5452844345502
3213 -573.5033493598145
3214 -573.5493428271586
3215 -573.4990965334747
3216 -573.5505481107307
3217 -573.4962453637614
3218 -573.5507148558705
3219 -573.491811873272
3220 -573.543147640661
3221 -573.4869524830119
3222 -573.5363876396339
3223 -573.4830410788833
3224 -573.5299863442565
3225 -573.4777144193716
3226 -573.5277375761486
3227 -573.4796280643775
3228 -573.5223444032796
3229 -573.4788956331303
3230 -573.5205002471941
3231 -573.4747662513244
3232 -573.5152664743058
3233 -573.4720826460386
3234 -573.5100173088978
3235 -573.46915130266
3236 -573.5097139686635
3237 -573.4628208946896
3238 -573.5066741692452
3239 -573.4553450894559
3240 -573.4999333548275
3241 -573.4528114985691
3242 -573.4965959523245
3243 -573.4488704375151
3244 -573.4871024917959
3245 -573.4384974128025
3246 -573.4824601138439
3247 -573.4318555747576
3248 -573.4758307852729
3249 -573.418855504871
3250 -573.4618694306441
3251 -573.3988951315464
3252 -573.4449008086381
3253 -573.3827240439979
3254 -573.429503854861
3255 -573.3642554217722
3256 -573.4127179343635
3257 -573.3420391009344
3258 -573.3949622149978
3259 -573.3284742276372
3260 -573.3751527638374
3261 -573.3093527696045
3262 -573.3494321161346
3263 -573.2888300979066
3264 -573.3287544087714
3265 -573.2759967020939
3266 -573.3060043821783
3267 -573.2550111363694
3268 -573.2831449148503
3269 -573.2364676237211
3270 -573.2625874470733
3271 -573.2170707924795
3272 -573.2424708745199
3273 -573.195877593202
3274 -573.2230623109788
3275 -573.1731441649794
3276 -573.2032695164077
3277 -573.1508620243164
3278 -573.1842899938612
3279 -573.1280152821961
3280 -573.1634037742243
3281 -573.1094226592394
3282 -573.1477723321875
3283 -573.0885896644502
3284 -573.1286867995312
3285 -573.0680971584421
3286 -573.1094956171468
3287 -573.0496736705812
3288 -573.0928802103655
3289 -573.0401986925265
3290 -573.0794291858289
3291 -573.0240312685133
3292 -573.0651974273919
3293 -573.007400620665
3294 -573.0526503427373
3295 -572.9962358550226
3296 -573.0414967348886
3297 -572.9854961443024
3298 -573.0330503690069
3299 -572.9800846573825
3300 -573.0229653596763
3301 -572.9688459524302
3302 -573.0079347523828
3303 -572.9470945388533
3304 -572.9887648230375
3305 -572.9342516201322
3306 -572.9763220193512
3307 -572.9280975707892
3308 -572.9660034911695
3309 -572.9184453541503
3310 -572.9536094736688
3311 -572.9020065461649
3312 -572.9339545780258
3313 -572.882585455994
3314 -572.9142484873429
3315 -572.8610412075528
3316 -572.8980528541289
3317 -572.8450596403777
3318 -572.8844578030463
3319 -572.8345146858281
3320 -572.8745103819234
3321 -572.8201437019738
3322 -572.8632213244872
3323 -572.8031104947291
3324 -572.8477194253127
3325 -572.7909663124414
3326 -572.8317636001387
3327 -572.7738101668816
3328 -572.8150339167275
3329 -572.7604166090404
3330 -572.7977803838063
3331 -572.7477787524797
3332 -572.7794860973236
3333 -572.7259403767018
3334 -572.757990261648
3335 -572.7035674126612
3336 -572.7315219573964
3337 -572.6829772462205
3338 -572.7138091389243
3339 -572.6628951907687
3340 -572.6936039296204
3341 -572.6432905046285
3342 -572.6746515779496
3343 -572.6184315788688
3344 -572.6495247414703
3345 -572.5888821840076
3346 -572.6249864595925
3347 -572.563340799162
3348 -572.6027316932247
3349 -572.541700566931
3350 -572.5828569110023
3351 -572.5186505822379
3352 -572.5568959746719
3353 -572.4993175795604
3354 -572.5367005368325
3355 -572.4783024990056
3356 -572.5152209057915
3357 -572.4582509282224
3358 -572.4958681299239
3359 -572.4380721061483
3360 -572.4748573648553
3361 -572.4174626640533
3362 -572.4561135571724
3363 -572.3928446244777
3364 -572.4294608492244
3365 -572.3715919977233
3366 -572.4034194623305
3367 -572.3489877915515
3368 -572.3851910645478
3369 -572.3302997437995
3370 -572.3644156322537
3371 -572.3157727980256
3372 -572.3488941869141
3373 -572.3038630226205
3374 -572.3363114735656
3375 -572.2926777267975
3376 -572.3210866032591
3377 -572.2771981120542
3378 -572.3074059667586
3379 -572.2597927294061
3380 -572.2941533952358
3381 -572.2421412067519
3382 -572.2767110516349
3383 -572.2303504123912
3384 -572.265590593908
3385 -572.2173752113358
3386 -572.2585748558499
3387 -572.2064820395266
3388 -572.2461121582073
3389 -572.1914204709791
3390 -572.2310928472876
3391 -572.178633965105
3392 -572.2201394454413
3393 -572.170586086963
3394 -572.2109947748161
3395 -572.159668729847
3396 -572.1999130591062
3397 -572.1463379123405
3398 -572.1891353080518
3399 -572.1372640005995
3400 -572.1746779041952
3401 -572.1207970060566
3402 -572.1592848145652
3403 -572.1064874028492
3404 -572.1465938446419
3405 -572.0936360538045
3406 -572.1335619744739
3407 -572.0809774938948
3408 -572.1231629419369
3409 -572.0699774740104
3410 -572.1112193131235
3411 -572.0553019398629
3412 -572.0927471234614
3413 -572.0369535525043
3414 -572.0777308293954
3415 -572.0197311880921
3416 -572.0599172917292
3417 -572.0062186271397
3418 -572.0415129226899
3419 -571.9856549002185
3420 -572.0217889382143
3421 -571.9686938219505
3422 -572.00672270127
3423 -571.9517585494453
3424 -571.9900500975886
3425 -571.9318971605866
3426 -571.9717777577694
3427 -571.9120643750081
3428 -571.9513741048866
3429 -571.8957534803505
3430 -571.9335000899962
3431 -571.876662769193
3432 -571.9169210422688
3433 -571.8617776307502
3434 -571.8985355440726
3435 -571.8465434546266
3436 -571.875645793708
3437 -571.8263032602271
3438 -571.8524106819267
3439 -571.8089375774854
3440 -571.8353525486277
3441 -571.7938230021858
3442 -571.8174771379028
3443 -571.7738868310325
3444 -571.8002612538551
3445 -571.7537810437008
3446 -571.7877472490472
3447 -571.7381816617506
3448 -571.7697138681538
3449 -571.7153783355338
3450 -571.7573889588672
3451 -571.6999369136526
3452 -571.7389832414769
3453 -571.6793107535934
3454 -571.725837687321
3455 -571.6655520631147
3456 -571.7128987547776
3457 -571.6577256147272
3458 -571.6998455762157
3459 -571.6455036116805
3460 -571.6853365233117
3461 -571.6366376543073
3462 -571.6765881378902
3463 -571.6280137135901
3464 -571.6690328160136
3465 -571.6192688237264
3466 -571.6630557182657
3467 -571.6108104871676
3468 -571.6555023411453
3469 -571.607028190669
3470 -571.6541790178138
3471 -571.6016850541073
3472 -571.6458947828726
3473 -571.5968036940931
3474 -571.641001442485
3475 -571.5936781482834
3476 -571.6376093169137
3477 -571.5897487043572
3478 -571.6330501345099
3479 -571.5855202054817
3480 -571.6311414300066
3481 -571.5887577855725
3482 -571.6322225031939
3483 -571.5899775108062
3484 -571.6322496339004
3485 -571.5913465556894
3486 -571.6313443264831
3487 -571.5874495112743
3488 -571.628587065559
3489 -571.5823608571937
3490 -571.6293855013539
3491 -571.5785937026524
3492 -571.6281600115894
3493 -571.5827778942013
3494 -571.6229521811431
3495 -571.5774984382555
3496 -571.6119331693767
3497 -571.5671580007638
3498 -571.6023771148064
3499 -571.556855039581
3500 -571.59117358607
3501 -571.5461453217908
3502 -571.5773786548428
3503 -571.5353699379606
3504 -571.566776909305
3505 -571.5183862934721
3506 -571.550243437192
3507 -571.5014960852834
3508 -571.5311871749464
3509 -571.47510093292
3510 -571.511354411996
3511 -571.4538858075041
3512 -571.4898496194351
3513 -571.4295992710528
3514 -571.4655253227518
3515 -571.4053750431676
3516 -571.441630879056
3517 -571.3809532915695
3518 -571.4130508133535
3519 -571.3553771958658
3520 -571.3816448050441
3521 -571.3219751204604
3522 -571.3530555699551
3523 -571.2891093326513
3524 -571.3174703478513
3525 -571.2520720692238
3526 -571.2794621064331
3527 -571.2138456798558
3528 -571.2447755865264
3529 -571.1767233583835
3530 -571.2088968105434
3531 -571.1358605254211
3532 -571.1702479534758
3533 -571.1002845402247
3534 -571.1332118980133
3535 -571.0639339841846
3536 -571.0962802235277
3537 -571.0335473505862
3538 -571.0627332839874
3539 -571.0031421049933
3540 -571.0326123201708
3541 -570.9763153520622
3542 -571.0045775600229
3543 -570.9527703600708
3544 -570.9753118813439
3545 -570.9303544130802
3546 -570.9546771006811
3547 -570.9098125390756
3548 -570.9383731612425
3549 -570.8919088314257
3550 -570.9236399710765
3551 -570.8742570064879
3552 -570.9124477762778
3553 -570.866456368841
3554 -570.9047519720405
3555 -570.8590122031707
3556 -570.9013687345317
3557 -570.8573327698726
3558 -570.9035980118956
3559 -570.8606589403191
3560 -570.9074541191761
3561 -570.8589177845872
3562 -570.9094084692025
3563 -570.8581461352707
3564 -570.9136386144316
3565 -570.8662602898899
3566 -570.9239256861881
3567 -570.8773601147044
3568 -570.9370801636987
3569 -570.8911176215474
3570 -570.9493215147453
3571 -570.9085678431454
3572 -570.9609076015375
3573 -570.9171067482883
3574 -570.9718648561359
3575 -570.9249880953015
3576 -570.9823262451806
3577 -570.939759108312
3578 -570.9922216181595
3579 -570.9480707866279
3580 -570.9957081740375
3581 -570.9531786302701
3582 -571.000957044128
3583 -570.9573289207665
3584 -571.0028622661314
3585 -570.9559924467093
3586 -570.9992888174997
3587 -570.9465951539611
3588 -570.9869327484088
3589 -570.9396537750428
3590 -570.973612414654
3591 -570.9255044371181
3592 -570.9596746815065
3593 -570.912197108277
3594 -570.9449998054915
3595 -570.8954806462793
3596 -570.9255341690771
3597 -570.8705304307407
3598 -570.9016812862418
3599 -570.8425331862479
3600 -570.875224769383
3601 -570.8169201775767
3602 -570.8503318604982
3603 -570.7876035515558
3604 -570.8199466856062
3605 -570.7558734651222
3606 -570.7879333224521
3607 -570.7236815405499
3608 -570.7490190815118
3609 -570.6841704771455
3610 -570.7087234220254
3611 -570.6472826333143
3612 -570.6705666502779
3613 -570.61129641266
3614 -570.6335861134025
3615 -570.5726176999538
3616 -570.599127639334
3617 -570.535720329421
3618 -570.5695423574522
3619 -570.5008743482103
3620 -570.5362361665084
3621 -570.4684814921359
3622 -570.5026530254995
3623 -570.4404645481796
3624 -570.4746870467446
3625 -570.4149411996528
3626 -570.4505281476139
3627 -570.3888805611602
3628 -570.4249677063262
3629 -570.3669221046033
3630 -570.4033085044497
3631 -570.3494310880127
3632 -570.3865132342069
3633 -570.3377957443773
3634 -570.3758283291927
3635 -570.3248424388103
3636 -570.370617926763
3637 -570.3169706850894
3638 -570.3637531516289
3639 -570.3114428881981
3640 -570.3592050210359
3641 -570.3072156848116
3642 -570.3610967849124
3643 -570.3064336169036
3644 -570.3609945711654
3645 -570.3114294173326
3646 -570.3640762236006
3647 -570.3188818438022
3648 -570.3685980128523
3649 -570.3280049085878
3650 -570.3788459794766
3651 -570.3397190256965
3652 -570.3952777447364
3653 -570.3535860985955
3654 -570.4055591963745
3655 -570.3666750241207
3656 -570.4185229760442
3657 -570.3787790598185
3658 -570.4345010396128
3659 -570.393361429268
3660 -570.4483650886049
3661 -570.4027825820857
3662 -570.4612369873493
3663 -570.4197126600644
3664 -570.4700922557391
3665 -570.4322146858442
3666 -570.4764011667341
3667 -570.4415658628997
3668 -570.4843801080694
3669 -570.451244016
3670 -570.4905663483487
3671 -570.454322417668
3672 -570.4923646478841
3673 -570.4575707294993
3674 -570.4941861637941
3675 -570.4562274796979
3676 -570.495421319569
3677 -570.4515811703519
3678 -570.496539607887
3679 -570.4499844244627
3680 -570.4999146924121
3681 -570.4498678015799
3682 -570.5026579557226
3683 -570.446489280037
3684 -570.4967626531885
3685 -570.4380805226359
3686 -570.490199971397
3687 -570.4310414051967
3688 -570.4808623476371
3689 -570.424509132258
3690 -570.4664428023293
3691 -570.4102285793141
3692 -570.4525396146881
3693 -570.3994663946268
3694 -570.4360067764366
3695 -570.3807618478372
3696 -570.4187352416527
3697 -570.3636038407052
3698 -570.4019253712339
3699 -570.348727538837
3700 -570.3841085570039
3701 -570.3290692611538
3702 -570.3673828682861
3703 -570.3107580355168
3704 -570.348485161758
3705 -570.2945176394821
3706 -570.3315078145789
3707 -570.2815493818905
3708 -570.3145271505838
3709 -570.2666103094319
3710 -570.3012557957055
3711 -570.2530478449006
3712 -570.2909356670583
3713 -570.2467453725202
3714 -570.2832636700466
3715 -570.2358755442505
3716 -570.2738728577333
3717 -570.227338210456
3718 -570.2706184382141
3719 -570.2218254276795
3720 -570.2693460047306
3721 -570.2145218677381
3722 -570.268665139724
3723 -570.2151088096419
3724 -570.2673385455614
3725 -570.2173169920477
3726 -570.2677499279874
3727 -570.2176097715035
3728 -570.2689989166249
3729 -570.2213624631711
3730 -570.2752906388985
3731 -570.2338455592608
3732 -570.287159215752
3733 -570.2483114073574
3734 -570.2986895784138
3735 -570.2595209430432
3736 -570.3090476658565
3737 -570.2702959348464
3738 -570.3197725686942
3739 -570.2790707686788
3740 -570.3309246907768
3741 -570.2893642136264
3742 -570.3441982141907
3743 -570.308366665654
3744 -570.3548078756223
3745 -570.3160872694948
3746 -570.3637623700996
3747 -570.3230102291101
3748 -570.3732815220748
3749 -570.3362178503438
3750 -570.3801183015281
3751 -570.3413760312843
3752 -570.3878918794219
3753 -570.3459464078767
3754 -570.3960311012439
3755 -570.3523771213941
3756 -570.4025434949556
3757 -570.3558528770519
3758 -570.4098779043588
3759 -570.3574720362934
3760 -570.4101453086732
3761 -570.3596461127187
3762 -570.4142543407719
3763 -570.3642395213842
3764 -570.4143027091249
3765 -570.3640555846395
3766 -570.4151276187982
3767 -570.3599839288453
3768 -570.4065169064908
3769 -570.3552696352864
3770 -570.3943768538005
3771 -570.3435256856309
3772 -570.3776167778075
3773 -570.3285867119523
3774 -570.3634931034461
3775 -570.3202664056538
3776 -570.3489405036261
3777 -570.304631114672
3778 -570.3328825081672
3779 -570.2872854935323
3780 -570.3147576247308
3781 -570.2694303708306
3782 -570.295299726159
3783 -570.2469923014678
3784 -570.2738075500309
3785 -570.2218518138197
3786 -570.2537361629563
3787 -570.1943391642525
3788 -570.2289071617419
3789 -570.1673948664718
3790 -570.2081351234582
3791 -570.1449425212271
3792 -570.1932123283681
3793 -570.1295066674695
3794 -570.1775840652236
3795 -570.1144600060713
3796 -570.1594251920638
3797 -570.0980164822196
3798 -570.1432299086795
3799 -570.082884854745
3800 -570.1265811508998
3801 -570.0678455286524
3802 -570.1125938065912
3803 -570.0541943357722
3804 -570.0981952066235
3805 -570.042782196354
3806 -570.0872736405925
3807 -570.0388065387548
3808 -570.0817114881387
3809 -570.0304021540662
3810 -570.075121037002
3811 -570.0262019656468
3812 -570.0707331120176
3813 -570.02334553352
3814 -570.0667388276743
3815 -570.0229431066184
3816 -570.0645400830085
3817 -570.0204134948979
3818 -570.0671557976862
3819 -570.0268201060092
3820 -570.0734440383135
3821 -570.0354860277328
3822 -570.0816208235709
3823 -570.042259654724
3824 -570.0931904882282
3825 -570.0499996700596
3826 -570.1040857808239
3827 -570.0616591116648
3828 -570.1184243831301
3829 -570.0755369790744
3830 -570.1327043160076
3831 -570.0895165552258
3832 -570.146716826727
3833 -570.106267538515
3834 -570.1581365708153
3835 -570.1157999857618
3836 -570.1693210307411
3837 -570.1295965233825
3838 -570.1843084336766
3839 -570.1526168146113
3840 -570.1993182880035
3841 -570.1690950083275
3842 -570.2154584725588
3843 -570.1812935710053
3844 -570.2311233127675
3845 -570.1976682552036
3846 -570.2454298481877
3847 -570.2098261509252
3848 -570.2583507194171
3849 -570.2183868785531
3850 -570.2751977510464
3851 -570.2327180855538
3852 -570.2871659241167
3853 -570.2412802143319
3854 -570.3001719349605
3855 -570.2514340312069
3856 -570.3103009649136
3857 -570.2617843357018
3858 -570.3169583545136
3859 -570.2638575995412
3860 -570.3185252598387
3861 -570.268955784503
3862 -570.3184839163167
3863 -570.2705780104855
3864 -570.3177599907004
3865 -570.2705366712436
3866 -570.3185581984812
3867 -570.2705155849288
3868 -570.3176249088001
3869 -570.2684239265171
3870 -570.3154990464213
3871 -570.2610972247818
3872 -570.3080464610798
3873 -570.258232625436
3874 -570.3033989441843
3875 -570.2530806083442
3876 -570.2956510936418
3877 -570.2485257896636
3878 -570.2904314583814
3879 -570.2435766758549
3880 -570.2808728130201
3881 -570.2328466773955
3882 -570.273478367337
3883 -570.2277742701897
3884 -570.268248648748
3885 -570.2261066720681
3886 -570.2614155615605
3887 -570.2125732200176
3888 -570.2552561210451
3889 -570.2029702070221
3890 -570.2477459745795
3891 -570.1924648704211
3892 -570.2348973899067
3893 -570.1844164573157
3894 -570.2333930106922
3895 -570.1808132479855
3896 -570.233363564145
3897 -570.1817637985683
3898 -570.2325179302516
3899 -570.1804423744856
3900 -570.2299138394537
3901 -570.1805161256326
3902 -570.2289632271705
3903 -570.187656777507
3904 -570.2291796912028
3905 -570.1901156808232
3906 -570.23475642688
3907 -570.1898737997882
3908 -570.2419433330811
3909 -570.198712889787
3910 -570.2483181139464
3911 -570.2056360587653
3912 -570.2573507544726
3913 -570.2121266923222
3914 -570.2700297649161
3915 -570.2249823961787
3916 -570.2790744521885
3917 -570.2341222228918
3918 -570.2871367449943
3919 -570.24423420221
3920 -570.298497060955
3921 -570.2578013052932
3922 -570.3106526042978
3923 -570.2675211940277
3924 -570.3144974522912
3925 -570.2736423904946
3926 -570.3225270373315
3927 -570.2831937552503
3928 -570.3284510824366
3929 -570.2862404736574
3930 -570.3336049156753
3931 -570.2915883357035
3932 -570.3410744906828
3933 -570.2940537093137
3934 -570.346805937129
3935 -570.3003522612878
3936 -570.3482990612066
3937 -570.3020751717186
3938 -570.3506162306891
3939 -570.3070021369972
3940 -570.3523717073491
3941 -570.3080213572273
3942 -570.346025055813
3943 -570.3037791367544
3944 -570.3397910177298
3945 -570.3013185059135
3946 -570.3357346961528
3947 -570.2964088814439
3948 -570.3299159193662
3949 -570.2863391139298
3950 -570.3211404442009
3951 -570.280701718162
3952 -570.3180265521565
3953 -570.2739633610041
3954 -570.3165257371712
3955 -570.2635735054621
3956 -570.3121494266694
3957 -570.2546364922349
3958 -570.3024811261224
3959 -570.2483454059925
3960 -570.2930330523336
3961 -570.2353591037789
3962 -570.2846752197441
3963 -570.2269415811678
3964 -570.2771672888258
3965 -570.2247481646041
3966 -570.2744027952305
3967 -570.2187749593005
3968 -570.2675917492645
3969 -570.2201651051241
3970 -570.2632092872421
3971 -570.2163519991094
3972 -570.2579346556133
3973 -570.210787669299
3974 -570.2542104838624
3975 -570.2077010032975
3976 -570.2487928593392
3977 -570.2076009581538
3978 -570.2510038333072
3979 -570.2076446936095
3980 -570.2549723380046
3981 -570.2159489122516
3982 -570.2575127246929
3983 -570.2182473019933
3984 -570.2645020123933
3985 -570.2221710846939
3986 -570.2743867811242
3987 -570.2334049670095
3988 -570.2811024915638
3989 -570.2395482936008
3990 -570.2918487401533
3991 -570.2520883594352
3992 -570.3083598327595
3993 -570.2644961742088
3994 -570.3191923250233
3995 -570.2743608799724
3996 -570.3288807055475
3997 -570.2860931759786
3998 -570.3384834430021
3999 -570.2979155126028
4000 -570.351115900235
4001 -570.3163141790683
4002 -570.3614273970671
4003 -570.3332644344471
4004 -570.3743756287221
4005 -570.3465094932726
4006 -570.3896781746166
4007 -570.3647563268458
4008 -570.406984594495
4009 -570.383596905629
4010 -570.4260606807775
4011 -570.3979900967131
4012 -570.4438861911921
4013 -570.4148275859362
4014 -570.4604511531968
4015 -570.4306263593683
4016 -570.4814552797453
4017 -570.450294168184
4018 -570.5046392728835
4019 -570.4675732884965
4020 -570.5250366746967
4021 -570.4863867410342
4022 -570.5461262447313
4023 -570.5054861955301
4024 -570.5618069497845
4025 -570.5211888250575
4026 -570.5737507437914
4027 -570.5357268055615
4028 -570.5817125141083
4029 -570.541237121906
4030 -570.5881886256041
4031 -570.5442220770143
4032 -570.5916524599705
4033 -570.5514334500232
4034 -570.5958496150241
4035 -570.5561278682195
4036 -570.5983058136729
4037 -570.5581662163548
4038 -570.6049424317351
4039 -570.5640197340604
4040 -570.6054085818103
4041 -570.5594122696953
4042 -570.6031041807967
4043 -570.5512861983051
4044 -570.5992800983481
4045 -570.5496545142055
4046 -570.5932883176185
4047 -570.5464643436235
4048 -570.5872709803645
4049 -570.5374497106966
4050 -570.5782550958552
4051 -570.5330655401795
4052 -570.5721009047561
4053 -570.5313585510373
4054 -570.5679548331714
4055 -570.5222685804453
4056 -570.5598623527313
4057 -570.5122666108778
4058 -570.5492867072456
4059 -570.4982527148575
4060 -570.5338606931356
4061 -570.476375178848
4062 -570.5197207229227
4063 -570.4631552208286
4064 -570.5095681143274
4065 -570.4521069093645
4066 -570.4991272858679
4067 -570.4392129399578
4068 -570.4871078751409
4069 -570.4288513019891
4070 -570.4780697570272
4071 -570.4228064358849
4072 -570.4660740558286
4073 -570.408606549625
4074 -570.4464108732684
4075 -570.3923533262819
4076 -570.4342933896822
4077 -570.3853591575606
4078 -570.421320533059
4079 -570.3739912000336
4080 -570.4121648520429
4081 -570.3619637129407
4082 -570.405535923294
4083 -570.3514616190465
4084 -570.3917265794438
4085 -570.3381924154072
4086 -570.3802778936049
4087 -570.3263920642582
4088 -570.3698071531662
4089 -570.318658723653
4090 -570.3624120080832
4091 -570.3064134692713
4092 -570.3538577582866
4093 -570.2974631650624
4094 -570.3443080013881
4095 -570.2908162925895
4096 -570.3357488316198
4097 -570.2862305555749
4098 -570.3287255889727
4099 -570.2798422251568
4100 -570.3227263835986
4101 -570.2708506006932
4102 -570.3196551002628
4103 -570.2705812973441
4104 -570.3215938852557
4105 -570.2777495968243
4106 -570.324707597719
4107 -570.2776893026343
4108 -570.3261999786921
4109 -570.2843736344062
4110 -570.3310045862683
4111 -570.2924621168539
4112 -570.3332889974654
4113 -570.2927825743891
4114 -570.3334358828022
4115 -570.2961672947968
4116 -570.3348068506139
4117 -570.2999573654024
4118 -570.334498609307
4119 -570.2987471967954
4120 -570.3400069234336
4121 -570.3052685295025
4122 -570.3507894532543
4123 -570.3103000490454
4124 -570.3563539053873
4125 -570.30965463526
4126 -570.3636911326979
4127 -570.3115848210097
4128 -570.364106818659
4129 -570.3100613183392
4130 -570.3634348986373
4131 -570.3095802335464
4132 -570.3604843230067
4133 -570.3102890810936
4134 -570.3590064785502
4135 -570.3058359411874
4136 -570.3458255944209
4137 -570.2958480825855
4138 -570.3375342934586
4139 -570.2876907558619
4140 -570.3259795950859
4141 -570.2727390479132
4142 -570.3125743475977
4143 -570.2571840931605
4144 -570.2961326747592
4145 -570.2337736549279
4146 -570.2785557634779
4147 -570.2083089060046
4148 -570.2465168491464
4149 -570.1826243603027
4150 -570.2193991179003
4151 -570.1569141737326
4152 -570.1912423190757
4153 -570.1300318791583
4154 -570.158017651137
4155 -570.1004306354001
4156 -570.1239487042743
4157 -570.0649823948701
4158 -570.0892227920205
4159 -570.0302151022142
4160 -570.0498843741085
4161 -569.9918681900308
4162 -570.0121121181504
4163 -569.9523791665117
4164 -569.9764954301606
4165 -569.9185002062004
4166 -569.9429842534178
4167 -569.8835609071292
4168 -569.9139062234084
4169 -569.8533068461456
4170 -569.881861864925
4171 -569.8213415660932
4172 -569.849734149367
4173 -569.7876857686709
4174 -569.8144119803177
4175 -569.7566118146816
4176 -569.7803278035781
4177 -569.727339155419
4178 -569.7547814601608
4179 -569.6993651095485
4180 -569.7290024665092
4181 -569.6745494347646
4182 -569.7054867526718
4183 -569.6497682720134
4184 -569.6854808372784
4185 -569.6284570219497
4186 -569.6725243997137
4187 -569.6166364769696
4188 -569.6617968187529
4189 -569.6081630724343
4190 -569.6540146534762
4191 -569.593600380662
4192 -569.642365625313
4193 -569.5854595326142
4194 -569.6346503437936
4195 -569.5834029294181
4196 -569.6322693494568
4197 -569.5831222198822
4198 -569.6316124891687
4199 -569.5829354796163
4200 -569.6321180849759
4201 -569.5883669397924
4202 -569.6387619860316
4203 -569.5946112821479
4204 -569.6448061305862
4205 -569.6049452306044
4206 -569.655551612707
4207 -569.6189735324424
4208 -569.6688198375234
4209 -569.6307851763233
4210 -569.6798537150568
4211 -569.6369457340221
4212 -569.6892798760708
4213 -569.6470775654357
4214 -569.6968209388073
4215 -569.6540459390649
4216 -569.7025069118994
4217 -569.6586603907118
4218 -569.7096895247562
4219 -569.6637457602767
4220 -569.7120143331382
4221 -569.6646118908138
4222 -569.7126325449175
4223 -569.6621610318152
4224 -569.7110109687554
4225 -569.6611959126342
4226 -569.7043069971254
4227 -569.6543299239939
4228 -569.6965101317132
4229 -569.6453924724262
4230 -569.6865624794779
4231 -569.6356968878858
4232 -569.6747037940997
4233 -569.6231593788762
4234 -569.6578074836787
4235 -569.6038350757988
4236 -569.6360735529387
4237 -569.5790944520719
4238 -569.6117242814229
4239 -569.5604498274879
4240 -569.5863023766443
4241 -569.5349086370222
4242 -569.5594710813416
4243 -569.5032440168241
4244 -569.5315095875368
4245 -569.4736053254187
4246 -569.5007523941304
4247 -569.436991718861
4248 -569.4652053405804
4249 -569.3992635612831
4250 -569.4276698541563
4251 -569.3638817419054
4252 -569.3923831493217
4253 -569.3247841988782
4254 -569.3655163841828
4255 -569.2936419599553
4256 -569.3330774399782
4257 -569.260807363073
4258 -569.2956283038957
4259 -569.2210308430666
4260 -569.252884459392
4261 -569.1823137522647
4262 -569.2170502117561
4263 -569.153282780389
4264 -569.1886380215125
4265 -569.1285805989794
4266 -569.1592101429953
4267 -569.0973016633474
4268 -569.1297882289708
4269 -569.0724524627734
4270 -569.1004643501952
4271 -569.0390002941879
4272 -569.0715272677047
4273 -569.0135049650225
4274 -569.0515744328598
4275 -568.9916101731121
4276 -569.0223210905061
4277 -568.9643497539807
4278 -568.9994825774763
4279 -568.9405576153561
4280 -568.9773237417501
4281 -568.9220463437939
4282 -568.9577931254929
4283 -568.9074567228637
4284 -568.941970176965
4285 -568.8950311776877
4286 -568.9217555756496
4287 -568.8747979418541
4288 -568.9037673571232
4289 -568.8598889474372
4290 -568.8927214965865
4291 -568.8510003048896
4292 -568.8886596500304
4293 -568.839720160291
4294 -568.8871283063684
4295 -568.8302712477112
4296 -568.8767289072671
4297 -568.815035192796
4298 -568.8701175541373
4299 -568.8065202329802
4300 -568.859505230131
4301 -568.7974064006833
4302 -568.8446552206121
4303 -568.783056848572
4304 -568.8257167552911
4305 -568.7705241335402
4306 -568.8101688928034
4307 -568.7542970483112
4308 -568.7886779973918
4309 -568.7398099041358
4310 -568.7711106553315
4311 -568.7217817083366
4312 -568.7527273879259
4313 -568.699172309523
4314 -568.7302574729133
4315 -568.6730868186758
4316 -568.706263506142
4317 -568.6474036125012
4318 -568.682033804888
4319 -568.6217449178712
4320 -568.654859906752
4321 -568.5965871447854
4322 -568.6309851561064
4323 -568.5723628571934
4324 -568.6070012107799
4325 -568.5482009975533
4326 -568.5847744966685
4327 -568.5259619654196
4328 -568.5566464024351
4329 -568.4974030673644
4330 -568.5292137886944
4331 -568.4680247129241
4332 -568.5022136817314
4333 -568.4405338988224
4334 -568.4772319405093
4335 -568.4146018398426
4336 -568.4475277287295
4337 -568.3836638115059
4338 -568.4183497911858
4339 -568.3587553613162
4340 -568.3914738422826
4341 -568.333602180459
4342 -568.3606647048866
4343 -568.3027154135697
4344 -568.3318216227526
4345 -568.2794296383487
4346 -568.304713163737
4347 -568.2523667995775
4348 -568.2795647545855
4349 -568.232932234333
4350 -568.2595013087196
4351 -568.2095700723725
4352 -568.2434744345085
4353 -568.191248120697
4354 -568.2285874084424
4355 -568.173200888191
4356 -568.2171479382472
4357 -568.1583755148279
4358 -568.2064816286221
4359 -568.1453122837808
4360 -568.190865147846
4361 -568.1293807584458
4362 -568.1751389423189
4363 -568.1173763991678
4364 -568.1643881586281
4365 -568.1091285935952
4366 -568.1543354405716
4367 -568.1010813262141
4368 -568.1460921491873
4369 -568.0937551991947
4370 -568.140574241729
4371 -568.0900780853669
4372 -568.1346013955873
4373 -568.0827204005967
4374 -568.1273144011511
4375 -568.0775710925527
4376 -568.1208332746784
4377 -568.0700394598051
4378 -568.1191909554395
4379 -568.0649802145248
4380 -568.1121958380236
4381 -568.0593648653369
4382 -568.104925162522
4383 -568.0500924066747
4384 -568.0955707739045
4385 -568.0433563858935
4386 -568.083404822952
4387 -568.0333798156854
4388 -568.0725963353747
4389 -568.0241041482233
4390 -568.0602090123193
4391 -568.0126755904888
4392 -568.0465312087317
4393 -568.0033745014026
4394 -568.0384072153396
4395 -567.9919962573434
4396 -568.0299488708536
4397 -567.9808968401734
4398 -568.0177737808698
4399 -567.9643007972414
4400 -568.0001833002979
4401 -567.9455613876835
4402 -567.9846197031109
4403 -567.9288167811033
4404 -567.9688821286164
4405 -567.9158888646233
4406 -567.9560869474611
4407 -567.9026665662925
4408 -567.9447328596046
4409 -567.8883915120771
4410 -567.9267531386974
4411 -567.873193459805
4412 -567.9100846594371
4413 -567.8584895514612
4414 -567.9011108553004
4415 -567.8505370108883
4416 -567.889790567008
4417 -567.8368790847751
4418 -567.8746837568316
4419 -567.8217027693033
4420 -567.8560192762723
4421 -567.8020636957199
4422 -567.8421752928584
4423 -567.7876958052386
4424 -567.8293333804968
4425 -567.7814363919845
4426 -567.8306260002959
4427 -567.7792549688301
4428 -567.8201881541609
4429 -567.7643813181131
4430 -567.8008433463648
4431 -567.747512812688
4432 -567.7871627362676
4433 -567.7335233896449
4434 -567.7744483409391
4435 -567.7269089489671
4436 -567.7678937360936
4437 -567.720226318069
4438 -567.7606019969281
4439 -567.7121282370847
4440 -567.7537758519724
4441 -567.7091347588777
4442 -567.7505881559719
4443 -567.7029387384357
4444 -567.7417968476009
4445 -567.6948018587777
4446 -567.7353724135244
4447 -567.6849416146952
4448 -567.7280065926439
4449 -567.6786234103379
4450 -567.7190427102219
4451 -567.6746911044144
4452 -567.7144966886099
4453 -567.6703221622236
4454 -567.7103973333833
4455 -567.6704832638871
4456 -567.7069141548399
4457 -567.6677713492218
4458 -567.7046990981247
4459 -567.6624358949659
4460 -567.7036248361509
4461 -567.6572273460981
4462 -567.6958156980371
4463 -567.6456398479777
4464 -567.6877898745415
4465 -567.6335724834698
4466 -567.6805897388087
4467 -567.6254584643667
4468 -567.6711281349681
4469 -567.616364623079
4470 -567.6644301720157
4471 -567.6099411166124
4472 -567.6555493487806
4473 -567.6012692547052
4474 -567.6449898583053
4475 -567.5953736518754
4476 -567.6344475632267
4477 -567.5886407913265
4478 -567.6219573320291
4479 -567.5774984567855
4480 -567.6139550521586
4481 -567.5730300127194
4482 -567.6083915441455
4483 -567.5612581365928
4484 -567.6006897260464
4485 -567.5516697682635
4486 -567.5970542921609
4487 -567.5452651183225
4488 -567.5872340426099
4489 -567.5384853791476
4490 -567.5775744121278
4491 -567.5262021543015
4492 -567.5679455753351
4493 -567.5213409346406
4494 -567.5602209191771
4495 -567.5086788580265
4496 -567.5474856213632
4497 -567.5019874876109
4498 -567.5458926056062
4499 -567.5011390046491
4500 -567.5387729416893
4501 -567.497976195746
4502 -567.5342481201548
4503 -567.4890649054821
4504 -567.5260330233313
4505 -567.4795751633444
4506 -567.5233578871963
4507 -567.4762298794114
4508 -567.5187989293553
4509 -567.4701370637645
4510 -567.5097360481858
4511 -567.462171010828
4512 -567.5061149540571
4513 -567.4663207212732
4514 -567.5057814361485
4515 -567.4665211738832
4516 -567.5078497361777
4517 -567.465284516785
4518 -567.5101336853082
4519 -567.4695575551211
4520 -567.5103721146801
4521 -567.4679060353283
4522 -567.5117906995412
4523 -567.4655080993025
4524 -567.5100242018616
4525 -567.4601353973129
4526 -567.5098378554286
4527 -567.4579326250549
4528 -567.5092620653901
4529 -567.4549321281812
4530 -567.5103265025356
4531 -567.4578875985869
4532 -567.5083861983069
4533 -567.4561793414101
4534 -567.5019875408917
4535 -567.4537660084693
4536 -567.4986316941227
4537 -567.4518446098145
4538 -567.4929271448068
4539 -567.4528905060525
4540 -567.4918739254215
4541 -567.451623266769
4542 -567.4869782950529
4543 -567.4474763289704
4544 -567.4810763372805
4545 -567.44055205258
4546 -567.4752128077403
4547 -567.4280643860163
4548 -567.4670439749469
4549 -567.4185572791222
4550 -567.4630303993697
4551 -567.4128834444541
4552 -567.4506572211621
4553 -567.4037084991141
4554 -567.4380719969084
4555 -567.392421485956
4556 -567.4285346303984
4557 -567.3801486116732
4558 -567.4179508919972
4559 -567.3695969976199
4560 -567.4057360492368
4561 -567.3558163020558
4562 -567.3908486108145
4563 -567.3381606494313
4564 -567.3753538696857
4565 -567.3272628767807
4566 -567.3687829192044
4567 -567.3183750783222
4568 -567.3600883275254
4569 -567.3042228424208
4570 -567.3452669542888
4571 -567.2890190158087
4572 -567.3301632148474
4573 -567.2754083250434
4574 -567.3176883543076
4575 -567.2639850048846
4576 -567.3046223464225
4577 -567.2553398927637
4578 -567.2948969067478
4579 -567.2458460914588
4580 -567.2807590939634
4581 -567.2322974547393
4582 -567.2653474595694
4583 -567.2209059053092
4584 -567.2607851321856
4585 -567.2165259767473
4586 -567.2529924349998
4587 -567.2064528412628
4588 -567.2414163378953
4589 -567.1913049520389
4590 -567.2292727906533
4591 -567.1803806186927
4592 -567.2255863216777
4593 -567.1731211876984
4594 -567.2215773427984
4595 -567.1674678641674
4596 -567.216984855379
4597 -567.1660256205715
4598 -567.2144272633535
4599 -567.1624040947829
4600 -567.2120245387213
4601 -567.1582967309422
4602 -567.2031174261261
4603 -567.1503380573746
4604 -567.197408027191
4605 -567.1471749465194
4606 -567.1951166750229
4607 -567.1425230214885
4608 -567.19460448852
4609 -567.1447347808247
4610 -567.1962105897645
4611 -567.1495412077957
4612 -567.1976883572689
4613 -567.1476806421044
4614 -567.1927383622547
4615 -567.1463927559271
4616 -567.1886392805779
4617 -567.1464490025472
4618 -567.1887448882726
4619 -567.1469402727744
4620 -567.1839486624224
4621 -567.1451258975267
4622 -567.1812686983778
4623 -567.146200499366
4624 -567.1877868390607
4625 -567.1542409868515
4626 -567.195377863926
4627 -567.1588959374171
4628 -567.1973537114541
4629 -567.1575657746639
4630 -567.204094277442
4631 -567.159770318546
4632 -567.2110991929623
4633 -567.1648209374342
4634 -567.2192050250998
4635 -567.1667756397235
4636 -567.2232781741016
4637 -567.1690258658101
4638 -567.2322803721187
4639 -567.1810159184686
4640 -567.2374729780013
4641 -567.186740290114
4642 -567.2465930726074
4643 -567.1960246343185
4644 -567.2482607188596
4645 -567.1975458831266
4646 -567.2467352433524
4647 -567.1961874383305
4648 -567.2451137860157
4649 -567.2018725508711
4650 -567.2458559717879
4651 -567.2036377865389
4652 -567.2467942104248
4653 -567.2030208176232
4654 -567.2479642278288
4655 -567.2027204300656
4656 -567.2477671170182
4657 -567.2050916617318
4658 -567.2478539550322
4659 -567.1991508681004
4660 -567.2450473507296
4661 -567.1981467602081
4662 -567.2453651275605
4663 -567.1968729801337
4664 -567.2399784498383
4665 -567.19946947047
4666 -567.2437561121044
4667 -567.2032834098121
4668 -567.2451221254166
4669 -567.2005436981375
4670 -567.2465675122648
4671 -567.2001095848518
4672 -567.2448593880191
4673 -567.2012072026245
4674 -567.2409851294426
4675 -567.1952446036867
4676 -567.2394522257907
4677 -567.191258949558
4678 -567.2381409720417
4679 -567.1873822417698
4680 -567.2357350783477
4681 -567.1856210667891
4682 -567.2339366313472
4683 -567.182237685741
4684 -567.2314758939082
4685 -567.182897280133
4686 -567.2274364745623
4687 -567.1765364455704
4688 -567.220056671687
4689 -567.1719550474637
4690 -567.216763006886
4691 -567.1706569357568
4692 -567.2121025649283
4693 -567.1684103469885
4694 -567.2163616825706
4695 -567.1637507190923
4696 -567.2155721859103
4697 -567.166713374365
4698 -567.216644521642
4699 -567.1666894911828
4700 -567.2209595059048
4701 -567.1662772745735
4702 -567.2188016690645
4703 -567.1690256869613
4704 -567.21892299083
4705 -567.1722554820133
4706 -567.221647772257
4707 -567.1778041128072
4708 -567.2269070032012
4709 -567.1846136269751
4710 -567.231982513168
4711 -567.1895336112186
4712 -567.2341911231812
4713 -567.1882933844898
4714 -567.2351849115707
4715 -567.1898160788055
4716 -567.2387675205762
4717 -567.1981664304988
4718 -567.2478085643177
4719 -567.2040126930621
4720 -567.2541512220362
4721 -567.2062919684595
4722 -567.2577222714501
4723 -567.2136381575904
4724 -567.2582782882241
4725 -567.2184323991278
4726 -567.2639747902665
4727 -567.2256226571728
4728 -567.2706322184569
4729 -567.2349544033053
4730 -567.2748510510684
4731 -567.2380722936165
4732 -567.2814437909822
4733 -567.2479385914859
4734 -567.2906791788879
4735 -567.2549615856991
4736 -567.2977893128324
4737 -567.2632090027573
4738 -567.3138296724884
4739 -567.2728340673331
4740 -567.3234001279843
4741 -567.2791101612875
4742 -567.3287377475374
4743 -567.2845472327641
4744 -567.3343567672124
4745 -567.2907029206639
4746 -567.338249134453
4747 -567.2940017703756
4748 -567.3418871221438
4749 -567.3032251333535
4750 -567.3511010775818
4751 -567.3129121471673
4752 -567.3558822789129
4753 -567.3161685052643
4754 -567.361673451668
4755 -567.3160638292541
4756 -567.3636926508134
4757 -567.3144697206307
4758 -567.3646464836858
4759 -567.3122697292431
4760 -567.3659967015623
4761 -567.3186119337091
4762 -567.3760245511985
4763 -567.3235353013602
4764 -567.37789711698
4765 -567.3234484357531
4766 -567.3798888347677
4767 -567.32698833406
4768 -567.3780371517112
4769 -567.3281735457487
4770 -567.3730429207458
4771 -567.3251674123788
4772 -567.3721163485269
4773 -567.3210153028995
4774 -567.3695428605532
4775 -567.3233649112982
4776 -567.3644189713675
4777 -567.3210953860089
4778 -567.3616783767666
4779 -567.3159556882173
4780 -567.3601063944768
4781 -567.3164224162836
4782 -567.3581331635419
4783 -567.3109378002622
4784 -567.3509926508453
4785 -567.3019037266045
4786 -567.3422097832466
4787 -567.2977731762489
4788 -567.3351990140679
4789 -567.2941091518935
4790 -567.3279220628526
4791 -567.2850293197864
4792 -567.3208304750693
4793 -567.2749304589083
4794 -567.3148893957382
4795 -567.2730329197472
4796 -567.3142894899376
4797 -567.2624713544124
4798 -567.3079342336539
4799 -567.2517236492515
4800 -567.3039163857889
4801 -567.2485634343543
4802 -567.3013290708805
4803 -567.2438630018863
4804 -567.2935488440669
4805 -567.236259825975
4806 -567.2878774498115
4807 -567.229680892805
4808 -567.2791050565676
4809 -567.2247383283556
4810 -567.2778769073668
4811 -567.2235819435925
4812 -567.2686556728089
4813 -567.2165244094545
4814 -567.2609237184734
4815 -567.2191414779297
4816 -567.2587325482809
4817 -567.2159860638162
4818 -567.2607284496107
4819 -567.2193916086901
4820 -567.2611878908734
4821 -567.221179671656
4822 -567.2618618970142
4823 -567.2197674694985
4824 -567.2639783257663
4825 -567.2221745823789
4826 -567.2691032725731
4827 -567.2233254009054
4828 -567.2691169384079
4829 -567.223424160343
4830 -567.2716384682739
4831 -567.2215070282198
4832 -567.270082506507
4833 -567.2164865798421
4834 -567.2661999483047
4835 -567.2110652957562
4836 -567.2653959732138
4837 -567.2113080068262
4838 -567.2629644123517
4839 -567.2128615002073
4840 -567.265087208742
4841 -567.2160928861196
4842 -567.2614349950137
4843 -567.2121928459532
4844 -567.2573187515098
4845 -567.2064689797753
4846 -567.2492070913518
4847 -567.2055968961278
4848 -567.2478498058186
4849 -567.202100638529
4850 -567.2467891375633
4851 -567.203440052293
4852 -567.2473585581081
4853 -567.2044968514684
4854 -567.2427806518897
4855 -567.1954223541305
4856 -567.2372218887056
4857 -567.1915366197761
4858 -567.2350215002963
4859 -567.1884922726643
4860 -567.2348974354285
4861 -567.1893417305772
4862 -567.2320248397252
4863 -567.1793745504123
4864 -567.2245271663859
4865 -567.1699124312763
4866 -567.2172705173248
4867 -567.1566514469779
4868 -567.2057124789139
4869 -567.1448083667858
4870 -567.1942099830279
4871 -567.1335667420826
4872 -567.1812584340283
4873 -567.1209683338728
4874 -567.1700935398037
4875 -567.1126712719056
4876 -567.1560853080662
4877 -567.0975861597767
4878 -567.1444065165597
4879 -567.0926379901922
4880 -567.1283470384184
4881 -567.0786287715936
4882 -567.1137110885644
4883 -567.0621401476127
4884 -567.1044771726602
4885 -567.0516529888798
4886 -567.0913327025385
4887 -567.0431704136951
4888 -567.0822713251524
4889 -567.0311339657073
4890 -567.0721068512004
4891 -567.0202672125309
4892 -567.0630541256544
4893 -567.0139708185166
4894 -567.0575093854487
4895 -567.0024271212335
4896 -567.0473430693177
4897 -566.9960170335119
4898 -567.0383127367019
4899 -566.9900537546988
4900 -567.0297106209363
4901 -566.9855569637982
4902 -567.0202777770309
4903 -566.975684993057
4904 -567.0140581545212
4905 -566.9693224011734
4906 -567.0083470623916
4907 -566.9628340607123
4908 -567.0056863248327
4909 -566.9555007880883
4910 -567.0049209550319
4911 -566.9501920188485
4912 -567.0004944250717
4913 -566.9469806550745
4914 -566.9949594114115
4915 -566.9349155757081
4916 -566.9813828689687
4917 -566.9226063274549
4918 -566.9694196901461
4919 -566.9179710557162
4920 -566.9659055042546
4921 -566.9153292380552
4922 -566.9591687011402
4923 -566.9085388934725
4924 -566.9537003345621
4925 -566.9058817935862
4926 -566.947580522574
4927 -566.8999249805672
4928 -566.9470141975989
4929 -566.8955644168904
4930 -566.9474632833983
4931 -566.892088660381
4932 -566.942998305384
4933 -566.8900561499661
4934 -566.9413110349159
4935 -566.8824970886153
4936 -566.932170094052
4937 -566.881652259565
4938 -566.9315247606498
4939 -566.8816545425229
4940 -566.9274764223113
4941 -566.8817293475762
4942 -566.9261753213921
4943 -566.8822505802452
4944 -566.9202108874301
4945 -566.8788187899845
4946 -566.9147424451296
4947 -566.8734718371938
4948 -566.9090347912024
4949 -566.8663373633792
4950 -566.9044950742613
4951 -566.8582571003832
4952 -566.9006284783818
4953 -566.8513696894664
4954 -566.8950508083368
4955 -566.8436405039384
4956 -566.8865018960322
4957 -566.8344499512555
4958 -566.8775578208756
4959 -566.8292477459044
4960 -566.8715353881815
4961 -566.8233502354327
4962 -566.8637577163471
4963 -566.8133412294259
4964 -566.8572509246064
4965 -566.8094428225832
4966 -566.8500619367061
4967 -566.7967523275219
4968 -566.843220406235
4969 -566.7894296667481
4970 -566.8400786478139
4971 -566.7844607850271
4972 -566.8377191958683
4973 -566.780608587152
4974 -566.8324832346957
4975 -566.7764809798015
4976 -566.8242294645544
4977 -566.7764692415752
4978 -566.8192669026928
4979 -566.7702081250769
4980 -566.8162266370409
4981 -566.7689023101351
4982 -566.8137518950331
4983 -566.7687170522504
4984 -566.810991584241
4985 -566.7658616601066
4986 -566.8113006504404
4987 -566.7657718104443
4988 -566.8067705086891
4989 -566.7580872810473
4990 -566.8035829488639
4991 -566.754403366995
4992 -566.8027693579915
4993 -566.747171480055
4994 -566.7975516445554
4995 -566.7389894898947
4996 -566.7907963372384
4997 -566.7341287851256
4998 -566.7844305103919
4999 -566.735373489361
5000 -566.780574349243
5001 -566.7296643478245
5002 -566.7776598425089
5003 -566.7270140386948
5004 -566.7679263419535
5005 -566.7232073099252
5006 -566.7640486984616
5007 -566.7193314661976
5008 -566.7616039984172
5009 -566.7183179074337
5010 -566.7596073194803
5011 -566.7198740134694
5012 -566.7631860599806
5013 -566.715644861859
5014 -566.7606350982868
5015 -566.7116735493246
5016 -566.7579144454565
5017 -566.7107355032185
5018 -566.7577975870873
5019 -566.7075480156363
5020 -566.7557101862243
5021 -566.7099261830937
5022 -566.7568438062513
5023 -566.7157472431705
5024 -566.7575220110812
5025 -566.7106257882857
5026 -566.7535377788909
5027 -566.7039018435943
5028 -566.7539927541044
5029 -566.7039727126408
5030 -566.7532439410288
5031 -566.7000106484519
5032 -566.7529238686595
5033 -566.6978703883293
5034 -566.7475466604473
5035 -566.6943274937975
5036 -566.7478105522183
5037 -566.6991872691834
5038 -566.7529477248081
5039 -566.7008065839567
5040 -566.7539157543919
5041 -566.7045940092355
5042 -566.7542629742787
5043 -566.7076196342366
5044 -566.7532171306347
5045 -566.7133706249117
5046 -566.7561060152605
5047 -566.7148133857112
5048 -566.752294091906
5049 -566.7117530319468
5050 -566.7505983842805
5051 -566.7099836556833
5052 -566.7477361875533
5053 -566.7088787719746
5054 -566.7459681751111
5055 -566.7041190782709
5056 -566.74669203868
5057 -566.7028924796158
5058 -566.7469566318902
5059 -566.6951748807987
5060 -566.7401533839808
5061 -566.689051923633
5062 -566.737710403783
5063 -566.691715658365
5064 -566.7392770110275
5065 -566.6866377534878
5066 -566.7395811161431
5067 -566.6900706606996
