"y-rfile"
"Iteration" "y"
("Iteration" "y")
1 -16374.49866190531
2 -15950.11461292313
3 -14661.24461727229
4 -12197.01498563754
5 -10518.62885722352
6 -8691.500810133553
7 -7490.254573800535
8 -6134.88787256488
9 -4997.652229629271
10 -3913.613010705353
11 -3026.323159249136
12 -2258.710760713184
13 -1731.36007782721
14 -1431.025574231693
15 -1334.341198870474
16 -1396.552427114548
17 -1577.575829873997
18 -1810.975078535799
19 -2090.389331004361
20 -2394.642383963848
21 -2697.790109680725
22 -2950.497572871745
23 -3217.977240545345
24 -3420.939789105299
25 -3622.647972316752
26 -3783.179552805545
27 -3907.852181309167
28 -4013.712499793691
29 -4080.610926653528
30 -4134.364034334824
31 -4169.203497081417
32 -4189.252868345584
33 -4203.489487547881
34 -4214.196310193407
35 -4222.306256539466
36 -4230.886501175026
37 -4239.248963627292
38 -4249.693076497913
39 -4260.145270679283
40 -4273.455031589727
41 -4288.27458240032
42 -4304.898316211072
43 -4322.561235691021
44 -4341.206064574044
45 -4363.247561861024
46 -4384.603148474344
47 -4407.17467376438
48 -4425.083902319981
49 -4443.982917895976
50 -4459.004588321541
51 -4473.182663284068
52 -4486.882768056795
53 -4499.357882576359
54 -4509.873535196944
55 -4520.281731459598
56 -4529.240454395701
57 -4538.49349576816
58 -4546.170678130678
59 -4556.789233809452
60 -4565.156882705134
61 -4573.837502796578
62 -4582.997287456208
63 -4592.025625713541
64 -4601.320653779682
65 -4610.013643810846
66 -4620.998104832163
67 -4628.015173518656
68 -4636.691414821243
69 -4643.451850041049
70 -4649.179417557871
71 -4653.380887970248
72 -4656.985352420069
73 -4658.886492709375
74 -4661.271009893238
75 -4662.352907530683
76 -4663.911639477729
77 -4664.46487696908
78 -4665.439157481786
79 -4666.010799052385
80 -4666.927716419563
81 -4667.468173418518
82 -4668.360968626305
83 -4668.887860705018
84 -4669.539071484148
85 -4670.339281571794
86 -4671.023378663303
87 -4671.796116815353
88 -4672.487406336486
89 -4673.265323911971
90 -4673.892471402747
91 -4674.391216508782
92 -4674.820449104107
93 -4674.642413853772
94 -4674.426452490752
95 -4673.751487638292
96 -4673.112756230791
97 -4672.006871892839
98 -4671.011739344734
99 -4670.088438243401
100 -4668.913975947158
101 -4667.887053533453
102 -4666.52232990495
103 -4665.415556954978
104 -4663.925336849203
105 -4662.661380129096
106 -4661.003893767183
107 -4659.654035894963
108 -4657.903286904892
109 -4656.413219075582
110 -4655.188857227316
111 -4653.69405446623
112 -4652.402918276214
113 -4650.055443603511
114 -4648.650287561596
115 -4646.991100321875
116 -4645.494777311979
117 -4643.748754327314
118 -4642.156240974257
119 -4639.468494049021
120 -4637.76337232708
121 -4635.845194914673
122 -4634.121600174005
123 -4631.263739602897
124 -4629.490650624925
125 -4627.5353624986
126 -4624.872514009917
127 -4622.930549293506
128 -4621.235423013274
129 -4618.434131294111
130 -4616.805570341036
131 -4614.992722387328
132 -4612.576562316644
133 -4610.884788656305
134 -4609.383537874656
135 -4607.037233190241
136 -4605.689138432384
137 -4604.249392114082
138 -4603.000072320945
139 -4600.987725504918
140 -4599.804846541536
141 -4598.561024380771
142 -4597.031960767805
143 -4595.947663160067
144 -4595.065135949202
145 -4593.736395982589
146 -4593.062977941325
147 -4591.956843529771
148 -4591.405550717023
149 -4590.520287726372
150 -4590.1288017376
151 -4589.412223028941
152 -4589.141614366138
153 -4588.575362150094
154 -4588.384084246652
155 -4588.143976260555
156 -4588.094595408501
157 -4587.946877193192
158 -4588.097676813371
159 -4588.117993979356
160 -4588.394642039622
161 -4588.51959924782
162 -4588.937326015865
163 -4589.263878772409
164 -4589.619468827232
165 -4590.122006331449
166 -4590.850984794261
167 -4591.557132456757
168 -4592.183657430649
169 -4593.001132237696
170 -4593.872578442821
171 -4594.750129967154
172 -4595.816864537256
173 -4596.858780902886
174 -4598.000708110172
175 -4599.058523256101
176 -4600.165891091304
177 -4601.155808741425
178 -4602.289769601355
179 -4603.339867296243
180 -4604.461617807143
181 -4605.491085822449
182 -4606.577285331341
183 -4607.60299382261
184 -4608.669040919382
185 -4609.724771210972
186 -4610.778624923805
187 -4611.613558803653
188 -4612.540563004831
189 -4613.360288133828
190 -4614.375107694204
191 -4615.11813689783
192 -4616.198357039053
193 -4616.873612016985
194 -4617.439565023327
195 -4617.860588770817
196 -4618.352786986895
197 -4618.564497932229
198 -4618.770935709264
199 -4618.83773765353
200 -4618.860250060705
201 -4618.780784349908
202 -4618.527082925008
203 -4618.201493148401
204 -4617.765749057744
205 -4616.979045745771
206 -4616.297762535261
207 -4615.255555795908
208 -4614.395419879311
209 -4613.068806486924
210 -4611.941786571206
211 -4610.234737139507
212 -4608.842917072626
213 -4606.868072314498
214 -4605.197232825569
215 -4602.979596357829
216 -4601.109530890922
217 -4598.556783123635
218 -4596.51398666025
219 -4593.56347004149
220 -4591.38468926838
221 -4588.141496469318
222 -4585.75765716637
223 -4582.396305980409
224 -4579.819213548356
225 -4576.22935075436
226 -4573.359543960328
227 -4569.533981666996
228 -4566.652339686653
229 -4562.610466794732
230 -4559.620658448961
231 -4555.565499851054
232 -4552.407084779377
233 -4548.179879490115
234 -4544.972857074699
235 -4540.636595897814
236 -4537.483935109506
237 -4532.992939807305
238 -4529.635715250539
239 -4525.114327996701
240 -4521.727979827127
241 -4517.067653534645
242 -4513.426535410456
243 -4508.461065253656
244 -4504.609712675291
245 -4499.622795417165
246 -4495.625867030653
247 -4490.18643723865
248 -4486.005471773871
249 -4481.649796759006
250 -4475.624045382333
251 -4471.248787913372
252 -4466.560653091348
253 -4461.77461331675
254 -4456.618149086766
255 -4451.371355242368
256 -4445.86755430855
257 -4440.145871444964
258 -4434.239160247922
259 -4428.082780297809
260 -4421.729434064282
261 -4415.314849347463
262 -4408.615358056508
263 -4401.796684828024
264 -4394.849258252716
265 -4387.874525909419
266 -4380.798983834697
267 -4373.625487265614
268 -4366.278013077383
269 -4358.787823859283
270 -4351.285451725059
271 -4343.839200099817
272 -4336.234771979136
273 -4328.651015856101
274 -4321.059176209287
275 -4313.424731977922
276 -4305.754245785595
277 -4298.158984261317
278 -4290.421780299587
279 -4282.885884061696
280 -4275.313267797799
281 -4267.729337532311
282 -4260.240947653927
283 -4252.747201054915
284 -4245.243541550662
285 -4237.949964026777
286 -4230.633132039774
287 -4223.47111259871
288 -4216.195612614728
289 -4209.061644078007
290 -4202.026482602633
291 -4195.046306048189
292 -4188.136920147504
293 -4181.313456539265
294 -4174.566367771747
295 -4167.884504613651
296 -4161.275268104551
297 -4154.850656341183
298 -4148.505463769086
299 -4142.340211843698
300 -4136.393025476111
301 -4132.429555733027
302 -4126.515010109751
303 -4120.750722512046
304 -4115.015657634918
305 -4111.284474656607
306 -4105.668045591065
307 -4100.196385630044
308 -4096.588754700855
309 -4091.208145368131
310 -4087.682382469255
311 -4082.489270983109
312 -4079.034769166345
313 -4073.890587865329
314 -4070.554308803539
315 -4065.655094607399
316 -4062.467311447149
317 -4059.263395721669
318 -4054.563188758204
319 -4051.509189937067
320 -4048.475311105815
321 -4045.457311976771
322 -4042.438475697733
323 -4039.430339195011
324 -4036.437235627849
325 -4033.438722491595
326 -4030.402790707778
327 -4027.424781262021
328 -4024.481992453523
329 -4021.57484294263
330 -4018.734939682241
331 -4015.91433704055
332 -4013.130105716243
333 -4010.353749838249
334 -4007.61736159774
335 -4004.954794805418
336 -4002.312910642508
337 -3999.733855839449
338 -3997.190481136155
339 -3994.756783348934
340 -3992.356282812492
341 -3989.963923837094
342 -3987.65943306987
343 -3985.344005780057
344 -3983.133371665397
345 -3980.934339313432
346 -3978.845470506746
347 -3976.761355910421
348 -3974.740859977355
349 -3972.75692363025
350 -3970.79999374268
351 -3968.889756530296
352 -3967.006697807857
353 -3965.202956764252
354 -3963.415091793509
355 -3961.661088897768
356 -3959.964201441574
357 -3958.338331253902
358 -3956.772123179703
359 -3955.220923384795
360 -3953.718069286285
361 -3952.22711437613
362 -3950.80907332819
363 -3949.474777173381
364 -3948.194547461663
365 -3946.948250328264
366 -3945.766802958936
367 -3944.627030065071
368 -3943.538324778362
369 -3942.508859981391
370 -3941.532906606147
371 -3940.601912964028
372 -3939.72625272682
373 -3938.931481658105
374 -3938.154949122687
375 -3937.417905666454
376 -3936.732375342516
377 -3936.136033392116
378 -3935.586029064332
379 -3935.061967211601
380 -3934.597494936108
381 -3934.141644819701
382 -3933.793788939986
383 -3933.465736522916
384 -3933.2071780395
385 -3932.974692418742
386 -3932.823725238794
387 -3932.687624745486
388 -3932.644789366484
389 -3932.604503963972
390 -3932.64984328213
391 -3932.693249525188
392 -3932.829645977138
393 -3932.960704835083
394 -3933.208589870759
395 -3933.450386125234
396 -3933.795138085718
397 -3934.109155616606
398 -3934.523691996295
399 -3934.939534230673
400 -3935.439955090985
401 -3935.935840924406
402 -3936.51617281952
403 -3937.114276945081
404 -3937.781861057892
405 -3938.473467015239
406 -3939.219886570914
407 -3939.994659418371
408 -3940.812216846854
409 -3941.652140442355
410 -3942.541680941327
411 -3943.444571080045
412 -3944.37614984497
413 -3945.31579055267
414 -3946.300015171977
415 -3947.264377018065
416 -3948.291532794092
417 -3949.297426551807
418 -3950.339346101426
419 -3951.361263008952
420 -3952.411024382596
421 -3953.435837373468
422 -3954.498395175945
423 -3955.533628894244
424 -3956.604221403495
425 -3957.641288431848
426 -3958.722649297574
427 -3959.766040704165
428 -3961.317503797064
429 -3962.284781089856
430 -3963.26750559336
431 -3964.219291474754
432 -3965.205120713812
433 -3966.619569616322
434 -3967.535626489805
435 -3968.429627955473
436 -3969.353893915619
437 -3970.688289987362
438 -3971.557513736317
439 -3972.432277385891
440 -3973.333172291098
441 -3974.247734865808
442 -3975.624346496355
443 -3976.52957844764
444 -3977.446473863242
445 -3978.391224914302
446 -3979.370368563702
447 -3980.366879078252
448 -3981.398644353494
449 -3982.97451159962
450 -3984.008783430694
451 -3985.063057797586
452 -3986.149403985098
453 -3987.271902053609
454 -3988.41673672375
455 -3990.150610824253
456 -3991.281255112476
457 -3992.437552712762
458 -3993.625519248228
459 -3995.381702592148
460 -3996.528758405886
461 -3997.691165242997
462 -3999.416003791317
463 -4000.545133282224
464 -4001.680774683413
465 -4002.830570111488
466 -4004.556411950186
467 -4005.684601950682
468 -4006.816058851536
469 -4008.507510590587
470 -4009.609853188747
471 -4010.730307036604
472 -4012.387553915803
473 -4013.475061895525
474 -4014.589651173549
475 -4016.231785884903
476 -4017.31288591871
477 -4018.398637353906
478 -4020.056417334916
479 -4021.12131262799
480 -4022.198134509794
481 -4023.812538916777
482 -4024.869838932037
483 -4025.972780838729
484 -4027.59750250773
485 -4028.655971834979
486 -4029.748053089823
487 -4031.408017840165
488 -4032.48070396252
489 -4033.603937370517
490 -4035.261307229839
491 -4036.373550328727
492 -4037.49314016079
493 -4039.209084542858
494 -4040.314221597546
495 -4041.471234956925
496 -4043.19009980777
497 -4044.338189413934
498 -4045.494117209628
499 -4047.257414005048
500 -4048.399050237349
501 -4050.119328427463
502 -4051.230503709589
503 -4052.918666980955
504 -4054.024043977359
505 -4055.712354674085
506 -4056.802943625062
507 -4058.465441942979
508 -4059.55386097001
509 -4061.203613637087
510 -4062.291445550381
511 -4063.926884396462
512 -4065.007097003895
513 -4066.124004383057
514 -4067.797601244662
515 -4068.911573802171
516 -4070.585495386446
517 -4071.698958385507
518 -4073.3443697415
519 -4074.446682078649
520 -4075.57273734447
521 -4077.276758557115
522 -4078.381631200454
523 -4079.537776900659
524 -4081.242479062429
525 -4082.390079024002
526 -4083.533420127489
527 -4085.291215922656
528 -4086.424905333244
529 -4087.614683150441
530 -4089.365794488329
531 -4090.524690050492
532 -4091.689097698745
533 -4092.88691371628
534 -4094.645313843455
535 -4095.793758917139
536 -4096.957779381977
537 -4098.664607574792
538 -4099.79066644951
539 -4100.934039114723
540 -4102.08947948244
541 -4103.804292666644
542 -4104.917636242451
543 -4106.037739433303
544 -4107.699069583016
545 -4108.78516122562
546 -4109.88998387323
547 -4111.537184202733
548 -4112.600144589629
549 -4113.686758756801
550 -4114.780344808325
551 -4116.400495764554
552 -4117.45014529042
553 -4118.522051752268
554 -4119.606957680526
555 -4120.703220987204
556 -4122.328401394498
557 -4123.404998759488
558 -4124.472817085448
559 -4125.570064340893
560 -4127.186086634196
561 -4128.237640293056
562 -4129.286773366187
563 -4130.356704298284
564 -4131.428218348691
565 -4132.516908054912
566 -4133.601504421776
567 -4135.23004445785
568 -4136.264772831978
569 -4137.314827222614
570 -4138.354106528003
571 -4139.416602089354
572 -4140.47618036352
573 -4141.551644083411
574 -4142.626864235765
575 -4143.696599039432
576 -4144.784320424211
577 -4145.864964857927
578 -4146.947758865527
579 -4148.01664141148
580 -4149.089060361815
581 -4150.13812623483
582 -4151.200620243741
583 -4152.235156289924
584 -4153.279211492707
585 -4154.308711146051
586 -4155.343979817929
587 -4156.356848355523
588 -4157.36859249291
589 -4158.36657452378
590 -4159.35723052528
591 -4160.346089009639
592 -4161.327090249039
593 -4162.304232199173
594 -4163.279278787579
595 -4164.23604825615
596 -4165.190609117357
597 -4166.139299088984
598 -4167.091067635709
599 -4168.038170951088
600 -4168.987236300581
601 -4169.923299063513
602 -4170.863204850028
603 -4171.793010633191
604 -4172.72293945427
605 -4173.646753164807
606 -4174.587599042774
607 -4175.508482487855
608 -4176.438382877862
609 -4177.356548396061
610 -4178.285233930327
611 -4179.20200000682
612 -4180.131360168572
613 -4181.030092550074
614 -4181.95033631262
615 -4182.841814361283
616 -4183.750723965354
617 -4184.638533723538
618 -4185.542160856668
619 -4186.42773787176
620 -4187.322609941933
621 -4188.197768144392
622 -4189.083294233271
623 -4189.954843208234
624 -4190.832781046645
625 -4191.699867206055
626 -4192.561052349318
627 -4193.427258002056
628 -4194.284972804742
629 -4195.137000432156
630 -4195.984627533284
631 -4196.827323162795
632 -4197.670787773467
633 -4198.500589931071
634 -4199.318400285109
635 -4200.13249860782
636 -4200.933662243847
637 -4201.729573155284
638 -4202.514760352477
639 -4203.290807321998
640 -4204.066330850484
641 -4204.817452893649
642 -4205.574737409113
643 -4206.31879243203
644 -4207.058316556007
645 -4207.78383837319
646 -4208.507078604008
647 -4209.218109879402
648 -4209.933207439197
649 -4210.624049249398
650 -4211.310854267309
651 -4211.991825829878
652 -4212.675927910379
653 -4213.348292028122
654 -4214.02009758353
655 -4214.686427829173
656 -4215.340121995911
657 -4215.988549796332
658 -4216.630894529757
659 -4217.278309966508
660 -4217.910992032817
661 -4218.551173522686
662 -4219.176712651325
663 -4219.804947773899
664 -4220.424888752736
665 -4221.034351391973
666 -4221.649723882738
667 -4222.265901372694
668 -4222.86935915371
669 -4223.481965006418
670 -4224.077623941724
671 -4224.687147963493
672 -4225.277097474386
673 -4225.875977839152
674 -4226.465423862352
675 -4227.05994185155
676 -4227.641803806905
677 -4228.226256127797
678 -4228.807656452955
679 -4229.394799961375
680 -4229.968291267988
681 -4230.543397805406
682 -4231.109125881869
683 -4231.668447707659
684 -4232.227123544551
685 -4232.776498308002
686 -4233.321886715647
687 -4233.867331696328
688 -4234.402531289273
689 -4234.934541106488
690 -4235.473867740551
691 -4236.004367545724
692 -4236.533279414245
693 -4237.055937623149
694 -4237.576634174308
695 -4238.089011142079
696 -4238.595178933535
697 -4239.099761088492
698 -4239.60025331301
699 -4240.087203237117
700 -4240.580943909635
701 -4241.059745548133
702 -4241.549760011906
703 -4242.025591232516
704 -4242.497398743883
705 -4242.964072591943
706 -4243.438853806626
707 -4243.892971406041
708 -4244.361613784498
709 -4244.809818310952
710 -4245.276291569859
711 -4245.712059536598
712 -4246.177508527868
713 -4246.61176057071
714 -4247.077628479287
715 -4247.505371774979
716 -4247.962316478089
717 -4248.384777183813
718 -4248.832250223417
719 -4249.249245586404
720 -4249.687801439946
721 -4250.099993564923
722 -4250.533146324983
723 -4250.936870809977
724 -4251.365390217684
725 -4251.775049266479
726 -4252.193757254269
727 -4252.602997614596
728 -4253.013601999052
729 -4253.412726833186
730 -4253.817119053366
731 -4254.213074026375
732 -4254.615544335575
733 -4255.018092172108
734 -4255.411756790838
735 -4255.801392174217
736 -4256.195788605605
737 -4256.581656155934
738 -4256.973176769894
739 -4257.362474592074
740 -4257.750005875397
741 -4258.122634063307
742 -4258.502560076827
743 -4258.872470728672
744 -4259.251950399133
745 -4259.626254520606
746 -4259.999220842205
747 -4260.367588521455
748 -4260.739091890748
749 -4261.103740704043
750 -4261.467885900181
751 -4261.833305564227
752 -4262.192884822922
753 -4262.547640150241
754 -4262.911151418519
755 -4263.259519461948
756 -4263.607103694705
757 -4263.957088485266
758 -4264.306227025924
759 -4264.642183901941
760 -4264.982749970401
761 -4265.313353460789
762 -4265.653972841767
763 -4265.98723373446
764 -4266.324009943703
765 -4266.647277034105
766 -4266.978260955823
767 -4267.299782475597
768 -4267.631748666342
769 -4267.947453066326
770 -4268.273496404013
771 -4268.585371060731
772 -4268.908231605038
773 -4269.214084610994
774 -4269.53504648923
775 -4269.836481244392
776 -4270.150729349798
777 -4270.443349743447
778 -4270.752012449784
779 -4271.041708065371
780 -4271.352687497155
781 -4271.642761276512
782 -4271.952540913286
783 -4272.240089565602
784 -4272.546522618274
785 -4272.835126107253
786 -4273.138066016772
787 -4273.425938419666
788 -4273.722357028761
789 -4274.005568941362
790 -4274.296597424452
791 -4274.579303460629
792 -4274.873988237277
793 -4275.159899608393
794 -4275.448987564625
795 -4275.727598037713
796 -4276.009442371495
797 -4276.287105570925
798 -4276.568736961866
799 -4276.840843444353
800 -4277.122193152442
801 -4277.398446438674
802 -4277.678215029169
803 -4277.94958690869
804 -4278.23269503092
805 -4278.503834608375
806 -4278.78217220822
807 -4279.044463580077
808 -4279.329263125729
809 -4279.579012097871
810 -4279.86626176449
811 -4280.121790926566
812 -4280.406055885901
813 -4280.656032283366
814 -4280.934057988919
815 -4281.181454545918
816 -4281.460991654276
817 -4281.706245665584
818 -4281.977667474473
819 -4282.222541259906
820 -4282.492025018085
821 -4282.743839049034
822 -4283.010240799496
823 -4283.262216231577
824 -4283.517718680358
825 -4283.762306537382
826 -4284.021980279751
827 -4284.262842302095
828 -4284.515278042839
829 -4284.755493648796
830 -4285.004937728103
831 -4285.245160401009
832 -4285.499207029889
833 -4285.74042879115
834 -4285.993237091961
835 -4286.234763057212
836 -4286.481090123589
837 -4286.723761277442
838 -4286.968744335562
839 -4287.203530257849
840 -4287.453996336953
841 -4287.688622117899
842 -4287.934939093808
843 -4288.16362317087
844 -4288.413951330929
845 -4288.638875826794
846 -4288.888224514702
847 -4289.121344078592
848 -4289.360402045005
849 -4289.594518272387
850 -4289.83985574107
851 -4290.071255253933
852 -4290.321615564275
853 -4290.549760679538
854 -4290.791203327777
855 -4291.017643864526
856 -4291.255726028485
857 -4291.477813183757
858 -4291.709635034746
859 -4291.934106878653
860 -4292.161291627791
861 -4292.382496293451
862 -4292.609373438392
863 -4292.831176295309
864 -4293.057973240077
865 -4293.280398445152
866 -4293.505469825503
867 -4293.728548096251
868 -4293.957621074927
869 -4294.172461832287
870 -4294.401299866086
871 -4294.618452722275
872 -4294.839036527591
873 -4295.051773479092
874 -4295.272015978303
875 -4295.483182175219
876 -4295.710122854593
877 -4295.911349809428
878 -4296.137157984705
879 -4296.334371579857
880 -4296.555953307322
881 -4296.752977087939
882 -4296.974935517145
883 -4297.176736718727
884 -4297.396067826307
885 -4297.593980871919
886 -4297.820037136617
887 -4298.013771254914
888 -4298.239000785419
889 -4298.430532893138
890 -4298.643968580283
891 -4298.830375486838
892 -4299.042866358308
893 -4299.232190009654
894 -4299.439049249626
895 -4299.631502288244
896 -4299.837743349857
897 -4300.028122170258
898 -4300.229430684216
899 -4300.422836637297
900 -4300.620511454753
901 -4300.819422670542
902 -4301.01366358117
903 -4301.211387450592
904 -4301.412348358288
905 -4301.612165706892
906 -4301.801228039581
907 -4302.001220869601
908 -4302.186171975904
909 -4302.380358250618
910 -4302.561999341327
911 -4302.746745652611
912 -4302.936617460329
913 -4303.129352886624
914 -4303.320449906799
915 -4303.506394915933
916 -4303.700038345504
917 -4303.888215713546
918 -4304.078683205678
919 -4304.265194812881
920 -4304.453761966109
921 -4304.633729864132
922 -4304.820442219736
923 -4305.004029470868
924 -4305.190744389804
925 -4305.372106616366
926 -4305.555112037278
927 -4305.732161564167
928 -4305.922185836852
929 -4306.097133321658
930 -4306.285154999775
931 -4306.460944057819
932 -4306.644449844766
933 -4306.816510512029
934 -4306.997509562179
935 -4307.171257710593
936 -4307.354516653716
937 -4307.530933294459
938 -4307.710232180197
939 -4307.889790137174
940 -4308.070293189199
941 -4308.243955805966
942 -4308.42900745212
943 -4308.605689223341
944 -4308.791022445756
945 -4308.9581140512
946 -4309.127924887271
947 -4309.292608472262
948 -4309.461657773438
949 -4309.62762064768
950 -4309.792730532143
951 -4309.962052712398
952 -4310.125376525136
953 -4310.291221236784
954 -4310.461176951437
955 -4310.631500920929
956 -4310.799703889029
957 -4310.963124975249
958 -4311.134129688984
959 -4311.293336463968
960 -4311.459476573566
961 -4311.617994213229
962 -4311.78466061204
963 -4311.940354249774
964 -4312.106331846399
965 -4312.258351056115
966 -4312.42838089236
967 -4312.574616753215
968 -4312.740854767027
969 -4312.891651546087
970 -4313.052082498494
971 -4313.201764267425
972 -4313.366750425865
973 -4313.516156218879
974 -4313.681804056497
975 -4313.830367194976
976 -4313.995184871266
977 -4314.146037711414
978 -4314.311318916418
979 -4314.461902375146
980 -4314.62233435256
981 -4314.770079918393
982 -4314.924414357998
983 -4315.074991893973
984 -4315.232173709522
985 -4315.385834705143
986 -4315.540022800136
987 -4315.688366257398
988 -4315.841141865
989 -4315.985902897883
990 -4316.138211387251
991 -4316.285834326923
992 -4316.433694251466
993 -4316.582451202495
994 -4316.734633283232
995 -4316.88699931014
996 -4317.040401301876
997 -4317.190621106581
998 -4317.34199227506
999 -4317.478417607199
1000 -4317.631751278162
1001 -4317.764160173528
1002 -4317.913466630464
1003 -4318.044524028182
1004 -4318.193966815915
1005 -4318.325379562153
1006 -4318.47469466323
1007 -4318.608717432209
1008 -4318.759187968321
1009 -4318.895998399547
1010 -4319.043883532113
1011 -4319.180281466857
1012 -4319.326538885364
1013 -4319.461749028297
1014 -4319.609246576725
1015 -4319.747162726194
1016 -4319.892299544659
1017 -4320.032895121321
1018 -4320.172421853056
1019 -4320.315681728252
1020 -4320.451481144061
1021 -4320.589647809962
1022 -4320.719764516844
1023 -4320.858505822288
1024 -4320.993806496466
1025 -4321.136504783518
1026 -4321.275602818773
1027 -4321.423416380042
1028 -4321.561664233457
1029 -4321.705581268798
1030 -4321.838016876013
1031 -4321.975432438669
1032 -4322.108865539478
1033 -4322.23863394446
1034 -4322.367473565206
1035 -4322.490410565563
1036 -4322.628068478666
1037 -4322.749258159293
1038 -4322.897025083601
1039 -4323.019937554654
1040 -4323.165915816453
1041 -4323.286299372845
1042 -4323.430426668191
1043 -4323.540065190234
1044 -4323.6811563844
1045 -4323.79542385795
1046 -4323.932902121784
1047 -4324.042365170722
1048 -4324.177410512308
1049 -4324.284958194611
1050 -4324.421620187101
1051 -4324.53156763992
1052 -4324.659966887759
1053 -4324.770737869511
1054 -4324.896262524277
1055 -4325.014109362836
1056 -4325.134452718452
1057 -4325.249882212187
1058 -4325.365544934857
1059 -4325.483780889574
1060 -4325.601112126293
1061 -4325.721385555546
1062 -4325.838342465689
1063 -4325.96857790995
1064 -4326.08508247332
1065 -4326.203969746504
1066 -4326.316162465503
1067 -4326.433484457219
1068 -4326.545992510083
1069 -4326.665418238175
1070 -4326.771019445221
1071 -4326.892567644501
1072 -4327.009507102498
1073 -4327.128258868822
1074 -4327.250884072875
1075 -4327.373861444058
1076 -4327.491872120282
1077 -4327.610248554481
1078 -4327.726935556686
1079 -4327.842040013223
1080 -4327.960472161487
1081 -4328.063277747636
1082 -4328.181427494847
1083 -4328.280678039932
1084 -4328.408656679037
1085 -4328.505861406002
1086 -4328.63775067099
1087 -4328.740188199954
1088 -4328.863891915505
1089 -4328.965545609497
1090 -4329.085448826871
1091 -4329.185419945636
1092 -4329.301855747908
1093 -4329.400437300711
1094 -4329.516409602174
1095 -4329.621946178007
1096 -4329.739755238123
1097 -4329.835856057757
1098 -4329.948519417078
1099 -4330.048273900135
1100 -4330.15377410511
1101 -4330.251171237495
1102 -4330.358124848106
1103 -4330.459524685471
1104 -4330.562746011531
1105 -4330.662957597411
1106 -4330.764843999719
1107 -4330.86339103811
1108 -4330.971435769613
1109 -4331.068287080736
1110 -4331.173830505799
1111 -4331.272095331251
1112 -4331.374463705622
1113 -4331.469930634295
1114 -4331.573014295152
1115 -4331.661344015642
1116 -4331.767951931295
1117 -4331.852161406511
1118 -4331.958157412119
1119 -4332.036101737082
1120 -4332.138359675035
1121 -4332.221395091268
1122 -4332.326011144435
1123 -4332.409877616907
1124 -4332.511216183539
1125 -4332.602320567627
1126 -4332.6995353067
1127 -4332.789747190121
1128 -4332.892098333085
1129 -4332.984069029445
1130 -4333.077990662756
1131 -4333.164523912904
1132 -4333.249963838854
1133 -4333.342478438258
1134 -4333.428617265454
1135 -4333.521527111843
1136 -4333.610869843127
1137 -4333.705023106012
1138 -4333.792823644032
1139 -4333.884058839241
1140 -4333.974584666652
1141 -4334.064186980157
1142 -4334.157115422509
1143 -4334.244307704091
1144 -4334.338980926504
1145 -4334.426567152314
1146 -4334.525613167304
1147 -4334.608474355317
1148 -4334.704892498835
1149 -4334.778833043659
1150 -4334.875046041092
1151 -4334.939776867045
1152 -4335.043798338908
1153 -4335.109443987855
1154 -4335.205364540006
1155 -4335.272201830868
1156 -4335.371566208267
1157 -4335.440653877059
1158 -4335.53831531073
1159 -4335.613434506903
1160 -4335.706694931742
1161 -4335.78106143069
1162 -4335.872782684437
1163 -4335.954472621774
1164 -4336.041265966763
1165 -4336.122811882126
1166 -4336.200777680828
1167 -4336.276164119193
1168 -4336.351873547094
1169 -4336.427284600887
1170 -4336.501904711585
1171 -4336.580627531242
1172 -4336.659020892962
1173 -4336.736361773173
1174 -4336.814328494779
1175 -4336.893765850798
1176 -4336.971972989915
1177 -4337.045849755642
1178 -4337.119902068898
1179 -4337.19367851594
1180 -4337.267247756348
1181 -4337.327711808536
1182 -4337.402110393956
1183 -4337.46055907021
1184 -4337.540306379159
1185 -4337.601271593557
1186 -4337.685017381018
1187 -4337.750897241015
1188 -4337.836953460779
1189 -4337.900837089009
1190 -4337.982557392334
1191 -4338.042502705572
1192 -4338.124647811734
1193 -4338.182160284625
1194 -4338.263569398591
1195 -4338.327748193023
1196 -4338.411799795415
1197 -4338.474689491889
1198 -4338.555102104515
1199 -4338.613471541464
1200 -4338.685284199853
1201 -4338.746366685054
1202 -4338.815537050477
1203 -4338.874535737577
1204 -4338.943279913658
1205 -4339.00607975419
1206 -4339.070306344604
1207 -4339.134434808347
1208 -4339.198141610064
1209 -4339.264732588135
1210 -4339.331855953299
1211 -4339.396115972022
1212 -4339.463344916353
1213 -4339.532404685989
1214 -4339.601037307501
1215 -4339.661612566005
1216 -4339.728047796183
1217 -4339.780681309975
1218 -4339.85561092104
1219 -4339.906144338194
1220 -4339.97950199599
1221 -4340.019071678478
1222 -4340.09214031495
1223 -4340.140784865278
1224 -4340.216048505072
1225 -4340.268545391416
1226 -4340.336363500336
1227 -4340.384284821958
1228 -4340.452361286807
1229 -4340.50143195233
1230 -4340.571080941085
1231 -4340.619735583752
1232 -4340.675237079012
1233 -4340.723360841225
1234 -4340.777870596276
1235 -4340.827652162342
1236 -4340.880367175737
1237 -4340.933848746281
1238 -4340.978851411564
1239 -4341.028329570109
1240 -4341.075286773962
1241 -4341.123983946749
1242 -4341.170830944723
1243 -4341.223416153956
1244 -4341.275848177977
1245 -4341.327748740737
1246 -4341.379748052944
1247 -4341.437867293413
1248 -4341.495245251576
1249 -4341.5459284946
1250 -4341.604624361625
1251 -4341.647167122574
1252 -4341.708944681967
1253 -4341.749368397281
1254 -4341.812644797988
1255 -4341.860464700815
1256 -4341.922997216273
1257 -4341.964677606096
1258 -4342.022386228289
1259 -4342.062758010075
1260 -4342.127902974781
1261 -4342.163608717496
1262 -4342.225651461581
1263 -4342.262213696191
1264 -4342.325973996866
1265 -4342.362792583405
1266 -4342.424090504836
1267 -4342.471662325506
1268 -4342.531075046947
1269 -4342.572552932108
1270 -4342.631478308101
1271 -4342.672690184309
1272 -4342.727735021416
1273 -4342.7675953408
1274 -4342.817893298319
1275 -4342.853077486735
1276 -4342.905225765428
1277 -4342.952209568733
1278 -4342.999880846434
1279 -4343.046372554612
1280 -4343.092946172101
1281 -4343.138024683551
1282 -4343.183181108083
1283 -4343.227663381922
1284 -4343.274763485811
1285 -4343.326163332939
1286 -4343.371509050336
1287 -4343.413746185365
1288 -4343.464663359922
1289 -4343.506668154992
1290 -4343.556824551943
1291 -4343.594964610083
1292 -4343.639781615409
1293 -4343.673369006762
1294 -4343.719145518141
1295 -4343.74810411994
1296 -4343.796755746243
1297 -4343.831286594826
1298 -4343.878558710577
1299 -4343.912563847117
1300 -4343.961113303455
1301 -4343.994509499225
1302 -4344.038278229428
1303 -4344.06725006335
1304 -4344.108488802267
1305 -4344.133607062841
1306 -4344.17423747644
1307 -4344.204554220168
1308 -4344.244822440099
1309 -4344.283664881717
1310 -4344.31727205618
1311 -4344.354615175468
1312 -4344.39045675629
1313 -4344.428498862484
1314 -4344.466126002542
1315 -4344.504402092127
1316 -4344.538228943312
1317 -4344.578773222323
1318 -4344.617735944076
1319 -4344.652419933919
1320 -4344.689024444225
1321 -4344.725758284148
1322 -4344.758960931335
1323 -4344.791935164012
1324 -4344.825949038544
1325 -4344.855666289289
1326 -4344.895596770345
1327 -4344.922143341115
1328 -4344.963130704543
1329 -4344.984326248278
1330 -4345.017415550189
1331 -4345.041346406187
1332 -4345.078937656958
1333 -4345.102035871178
1334 -4345.138565101699
1335 -4345.156207142328
1336 -4345.189647975969
1337 -4345.209338302923
1338 -4345.248082432947
1339 -4345.267048871167
1340 -4345.302333919302
1341 -4345.319661590621
1342 -4345.345718134947
1343 -4345.373658710108
1344 -4345.404030534974
1345 -4345.433883130404
1346 -4345.466056030142
1347 -4345.489928429848
1348 -4345.524107857243
1349 -4345.548426740153
1350 -4345.581913031678
1351 -4345.600817660984
1352 -4345.632707115693
1353 -4345.648378477676
1354 -4345.677113362051
1355 -4345.69696373867
1356 -4345.736252998776
1357 -4345.754403348003
1358 -4345.787121959194
1359 -4345.803697956651
1360 -4345.836375355486
1361 -4345.848418642313
1362 -4345.880215765652
1363 -4345.895494946689
1364 -4345.925290222139
1365 -4345.946060076487
1366 -4345.980747936718
1367 -4346.001938123671
1368 -4346.037290676017
1369 -4346.057091235281
1370 -4346.083847578246
1371 -4346.099307956355
1372 -4346.130218242817
1373 -4346.136674983642
1374 -4346.165090268795
1375 -4346.174342568214
1376 -4346.207675298301
1377 -4346.21390585196
1378 -4346.246031117903
1379 -4346.259718008767
1380 -4346.293682375108
1381 -4346.309620016995
1382 -4346.344108130561
1383 -4346.360213049909
1384 -4346.394113360627
1385 -4346.404571771222
1386 -4346.436587929791
1387 -4346.44734759201
1388 -4346.471736145396
1389 -4346.48526310287
1390 -4346.510025988059
1391 -4346.521103898657
1392 -4346.544492447142
1393 -4346.554797812193
1394 -4346.573016544878
1395 -4346.587416995274
1396 -4346.610877409532
1397 -4346.620317956053
1398 -4346.64181519148
1399 -4346.659617221946
1400 -4346.679969306392
1401 -4346.699613857534
1402 -4346.714784195698
1403 -4346.733584161629
1404 -4346.745874551253
1405 -4346.759074077343
1406 -4346.768866405692
1407 -4346.781330983784
1408 -4346.794957215103
1409 -4346.803691513246
1410 -4346.818727701171
1411 -4346.827488296851
1412 -4346.844008888937
1413 -4346.853417515044
1414 -4346.866852430276
1415 -4346.874934883343
1416 -4346.891104427826
1417 -4346.894491245922
1418 -4346.909817074221
1419 -4346.90754621143
1420 -4346.928009899585
1421 -4346.924116026294
1422 -4346.951124273662
1423 -4346.939183879678
1424 -4346.967760178686
1425 -4346.959280206345
1426 -4346.98495542578
1427 -4346.97753998361
1428 -4347.002116698475
1429 -4346.996670851941
1430 -4347.016574973218
1431 -4347.016227154507
1432 -4347.038204451357
1433 -4347.031232785716
1434 -4347.055536139387
1435 -4347.054313670151
1436 -4347.070924523331
1437 -4347.071547903091
1438 -4347.076149634865
1439 -4347.076510034532
1440 -4347.079901431284
1441 -4347.082651538931
1442 -4347.090883331687
1443 -4347.093361745118
1444 -4347.105072960865
1445 -4347.116302573906
1446 -4347.129104468665
1447 -4347.137053988543
1448 -4347.148846471648
1449 -4347.154390516376
1450 -4347.162422836172
1451 -4347.161781850923
1452 -4347.168508565852
1453 -4347.164578605268
1454 -4347.171810520631
1455 -4347.163076827335
1456 -4347.172323888583
1457 -4347.165717713801
1458 -4347.17377151216
1459 -4347.173102131803
1460 -4347.180251968447
1461 -4347.172115662723
1462 -4347.179695725695
1463 -4347.169787322174
1464 -4347.176707216971
1465 -4347.162821063273
1466 -4347.167790858231
1467 -4347.154691535339
1468 -4347.161735869982
1469 -4347.15019344447
1470 -4347.155826988663
1471 -4347.148805151199
1472 -4347.151771087904
1473 -4347.139819380511
1474 -4347.144970727315
1475 -4347.131980535123
1476 -4347.137321864435
1477 -4347.129168273261
1478 -4347.128987060781
1479 -4347.119754031343
1480 -4347.127288346593
1481 -4347.11210962348
1482 -4347.121888026265
1483 -4347.113573744979
1484 -4347.119731131013
1485 -4347.113954946459
1486 -4347.119981913997
1487 -4347.113077668174
1488 -4347.131351829256
1489 -4347.126857130771
1490 -4347.143288431049
1491 -4347.136435503417
1492 -4347.15328948879
1493 -4347.144274766522
1494 -4347.155218753916
1495 -4347.147105115488
1496 -4347.14972229817
1497 -4347.142724366866
1498 -4347.15433001468
1499 -4347.143489530788
1500 -4347.157240841757
1501 -4347.145851249667
1502 -4347.158348510811
1503 -4347.152016516587
1504 -4347.157281500104
1505 -4347.150842936061
1506 -4347.153732138204
1507 -4347.151280377033
1508 -4347.157153455295
1509 -4347.147813767274
1510 -4347.145973913125
1511 -4347.138055144091
1512 -4347.142173550821
1513 -4347.135335779845
1514 -4347.13661074215
1515 -4347.13229596025
1516 -4347.13635108039
1517 -4347.132095488981
1518 -4347.132344088345
1519 -4347.126897871131
1520 -4347.128986864132
1521 -4347.120909040822
1522 -4347.115378144133
1523 -4347.108505169069
1524 -4347.10939929804
1525 -4347.099868601673
1526 -4347.10185393861
1527 -4347.085646889274
1528 -4347.08738111896
1529 -4347.069981949412
1530 -4347.071142351459
1531 -4347.060245309771
1532 -4347.065202897164
1533 -4347.050454264133
1534 -4347.056511325874
1535 -4347.044186604101
1536 -4347.048613561169
1537 -4347.042275378314
1538 -4347.040036042595
1539 -4347.033262545704
1540 -4347.030285454342
1541 -4347.018176117011
1542 -4347.017263486947
1543 -4347.00647057228
1544 -4347.004313828985
1545 -4346.990795352837
1546 -4346.989843995973
1547 -4346.980610787974
1548 -4346.975441574721
1549 -4346.964857059445
1550 -4346.963811654206
1551 -4346.944591792002
1552 -4346.94368326258
1553 -4346.926456346038
1554 -4346.924131543036
1555 -4346.906263695227
1556 -4346.902026355997
1557 -4346.886933873288
1558 -4346.876471153727
1559 -4346.858069636905
1560 -4346.854435943143
1561 -4346.839075453344
1562 -4346.824666278174
1563 -4346.810597124718
1564 -4346.799000174893
1565 -4346.782873530758
1566 -4346.767457691811
1567 -4346.759049560048
1568 -4346.742361600677
1569 -4346.734113963594
1570 -4346.722578667973
1571 -4346.711268414737
1572 -4346.701085174203
1573 -4346.690609169996
1574 -4346.677079879758
1575 -4346.661289316017
1576 -4346.648266016476
1577 -4346.62786382573
1578 -4346.621501342038
1579 -4346.606458499215
1580 -4346.60097196164
1581 -4346.581908633367
1582 -4346.579437826276
1583 -4346.557176582969
1584 -4346.558099839311
1585 -4346.540900072243
1586 -4346.53564086887
1587 -4346.520287942739
1588 -4346.518728688587
1589 -4346.503070876134
1590 -4346.499797031295
1591 -4346.495389135885
1592 -4346.48648123464
1593 -4346.477373141143
1594 -4346.45671491642
1595 -4346.446984001008
1596 -4346.432472602144
1597 -4346.42291271881
1598 -4346.404307367832
1599 -4346.39630230619
1600 -4346.382709064657
1601 -4346.370796342318
1602 -4346.362642938678
1603 -4346.349549168239
1604 -4346.337847583657
1605 -4346.322277344576
1606 -4346.309280241628
1607 -4346.293707942314
1608 -4346.288739862453
1609 -4346.274263592586
1610 -4346.268541005534
1611 -4346.246612242704
1612 -4346.240449154501
1613 -4346.225288327772
1614 -4346.21319515268
1615 -4346.199998396366
1616 -4346.191799721979
1617 -4346.174825679414
1618 -4346.171575201429
1619 -4346.160083860527
1620 -4346.15396666076
1621 -4346.148383938297
1622 -4346.143430457706
1623 -4346.13443093604
1624 -4346.131032310037
1625 -4346.122486093405
1626 -4346.117217813457
1627 -4346.101156830229
1628 -4346.095336831744
1629 -4346.077982437599
1630 -4346.071847148829
1631 -4346.052618431274
1632 -4346.05208152686
1633 -4346.039312529144
1634 -4346.028234482987
1635 -4346.011727666196
1636 -4346.007232101143
1637 -4345.988676787128
1638 -4345.983216131829
1639 -4345.967241088299
1640 -4345.955108200046
1641 -4345.947546175456
1642 -4345.937210049513
1643 -4345.917660747675
1644 -4345.912032856405
1645 -4345.892624053324
1646 -4345.884756402274
1647 -4345.862917424814
1648 -4345.849306700322
1649 -4345.828385474543
1650 -4345.821375587871
1651 -4345.810388433622
1652 -4345.799008009256
1653 -4345.78711983462
1654 -4345.778788362352
1655 -4345.769109315188
1656 -4345.766723943952
1657 -4345.752103232025
1658 -4345.744891895851
1659 -4345.723890514585
1660 -4345.715289200701
1661 -4345.695874865847
1662 -4345.693275844845
1663 -4345.677807502801
1664 -4345.674469919589
1665 -4345.661304060964
1666 -4345.651774164961
1667 -4345.641507602647
1668 -4345.63511056887
1669 -4345.620273822889
1670 -4345.61127862814
1671 -4345.597335807533
1672 -4345.579606996687
1673 -4345.566749196795
1674 -4345.551401504379
1675 -4345.54422050837
1676 -4345.528968433971
1677 -4345.514248536993
1678 -4345.506563284936
1679 -4345.486523827197
1680 -4345.471530004639
1681 -4345.44882312931
1682 -4345.440687913455
1683 -4345.415736350568
1684 -4345.415542881869
1685 -4345.386264380027
1686 -4345.388309158516
1687 -4345.358303361629
1688 -4345.359067899968
1689 -4345.328368715966
1690 -4345.329092620274
1691 -4345.299565505447
1692 -4345.297781474964
1693 -4345.271964540906
1694 -4345.268349176261
1695 -4345.235600100819
1696 -4345.235235031822
1697 -4345.205457263178
1698 -4345.20191254387
1699 -4345.176616154243
1700 -4345.167612743091
1701 -4345.151704322155
1702 -4345.139383063088
1703 -4345.126020845553
1704 -4345.117814952338
1705 -4345.110154636434
1706 -4345.089871392737
1707 -4345.079287318973
1708 -4345.06140167058
1709 -4345.045190190065
1710 -4345.026595839298
1711 -4345.016059387817
1712 -4345.004595724411
1713 -4344.996099902676
1714 -4344.983597243481
1715 -4344.968443313608
1716 -4344.960588914102
1717 -4344.948295003313
1718 -4344.935153573181
1719 -4344.915134296904
1720 -4344.912234959484
1721 -4344.895870459987
1722 -4344.898182379598
1723 -4344.88033254837
1724 -4344.88132052264
1725 -4344.857161213581
1726 -4344.845118507349
1727 -4344.817714177984
1728 -4344.810116006643
1729 -4344.786502229568
1730 -4344.77564199142
1731 -4344.752223877387
1732 -4344.749517162577
1733 -4344.731970443071
1734 -4344.724578334138
1735 -4344.712930207375
1736 -4344.700036019165
1737 -4344.68585739204
1738 -4344.6653859115
1739 -4344.646739909181
1740 -4344.630875808005
1741 -4344.619881535
1742 -4344.60259529922
1743 -4344.588243854459
1744 -4344.571107447335
1745 -4344.558339828531
1746 -4344.542635283107
1747 -4344.525777153766
1748 -4344.507279244988
1749 -4344.485828818118
1750 -4344.465569777502
1751 -4344.440759195716
1752 -4344.430940260659
1753 -4344.405359240943
1754 -4344.392444451871
1755 -4344.367455217017
1756 -4344.364419797094
1757 -4344.335529066871
1758 -4344.335937777755
1759 -4344.303019510799
1760 -4344.304885394071
1761 -4344.268387099843
1762 -4344.263345583196
1763 -4344.232609197447
1764 -4344.229537509675
1765 -4344.205239788116
1766 -4344.19725252537
1767 -4344.174868190722
1768 -4344.166033844795
1769 -4344.145633739607
1770 -4344.131219082504
1771 -4344.112263127466
1772 -4344.096745864288
1773 -4344.081149819024
1774 -4344.062227540867
1775 -4344.049361558601
1776 -4344.028020940743
1777 -4344.022225413096
1778 -4343.99897637996
1779 -4343.99034280838
1780 -4343.967905882813
1781 -4343.960889881425
1782 -4343.937207303244
1783 -4343.938942198626
1784 -4343.91524146904
1785 -4343.914426378596
1786 -4343.891411387904
1787 -4343.886008467087
1788 -4343.86725168555
1789 -4343.865302394082
1790 -4343.849863055311
1791 -4343.842330015721
1792 -4343.827537892941
1793 -4343.812417572507
1794 -4343.798597477656
1795 -4343.78551433779
1796 -4343.774674777345
1797 -4343.757777625545
1798 -4343.747213798002
1799 -4343.719749389507
1800 -4343.718404232412
1801 -4343.695896729017
1802 -4343.689921194351
1803 -4343.672453735117
1804 -4343.673916553123
1805 -4343.65577630985
1806 -4343.656583636245
1807 -4343.645796451186
1808 -4343.645244928544
1809 -4343.631472869666
1810 -4343.624330853014
1811 -4343.608995052599
1812 -4343.605275272805
1813 -4343.595351128457
1814 -4343.581305197403
1815 -4343.577418896181
1816 -4343.567128077017
1817 -4343.563783657201
1818 -4343.557289222814
1819 -4343.558193306155
1820 -4343.550929428442
1821 -4343.549758939032
1822 -4343.542151495703
1823 -4343.539277602504
1824 -4343.535392910155
1825 -4343.528725440432
1826 -4343.527506224164
1827 -4343.513706529684
1828 -4343.511247155466
1829 -4343.500275458468
1830 -4343.501082900367
1831 -4343.48492302162
1832 -4343.482605894652
1833 -4343.461171898947
1834 -4343.454589380871
1835 -4343.434034161433
1836 -4343.432796723126
1837 -4343.413859001356
1838 -4343.41488644947
1839 -4343.393955718218
1840 -4343.390755293382
1841 -4343.372216843833
1842 -4343.365793258014
1843 -4343.354160379687
1844 -4343.3477235108
1845 -4343.336023495664
1846 -4343.327490000645
1847 -4343.314464008161
1848 -4343.298179099684
1849 -4343.29268922014
1850 -4343.270354020491
1851 -4343.260598569637
1852 -4343.244965801535
1853 -4343.234244174726
1854 -4343.220538876486
1855 -4343.211844040309
1856 -4343.192558184689
1857 -4343.182364707603
1858 -4343.164368066025
1859 -4343.148417939605
1860 -4343.130172569778
1861 -4343.11383294116
1862 -4343.094579914265
1863 -4343.075086598723
1864 -4343.064953606704
1865 -4343.038186403109
1866 -4343.030363790153
1867 -4343.011646489014
1868 -4343.00623160521
1869 -4342.984942361958
1870 -4342.977144968904
1871 -4342.95368355166
1872 -4342.948072712406
1873 -4342.930810857478
1874 -4342.922551430407
1875 -4342.902996589787
1876 -4342.900114356241
1877 -4342.885865917197
1878 -4342.88225950977
1879 -4342.881197563327
1880 -4342.871190442911
1881 -4342.862487919354
1882 -4342.849375835914
1883 -4342.835651430084
1884 -4342.826693256742
1885 -4342.815477159441
1886 -4342.806706014397
1887 -4342.800461822188
1888 -4342.792502563791
1889 -4342.787759681259
1890 -4342.779920706726
1891 -4342.775487371668
1892 -4342.769019569146
1893 -4342.765951216547
1894 -4342.75556612832
1895 -4342.754548910848
1896 -4342.74878739724
1897 -4342.743472473961
1898 -4342.736308116822
1899 -4342.729124885929
1900 -4342.720346537264
1901 -4342.712306673086
1902 -4342.70465918413
1903 -4342.700378414842
1904 -4342.697810663128
1905 -4342.695366841982
1906 -4342.689547391184
1907 -4342.690516513187
1908 -4342.691698669849
1909 -4342.693550296634
1910 -4342.687572807222
1911 -4342.683768013114
1912 -4342.683471459158
1913 -4342.674491498481
1914 -4342.678451629088
1915 -4342.671066661136
1916 -4342.672924624925
1917 -4342.664810348107
1918 -4342.669495565613
1919 -4342.659896124959
1920 -4342.656380562526
1921 -4342.651218101742
1922 -4342.647148951019
1923 -4342.64129305438
1924 -4342.637713414301
1925 -4342.635282083151
1926 -4342.631399345257
1927 -4342.629159872175
1928 -4342.624994049161
1929 -4342.61625263742
1930 -4342.613988451857
1931 -4342.60341058889
1932 -4342.601359424756
1933 -4342.588176636486
1934 -4342.582704184189
1935 -4342.572504076836
1936 -4342.568746064531
1937 -4342.56236260779
1938 -4342.558997312542
1939 -4342.557131333454
1940 -4342.557966070773
1941 -4342.551676389665
1942 -4342.548398183882
1943 -4342.543142948616
1944 -4342.541704690501
1945 -4342.534769211366
1946 -4342.525835627997
1947 -4342.511323373152
1948 -4342.505623471369
1949 -4342.489472494589
1950 -4342.486015405347
1951 -4342.470542356639
1952 -4342.464269457784
1953 -4342.454704525827
1954 -4342.442770799036
1955 -4342.435638583234
1956 -4342.422351385945
1957 -4342.411852878806
1958 -4342.399545781383
1959 -4342.388139258058
1960 -4342.382199002493
1961 -4342.368075444008
1962 -4342.368033284476
1963 -4342.360802213943
1964 -4342.35971481617
1965 -4342.349931159467
1966 -4342.352757173617
1967 -4342.345578286658
1968 -4342.351254633654
1969 -4342.343041615799
1970 -4342.345790190461
1971 -4342.333133366285
1972 -4342.336509686387
1973 -4342.327206585678
1974 -4342.335314768052
1975 -4342.331499775945
1976 -4342.336310225188
1977 -4342.32885691704
1978 -4342.333236403972
1979 -4342.326217501285
1980 -4342.332018824214
1981 -4342.328180730259
1982 -4342.332405998445
1983 -4342.325027449683
1984 -4342.328960135167
1985 -4342.323059655033
1986 -4342.327089196753
1987 -4342.32550168846
1988 -4342.330549076093
1989 -4342.327937504699
1990 -4342.329344462692
1991 -4342.32376607386
1992 -4342.32437286463
1993 -4342.324156694293
1994 -4342.324150473657
1995 -4342.317833913063
1996 -4342.315242598111
1997 -4342.305296980221
1998 -4342.299313248774
1999 -4342.288828986704
2000 -4342.278252727187
2001 -4342.267630508853
2002 -4342.259427424948
2003 -4342.248169301166
2004 -4342.237491790972
2005 -4342.234224669103
2006 -4342.223798931598
2007 -4342.216026254539
2008 -4342.205103413386
2009 -4342.195282702479
2010 -4342.181783974283
2011 -4342.173864195072
2012 -4342.160160409597
2013 -4342.144705760236
2014 -4342.133374872782
2015 -4342.1122172264
2016 -4342.104744540088
2017 -4342.08829241587
2018 -4342.078941129385
2019 -4342.058873671093
2020 -4342.053626938849
2021 -4342.035685803671
2022 -4342.027472753091
2023 -4342.013388210242
2024 -4342.00526815802
2025 -4341.990917268135
2026 -4341.980210728726
2027 -4341.964712849851
2028 -4341.96272293023
2029 -4341.944025118727
2030 -4341.940430715221
2031 -4341.921522317916
2032 -4341.92154014031
2033 -4341.894792258914
2034 -4341.90201379371
2035 -4341.876172901934
2036 -4341.87829036988
2037 -4341.864975358018
2038 -4341.867347733289
2039 -4341.857472598494
2040 -4341.863002861083
2041 -4341.859275945605
2042 -4341.855993003759
2043 -4341.854785047216
2044 -4341.849935717789
2045 -4341.845270005359
2046 -4341.837949754709
2047 -4341.83408895623
2048 -4341.823958044723
2049 -4341.821317046045
2050 -4341.809373959873
2051 -4341.800162808519
2052 -4341.797479692016
2053 -4341.790094332383
2054 -4341.784377489101
2055 -4341.774111932466
2056 -4341.7683505918
2057 -4341.755659438676
2058 -4341.754558756095
2059 -4341.742337653995
2060 -4341.745566368999
2061 -4341.729443148926
2062 -4341.730448238883
2063 -4341.713227847942
2064 -4341.7197375595
2065 -4341.707853969696
2066 -4341.707072226331
2067 -4341.68421173027
2068 -4341.683605440812
2069 -4341.664580773773
2070 -4341.660223149948
2071 -4341.641411717438
2072 -4341.639916413626
2073 -4341.622701119919
2074 -4341.613456120937
2075 -4341.605718574021
2076 -4341.598946253032
2077 -4341.597900930534
2078 -4341.590333342274
2079 -4341.57932386547
2080 -4341.571360828828
2081 -4341.554584262157
2082 -4341.547130668046
2083 -4341.53225725552
2084 -4341.518278786205
2085 -4341.502381154136
2086 -4341.49541701926
2087 -4341.482999531891
2088 -4341.48037748251
2089 -4341.465660883432
2090 -4341.461220214359
2091 -4341.435323434084
2092 -4341.433701121426
2093 -4341.404305007632
2094 -4341.400636870218
2095 -4341.379976565669
2096 -4341.372277250171
2097 -4341.352932297665
2098 -4341.346311089309
2099 -4341.32823453614
2100 -4341.324185353177
2101 -4341.301582555327
2102 -4341.293362282707
2103 -4341.266332111051
2104 -4341.260695816151
2105 -4341.241382287435
2106 -4341.234051452038
2107 -4341.225896536464
2108 -4341.220513972637
2109 -4341.216765456771
2110 -4341.217295503313
2111 -4341.212964106144
2112 -4341.210989209463
2113 -4341.207697118152
2114 -4341.198331481917
2115 -4341.19634233946
2116 -4341.195417136424
2117 -4341.195148621478
2118 -4341.196935530664
2119 -4341.199502063751
2120 -4341.204289793686
2121 -4341.210691728919
2122 -4341.207412185244
2123 -4341.214361601837
2124 -4341.221352856918
2125 -4341.226901220452
2126 -4341.235172032187
2127 -4341.239577539393
2128 -4341.26243398632
2129 -4341.268641451185
2130 -4341.288650106536
2131 -4341.289289398807
2132 -4341.306098425017
2133 -4341.310320405477
2134 -4341.32333078097
2135 -4341.328730600902
2136 -4341.349391798872
2137 -4341.346387285874
2138 -4341.371253214055
2139 -4341.36939615406
2140 -4341.389346892157
2141 -4341.386542479038
2142 -4341.404290744609
2143 -4341.405157254329
2144 -4341.427853789286
2145 -4341.426738829804
2146 -4341.442218546188
2147 -4341.441293179965
2148 -4341.458336539555
2149 -4341.462653910289
2150 -4341.467228971082
2151 -4341.468014451612
2152 -4341.464692142015
2153 -4341.47025733029
2154 -4341.468170921013
2155 -4341.47127687488
2156 -4341.468649557993
2157 -4341.469122103936
2158 -4341.462400013897
2159 -4341.46551030915
2160 -4341.459483010732
2161 -4341.464957341898
2162 -4341.458231039677
2163 -4341.455147869417
2164 -4341.451290111834
2165 -4341.446797021602
2166 -4341.445595463541
2167 -4341.440969465701
2168 -4341.432023430252
2169 -4341.420204767282
2170 -4341.414742752659
2171 -4341.397376204094
2172 -4341.394532888407
2173 -4341.376081275262
2174 -4341.373428822232
2175 -4341.354355604958
2176 -4341.350180309929
2177 -4341.329416029639
2178 -4341.319282378938
2179 -4341.302299264828
2180 -4341.288925731299
2181 -4341.276464612537
2182 -4341.264399630985
2183 -4341.250415752674
2184 -4341.244493196364
2185 -4341.228126663724
2186 -4341.220843885323
2187 -4341.204695033267
2188 -4341.202735328155
2189 -4341.185129515758
2190 -4341.180829933291
2191 -4341.166007759084
2192 -4341.163211010914
2193 -4341.145409888883
2194 -4341.137557320907
2195 -4341.116416108243
2196 -4341.107012349771
2197 -4341.095456155068
2198 -4341.084218569951
2199 -4341.06959938981
2200 -4341.065144868116
2201 -4341.050763974713
2202 -4341.043788372152
2203 -4341.021770182068
2204 -4341.010143760346
2205 -4340.982511329213
2206 -4340.963541986047
2207 -4340.935931114073
2208 -4340.921090547117
2209 -4340.89965515219
2210 -4340.877969317877
2211 -4340.855738868353
2212 -4340.842513317652
2213 -4340.813874751473
2214 -4340.799083466582
2215 -4340.76768188391
2216 -4340.745442934536
2217 -4340.721883156736
2218 -4340.692378634447
2219 -4340.661238305545
2220 -4340.638910324622
2221 -4340.604862189428
2222 -4340.579145495311
2223 -4340.544872766456
2224 -4340.523171115351
2225 -4340.494570172454
2226 -4340.474843021093
2227 -4340.448517526834
2228 -4340.419823723438
2229 -4340.393769632501
2230 -4340.365859637942
2231 -4340.332062074157
2232 -4340.306659342727
2233 -4340.272828358927
2234 -4340.249726349022
2235 -4340.219211797746
2236 -4340.200702149656
2237 -4340.177618590344
2238 -4340.167077630622
2239 -4340.144080376243
2240 -4340.132193599245
2241 -4340.110731774274
2242 -4340.097831141385
2243 -4340.070518748366
2244 -4340.061241264433
2245 -4340.044413272309
2246 -4340.039506126477
2247 -4340.025176543789
2248 -4340.021346447216
2249 -4340.008846149183
2250 -4340.002004408537
2251 -4339.994342667211
2252 -4339.986805740249
2253 -4339.969472759177
2254 -4339.965619648031
2255 -4339.948491813924
2256 -4339.942049720331
2257 -4339.928818479299
2258 -4339.926239010975
2259 -4339.910947344285
2260 -4339.913280438485
2261 -4339.898765641165
2262 -4339.903249851179
2263 -4339.894811294874
2264 -4339.899764014096
2265 -4339.882593378853
2266 -4339.8842396032
2267 -4339.872286568744
2268 -4339.880326947256
2269 -4339.872301710621
2270 -4339.871862885116
2271 -4339.862485987801
2272 -4339.864030845196
2273 -4339.850678103277
2274 -4339.848892615793
2275 -4339.840281763964
2276 -4339.833735313141
2277 -4339.824423407237
2278 -4339.816438716239
2279 -4339.802548974111
2280 -4339.800295454598
2281 -4339.795877482169
2282 -4339.782475715349
2283 -4339.776278632336
2284 -4339.768099799464
2285 -4339.762640474381
2286 -4339.751911497212
2287 -4339.738537362399
2288 -4339.725961228984
2289 -4339.711377530572
2290 -4339.703613808971
2291 -4339.688526483646
2292 -4339.683673207104
2293 -4339.665843835683
2294 -4339.658544347832
2295 -4339.633958914509
2296 -4339.629879681419
2297 -4339.598906187936
2298 -4339.598348633207
2299 -4339.565035012286
2300 -4339.564215503788
2301 -4339.518605327572
2302 -4339.513185480676
2303 -4339.473036866493
2304 -4339.465275137362
2305 -4339.422414486748
2306 -4339.403576927603
2307 -4339.35656687256
2308 -4339.335090154049
2309 -4339.29253075092
2310 -4339.270795065231
2311 -4339.22801180698
2312 -4339.204688174632
2313 -4339.164614531554
2314 -4339.135210372675
2315 -4339.092096227551
2316 -4339.052463181447
2317 -4339.003346399511
2318 -4338.960271398467
2319 -4338.903260348958
2320 -4338.854554818643
2321 -4338.792695100451
2322 -4338.741842078309
2323 -4338.681436296342
2324 -4338.626016943754
2325 -4338.563253845074
2326 -4338.504450734017
2327 -4338.441089716675
2328 -4338.385099320478
2329 -4338.31589035203
2330 -4338.255023225041
2331 -4338.180574930705
2332 -4338.123631175727
2333 -4338.047102579956
2334 -4337.991353440885
2335 -4337.911471334633
2336 -4337.847330827562
2337 -4337.766467122728
2338 -4337.711298699772
2339 -4337.633275350247
2340 -4337.589590208951
2341 -4337.519349223155
2342 -4337.47306866612
2343 -4337.396827759713
2344 -4337.360202060599
2345 -4337.289852023034
2346 -4337.256933392015
2347 -4337.203209341552
2348 -4337.173804918833
2349 -4337.129447240551
2350 -4337.10652634791
2351 -4337.067681193274
2352 -4337.047888509046
2353 -4337.016708111744
2354 -4336.991492574619
2355 -4336.966369910822
2356 -4336.960224844802
2357 -4336.947960071878
2358 -4336.952807791797
2359 -4336.962282098835
2360 -4336.972992755586
2361 -4336.979575995039
2362 -4336.998195550224
2363 -4337.004908150571
2364 -4337.031395210833
2365 -4337.049740131468
2366 -4337.074699714372
2367 -4337.087569611033
2368 -4337.129612944766
2369 -4337.149181491568
2370 -4337.198590317998
2371 -4337.224128749689
2372 -4337.276020766325
2373 -4337.302416599053
2374 -4337.347662856024
2375 -4337.37078456421
2376 -4337.414052180628
2377 -4337.444455752863
2378 -4337.485897853973
2379 -4337.515280257908
2380 -4337.559124780004
2381 -4337.591271745501
2382 -4337.631970015675
2383 -4337.659588157324
2384 -4337.690915449956
2385 -4337.709608359176
2386 -4337.730116785123
2387 -4337.75163662605
2388 -4337.769687650887
2389 -4337.783274445438
2390 -4337.79079466319
2391 -4337.792712907197
2392 -4337.792653608404
2393 -4337.785471516508
2394 -4337.779003796545
2395 -4337.76646642696
2396 -4337.75778875567
2397 -4337.74045883609
2398 -4337.72467113171
2399 -4337.696210190643
2400 -4337.67511098477
2401 -4337.630598729852
2402 -4337.604204402647
2403 -4337.550066649885
2404 -4337.519283604412
2405 -4337.459086535398
2406 -4337.427034931719
2407 -4337.373029099616
2408 -4337.34154310528
2409 -4337.276578557979
2410 -4337.237212665353
2411 -4337.17362104418
2412 -4337.133327671847
2413 -4337.066448280573
2414 -4337.02853290335
2415 -4336.970108612995
2416 -4336.935326506014
2417 -4336.882002681406
2418 -4336.848013711673
2419 -4336.797074766371
2420 -4336.752374392168
2421 -4336.699382516055
2422 -4336.659897711861
2423 -4336.606661133434
2424 -4336.575600508803
2425 -4336.535794560391
2426 -4336.50569065422
2427 -4336.455405415953
2428 -4336.427002342592
2429 -4336.385792157176
2430 -4336.358215642813
2431 -4336.329003495322
2432 -4336.305286010965
2433 -4336.282081918243
2434 -4336.258358869735
2435 -4336.230805316399
2436 -4336.207774939608
2437 -4336.172823358413
2438 -4336.157147452122
2439 -4336.123533166615
2440 -4336.120575589903
2441 -4336.09010202165
2442 -4336.085170693399
2443 -4336.064496824621
2444 -4336.064341161606
2445 -4336.044221059035
2446 -4336.038041562095
2447 -4336.013603723277
2448 -4336.009771000266
2449 -4335.990051898465
2450 -4335.985485279666
2451 -4335.974174114459
2452 -4335.977625407382
2453 -4335.982927898052
2454 -4336.000892992681
2455 -4336.020372485947
2456 -4336.046390983578
2457 -4336.0662132686
2458 -4336.101607892654
2459 -4336.128677899669
2460 -4336.173284934322
2461 -4336.217676455831
2462 -4336.275204940608
2463 -4336.334442950061
2464 -4336.40244810464
2465 -4336.474818888323
2466 -4336.556141709365
2467 -4336.629480278635
2468 -4336.724071452509
2469 -4336.807796538419
2470 -4336.913537052013
2471 -4337.014213178328
2472 -4337.122936413251
2473 -4337.234125561224
2474 -4337.362456184081
2475 -4337.474367976177
2476 -4337.616887940328
2477 -4337.723921865175
2478 -4337.861321466502
2479 -4337.968475054945
2480 -4338.108633286241
2481 -4338.214083717665
2482 -4338.360765880051
2483 -4338.471513892167
2484 -4338.604759032751
2485 -4338.709583827182
2486 -4338.823617000022
2487 -4338.919949249577
2488 -4339.031610151494
2489 -4339.114185964425
2490 -4339.221678960806
2491 -4339.300563360681
2492 -4339.388387286956
2493 -4339.457530052838
2494 -4339.538063339412
2495 -4339.590155887161
2496 -4339.650542471536
2497 -4339.698189135362
2498 -4339.74232924411
2499 -4339.766440494817
2500 -4339.802465877727
2501 -4339.817040344806
2502 -4339.83904175587
2503 -4339.842183545715
2504 -4339.840725088617
2505 -4339.824180427252
2506 -4339.814824663621
2507 -4339.781964769893
2508 -4339.757553205405
2509 -4339.720174234576
2510 -4339.68495909686
2511 -4339.619864624497
2512 -4339.571543898501
2513 -4339.491063356669
2514 -4339.430062334819
2515 -4339.338633402778
2516 -4339.257703745792
2517 -4339.147617515796
2518 -4339.063167844073
2519 -4338.940926449539
2520 -4338.853170229215
2521 -4338.739299266035
2522 -4338.635718389473
2523 -4338.493620208493
2524 -4338.392869447352
2525 -4338.234899413573
2526 -4338.121772021125
2527 -4337.960634083664
2528 -4337.822813333775
2529 -4337.641070362987
2530 -4337.481769441609
2531 -4337.298421276055
2532 -4337.137378082346
2533 -4336.943416284756
2534 -4336.771420403355
2535 -4336.576745977109
2536 -4336.388577622169
2537 -4336.191456892762
2538 -4335.999877419627
2539 -4335.80190306043
2540 -4335.610450789386
2541 -4335.402548605862
2542 -4335.2089489687
2543 -4334.989557381547
2544 -4334.805068979254
2545 -4334.589594165544
2546 -4334.388309383254
2547 -4334.183134783334
2548 -4333.987167734733
2549 -4333.786154203403
2550 -4333.59610654857
2551 -4333.403095520183
2552 -4333.223661984129
2553 -4333.041916189285
2554 -4332.871235448739
2555 -4332.69056345297
2556 -4332.540543215528
2557 -4332.38875305815
2558 -4332.258581519543
2559 -4332.125564584273
2560 -4332.022844867446
2561 -4331.913710522969
2562 -4331.833627066905
2563 -4331.745417013778
2564 -4331.703590481276
2565 -4331.649404364494
2566 -4331.635008630702
2567 -4331.602985319787
2568 -4331.622918947142
2569 -4331.617839137425
2570 -4331.666428378315
2571 -4331.68417258632
2572 -4331.750524446282
2573 -4331.798563036295
2574 -4331.875590653682
2575 -4331.935027618122
2576 -4332.037797820605
2577 -4332.112508955674
2578 -4332.223403402843
2579 -4332.330592604943
2580 -4332.4592437051
2581 -4332.573104022733
2582 -4332.713786826521
2583 -4332.829068858416
2584 -4332.955407134471
2585 -4333.074188670658
2586 -4333.192521443696
2587 -4333.295571618251
2588 -4333.401412629672
2589 -4333.480554422749
2590 -4333.568112709974
2591 -4333.632298081248
2592 -4333.707656259745
2593 -4333.752419439999
2594 -4333.797539532257
2595 -4333.799063064047
2596 -4333.818683662684
2597 -4333.799223859754
2598 -4333.803307329269
2599 -4333.750595041375
2600 -4333.721715189571
2601 -4333.642643209753
2602 -4333.589605788627
2603 -4333.482528496197
2604 -4333.401915572652
2605 -4333.274305574594
2606 -4333.156687870829
2607 -4332.999120848204
2608 -4332.866125498143
2609 -4332.684380483528
2610 -4332.51268410349
2611 -4332.320728051242
2612 -4332.123366403091
2613 -4331.91643157322
2614 -4331.718211882949
2615 -4331.509666291099
2616 -4331.310017327984
2617 -4331.115408316758
2618 -4330.916293956496
2619 -4330.73255682805
2620 -4330.540932542887
2621 -4330.360699916736
2622 -4330.187925496373
2623 -4330.019416532136
2624 -4329.866937497666
2625 -4329.727659044792
2626 -4329.608853677489
2627 -4329.476604927559
2628 -4329.380498943333
2629 -4329.271688898226
2630 -4329.194373868373
2631 -4329.103445143696
2632 -4329.067304947727
2633 -4329.011879693061
2634 -4329.007094365378
2635 -4328.968279863554
2636 -4328.991024084415
2637 -4328.978531956337
2638 -4329.020292846374
2639 -4329.036886770888
2640 -4329.111260062102
2641 -4329.149081550288
2642 -4329.228332656742
2643 -4329.278282936254
2644 -4329.371345559594
2645 -4329.439293241937
2646 -4329.539282057195
2647 -4329.610096258662
2648 -4329.714158418727
2649 -4329.803441720772
2650 -4329.899904999281
2651 -4329.983328513219
2652 -4330.080702699477
2653 -4330.159325205427
2654 -4330.236592003575
2655 -4330.304991684061
2656 -4330.376539614611
2657 -4330.428335232115
2658 -4330.474873545157
2659 -4330.507538518032
2660 -4330.535952050363
2661 -4330.538413477842
2662 -4330.532837759521
2663 -4330.505615137653
2664 -4330.476107681439
2665 -4330.418219650729
2666 -4330.346742662326
2667 -4330.264335084678
2668 -4330.162770505631
2669 -4330.046159724895
2670 -4329.921111085491
2671 -4329.776317868482
2672 -4329.638032161174
2673 -4329.467425270272
2674 -4329.299219058863
2675 -4329.081818968885
2676 -4328.897977171538
2677 -4328.662669187253
2678 -4328.455161327802
2679 -4328.200017196778
2680 -4327.973785718211
2681 -4327.712353667278
2682 -4327.463132636656
2683 -4327.197435254025
2684 -4326.948188059944
2685 -4326.666475689216
2686 -4326.406476762465
2687 -4326.135786861213
2688 -4325.874945147033
2689 -4325.596330934542
2690 -4325.326950229555
2691 -4325.052085882639
2692 -4324.778446857266
2693 -4324.512650085853
2694 -4324.253973834008
2695 -4324.006393391991
2696 -4323.772314081407
2697 -4323.543020497642
2698 -4323.322993914832
2699 -4323.098477515373
2700 -4322.893125162185
2701 -4322.684815394508
2702 -4322.491719691154
2703 -4322.303737342107
2704 -4322.130438888503
2705 -4321.957598998984
2706 -4321.803248589006
2707 -4321.651204442246
2708 -4321.51691224201
2709 -4321.382364364273
2710 -4321.265260190622
2711 -4321.139219822192
2712 -4321.042831533569
2713 -4320.937227612507
2714 -4320.855521146134
2715 -4320.755986233014
2716 -4320.693529094196
2717 -4320.619727245573
2718 -4320.569503235204
2719 -4320.511260399266
2720 -4320.465616282731
2721 -4320.421909322879
2722 -4320.384109011022
2723 -4320.34735979783
2724 -4320.324599689583
2725 -4320.292471908683
2726 -4320.270873049674
2727 -4320.253034635113
2728 -4320.234547109477
2729 -4320.218588005419
2730 -4320.202778759706
2731 -4320.187890436476
2732 -4320.171905943022
2733 -4320.153920305946
2734 -4320.139476709647
2735 -4320.119225504271
2736 -4320.109775287264
2737 -4320.084208521157
2738 -4320.060353272868
2739 -4320.030326908549
2740 -4320.008803779901
2741 -4319.966754716474
2742 -4319.93921171371
2743 -4319.894695158345
2744 -4319.868985910207
2745 -4319.824052048693
2746 -4319.79486510285
2747 -4319.735920578274
2748 -4319.695574988911
2749 -4319.634114864705
2750 -4319.584097583411
2751 -4319.508318078567
2752 -4319.445286915523
2753 -4319.362048106535
2754 -4319.30207117902
2755 -4319.21917795128
2756 -4319.149253099023
2757 -4319.070514789837
2758 -4318.99019326485
2759 -4318.904707497501
2760 -4318.827791181312
2761 -4318.732032977319
2762 -4318.63247965825
2763 -4318.538683289205
2764 -4318.43298180355
2765 -4318.337665002166
2766 -4318.236652468789
2767 -4318.140798280537
2768 -4318.029956681367
2769 -4317.925652988599
2770 -4317.814050143266
2771 -4317.693392454167
2772 -4317.579171563358
2773 -4317.4684642802
2774 -4317.361127018392
2775 -4317.236142923996
2776 -4317.129871334867
2777 -4317.010054707154
2778 -4316.912979325984
2779 -4316.795500809676
2780 -4316.685973027603
2781 -4316.564792263659
2782 -4316.454897977262
2783 -4316.329559189553
2784 -4316.223404562412
2785 -4316.103738982964
2786 -4315.998518769744
2787 -4315.872552497973
2788 -4315.759929797405
2789 -4315.636475531757
2790 -4315.522875035595
2791 -4315.409086519623
2792 -4315.286435023065
2793 -4315.167589203876
2794 -4315.029703672409
2795 -4314.897528160953
2796 -4314.760451743703
2797 -4314.624631513741
2798 -4314.479757855936
2799 -4314.337909158526
2800 -4314.200297372503
2801 -4314.05544258255
2802 -4313.912797326947
2803 -4313.754642212911
2804 -4313.597830360529
2805 -4313.431564656279
2806 -4313.273897206165
2807 -4313.103917581449
2808 -4312.939413878402
2809 -4312.768513167839
2810 -4312.584758633965
2811 -4312.418352256201
2812 -4312.252671741653
2813 -4312.072156709221
2814 -4311.906494813648
2815 -4311.721772939989
2816 -4311.560191420134
2817 -4311.380729083321
2818 -4311.219312008689
2819 -4311.043757258214
2820 -4310.895816431683
2821 -4310.749447111092
2822 -4310.615556804032
2823 -4310.474914825265
2824 -4310.350290751911
2825 -4310.22400627231
2826 -4310.123544906927
2827 -4310.012827126428
2828 -4309.935538780361
2829 -4309.853456612532
2830 -4309.787985230657
2831 -4309.713046744011
2832 -4309.671749536287
2833 -4309.644157440031
2834 -4309.628213885335
2835 -4309.626501147545
2836 -4309.633402717628
2837 -4309.657318513729
2838 -4309.697169178702
2839 -4309.761091860231
2840 -4309.82217222117
2841 -4309.916291486501
2842 -4310.01620798162
2843 -4310.129520452771
2844 -4310.263830430962
2845 -4310.382641360425
2846 -4310.514756359481
2847 -4310.640574848928
2848 -4310.790825111124
2849 -4310.936507342842
2850 -4311.09434845651
2851 -4311.236918432243
2852 -4311.38811339622
2853 -4311.521168387098
2854 -4311.667795968454
2855 -4311.790503321477
2856 -4311.930227667828
2857 -4312.055527328076
2858 -4312.182147205563
2859 -4312.266878424738
2860 -4312.343192773084
2861 -4312.401362599905
2862 -4312.426579491345
2863 -4312.440080537183
2864 -4312.441978854504
2865 -4312.440849643953
2866 -4312.397408366507
2867 -4312.348352135909
2868 -4312.276466012592
2869 -4312.177075965367
2870 -4312.047939707021
2871 -4311.900149643893
2872 -4311.708059545222
2873 -4311.510600936535
2874 -4311.262606734066
2875 -4311.026484845107
2876 -4310.772269406725
2877 -4310.476425549277
2878 -4310.191412441309
2879 -4309.882588925298
2880 -4309.557270496802
2881 -4309.206997882692
2882 -4308.850458183907
2883 -4308.453298945219
2884 -4308.084188447699
2885 -4307.683848664778
2886 -4307.298135895233
2887 -4306.895777570841
2888 -4306.513451802296
2889 -4306.117206341044
2890 -4305.727631125138
2891 -4305.326334496017
2892 -4304.938173061914
2893 -4304.545418010072
2894 -4304.154947824739
2895 -4303.78022591764
2896 -4303.410380957846
2897 -4303.058910378109
2898 -4302.719162567229
2899 -4302.390014932327
2900 -4302.077489499407
2901 -4301.784396732542
2902 -4301.498736051016
2903 -4301.233789073072
2904 -4300.995479648662
2905 -4300.767249862561
2906 -4300.574985709564
2907 -4300.385295749609
2908 -4300.232406189577
2909 -4300.077832222573
2910 -4299.962395154275
2911 -4299.844532572066
2912 -4299.763086341294
2913 -4299.671711344156
2914 -4299.619116745832
2915 -4299.566240786751
2916 -4299.548156213689
2917 -4299.531907934967
2918 -4299.533945344339
2919 -4299.548410125686
2920 -4299.566584275113
2921 -4299.60877899312
2922 -4299.653451870518
2923 -4299.702681961338
2924 -4299.763416311525
2925 -4299.841593911917
2926 -4299.92105158552
2927 -4300.010494559414
2928 -4300.091677247005
2929 -4300.195006555714
2930 -4300.282461150198
2931 -4300.368792443693
2932 -4300.45822485062
2933 -4300.548078222357
2934 -4300.632348835102
2935 -4300.717495397758
2936 -4300.792579750901
2937 -4300.865808339481
2938 -4300.939382793583
2939 -4301.003321121412
2940 -4301.069833571731
2941 -4301.128186981395
2942 -4301.178383919109
2943 -4301.228620458463
2944 -4301.264375966935
2945 -4301.298574595888
2946 -4301.333035234898
2947 -4301.353440588868
2948 -4301.37477428737
2949 -4301.379921021951
2950 -4301.38674022859
2951 -4301.381362968572
2952 -4301.384885148569
2953 -4301.373267836687
2954 -4301.359970322092
2955 -4301.340600363097
2956 -4301.326533322006
2957 -4301.295136652184
2958 -4301.272895796068
2959 -4301.240049367422
2960 -4301.207897596118
2961 -4301.180613304873
2962 -4301.139317382525
2963 -4301.092549957601
2964 -4301.053230707979
2965 -4301.003461708255
2966 -4300.94612040931
2967 -4300.898112404936
2968 -4300.832074263448
2969 -4300.775642918401
2970 -4300.709995907632
2971 -4300.656807151486
2972 -4300.588857875809
2973 -4300.527858160176
2974 -4300.454659171185
2975 -4300.393252080211
2976 -4300.327460195237
2977 -4300.260352606166
2978 -4300.186197039657
2979 -4300.122377904644
2980 -4300.049892188607
2981 -4299.98049622793
2982 -4299.912153409511
2983 -4299.8382672824
2984 -4299.761689615495
2985 -4299.677701865648
2986 -4299.610542867939
2987 -4299.525159693721
2988 -4299.467330739694
2989 -4299.39640225273
2990 -4299.326677738743
2991 -4299.257104490314
2992 -4299.189508358049
2993 -4299.11312102214
2994 -4299.03496011119
2995 -4298.957547459364
2996 -4298.880608296681
2997 -4298.799668100548
2998 -4298.715716125732
2999 -4298.641108871436
3000 -4298.558347331854
3001 -4298.495596862173
3002 -4298.406504645092
3003 -4298.33618027716
3004 -4298.246953339328
3005 -4298.165043635313
3006 -4298.086786053678
3007 -4298.004485690379
3008 -4297.916903178896
3009 -4297.843007090922
3010 -4297.755877956924
3011 -4297.67808741205
3012 -4297.597525991226
3013 -4297.518310117391
3014 -4297.432498803547
3015 -4297.348556328945
3016 -4297.276797526702
3017 -4297.193700880657
3018 -4297.123579759639
3019 -4297.044623316339
3020 -4296.976825684921
3021 -4296.903622962051
3022 -4296.832770077457
3023 -4296.760327754395
3024 -4296.692897048059
3025 -4296.626459476963
3026 -4296.559231433931
3027 -4296.500270693215
3028 -4296.444277569422
3029 -4296.401125396944
3030 -4296.348612040316
3031 -4296.315960125658
3032 -4296.264232445818
3033 -4296.239303584401
3034 -4296.192163463814
3035 -4296.177353882319
3036 -4296.143291351684
3037 -4296.131198166403
3038 -4296.10242281578
3039 -4296.103565611905
3040 -4296.086490689505
3041 -4296.089643636461
3042 -4296.076518392299
3043 -4296.090630795997
3044 -4296.08450694683
3045 -4296.099008979329
3046 -4296.09955793386
3047 -4296.12123620483
3048 -4296.133429961964
3049 -4296.166933370721
3050 -4296.176540237144
3051 -4296.214340481885
3052 -4296.227387735052
3053 -4296.267749372372
3054 -4296.289038969831
3055 -4296.329659995152
3056 -4296.359547556088
3057 -4296.398288899954
3058 -4296.440303772156
3059 -4296.477135532207
3060 -4296.524093332289
3061 -4296.561721533559
3062 -4296.595456656642
3063 -4296.634792869397
3064 -4296.668785269018
3065 -4296.713869917871
3066 -4296.75542747207
3067 -4296.804952039894
3068 -4296.849537130938
3069 -4296.901270176456
3070 -4296.945416543427
3071 -4296.984878096346
3072 -4297.028919540601
3073 -4297.072691227791
3074 -4297.107382727906
3075 -4297.152570554349
3076 -4297.185040158764
3077 -4297.229014365612
3078 -4297.259228226011
3079 -4297.310350771143
3080 -4297.344512243337
3081 -4297.3840516759
3082 -4297.412078722296
3083 -4297.450615793749
3084 -4297.486252439403
3085 -4297.535227111663
3086 -4297.564193571603
3087 -4297.609014100575
3088 -4297.645991806065
3089 -4297.700784671943
3090 -4297.728472318129
3091 -4297.776713562312
3092 -4297.808878337881
3093 -4297.86083793148
3094 -4297.894489614531
3095 -4297.944421893342
3096 -4297.98426260575
3097 -4298.033055254255
3098 -4298.057995980467
3099 -4298.099289359764
3100 -4298.1244349879
3101 -4298.167870968172
3102 -4298.19240197697
3103 -4298.236994830166
3104 -4298.267252459512
3105 -4298.302407975829
3106 -4298.321123750236
3107 -4298.350496909897
3108 -4298.36975771188
3109 -4298.4030517999
3110 -4298.416610759601
3111 -4298.442370359477
3112 -4298.451825966171
3113 -4298.480937929534
3114 -4298.483818286178
3115 -4298.500074979891
3116 -4298.492438261639
3117 -4298.497725851362
3118 -4298.479099054194
3119 -4298.475630190301
3120 -4298.45415422721
3121 -4298.444906944499
3122 -4298.409448403268
3123 -4298.393033804519
3124 -4298.354665319351
3125 -4298.331136967946
3126 -4298.277720884972
3127 -4298.251861373784
3128 -4298.187770511337
3129 -4298.14869555693
3130 -4298.086253509766
3131 -4298.041997309829
3132 -4297.975603110374
3133 -4297.923400989936
3134 -4297.849645497462
3135 -4297.78837585241
3136 -4297.709364202708
3137 -4297.636928586725
3138 -4297.560496113084
3139 -4297.483558696912
3140 -4297.401625736492
3141 -4297.324219282979
3142 -4297.246586695748
3143 -4297.165673197865
3144 -4297.094687861004
3145 -4297.01925095126
3146 -4296.939800604494
3147 -4296.86811033467
3148 -4296.795187860218
3149 -4296.726776593835
3150 -4296.654100906995
3151 -4296.593966004017
3152 -4296.523410714707
3153 -4296.472599059633
3154 -4296.405691334617
3155 -4296.355951729589
3156 -4296.297150079371
3157 -4296.25852534547
3158 -4296.207500718381
3159 -4296.177365850495
3160 -4296.134653714186
3161 -4296.111567626489
3162 -4296.072262517098
3163 -4296.059415127639
3164 -4296.01879346618
3165 -4296.012138115691
3166 -4295.983573578997
3167 -4295.988359660693
3168 -4295.983197954989
3169 -4296.003291599701
3170 -4296.000168323554
3171 -4296.023731033054
3172 -4296.031541354505
3173 -4296.064798150253
3174 -4296.080799075933
3175 -4296.120021592511
3176 -4296.152105126277
3177 -4296.192587443105
3178 -4296.238496147793
3179 -4296.292258155387
3180 -4296.354205165749
3181 -4296.420001635165
3182 -4296.476841898963
3183 -4296.538736357747
3184 -4296.604084636033
3185 -4296.66910506399
3186 -4296.733529528924
3187 -4296.802629424604
3188 -4296.868499694221
3189 -4296.939151239472
3190 -4297.016064733345
3191 -4297.090069946235
3192 -4297.156406030318
3193 -4297.242131734715
3194 -4297.302331948036
3195 -4297.38291029936
3196 -4297.43773853302
3197 -4297.526913312814
3198 -4297.569390552201
3199 -4297.655521442786
3200 -4297.696507118014
3201 -4297.773450182119
3202 -4297.815085870679
3203 -4297.884271434054
3204 -4297.91705056057
3205 -4297.977408392087
3206 -4298.001833618908
3207 -4298.04774165374
3208 -4298.070323956013
3209 -4298.118534131918
3210 -4298.138985684998
3211 -4298.171800827313
3212 -4298.186207834432
3213 -4298.20424418822
3214 -4298.216718745456
3215 -4298.220501378136
3216 -4298.22205440799
3217 -4298.221952829852
3218 -4298.213369095853
3219 -4298.201113276185
3220 -4298.180254889028
3221 -4298.163958526447
3222 -4298.141175394979
3223 -4298.113436970333
3224 -4298.075425321468
3225 -4298.04111848606
3226 -4298.000365015871
3227 -4297.974367416931
3228 -4297.927943054829
3229 -4297.895821953741
3230 -4297.841421485265
3231 -4297.80256075237
3232 -4297.750871827328
3233 -4297.713792538514
3234 -4297.651768184969
3235 -4297.617469333039
3236 -4297.559194499833
3237 -4297.518176588917
3238 -4297.462867318
3239 -4297.419555542501
3240 -4297.364590703856
3241 -4297.321471568287
3242 -4297.262454019636
3243 -4297.216903731425
3244 -4297.163901722747
3245 -4297.118957124911
3246 -4297.072988141218
3247 -4297.035431256069
3248 -4296.995985129201
3249 -4296.962852452697
3250 -4296.931059246345
3251 -4296.909718462744
3252 -4296.885781806931
3253 -4296.871101977594
3254 -4296.847912067248
3255 -4296.838763231189
3256 -4296.821314231963
3257 -4296.816995632261
3258 -4296.801921512289
3259 -4296.804386389759
3260 -4296.79717282975
3261 -4296.800623287925
3262 -4296.796351474982
3263 -4296.811748938216
3264 -4296.815225373522
3265 -4296.836444603389
3266 -4296.841619828194
3267 -4296.869324982452
3268 -4296.871682351731
3269 -4296.904610441171
3270 -4296.913175195931
3271 -4296.948938020761
3272 -4296.959463579799
3273 -4297.006067318664
3274 -4297.019220709006
3275 -4297.062618366357
3276 -4297.083563779304
3277 -4297.122378236782
3278 -4297.130970717698
3279 -4297.166714130801
3280 -4297.179441985849
3281 -4297.217015793831
3282 -4297.22439276661
3283 -4297.255854519554
3284 -4297.253873487154
3285 -4297.271580728774
3286 -4297.275188859491
3287 -4297.284437464617
3288 -4297.279760328885
3289 -4297.286332696098
3290 -4297.279815138343
3291 -4297.281180807501
3292 -4297.270658312475
3293 -4297.271605761478
3294 -4297.252055200413
3295 -4297.24680752698
3296 -4297.220062521887
3297 -4297.208803241927
3298 -4297.174235645943
3299 -4297.151849331021
3300 -4297.107946315778
3301 -4297.084752545607
3302 -4297.028052651751
3303 -4296.997096596178
3304 -4296.93516727426
3305 -4296.901265843636
3306 -4296.833641867076
3307 -4296.800342652555
3308 -4296.731183188104
3309 -4296.696037151261
3310 -4296.623197716797
3311 -4296.572477005795
3312 -4296.507088003969
3313 -4296.455770563095
3314 -4296.373381298637
3315 -4296.312861512183
3316 -4296.236149231016
3317 -4296.171209501204
3318 -4296.09965137088
3319 -4296.042490869842
3320 -4295.976534491171
3321 -4295.919662808566
3322 -4295.854033801842
3323 -4295.796544514504
3324 -4295.725583323654
3325 -4295.671897971448
3326 -4295.591483618734
3327 -4295.537506571406
3328 -4295.462272809549
3329 -4295.407452873143
3330 -4295.3390804823
3331 -4295.290322770969
3332 -4295.222075740082
3333 -4295.176153206278
3334 -4295.10387611586
3335 -4295.058424090004
3336 -4294.993213013274
3337 -4294.962244377497
3338 -4294.898272009414
3339 -4294.865661212946
3340 -4294.801898495042
3341 -4294.768799533045
3342 -4294.714365063701
3343 -4294.693906419706
3344 -4294.64051087853
3345 -4294.611676718621
3346 -4294.562875633565
3347 -4294.537427393911
3348 -4294.49767687793
3349 -4294.476423607091
3350 -4294.433215835291
3351 -4294.408582587233
3352 -4294.364693625327
3353 -4294.343583252882
3354 -4294.301691111517
3355 -4294.283411046788
3356 -4294.237473018521
3357 -4294.219137065639
3358 -4294.167908195509
3359 -4294.144178755521
3360 -4294.103010115847
3361 -4294.081056018557
3362 -4294.032074273937
3363 -4294.008691939122
3364 -4293.952627395897
3365 -4293.91966262138
3366 -4293.853160274389
3367 -4293.822130365082
3368 -4293.75339964775
3369 -4293.718954925119
3370 -4293.640298299862
3371 -4293.596014631343
3372 -4293.516225868107
3373 -4293.468115511443
3374 -4293.383897549211
3375 -4293.328482054307
3376 -4293.235162522796
3377 -4293.173221225769
3378 -4293.073229329882
3379 -4292.998863501433
3380 -4292.883445314381
3381 -4292.800829442805
3382 -4292.685506257225
3383 -4292.599887676827
3384 -4292.489087613816
3385 -4292.392079889608
3386 -4292.262528941479
3387 -4292.15989667104
3388 -4292.031384339673
3389 -4291.921211828039
3390 -4291.787641816889
3391 -4291.669993849833
3392 -4291.525919561673
3393 -4291.403671099973
3394 -4291.257824114338
3395 -4291.130763315474
3396 -4290.989173719227
3397 -4290.857835302388
3398 -4290.714036980283
3399 -4290.582553250396
3400 -4290.433644050673
3401 -4290.300644472342
3402 -4290.149718760952
3403 -4290.023441576062
3404 -4289.869160299741
3405 -4289.747954525112
3406 -4289.604069175146
3407 -4289.489756295407
3408 -4289.348108370998
3409 -4289.243525871359
3410 -4289.094259922725
3411 -4288.976590656826
3412 -4288.84466437445
3413 -4288.732283950347
3414 -4288.609543478522
3415 -4288.508909632828
3416 -4288.391836709709
3417 -4288.300842972939
3418 -4288.192918387968
3419 -4288.109209030064
3420 -4288.012531866169
3421 -4287.93589000978
3422 -4287.848219104233
3423 -4287.7778890795
3424 -4287.697482870914
3425 -4287.644277278731
3426 -4287.580294004744
3427 -4287.538061702524
3428 -4287.466821454398
3429 -4287.434938050224
3430 -4287.378008111505
3431 -4287.35132142208
3432 -4287.302965609814
3433 -4287.293435711204
3434 -4287.248660289765
3435 -4287.247701691746
3436 -4287.20817083581
3437 -4287.212578247085
3438 -4287.173189377468
3439 -4287.185544920298
3440 -4287.159459659525
3441 -4287.168979942688
3442 -4287.146482660462
3443 -4287.16398916133
3444 -4287.155562470239
3445 -4287.175786842765
3446 -4287.156597758057
3447 -4287.164087985698
3448 -4287.143372521462
3449 -4287.153952742061
3450 -4287.145107280058
3451 -4287.14960328395
3452 -4287.13458106307
3453 -4287.138660563675
3454 -4287.122984487397
3455 -4287.133082600495
3456 -4287.110441458183
3457 -4287.113731245655
3458 -4287.077301502199
3459 -4287.065090362548
3460 -4287.027834810318
3461 -4287.010144188409
3462 -4286.958356719239
3463 -4286.938274279309
3464 -4286.868141889513
3465 -4286.829927062819
3466 -4286.758940687791
3467 -4286.704766974821
3468 -4286.618394444983
3469 -4286.561133816997
3470 -4286.454821256645
3471 -4286.372516622956
3472 -4286.262597688507
3473 -4286.174882862106
3474 -4286.048593033529
3475 -4285.938377179954
3476 -4285.791337305887
3477 -4285.669391563694
3478 -4285.514444179556
3479 -4285.371743632594
3480 -4285.203736813819
3481 -4285.049394758415
3482 -4284.868737170526
3483 -4284.696351964949
3484 -4284.504361837715
3485 -4284.322543419409
3486 -4284.122080902685
3487 -4283.937775660558
3488 -4283.723151091969
3489 -4283.520993066769
3490 -4283.305927834769
3491 -4283.09939666491
3492 -4282.872635285178
3493 -4282.670206316408
3494 -4282.435763067861
3495 -4282.240045054247
3496 -4282.010185496576
3497 -4281.809490532612
3498 -4281.568530309371
3499 -4281.369348289175
3500 -4281.135991388423
3501 -4280.940548166351
3502 -4280.715942791362
3503 -4280.541592799462
3504 -4280.335150591395
3505 -4280.18453215038
3506 -4279.994279479033
3507 -4279.85058579691
3508 -4279.671671652242
3509 -4279.554433695943
3510 -4279.395946259569
3511 -4279.29287966037
3512 -4279.156191603221
3513 -4279.076172502909
3514 -4278.96795672487
3515 -4278.910020782679
3516 -4278.831267493396
3517 -4278.782469099243
3518 -4278.714220493381
3519 -4278.697208156173
3520 -4278.670173118144
3521 -4278.672943173585
3522 -4278.669499029841
3523 -4278.696551116937
3524 -4278.724272008581
3525 -4278.772609196641
3526 -4278.816639114621
3527 -4278.870576145456
3528 -4278.938714623563
3529 -4279.019640903449
3530 -4279.090867258852
3531 -4279.181257887395
3532 -4279.256458562271
3533 -4279.361671449983
3534 -4279.448428022879
3535 -4279.568887574845
3536 -4279.672234313198
3537 -4279.806569864979
3538 -4279.906808843641
3539 -4280.033592826685
3540 -4280.132095156927
3541 -4280.259595937971
3542 -4280.33937816237
3543 -4280.442069062508
3544 -4280.512679553837
3545 -4280.603441084096
3546 -4280.658444525344
3547 -4280.748464814021
3548 -4280.780792018971
3549 -4280.830907285433
3550 -4280.839357911676
3551 -4280.864404496781
3552 -4280.850904393222
3553 -4280.860844026896
3554 -4280.827564960164
3555 -4280.805570239002
3556 -4280.749096471286
3557 -4280.698788645224
3558 -4280.617716865454
3559 -4280.5453695618
3560 -4280.44325834643
3561 -4280.34195864953
3562 -4280.213437803097
3563 -4280.074182008113
3564 -4279.904292520564
3565 -4279.741024330557
3566 -4279.551387690884
3567 -4279.36689920964
3568 -4279.163567918516
3569 -4278.961484629041
3570 -4278.72972643083
3571 -4278.518722779797
3572 -4278.280047865453
3573 -4278.060490336251
3574 -4277.802170792412
3575 -4277.576337477513
3576 -4277.313202296371
3577 -4277.079949948766
3578 -4276.812469355076
3579 -4276.583405266247
3580 -4276.319829756386
3581 -4276.097623346946
3582 -4275.834598381036
3583 -4275.624137642725
3584 -4275.374345506161
3585 -4275.165086301128
3586 -4274.932418137946
3587 -4274.743041428464
3588 -4274.527441806827
3589 -4274.362698994463
3590 -4274.171872959976
3591 -4274.021647429897
3592 -4273.844399115856
3593 -4273.711042485674
3594 -4273.564812962432
3595 -4273.460296791948
3596 -4273.342818691915
3597 -4273.255668511531
3598 -4273.157515124476
3599 -4273.086976150107
3600 -4273.015716267781
3601 -4272.967630066473
3602 -4272.916827913192
3603 -4272.890772022445
3604 -4272.871294218709
3605 -4272.869219538265
3606 -4272.867273175168
3607 -4272.89366826611
3608 -4272.916728193964
3609 -4272.961580177403
3610 -4272.99502070978
3611 -4273.049059237955
3612 -4273.098055841891
3613 -4273.169134010943
3614 -4273.227865573513
3615 -4273.309654688806
3616 -4273.364138207364
3617 -4273.456663941043
3618 -4273.537643409687
3619 -4273.636149476282
3620 -4273.719774685173
3621 -4273.828392166882
3622 -4273.914698516163
3623 -4274.019769568023
3624 -4274.097770595861
3625 -4274.190643499186
3626 -4274.264821325753
3627 -4274.348825986089
3628 -4274.417373120838
3629 -4274.500767681096
3630 -4274.566358323567
3631 -4274.642828674687
3632 -4274.696803344246
3633 -4274.765486076725
3634 -4274.802516577162
3635 -4274.850278600167
3636 -4274.877119915618
3637 -4274.910585304715
3638 -4274.923634809184
3639 -4274.947979183581
3640 -4274.940719839431
3641 -4274.946921648745
3642 -4274.927835260512
3643 -4274.913642029432
3644 -4274.877422070189
3645 -4274.858342740416
3646 -4274.81239639682
3647 -4274.775030353599
3648 -4274.718260398269
3649 -4274.680330050203
3650 -4274.604140547895
3651 -4274.552932466402
3652 -4274.470282542976
3653 -4274.402015714836
3654 -4274.30540036738
3655 -4274.233617713753
3656 -4274.134200568687
3657 -4274.061854771491
3658 -4273.937780958289
3659 -4273.85314897336
3660 -4273.731616502828
3661 -4273.650060160334
3662 -4273.530774267757
3663 -4273.449546275995
3664 -4273.32931605443
3665 -4273.246537020906
3666 -4273.123793202055
3667 -4273.047124032084
3668 -4272.927535102903
3669 -4272.851313254514
3670 -4272.739530282873
3671 -4272.65428378167
3672 -4272.550915305924
3673 -4272.477589663358
3674 -4272.383484338218
3675 -4272.316031922865
3676 -4272.228768282922
3677 -4272.17001176374
3678 -4272.100824635356
3679 -4272.054706318357
3680 -4271.994987602586
3681 -4271.962893363398
3682 -4271.92053408606
3683 -4271.914564077911
3684 -4271.887837268323
3685 -4271.883448201311
3686 -4271.866524783446
3687 -4271.880496603617
3688 -4271.873752391646
3689 -4271.891531050155
3690 -4271.901569986073
3691 -4271.945801981012
3692 -4271.962984542325
3693 -4272.025428610666
3694 -4272.05552788132
3695 -4272.128022482624
3696 -4272.179062356433
3697 -4272.263626956223
3698 -4272.324359976244
3699 -4272.417505178591
3700 -4272.480413893917
3701 -4272.57323469972
3702 -4272.635134525299
3703 -4272.728747064182
3704 -4272.797691216318
3705 -4272.897401281717
3706 -4272.96025113159
3707 -4273.071586109942
3708 -4273.140829812933
3709 -4273.243438563323
3710 -4273.301890370808
3711 -4273.389827887264
3712 -4273.453032065054
3713 -4273.529428543532
3714 -4273.586403159217
3715 -4273.660394461789
3716 -4273.711259773602
3717 -4273.781926688013
3718 -4273.82911519236
3719 -4273.874203980056
3720 -4273.902979980702
3721 -4273.932912426602
3722 -4273.950931968533
3723 -4273.96141655059
3724 -4273.958596316252
3725 -4273.955841459414
3726 -4273.933601281958
3727 -4273.927818163755
3728 -4273.893755175474
3729 -4273.868466653006
3730 -4273.822469637526
3731 -4273.781315131935
3732 -4273.716508662103
3733 -4273.669401282023
3734 -4273.583153487952
3735 -4273.522217942957
3736 -4273.42368351191
3737 -4273.349484774876
3738 -4273.227061625215
3739 -4273.141267481728
3740 -4273.016856857418
3741 -4272.918039737655
3742 -4272.779849490593
3743 -4272.678653437373
3744 -4272.527994637515
3745 -4272.416105010151
3746 -4272.254353400279
3747 -4272.125086670128
3748 -4271.96875199091
3749 -4271.838760646137
3750 -4271.676085642071
3751 -4271.539988116634
3752 -4271.373279078665
3753 -4271.223664075514
3754 -4271.055641912559
3755 -4270.902527911673
3756 -4270.746482499701
3757 -4270.591643260303
3758 -4270.427521880474
3759 -4270.274795075679
3760 -4270.12467257965
3761 -4269.980030033522
3762 -4269.832992839921
3763 -4269.705613545513
3764 -4269.567348119287
3765 -4269.457351340003
3766 -4269.325950895161
3767 -4269.226857243626
3768 -4269.098357531247
3769 -4269.002564579547
3770 -4268.880714391924
3771 -4268.806682588753
3772 -4268.709254040107
3773 -4268.641877141469
3774 -4268.555412759927
3775 -4268.515787601288
3776 -4268.439972001247
3777 -4268.413359352357
3778 -4268.354665002264
3779 -4268.338922496291
3780 -4268.293076210941
3781 -4268.292496880289
3782 -4268.258046983437
3783 -4268.27756134932
3784 -4268.270524166992
3785 -4268.298002806533
3786 -4268.314443824254
3787 -4268.352893184859
3788 -4268.387707738679
3789 -4268.434482372782
3790 -4268.469236824948
3791 -4268.523598852078
3792 -4268.577648500998
3793 -4268.640766922579
3794 -4268.710898053785
3795 -4268.79138958337
3796 -4268.862512001778
3797 -4268.942542333475
3798 -4269.02381801107
3799 -4269.107162043512
3800 -4269.188452179847
3801 -4269.280046650398
3802 -4269.366881817225
3803 -4269.451608534499
3804 -4269.536226796066
3805 -4269.625513129217
3806 -4269.707594462143
3807 -4269.800410432602
3808 -4269.880062479476
3809 -4269.975339325287
3810 -4270.053239617387
3811 -4270.144727626496
3812 -4270.212898359775
3813 -4270.299023319092
3814 -4270.352676143099
3815 -4270.433956595284
3816 -4270.485336942291
3817 -4270.553826131645
3818 -4270.609399579599
3819 -4270.670503743436
3820 -4270.715313155868
3821 -4270.761471084205
3822 -4270.794851717527
3823 -4270.823093670332
3824 -4270.848945337942
3825 -4270.866315885823
3826 -4270.888237041301
3827 -4270.903442858023
3828 -4270.917195195523
3829 -4270.927985785722
3830 -4270.930746975751
3831 -4270.934337829576
3832 -4270.927952262219
3833 -4270.927428342479
3834 -4270.900724444627
3835 -4270.886497861966
3836 -4270.870471444904
3837 -4270.861838587615
3838 -4270.821361928446
3839 -4270.805015730723
3840 -4270.758156579536
3841 -4270.744824607051
3842 -4270.686656450356
3843 -4270.669714275723
3844 -4270.631741498132
3845 -4270.608778609058
3846 -4270.551544868342
3847 -4270.534844626831
3848 -4270.486586338038
3849 -4270.471371585138
3850 -4270.43581951078
3851 -4270.415084527633
3852 -4270.384277589216
3853 -4270.362577231077
3854 -4270.332000939258
3855 -4270.301136368001
3856 -4270.284535362246
3857 -4270.276053483745
3858 -4270.265680238361
3859 -4270.268291414816
3860 -4270.275760299119
3861 -4270.28025409266
3862 -4270.298104603774
3863 -4270.323305875084
3864 -4270.346401229283
3865 -4270.383656813217
3866 -4270.414946598335
3867 -4270.464404514597
3868 -4270.516580005045
3869 -4270.580545570925
3870 -4270.640630207708
3871 -4270.725403915174
3872 -4270.780954144429
3873 -4270.860635320157
3874 -4270.926065976306
3875 -4271.024450796401
3876 -4271.109676372855
3877 -4271.216390979034
3878 -4271.306441563402
3879 -4271.42080413663
3880 -4271.519115354345
3881 -4271.631582169328
3882 -4271.743631909231
3883 -4271.858121509772
3884 -4271.974665576276
3885 -4272.09463182833
3886 -4272.212355630671
3887 -4272.336809213253
3888 -4272.45491559425
3889 -4272.578485589216
3890 -4272.673732570774
3891 -4272.78477936933
3892 -4272.880145170657
3893 -4272.99152820514
3894 -4273.075866488439
3895 -4273.178388036258
3896 -4273.255910241831
3897 -4273.352461785341
3898 -4273.416458719326
3899 -4273.495547484466
3900 -4273.547336099808
3901 -4273.604283107918
3902 -4273.643480571574
3903 -4273.691944601765
3904 -4273.721408845732
3905 -4273.754273992925
3906 -4273.773001351073
3907 -4273.798272607371
3908 -4273.806753669031
3909 -4273.816940320748
3910 -4273.812626262155
3911 -4273.821005749787
3912 -4273.809203731814
3913 -4273.806177293745
3914 -4273.779929133731
3915 -4273.767976778498
3916 -4273.741897426007
3917 -4273.730689278886
3918 -4273.698379786967
3919 -4273.68901313607
3920 -4273.660899731597
3921 -4273.639511271598
3922 -4273.610176677993
3923 -4273.591167774253
3924 -4273.560498383844
3925 -4273.538232319915
3926 -4273.502240026963
3927 -4273.479051413457
3928 -4273.447970727162
3929 -4273.420544808037
3930 -4273.401277242845
3931 -4273.384577548295
3932 -4273.370639885035
3933 -4273.365366661123
3934 -4273.354001796877
3935 -4273.349675735975
3936 -4273.341767495831
3937 -4273.356119901001
3938 -4273.359854604392
3939 -4273.374403254647
3940 -4273.38527034536
3941 -4273.412938154751
3942 -4273.41650677606
3943 -4273.44340948952
3944 -4273.45949802984
3945 -4273.494594141061
3946 -4273.519534731568
3947 -4273.568526796739
3948 -4273.604946407067
3949 -4273.659713020078
3950 -4273.689024481043
3951 -4273.749249650989
3952 -4273.801532023916
3953 -4273.869968775324
3954 -4273.938691245615
3955 -4274.021200296037
3956 -4274.093033833436
3957 -4274.176420937621
3958 -4274.264069924136
3959 -4274.363135568763
3960 -4274.461783190131
3961 -4274.571462966406
3962 -4274.677747242719
3963 -4274.787548205007
3964 -4274.908273084014
3965 -4275.040707588415
3966 -4275.170964717061
3967 -4275.308455939853
3968 -4275.44367251999
3969 -4275.59740219048
3970 -4275.747534372222
3971 -4275.91762690057
3972 -4276.068220164729
3973 -4276.243302777833
3974 -4276.400204919131
3975 -4276.569824890193
3976 -4276.725342436949
3977 -4276.904099278539
3978 -4277.067390247601
3979 -4277.250470735725
3980 -4277.424991829454
3981 -4277.609317074162
3982 -4277.784128076822
3983 -4277.974401225197
3984 -4278.156852024273
3985 -4278.332597089799
3986 -4278.510453305872
3987 -4278.678760474112
3988 -4278.852301203144
3989 -4279.015819201183
3990 -4279.182236546907
3991 -4279.339679029412
3992 -4279.495036963211
3993 -4279.637335407529
3994 -4279.779948871055
3995 -4279.916856014609
3996 -4280.045549718948
3997 -4280.17712043176
3998 -4280.282999301822
3999 -4280.402361815997
4000 -4280.488858164202
4001 -4280.591532977794
4002 -4280.665064996683
4003 -4280.764175576352
4004 -4280.826179294606
4005 -4280.906020538222
4006 -4280.950366784798
4007 -4281.024098345578
4008 -4281.060338722291
4009 -4281.117455437693
4010 -4281.145865180664
4011 -4281.190830895164
4012 -4281.206959394104
4013 -4281.24441076673
4014 -4281.265121268169
4015 -4281.292446187851
4016 -4281.303281567317
4017 -4281.330784621463
4018 -4281.34251566231
4019 -4281.361396027053
4020 -4281.374285685481
4021 -4281.396041454301
4022 -4281.405667118692
4023 -4281.420720035579
4024 -4281.437694174328
4025 -4281.452098408161
4026 -4281.463926262531
4027 -4281.495724637874
4028 -4281.504000499776
4029 -4281.521657780406
4030 -4281.52827014474
4031 -4281.547034795723
4032 -4281.568951700981
4033 -4281.589149983395
4034 -4281.617049405804
4035 -4281.645650232522
4036 -4281.67602704116
4037 -4281.707366176694
4038 -4281.740941880147
4039 -4281.780243970513
4040 -4281.806505692624
4041 -4281.860040224647
4042 -4281.904488339315
4043 -4281.95906802237
4044 -4282.00597574638
4045 -4282.061493587705
4046 -4282.114247617811
4047 -4282.184154538285
4048 -4282.244579074429
4049 -4282.314706937639
4050 -4282.376622899317
4051 -4282.455037618456
4052 -4282.524068272861
4053 -4282.60758091612
4054 -4282.681397475488
4055 -4282.771579454113
4056 -4282.861404550988
4057 -4282.950828323525
4058 -4283.047749154636
4059 -4283.136099820387
4060 -4283.245946358804
4061 -4283.342880783723
4062 -4283.453874992533
4063 -4283.555802129695
4064 -4283.692601340275
4065 -4283.809515530506
4066 -4283.952555126339
4067 -4284.072367687768
4068 -4284.217920327013
4069 -4284.359148410113
4070 -4284.514382752205
4071 -4284.66305904709
4072 -4284.812660911122
4073 -4284.975156830052
4074 -4285.140562643963
4075 -4285.314875274946
4076 -4285.478121609471
4077 -4285.646102908271
4078 -4285.816632525559
4079 -4286.003133865929
4080 -4286.182791203221
4081 -4286.363466199138
4082 -4286.544089381458
4083 -4286.728769311994
4084 -4286.909616844627
4085 -4287.096690782447
4086 -4287.277638899603
4087 -4287.462343677357
4088 -4287.643889824021
4089 -4287.820667544888
4090 -4288.011090791228
4091 -4288.171620777089
4092 -4288.351419958586
4093 -4288.500458631453
4094 -4288.688439261906
4095 -4288.824627792364
4096 -4288.989889959234
4097 -4289.123545514743
4098 -4289.268338546022
4099 -4289.387467380825
4100 -4289.518485501297
4101 -4289.622125855261
4102 -4289.736218382051
4103 -4289.827580396477
4104 -4289.931132847728
4105 -4290.014145036933
4106 -4290.083318789869
4107 -4290.144993783822
4108 -4290.198522097698
4109 -4290.252344165579
4110 -4290.276890458738
4111 -4290.310505328969
4112 -4290.326543296987
4113 -4290.345052133262
4114 -4290.348564039153
4115 -4290.34150082968
4116 -4290.316531225484
4117 -4290.287252109096
4118 -4290.253990175883
4119 -4290.222527005503
4120 -4290.171972006007
4121 -4290.127313428162
4122 -4290.055068957497
4123 -4289.980858936726
4124 -4289.886835897149
4125 -4289.792060630671
4126 -4289.691017130585
4127 -4289.574919610087
4128 -4289.482530970352
4129 -4289.369101631762
4130 -4289.262970154619
4131 -4289.143306919839
4132 -4289.041213151391
4133 -4288.918803642752
4134 -4288.813498050053
4135 -4288.683139155336
4136 -4288.584286439086
4137 -4288.462291540396
4138 -4288.371736783591
4139 -4288.267412433719
4140 -4288.18173616169
4141 -4288.078077704445
4142 -4288.000112844049
4143 -4287.913579488015
4144 -4287.849257400973
4145 -4287.763342963634
4146 -4287.716757544182
4147 -4287.655657128611
4148 -4287.617035155266
4149 -4287.585344102632
4150 -4287.562977916093
4151 -4287.55540331415
4152 -4287.560160681626
4153 -4287.567247233433
4154 -4287.598624441994
4155 -4287.636565191105
4156 -4287.684081812458
4157 -4287.733181209142
4158 -4287.80507357082
4159 -4287.878843469194
4160 -4287.981972751595
4161 -4288.080324382514
4162 -4288.195442592265
4163 -4288.308442351252
4164 -4288.453005508626
4165 -4288.595404341319
4166 -4288.751085370175
4167 -4288.915033824844
4168 -4289.085073524071
4169 -4289.26350633365
4170 -4289.453032401622
4171 -4289.646472163216
4172 -4289.853602836926
4173 -4290.061255530765
4174 -4290.257348415996
4175 -4290.46216849661
4176 -4290.681470978012
4177 -4290.887913049433
4178 -4291.103801989617
4179 -4291.31231203117
4180 -4291.52759815771
4181 -4291.733011975462
4182 -4291.939971842536
4183 -4292.125478815778
4184 -4292.331300539695
4185 -4292.504643399085
4186 -4292.685293866592
4187 -4292.845012867015
4188 -4293.014031067465
4189 -4293.164447360479
4190 -4293.314989624181
4191 -4293.442732479928
4192 -4293.575603700988
4193 -4293.680961556078
4194 -4293.797630480712
4195 -4293.895026391293
4196 -4293.994744787446
4197 -4294.065155032765
4198 -4294.142816906985
4199 -4294.186425033608
4200 -4294.238561756722
4201 -4294.266918761072
4202 -4294.291883084684
4203 -4294.292799538848
4204 -4294.299378013119
4205 -4294.282491718481
4206 -4294.271704800275
4207 -4294.237183598894
4208 -4294.204629596998
4209 -4294.141517450685
4210 -4294.088053466179
4211 -4294.007793662654
4212 -4293.938449146016
4213 -4293.846378748704
4214 -4293.76255362235
4215 -4293.661894229527
4216 -4293.569325340147
4217 -4293.450654834904
4218 -4293.350264739317
4219 -4293.223177752899
4220 -4293.110548731188
4221 -4292.979072521831
4222 -4292.858499780083
4223 -4292.725929661157
4224 -4292.596751381732
4225 -4292.462194173779
4226 -4292.33399299694
4227 -4292.200477330714
4228 -4292.071122404049
4229 -4291.940274070359
4230 -4291.821340146768
4231 -4291.701514179771
4232 -4291.593320631497
4233 -4291.491790594842
4234 -4291.379134583083
4235 -4291.274458245543
4236 -4291.175541741853
4237 -4291.087024095625
4238 -4290.98851398872
4239 -4290.905370300358
4240 -4290.828671265103
4241 -4290.754836386661
4242 -4290.695822910386
4243 -4290.639889858207
4244 -4290.593730073637
4245 -4290.554196642392
4246 -4290.532460769837
4247 -4290.50321052178
4248 -4290.488418808581
4249 -4290.468588870875
4250 -4290.466089739331
4251 -4290.454386961671
4252 -4290.459661776437
4253 -4290.461892028307
4254 -4290.492352074617
4255 -4290.499982502303
4256 -4290.545476597638
4257 -4290.558203688571
4258 -4290.597800032438
4259 -4290.613861394991
4260 -4290.655403781058
4261 -4290.671560916283
4262 -4290.716827945462
4263 -4290.735812642593
4264 -4290.778612053122
4265 -4290.79259170805
4266 -4290.833701856474
4267 -4290.848794040124
4268 -4290.881115939691
4269 -4290.89591754338
4270 -4290.916934484464
4271 -4290.918399639586
4272 -4290.938555460104
4273 -4290.936452091715
4274 -4290.930855616382
4275 -4290.926037943598
4276 -4290.903575554666
4277 -4290.886513515823
4278 -4290.854617375224
4279 -4290.819786563133
4280 -4290.781839355439
4281 -4290.733329728775
4282 -4290.680463347799
4283 -4290.622790765843
4284 -4290.553239260939
4285 -4290.472017113135
4286 -4290.390099735677
4287 -4290.283883888147
4288 -4290.191333533652
4289 -4290.082074388105
4290 -4289.968542084437
4291 -4289.848053586247
4292 -4289.734179126749
4293 -4289.606240876974
4294 -4289.47799648469
4295 -4289.336314127673
4296 -4289.206900911916
4297 -4289.053529218195
4298 -4288.903506853531
4299 -4288.751268896209
4300 -4288.608495892079
4301 -4288.449991445858
4302 -4288.302995930694
4303 -4288.146778868007
4304 -4287.993786445272
4305 -4287.837032708745
4306 -4287.692290619131
4307 -4287.53797715764
4308 -4287.391964475564
4309 -4287.250012270936
4310 -4287.100891666984
4311 -4286.957215264234
4312 -4286.819908166904
4313 -4286.688305840614
4314 -4286.564080419075
4315 -4286.438812926358
4316 -4286.317148208161
4317 -4286.198612280758
4318 -4286.090541255244
4319 -4285.981471854128
4320 -4285.883068781904
4321 -4285.786253542059
4322 -4285.69775919
4323 -4285.610936655102
4324 -4285.530566270167
4325 -4285.448257808527
4326 -4285.386401859921
4327 -4285.31690019572
4328 -4285.265971306675
4329 -4285.203782967103
4330 -4285.162070808748
4331 -4285.099911594602
4332 -4285.066073698436
4333 -4285.013439483298
4334 -4284.986899026534
4335 -4284.939119145048
4336 -4284.913014522207
4337 -4284.871126601298
4338 -4284.849337570788
4339 -4284.816472953457
4340 -4284.79807405127
4341 -4284.765129590407
4342 -4284.740166612673
4343 -4284.713238226185
4344 -4284.689296859954
4345 -4284.664116890944
4346 -4284.63847532065
4347 -4284.611389693823
4348 -4284.585346135791
4349 -4284.555023683373
4350 -4284.520515121301
4351 -4284.482964982511
4352 -4284.446376514555
4353 -4284.396747097442
4354 -4284.344433677458
4355 -4284.28720092089
4356 -4284.239309454394
4357 -4284.176799984708
4358 -4284.126737587341
4359 -4284.061408032319
4360 -4284.001180020441
4361 -4283.923267011907
4362 -4283.859146486677
4363 -4283.766019032986
4364 -4283.693287097501
4365 -4283.59591112046
4366 -4283.511286687341
4367 -4283.40985857637
4368 -4283.32650609659
4369 -4283.21691931174
4370 -4283.120407885469
4371 -4283.000625521873
4372 -4282.891090579762
4373 -4282.766774469815
4374 -4282.648930393186
4375 -4282.52852608688
4376 -4282.406733794595
4377 -4282.285708067036
4378 -4282.158333877392
4379 -4282.032595160111
4380 -4281.910277905116
4381 -4281.781591566667
4382 -4281.651611773876
4383 -4281.518552225247
4384 -4281.389517233422
4385 -4281.262348023446
4386 -4281.133289151158
4387 -4281.010385285368
4388 -4280.885802290908
4389 -4280.766323175624
4390 -4280.649620150377
4391 -4280.525226744609
4392 -4280.413332197614
4393 -4280.291969210186
4394 -4280.185701905347
4395 -4280.06423631107
4396 -4279.965614287966
4397 -4279.841420763586
4398 -4279.738315249815
4399 -4279.624682818669
4400 -4279.525184953582
4401 -4279.418715802267
4402 -4279.326800699143
4403 -4279.226689483719
4404 -4279.138142998035
4405 -4279.048395795935
4406 -4278.960422932469
4407 -4278.866538674297
4408 -4278.782334648889
4409 -4278.688841855391
4410 -4278.605606118952
4411 -4278.525236799789
4412 -4278.444244832085
4413 -4278.365287442908
4414 -4278.297720118507
4415 -4278.218235995854
4416 -4278.14470943263
4417 -4278.069472953498
4418 -4277.993002868707
4419 -4277.924704169298
4420 -4277.843077009645
4421 -4277.766932726024
4422 -4277.691070203869
4423 -4277.613371193741
4424 -4277.536968350125
4425 -4277.467607905101
4426 -4277.392117169858
4427 -4277.319633368103
4428 -4277.244225874037
4429 -4277.164448027887
4430 -4277.082882861861
4431 -4277.002641534061
4432 -4276.918179393182
4433 -4276.832631145381
4434 -4276.750162447434
4435 -4276.663678951691
4436 -4276.577059687844
4437 -4276.47919532717
4438 -4276.401904091043
4439 -4276.302041379425
4440 -4276.219955083448
4441 -4276.128117466731
4442 -4276.039989132712
4443 -4275.956045145718
4444 -4275.857372590669
4445 -4275.771224198505
4446 -4275.672173014372
4447 -4275.576794104993
4448 -4275.48017830661
4449 -4275.387325355508
4450 -4275.278557096877
4451 -4275.190742485714
4452 -4275.086784933325
4453 -4275.003293516828
4454 -4274.899024353948
4455 -4274.821716050099
4456 -4274.720935359614
4457 -4274.645577581195
4458 -4274.549652908055
4459 -4274.478899013992
4460 -4274.400436346846
4461 -4274.32408506597
4462 -4274.249135072984
4463 -4274.178275149165
4464 -4274.115438296641
4465 -4274.050711300431
4466 -4273.997962430401
4467 -4273.932015746923
4468 -4273.883860609884
4469 -4273.83162145146
4470 -4273.790990938266
4471 -4273.734176354219
4472 -4273.713185327606
4473 -4273.664562230289
4474 -4273.644263894356
4475 -4273.608560651737
4476 -4273.592760113106
4477 -4273.571085072022
4478 -4273.559730764698
4479 -4273.546787701862
4480 -4273.545620975408
4481 -4273.542193590762
4482 -4273.545242724556
4483 -4273.539581133099
4484 -4273.544633468764
4485 -4273.536990940852
4486 -4273.54397981245
4487 -4273.544250839987
4488 -4273.562652070103
4489 -4273.572374356827
4490 -4273.593819579836
4491 -4273.605804759939
4492 -4273.632237602874
4493 -4273.651545879804
4494 -4273.671091757226
4495 -4273.679755564975
4496 -4273.694678810803
4497 -4273.71201587852
4498 -4273.730225976267
4499 -4273.74442969862
4500 -4273.76229534138
4501 -4273.785369870308
4502 -4273.803563175808
4503 -4273.816339879383
4504 -4273.82238981737
4505 -4273.823237174779
4506 -4273.819903691559
4507 -4273.820510083106
4508 -4273.815850976795
4509 -4273.815660450692
4510 -4273.803218306738
4511 -4273.798196893672
4512 -4273.786671941864
4513 -4273.781937772408
4514 -4273.757237996676
4515 -4273.741981784779
4516 -4273.714753075867
4517 -4273.683171757592
4518 -4273.661319884902
4519 -4273.628005522291
4520 -4273.592760456274
4521 -4273.550623288485
4522 -4273.51149200579
4523 -4273.451978300373
4524 -4273.411003091128
4525 -4273.353436454007
4526 -4273.302833911212
4527 -4273.238941664799
4528 -4273.195013770095
4529 -4273.139152526061
4530 -4273.083043781196
4531 -4273.035930595309
4532 -4272.976972430501
4533 -4272.925543469786
4534 -4272.860365253169
4535 -4272.803858688863
4536 -4272.74672980313
4537 -4272.694664573558
4538 -4272.638042090402
4539 -4272.593946351376
4540 -4272.54186006861
4541 -4272.496071465685
4542 -4272.453511256483
4543 -4272.4155747937
4544 -4272.379719793422
4545 -4272.344565814395
4546 -4272.305670615593
4547 -4272.270796003258
4548 -4272.241065593432
4549 -4272.206364974238
4550 -4272.180260779284
4551 -4272.146795148172
4552 -4272.132697741276
4553 -4272.113885272172
4554 -4272.10510240448
4555 -4272.088864160193
4556 -4272.079742299135
4557 -4272.06817025246
4558 -4272.062961020612
4559 -4272.054096379718
4560 -4272.05743236817
4561 -4272.050944103486
4562 -4272.054969116697
4563 -4272.050165898114
4564 -4272.069368393864
4565 -4272.077407872274
4566 -4272.103566544
4567 -4272.114228995833
4568 -4272.143500965712
4569 -4272.162762712568
4570 -4272.198428306054
4571 -4272.22137957038
4572 -4272.247044812628
4573 -4272.268316509738
4574 -4272.304901679415
4575 -4272.326000746985
4576 -4272.360641232704
4577 -4272.400875717019
4578 -4272.438233876522
4579 -4272.482989403641
4580 -4272.529832099723
4581 -4272.582874997209
4582 -4272.628416928249
4583 -4272.691804462406
4584 -4272.742954169899
4585 -4272.801732359452
4586 -4272.856945594614
4587 -4272.92310747901
4588 -4272.98252741188
4589 -4273.046712976121
4590 -4273.110222408684
4591 -4273.180056589981
4592 -4273.258988540723
4593 -4273.324158480253
4594 -4273.40233749938
4595 -4273.468342816429
4596 -4273.545564897911
4597 -4273.609473653727
4598 -4273.697112526945
4599 -4273.760040015251
4600 -4273.847407494466
4601 -4273.910225749924
4602 -4273.994834779068
4603 -4274.062682663741
4604 -4274.148051372357
4605 -4274.206923881987
4606 -4274.280831371687
4607 -4274.339419152092
4608 -4274.415213184843
4609 -4274.480718537643
4610 -4274.554229822214
4611 -4274.621594448087
4612 -4274.683499536142
4613 -4274.751426059326
4614 -4274.804516770332
4615 -4274.871944033596
4616 -4274.92301346019
4617 -4274.986149830792
4618 -4275.032899709094
4619 -4275.086379900369
4620 -4275.133894883273
4621 -4275.178265729671
4622 -4275.222175436293
4623 -4275.268821496161
4624 -4275.303957331135
4625 -4275.345410612198
4626 -4275.384008409338
4627 -4275.418372721379
4628 -4275.446973616378
4629 -4275.476083449406
4630 -4275.502785144088
4631 -4275.5175212138
4632 -4275.551085209221
4633 -4275.558987424062
4634 -4275.583672977858
4635 -4275.585820782861
4636 -4275.608289419405
4637 -4275.606277901962
4638 -4275.627066409865
4639 -4275.63027631658
4640 -4275.65246067973
4641 -4275.659137948826
4642 -4275.67536563347
4643 -4275.677541646432
4644 -4275.693043872546
4645 -4275.690126762538
4646 -4275.69856766312
4647 -4275.697122003933
4648 -4275.702233356397
4649 -4275.703684220214
4650 -4275.710664437786
4651 -4275.71580407272
4652 -4275.722778305474
4653 -4275.735809738411
4654 -4275.737244975486
4655 -4275.748627556636
4656 -4275.752075831743
4657 -4275.771640784521
4658 -4275.7704662093
4659 -4275.780296752835
4660 -4275.781869552727
4661 -4275.789822948058
4662 -4275.799209941827
4663 -4275.803503162916
4664 -4275.818937682897
4665 -4275.841627585949
4666 -4275.856216226473
4667 -4275.874624753869
4668 -4275.899429188789
4669 -4275.905383901066
4670 -4275.938453851394
4671 -4275.948395807239
4672 -4275.977055180929
4673 -4275.984074199964
4674 -4276.01521687685
4675 -4276.031454276743
4676 -4276.069854188413
4677 -4276.086822436666
4678 -4276.12382155849
4679 -4276.146354345368
4680 -4276.187690541847
4681 -4276.202483985204
4682 -4276.249262969163
4683 -4276.271384849921
4684 -4276.315427246455
4685 -4276.338097849009
4686 -4276.384666892614
4687 -4276.413041856178
4688 -4276.465465463508
4689 -4276.498051131464
4690 -4276.546182334976
4691 -4276.578218773129
4692 -4276.630359419834
4693 -4276.663757238778
4694 -4276.718479325104
4695 -4276.749093182307
4696 -4276.802648401931
4697 -4276.838813797815
4698 -4276.890340536509
4699 -4276.932014310389
4700 -4276.981861546597
4701 -4277.032304065574
4702 -4277.082972914205
4703 -4277.129630794387
4704 -4277.1808363353
4705 -4277.22236300251
4706 -4277.266518500319
4707 -4277.308707812717
4708 -4277.34634001311
4709 -4277.386952747078
4710 -4277.428574760867
4711 -4277.462688822745
4712 -4277.503265515244
4713 -4277.540702230322
4714 -4277.573340586186
4715 -4277.604801700581
4716 -4277.63479118923
4717 -4277.666262920039
4718 -4277.687411101922
4719 -4277.708334527595
4720 -4277.734852437479
4721 -4277.746443938529
4722 -4277.764168136343
4723 -4277.777307390815
4724 -4277.789757087999
4725 -4277.800266340205
4726 -4277.804372972831
4727 -4277.804154496266
4728 -4277.804442502718
4729 -4277.798188672035
4730 -4277.797831271519
4731 -4277.788538905767
4732 -4277.775979641901
4733 -4277.765008384471
4734 -4277.74826807117
4735 -4277.725550321757
4736 -4277.700048752017
4737 -4277.672066454263
4738 -4277.635813031687
4739 -4277.594231480199
4740 -4277.558309418951
4741 -4277.513882645686
4742 -4277.475308011335
4743 -4277.432913750047
4744 -4277.387404310475
4745 -4277.331432873943
4746 -4277.284964519617
4747 -4277.222799017134
4748 -4277.176140131432
4749 -4277.115567498834
4750 -4277.064695022844
4751 -4276.995259805428
4752 -4276.946205005105
4753 -4276.872946739291
4754 -4276.828478623991
4755 -4276.749633457959
4756 -4276.69961431568
4757 -4276.621420314975
4758 -4276.572986176371
4759 -4276.495664276399
4760 -4276.443134506359
4761 -4276.380357028678
4762 -4276.329578618452
4763 -4276.263229122814
4764 -4276.216826310799
4765 -4276.158993637342
4766 -4276.113798276038
4767 -4276.05649810571
4768 -4276.011677021701
4769 -4275.964590159142
4770 -4275.92665384999
4771 -4275.879644492213
4772 -4275.851737847676
4773 -4275.806799482807
4774 -4275.781151292459
4775 -4275.747709527263
4776 -4275.716083651301
4777 -4275.690216544593
4778 -4275.659981375692
4779 -4275.642046906456
4780 -4275.614375699868
4781 -4275.602423433798
4782 -4275.58569074872
4783 -4275.572095793352
4784 -4275.557566563611
4785 -4275.553954260369
4786 -4275.541775957969
4787 -4275.543157323885
4788 -4275.532524791733
4789 -4275.546161708452
4790 -4275.540975372037
4791 -4275.555363008131
4792 -4275.559229489144
4793 -4275.564252491236
4794 -4275.568954538454
4795 -4275.574103694283
4796 -4275.590860228474
4797 -4275.583077992238
4798 -4275.603322210862
4799 -4275.611443519478
4800 -4275.638423573746
4801 -4275.64807103726
4802 -4275.669746022749
4803 -4275.669216476122
4804 -4275.692346737999
4805 -4275.692770245502
4806 -4275.715792525987
4807 -4275.717225363815
4808 -4275.739474250446
4809 -4275.73994078839
4810 -4275.752786651938
4811 -4275.74919855002
4812 -4275.753981033013
4813 -4275.74600434582
4814 -4275.75335861527
4815 -4275.744276605952
4816 -4275.745173829151
4817 -4275.733442700096
4818 -4275.731422331079
4819 -4275.718144732844
4820 -4275.710325929853
4821 -4275.690802485889
4822 -4275.675921822302
4823 -4275.646074910188
4824 -4275.629918533485
4825 -4275.594281495547
4826 -4275.580023807872
4827 -4275.542738310674
4828 -4275.529040987995
4829 -4275.489585386374
4830 -4275.468561950901
4831 -4275.420615450364
4832 -4275.393156751829
4833 -4275.333887910245
4834 -4275.312700044285
4835 -4275.259110316474
4836 -4275.232391501502
4837 -4275.179054470222
4838 -4275.147494925204
4839 -4275.089531236191
4840 -4275.054689460993
4841 -4275.001393431789
4842 -4274.956659013115
4843 -4274.90427333372
4844 -4274.863272631338
4845 -4274.809907287266
4846 -4274.76857396825
4847 -4274.715531138954
4848 -4274.674105749985
4849 -4274.616235828091
4850 -4274.567757981224
4851 -4274.515432769938
4852 -4274.475025304145
4853 -4274.424042919857
4854 -4274.378534992074
4855 -4274.327634553051
4856 -4274.293202183057
4857 -4274.245109316689
4858 -4274.213280420918
4859 -4274.158421402799
4860 -4274.123501386865
4861 -4274.075187688648
4862 -4274.044537691469
4863 -4273.993764473982
4864 -4273.966553253293
4865 -4273.928064520242
4866 -4273.910576583239
4867 -4273.879754714926
4868 -4273.858885475176
4869 -4273.827612772876
4870 -4273.813221821038
4871 -4273.784225775512
4872 -4273.777835852175
4873 -4273.757920889215
4874 -4273.756251811641
4875 -4273.738621634469
4876 -4273.746436205511
4877 -4273.731904314927
4878 -4273.737112526517
4879 -4273.727493811111
4880 -4273.735395404474
4881 -4273.720601936339
4882 -4273.727432384384
4883 -4273.71878991476
4884 -4273.731533912292
4885 -4273.728005855464
4886 -4273.742254627709
4887 -4273.7576495205
4888 -4273.770189541266
4889 -4273.785763281778
4890 -4273.799513420625
4891 -4273.81665374098
4892 -4273.828672326091
4893 -4273.847378687725
4894 -4273.862812677001
4895 -4273.876180482866
4896 -4273.891892010257
4897 -4273.915263397729
4898 -4273.931984924243
4899 -4273.948853373859
4900 -4273.973571632556
4901 -4273.991808647256
4902 -4274.013035177051
4903 -4274.027136623868
4904 -4274.045905475105
4905 -4274.053377299803
4906 -4274.069776765621
4907 -4274.07677264056
4908 -4274.091354842839
4909 -4274.098850448343
4910 -4274.119219400535
4911 -4274.12819774601
4912 -4274.147052701374
4913 -4274.161801892368
4914 -4274.17449799264
4915 -4274.177335943647
4916 -4274.190242053343
4917 -4274.194150568131
4918 -4274.203741632368
4919 -4274.204369194861
4920 -4274.210922440073
4921 -4274.205706678124
4922 -4274.218146903376
4923 -4274.214985501018
4924 -4274.23130370282
4925 -4274.230326184377
4926 -4274.244133880145
4927 -4274.249848676338
4928 -4274.266820440751
4929 -4274.272609659984
4930 -4274.286444880534
4931 -4274.288940219742
4932 -4274.296366640328
4933 -4274.29613468412
4934 -4274.301115392219
4935 -4274.29496017905
4936 -4274.305427526362
4937 -4274.293531064529
4938 -4274.30611701836
4939 -4274.305926068961
4940 -4274.317796872509
4941 -4274.318519317762
4942 -4274.326289396137
4943 -4274.324247140288
4944 -4274.327189316504
4945 -4274.32527216464
4946 -4274.327575122251
4947 -4274.324303196017
4948 -4274.330764661908
4949 -4274.331248201625
4950 -4274.335747391832
4951 -4274.34282787387
4952 -4274.346699007607
4953 -4274.355328182402
4954 -4274.360007999118
4955 -4274.362337146083
4956 -4274.374319729496
4957 -4274.376004540792
4958 -4274.390186144656
4959 -4274.396552415066
4960 -4274.406635934672
4961 -4274.410004215322
4962 -4274.424929865109
4963 -4274.432148768219
4964 -4274.450983262296
4965 -4274.460523072255
4966 -4274.477915840599
4967 -4274.489508398497
4968 -4274.505500363498
4969 -4274.513110560471
4970 -4274.529318698093
4971 -4274.539768110943
4972 -4274.55310500543
4973 -4274.57577906476
4974 -4274.594434059612
4975 -4274.61017269115
4976 -4274.633960659703
4977 -4274.653252303322
4978 -4274.678167076335
4979 -4274.689843953398
4980 -4274.71312080886
4981 -4274.71868511895
4982 -4274.739059677108
4983 -4274.749374597728
4984 -4274.774471333081
4985 -4274.791259477474
4986 -4274.815137447958
4987 -4274.829690510896
4988 -4274.85811025062
4989 -4274.870960735882
4990 -4274.899811247291
4991 -4274.91763994765
4992 -4274.94694412302
4993 -4274.954502804655
4994 -4274.983813903382
4995 -4274.993338278567
4996 -4275.020889937875
4997 -4275.041722398383
4998 -4275.06737859083
4999 -4275.088711373815
5000 -4275.113267308157
5001 -4275.126413856143
5002 -4275.156113035714
5003 -4275.163304230224
5004 -4275.191326013438
5005 -4275.200138403612
5006 -4275.22346741692
5007 -4275.227972527807
5008 -4275.256277441523
5009 -4275.263971715752
5010 -4275.289135854297
5011 -4275.297199000956
5012 -4275.323274545753
5013 -4275.329413552802
5014 -4275.352247637504
5015 -4275.355146936015
5016 -4275.368704270399
5017 -4275.372600406909
5018 -4275.383785220254
5019 -4275.375604774318
5020 -4275.388621814941
5021 -4275.381300082155
5022 -4275.392251826594
5023 -4275.389570924547
5024 -4275.403267776343
5025 -4275.398874487328
5026 -4275.409710631129
5027 -4275.406071199784
5028 -4275.421970118906
5029 -4275.415076334411
5030 -4275.429081851958
5031 -4275.415994023742
5032 -4275.427301174483
5033 -4275.414353882007
5034 -4275.42026557303
5035 -4275.40854359087
5036 -4275.413046124638
5037 -4275.412289901209
5038 -4275.411150619845
5039 -4275.409307713708
5040 -4275.41198033933
5041 -4275.413688905443
5042 -4275.414266735153
5043 -4275.421484493443
5044 -4275.42074357191
5045 -4275.427387923209
5046 -4275.420914604636
5047 -4275.422575352742
5048 -4275.413365822877
5049 -4275.417021782794
5050 -4275.412126095744
5051 -4275.420046027367
5052 -4275.418699823809
5053 -4275.422107118492
5054 -4275.423929652486
5055 -4275.428736922981
5056 -4275.431219580508
5057 -4275.428952381169
5058 -4275.4327707892
5059 -4275.419208523195
5060 -4275.425865827257
5061 -4275.418919898059
5062 -4275.430688665077
5063 -4275.42686564002
5064 -4275.438539102631
5065 -4275.426929123797
5066 -4275.432747517199
