"mx-rfile"
"Iteration" "mx"
("Iteration" "mx")
1 32005.64931813444
2 31493.79182027206
3 28738.71793478796
4 26018.27122811708
5 22222.12590952437
6 18745.24949768585
7 15671.21964741383
8 13437.94613299194
9 11050.88838930751
10 8897.576475059093
11 6951.88611274516
12 5478.841666831059
13 4453.526996564329
14 3783.787402559671
15 3559.758546828029
16 3633.434831753652
17 3911.021305330398
18 4324.819557125677
19 4847.175416457327
20 5421.178470889106
21 5956.978222850063
22 6491.075063984364
23 7004.108047212871
24 7481.740768547456
25 7951.391462578806
26 8338.227504472787
27 8680.534608089531
28 8937.278186878089
29 9127.045920190403
30 9256.661293164107
31 9337.447408584878
32 9395.199417823917
33 9435.11048122467
34 9461.628437129875
35 9485.465538890949
36 9505.869697795501
37 9523.981176426389
38 9546.427627473578
39 9571.741494632426
40 9596.37449903766
41 9632.215098363537
42 9670.402965505627
43 9710.064891615177
44 9757.936301926997
45 9803.897315697073
46 9852.775393185522
47 9891.536495223127
48 9933.636836510806
49 9966.032226479103
50 9997.395817462204
51 10026.93882549432
52 10051.29436323249
53 10076.0424410247
54 10096.87047594143
55 10123.88312319298
56 10140.85902392479
57 10165.21095144571
58 10184.46039579268
59 10205.13698439498
60 10227.26816309057
61 10249.77391338688
62 10273.06514287818
63 10302.74151514826
64 10323.40322010292
65 10348.94712909297
66 10371.42661917446
67 10390.59081734732
68 10406.94083264185
69 10420.66690204156
70 10432.25195346501
71 10439.74288420688
72 10448.78276387665
73 10454.81479001135
74 10460.61635596818
75 10466.33501954563
76 10471.9185350254
77 10477.36701490902
78 10482.58332079232
79 10487.80554173755
80 10493.02151087569
81 10496.72696913394
82 10502.71692207586
83 10506.57953955801
84 10512.72019834905
85 10516.43998647193
86 10522.40414084707
87 10525.97021475917
88 10531.68584446342
89 10535.94398304819
90 10539.69460606061
91 10542.34593253591
92 10544.5839948152
93 10545.95697244216
94 10547.11734449814
95 10547.36777293246
96 10547.28177691639
97 10546.6406272867
98 10546.02603601571
99 10545.34816532974
100 10544.36965071395
101 10543.44778348708
102 10542.70637882758
103 10541.84241912403
104 10541.02967111684
105 10539.99003220608
106 10539.41818200362
107 10538.68301181368
108 10538.30601575819
109 10537.61076858084
110 10537.30694093679
111 10536.58020649689
112 10535.98732803381
113 10535.19936049944
114 10534.6808683208
115 10533.60510382515
116 10532.74089385891
117 10531.67073568254
118 10530.67103415566
119 10529.44054709713
120 10528.19058647825
121 10526.93924122295
122 10525.4992454078
123 10523.89917751434
124 10522.61938230065
125 10521.02488681067
126 10519.79564152839
127 10518.47748791208
128 10517.30360887437
129 10516.13548055394
130 10515.15366874364
131 10514.14452024877
132 10513.67890658531
133 10513.09909656945
134 10512.97436084641
135 10512.86151183595
136 10513.16111953454
137 10513.57453414489
138 10514.46007930473
139 10515.37982011383
140 10516.7919389966
141 10518.3277626799
142 10520.41943132572
143 10522.61496491533
144 10525.422439754
145 10528.19296628258
146 10531.47294665208
147 10534.78048892256
148 10538.71720617434
149 10542.68340366785
150 10547.1211089709
151 10551.40938278662
152 10556.3216543384
153 10561.29338206171
154 10566.71811077318
155 10572.2079322747
156 10578.02556296796
157 10583.85260675336
158 10592.77439809586
159 10598.58050293629
160 10607.46820326827
161 10613.30996886617
162 10622.41017838377
163 10628.28129550529
164 10637.29114041011
165 10643.04403775074
166 10651.81302810961
167 10660.31385785177
168 10666.26176456501
169 10674.92239980938
170 10683.65900351121
171 10691.97634763367
172 10700.34569853932
173 10708.44459873528
174 10716.59883725957
175 10724.46575494476
176 10732.37454605303
177 10740.10105007913
178 10747.83363283827
179 10755.35050637628
180 10763.00805340558
181 10770.42515508402
182 10777.99178361718
183 10785.36188293906
184 10792.83710798911
185 10800.35370969009
186 10807.62323653369
187 10814.86165798794
188 10822.1656040837
189 10828.97599646825
190 10835.73105686181
191 10842.35390772092
192 10849.17701276128
193 10855.66078302546
194 10861.96168947235
195 10867.95297662978
196 10874.04313654732
197 10879.35392844656
198 10884.7895907572
199 10889.83011250181
200 10894.75000366156
201 10899.26793031312
202 10903.34874792795
203 10907.01605232601
204 10910.35856382976
205 10913.27082538045
206 10915.82057632932
207 10917.83583646594
208 10919.36647739476
209 10920.22175640162
210 10920.62640363937
211 10920.54516656824
212 10919.9274711258
213 10918.57824434502
214 10916.97500773445
215 10914.48760182362
216 10911.62796579953
217 10907.99273419446
218 10903.8054957896
219 10898.90899034339
220 10893.58975979189
221 10887.5244373326
222 10883.17369452051
223 10875.61233063238
224 10867.52897243544
225 10858.92646440977
226 10849.85200923224
227 10840.29127591754
228 10830.3385157277
229 10819.47956015463
230 10808.550057647
231 10797.27663329783
232 10785.69983285627
233 10773.4418504416
234 10761.09251792326
235 10748.44802389384
236 10735.84633203285
237 10722.86852332937
238 10709.70279281793
239 10696.4604540534
240 10679.1943792665
241 10666.24697519042
242 10653.6747032246
243 10636.78286435591
244 10624.62672420202
245 10612.61751195147
246 10597.18579746621
247 10585.67013091334
248 10574.59058406433
249 10560.00527687496
250 10549.58364300106
251 10539.40897334494
252 10526.53253318373
253 10517.24657245764
254 10508.33266773577
255 10499.45419949501
256 10490.91763562858
257 10479.76779010467
258 10472.04533544653
259 10464.42117091866
260 10457.01766190566
261 10449.80647327149
262 10442.89684530099
263 10435.95692686186
264 10429.27604153687
265 10422.72376807652
266 10416.49234566509
267 10410.21412025617
268 10404.29223505744
269 10398.28754508273
270 10392.73841486719
271 10387.11924477981
272 10381.71889204057
273 10378.06445353291
274 10372.78220129519
275 10369.11917499246
276 10363.88413385396
277 10360.24954020248
278 10354.9858688799
279 10351.3374693046
280 10347.84514814105
281 10342.30758029856
282 10338.81589571208
283 10335.12034015443
284 10331.54263442229
285 10327.80153442486
286 10324.27457686264
287 10320.58942325751
288 10317.01024400921
289 10313.34762217163
290 10309.94797290663
291 10306.4559186214
292 10303.21645569622
293 10299.94514120607
294 10296.98612330427
295 10294.08056503628
296 10291.42221667007
297 10288.84536004637
298 10286.63936051892
299 10284.49317352929
300 10282.73343769915
301 10281.04151426139
302 10279.74519597005
303 10278.55272612302
304 10277.7992729618
305 10277.08697706122
306 10276.73630645422
307 10276.51470845528
308 10276.69259863538
309 10276.92131977849
310 10277.52335904317
311 10278.1474781552
312 10279.16707082622
313 10280.15980969435
314 10281.52112252637
315 10282.85777951936
316 10284.55231366475
317 10286.215895856
318 10288.17313390965
319 10290.15453995492
320 10292.41001346493
321 10294.61003611024
322 10297.01708809817
323 10299.39201530379
324 10301.99884556842
325 10304.5215528644
326 10307.2476953644
327 10309.85754583266
328 10312.67010237256
329 10315.39591369153
330 10318.24567414896
331 10321.02806488211
332 10323.94382704598
333 10326.77119219493
334 10329.70024832864
335 10332.54738892486
336 10335.50286563044
337 10338.38553272596
338 10341.36417441314
339 10344.24493731387
340 10347.24608391333
341 10350.1232657301
342 10353.06999142807
343 10355.96430661963
344 10358.93997014537
345 10361.81762833561
346 10364.82740278306
347 10367.73648119022
348 10370.78238014977
349 10373.76110708818
350 10376.86038535906
351 10379.8874428488
352 10383.02868371163
353 10386.10962092904
354 10389.32324964453
355 10392.47464810736
356 10395.78937876915
357 10399.00449429549
358 10402.42407592521
359 10405.71447956615
360 10409.21358097592
361 10412.58529072904
362 10416.15590584726
363 10419.58162867791
364 10423.2474100366
365 10426.78349736561
366 10430.53537155279
367 10434.11293099326
368 10437.89025112105
369 10441.54443636333
370 10445.39253964509
371 10449.09480538248
372 10452.95728074854
373 10456.69493555483
374 10462.38277919702
375 10465.88744259006
376 10469.58233152934
377 10473.05206105246
378 10476.76051496659
379 10480.27510068525
380 10483.98297036012
381 10489.17577701785
382 10492.67968599032
383 10496.02969176642
384 10499.53841981443
385 10502.86778325214
386 10506.35862851156
387 10509.73033564303
388 10513.24459838969
389 10516.63013328552
390 10520.17717350701
391 10523.62484867262
392 10527.16822499305
393 10530.56997649735
394 10534.13722551312
395 10537.59668083134
396 10541.25313457456
397 10544.69973141779
398 10548.3451077321
399 10551.81905440908
400 10555.46706373923
401 10558.90948582953
402 10562.5258662838
403 10565.94181068777
404 10569.540906471
405 10572.95551208527
406 10576.57782745027
407 10580.00731827794
408 10583.57822335182
409 10586.9606395466
410 10590.52797870983
411 10593.92735082286
412 10597.47258675946
413 10600.84767524572
414 10604.38754236054
415 10607.73902966095
416 10611.23854214211
417 10614.54871225556
418 10618.04725999647
419 10621.39248190281
420 10626.46793942684
421 10629.62324351461
422 10632.95220893124
423 10636.08013709112
424 10639.39594479746
425 10642.4918626554
426 10645.78516828195
427 10648.88864731938
428 10652.22043908677
429 10655.33831675903
430 10658.72589980122
431 10661.87112808391
432 10665.26772496636
433 10668.4341514493
434 10671.86736426053
435 10675.09880754721
436 10678.54119021305
437 10681.77983932457
438 10685.22833003026
439 10688.43877344859
440 10691.84115205985
441 10695.03669299847
442 10698.42638295511
443 10701.62971468439
444 10704.98561672145
445 10708.17278876104
446 10711.54359210934
447 10714.68394825102
448 10718.01566767582
449 10721.16078005495
450 10724.50185348733
451 10727.65931276945
452 10731.00387093239
453 10734.13832794743
454 10737.43082097631
455 10740.52220184305
456 10743.79571699899
457 10746.86067435878
458 10750.12521284322
459 10753.17952633067
460 10756.45601921012
461 10759.48218668076
462 10762.68185461266
463 10765.67246059765
464 10768.85798529329
465 10771.84951659504
466 10775.00704574854
467 10777.94440413792
468 10781.11620538921
469 10784.02626538156
470 10787.1432869256
471 10790.07871292215
472 10793.15300024139
473 10796.07136999756
474 10799.12258489281
475 10801.98082683732
476 10804.99873969455
477 10807.83347900636
478 10810.80268780288
479 10813.6023827213
480 10816.53811129011
481 10819.29755457189
482 10822.18812445137
483 10824.95106908905
484 10827.84884366547
485 10830.56974623279
486 10833.41752958788
487 10836.09978005933
488 10838.9206845241
489 10841.54887332809
490 10844.31479537743
491 10846.91317892284
492 10849.655883937
493 10852.2102702048
494 10854.91361572578
495 10857.42505122419
496 10860.13340940797
497 10862.58155253481
498 10865.24548341917
499 10867.67926550205
500 10870.32667665424
501 10872.75204599129
502 10875.39007355809
503 10877.79633948243
504 10880.40965458127
505 10882.79529441827
506 10885.37479540777
507 10887.73607616262
508 10890.27642060765
509 10892.61862901028
510 10895.11905089569
511 10897.43487565552
512 10899.90683345761
513 10902.20150132418
514 10904.65245900087
515 10906.91169933122
516 10909.32884442649
517 10911.56593086243
518 10913.94686024644
519 10916.14394148641
520 10918.49086996224
521 10920.67134217556
522 10922.98251110675
523 10925.1185752596
524 10927.40007526485
525 10929.51316054613
526 10931.77104407274
527 10933.83976802165
528 10936.08309282131
529 10938.10293023223
530 10940.31625011409
531 10942.30859475112
532 10944.50362728826
533 10946.46674918013
534 10948.65021666164
535 10950.59839697942
536 10952.74607638436
537 10954.65563232263
538 10956.77021754344
539 10958.65279933644
540 10960.7583016518
541 10962.63584296424
542 10964.70366837435
543 10966.54426615732
544 10968.58370596619
545 10970.41629954976
546 10972.43912668251
547 10974.26188096926
548 10976.25323429169
549 10978.06399473542
550 10980.02829344066
551 10981.82700864886
552 10983.77627750045
553 10985.53296664504
554 10987.4604594073
555 10989.21087052515
556 10991.11686928152
557 10992.86203406324
558 10994.7630189355
559 10996.48497095851
560 10998.34564287829
561 11000.04549192532
562 11001.89146219455
563 11003.60124221824
564 11005.44650069754
565 11007.13512307793
566 11008.95297849026
567 11010.61780741603
568 11012.40074247232
569 11014.0429568388
570 11015.82348131248
571 11017.45226180778
572 11019.21765792347
573 11020.81648955522
574 11022.5549835418
575 11024.13469873606
576 11025.8705091691
577 11027.42289472304
578 11029.14589696733
579 11030.66445430287
580 11032.35340332496
581 11033.85637147232
582 11035.55304305646
583 11037.05985435434
584 11038.7188803074
585 11040.20599536879
586 11041.85816979876
587 11043.31659287878
588 11044.91963652139
589 11046.35871048527
590 11047.97159010352
591 11049.39308846449
592 11050.98916661154
593 11052.38500641287
594 11053.96277311185
595 11055.32688541662
596 11056.88523881432
597 11058.2438086099
598 11059.80609287303
599 11061.14002101238
600 11062.68640094239
601 11064.00463394023
602 11065.5212384509
603 11066.83247468336
604 11068.34624573179
605 11069.63803847258
606 11071.15140054829
607 11072.41781037749
608 11073.89398326562
609 11075.14394566232
610 11076.59427144755
611 11077.84983203827
612 11079.28284252459
613 11080.50078674503
614 11081.92701889285
615 11083.14877719521
616 11084.56294394877
617 11085.76677486597
618 11087.17224050077
619 11088.36716562247
620 11089.72694878966
621 11090.91062276517
622 11092.2620625758
623 11093.42362952832
624 11094.76592540377
625 11095.89420733611
626 11097.24901933721
627 11098.3791663704
628 11099.70610872052
629 11100.83677941079
630 11102.17513416143
631 11103.28323151355
632 11104.57989915648
633 11105.67799764418
634 11106.98752571809
635 11108.07431077565
636 11109.35754544864
637 11110.40791269317
638 11111.71809432721
639 11112.79966467182
640 11114.07856398446
641 11115.14119345535
642 11116.40373290831
643 11117.46725755458
644 11118.72468133299
645 11119.76374653053
646 11121.03488865736
647 11122.05644040697
648 11123.29136607434
649 11124.3151652658
650 11125.54466565853
651 11126.55809255233
652 11127.77784911931
653 11128.7624606867
654 11129.97768028402
655 11130.96038120865
656 11132.15979427076
657 11133.14719591059
658 11134.35897946991
659 11135.35265541941
660 11136.52901167173
661 11137.51145181169
662 11138.67295992617
663 11139.63219754369
664 11140.77334237798
665 11141.73518878375
666 11142.90142776503
667 11143.84283333208
668 11144.98881821499
669 11145.92109171404
670 11147.08781929156
671 11148.01869192655
672 11149.17240569889
673 11150.08047349091
674 11151.22962363295
675 11152.11081466927
676 11153.27547665897
677 11154.13174175225
678 11155.29218636006
679 11156.12833425106
680 11157.26880039842
681 11158.10237514944
682 11159.24488536641
683 11160.08025062215
684 11161.20261501945
685 11162.01367857256
686 11163.11529959215
687 11163.9393905228
688 11165.02225859286
689 11165.83486800023
690 11166.91679837655
691 11167.73420593688
692 11168.76855333447
693 11169.58627115757
694 11170.63671895899
695 11171.44636856486
696 11172.47411455978
697 11173.26439090377
698 11174.28724021735
699 11175.10088857665
700 11176.12158982536
701 11176.91869081644
702 11177.94422520045
703 11178.74561826268
704 11179.75635628206
705 11180.53276563936
706 11181.54933822113
707 11182.31680176117
708 11183.31464168414
709 11184.06498178901
710 11185.06485663421
711 11185.82302018831
712 11186.80792451428
713 11187.56167660248
714 11188.56435618934
715 11189.31478335736
716 11190.27313209915
717 11191.01942082525
718 11191.97765500859
719 11192.71314921057
720 11193.66631193908
721 11194.39632605648
722 11195.35965543171
723 11196.08558472269
724 11197.02991555078
725 11197.74717093775
726 11198.70332708107
727 11199.41713984341
728 11200.36156625862
729 11201.04978632378
730 11201.98296879519
731 11202.68066569091
732 11203.60748281609
733 11204.31526292071
734 11205.25194980586
735 11205.9351057991
736 11206.87046392668
737 11207.55515056994
738 11208.46669691395
739 11209.16127058908
740 11210.06091574094
741 11210.73602450717
742 11211.64283690944
743 11212.32423006286
744 11213.21934664406
745 11213.89079265097
746 11214.79402710059
747 11215.47367920052
748 11216.36230037841
749 11217.02045663052
750 11217.93675189104
751 11218.59962948357
752 11219.46638444396
753 11220.12363856216
754 11220.98985662192
755 11221.65978244654
756 11222.55151413105
757 11223.20091692522
758 11224.06225316792
759 11224.70632761586
760 11225.5767732884
761 11226.20378650214
762 11227.07377513083
763 11227.7273109886
764 11228.58065284866
765 11229.20456724754
766 11230.05503431714
767 11230.68950223546
768 11231.49685710584
769 11232.13517823414
770 11232.93916693558
771 11233.58258662064
772 11234.40542578905
773 11235.03270957223
774 11235.85116232156
775 11236.48243050918
776 11237.29009004672
777 11237.89375872937
778 11238.70272291107
779 11239.33082025547
780 11240.131744636
781 11240.74392431862
782 11241.55992607244
783 11242.17795076966
784 11242.99107719067
785 11243.5905535135
786 11244.38304061045
787 11244.99244724838
788 11245.78263578634
789 11246.37905436534
790 11247.16698255063
791 11247.74318719243
792 11248.50650884841
793 11249.09360509584
794 11249.85414946182
795 11250.4516684524
796 11251.1888376832
797 11251.76401933037
798 11252.51007596972
799 11253.11755444302
800 11253.85909301206
801 11254.4459716149
802 11255.17133598051
803 11255.73871516791
804 11256.47086429301
805 11257.04468038415
806 11257.76907331416
807 11258.3291447234
808 11259.0464042359
809 11259.59266509953
810 11260.31858891527
811 11260.87397201421
812 11261.6027477405
813 11262.12047703321
814 11262.85486600672
815 11263.37768465581
816 11264.11523531229
817 11264.63118914218
818 11265.36052706481
819 11265.8516721215
820 11266.60052184865
821 11267.07893422566
822 11267.80303399321
823 11268.30717112651
824 11269.03401210743
825 11269.52755988109
826 11270.24672807982
827 11270.73493001149
828 11271.44510519555
829 11271.94327718078
830 11272.65265073537
831 11273.15053069527
832 11273.84894447241
833 11274.3216740645
834 11275.01939241638
835 11275.50699389551
836 11276.19385449459
837 11276.68030068104
838 11277.34037606375
839 11277.81517116645
840 11278.50904792271
841 11278.97531540461
842 11279.65991923941
843 11280.1505440393
844 11280.83264458381
845 11281.29410226054
846 11281.99261732415
847 11282.45068341499
848 11283.12598198326
849 11283.60044434892
850 11284.26556792897
851 11284.72315846605
852 11285.37964094385
853 11285.84367459051
854 11286.50138543179
855 11286.95349000036
856 11287.61235675372
857 11288.08085419343
858 11288.7217813455
859 11289.18147788215
860 11289.81682796456
861 11290.28467641135
862 11290.90939862179
863 11291.36579234018
864 11291.98895945948
865 11292.44158073153
866 11293.07039807932
867 11293.52759228098
868 11294.13584568271
869 11294.58340071956
870 11295.18178596818
871 11295.63027696674
872 11296.22499072564
873 11296.66733086825
874 11297.27230354474
875 11297.70929390147
876 11298.31449367774
877 11298.7451807548
878 11299.34914101933
879 11299.77674021798
880 11300.35991281846
881 11300.78896128382
882 11301.37693513499
883 11301.79686473336
884 11302.39399445754
885 11302.79019066766
886 11303.4041681032
887 11303.80795083825
888 11304.41731281954
889 11304.78570684861
890 11305.38096017469
891 11305.77715104349
892 11306.37884477867
893 11306.77657806502
894 11307.38321396974
895 11307.75848415357
896 11308.36327469183
897 11308.74210023191
898 11309.33652462845
899 11309.73298695478
900 11310.31783609735
901 11310.681646016
902 11311.25451487082
903 11311.61681830514
904 11312.20385823737
905 11312.57778067838
906 11313.15385702776
907 11313.54894026092
908 11314.10723887624
909 11314.48552334184
910 11315.0387912426
911 11315.40450174716
912 11315.94602137067
913 11316.30917752259
914 11316.82428292977
915 11317.20830717201
916 11317.7311111804
917 11318.10782307623
918 11318.62896215167
919 11319.00289734707
920 11319.51371402755
921 11319.8902080552
922 11320.39083083003
923 11320.74653891
924 11321.25228881484
925 11321.58836810535
926 11322.1115478446
927 11322.44932526168
928 11322.97973348582
929 11323.31947344098
930 11323.84830147396
931 11324.18586667127
932 11324.71520834331
933 11325.02507346676
934 11325.56522088131
935 11325.85636196453
936 11326.41240469171
937 11326.69757353568
938 11327.22941548719
939 11327.53257911964
940 11328.07327171218
941 11328.36780597492
942 11328.89458041953
943 11329.1879040025
944 11329.72135545694
945 11329.9966073359
946 11330.50827519416
947 11330.78998853361
948 11331.31254049237
949 11331.59830928632
950 11332.09741687744
951 11332.37520340211
952 11332.87051657355
953 11333.14698110723
954 11333.63736067118
955 11333.92460324514
956 11334.40895505163
957 11334.70426527787
958 11335.1844032816
959 11335.48598447201
960 11335.97032171612
961 11336.27286001536
962 11336.74066851801
963 11337.05938792931
964 11337.51159653808
965 11337.81055260228
966 11338.27565108623
967 11338.57305534406
968 11339.02903782266
969 11339.3228183546
970 11339.7726983629
971 11340.0453318384
972 11340.51440182796
973 11340.77696428112
974 11341.25744620241
975 11341.53076556242
976 11342.01366958727
977 11342.2474268983
978 11342.72543345634
979 11342.94853383234
980 11343.42122301889
981 11343.65570830142
982 11344.13245601598
983 11344.36172763873
984 11344.83064479171
985 11345.05408987337
986 11345.5249388168
987 11345.74311532216
988 11346.20478301932
989 11346.42954641712
990 11346.87452248758
991 11347.09746814269
992 11347.55922139112
993 11347.77763518874
994 11348.22385498403
995 11348.44191931069
996 11348.88729504257
997 11349.12563180292
998 11349.55981553605
999 11349.78585063148
1000 11350.21019120762
1001 11350.45059390095
1002 11350.86324312546
1003 11351.09831985614
1004 11351.50460827126
1005 11351.75078571625
1006 11352.15991919442
1007 11352.40006152548
1008 11352.79511690491
1009 11353.02299026366
1010 11353.41798919922
1011 11353.66102802954
1012 11354.03278723116
1013 11354.27228872766
1014 11354.66813920751
1015 11354.9009662869
1016 11355.32174351422
1017 11355.54980148605
1018 11355.94591732013
1019 11356.14628497098
1020 11356.56113872388
1021 11356.7616846718
1022 11357.17925846109
1023 11357.36661471131
1024 11357.78183939962
1025 11357.96786239226
1026 11358.3998076124
1027 11358.56647079481
1028 11358.99285628453
1029 11359.1691528745
1030 11359.58089298159
1031 11359.746151049
1032 11360.16299977445
1033 11360.3436241567
1034 11360.73910548993
1035 11360.93156060058
1036 11361.3306755742
1037 11361.52637832114
1038 11361.92404505701
1039 11362.11115510189
1040 11362.48365312021
1041 11362.66971085022
1042 11363.0280444389
1043 11363.21612405771
1044 11363.57921668817
1045 11363.77548481994
1046 11364.13919525704
1047 11364.33517645172
1048 11364.69978768431
1049 11364.89330100843
1050 11365.25770484156
1051 11365.45750423779
1052 11365.81473876881
1053 11366.02121623238
1054 11366.37828398218
1055 11366.56451943151
1056 11366.93077035045
1057 11367.10611087515
1058 11367.46293380684
1059 11367.63925603774
1060 11367.99771668765
1061 11368.16584824026
1062 11368.52026323824
1063 11368.68210088004
1064 11369.04341401982
1065 11369.21162174267
1066 11369.56881452624
1067 11369.72299603775
1068 11370.08104134171
1069 11370.23996849765
1070 11370.59935071959
1071 11370.75690279927
1072 11371.09580951803
1073 11371.27344813651
1074 11371.59248246544
1075 11371.75482473987
1076 11372.08103611097
1077 11372.24304254951
1078 11372.57830624483
1079 11372.73260911214
1080 11373.0484305532
1081 11373.21581556287
1082 11373.5296285051
1083 11373.68241112555
1084 11374.01585924463
1085 11374.16563382647
1086 11374.48658466546
1087 11374.64609372953
1088 11374.96192985837
1089 11375.1311655255
1090 11375.44860418227
1091 11375.59277536233
1092 11375.91155254517
1093 11376.04854856275
1094 11376.37366870462
1095 11376.51828858388
1096 11376.83320658896
1097 11376.9554733884
1098 11377.3061625855
1099 11377.41092667288
1100 11377.75322115724
1101 11377.8705572019
1102 11378.21126612659
1103 11378.33424672613
1104 11378.6794195692
1105 11378.7887055634
1106 11379.11282740476
1107 11379.22834477394
1108 11379.5581797743
1109 11379.66695511833
1110 11379.99911200767
1111 11380.11546924885
1112 11380.42519894247
1113 11380.54906911199
1114 11380.87132265775
1115 11380.99260900451
1116 11381.30254241938
1117 11381.40294355956
1118 11381.69877920465
1119 11381.80839433486
1120 11382.11306514017
1121 11382.21999039749
1122 11382.51072476603
1123 11382.62680894946
1124 11382.94750114768
1125 11383.04566618224
1126 11383.35985676634
1127 11383.47397009913
1128 11383.76814177886
1129 11383.87739349383
1130 11384.17053565778
1131 11384.27313507249
1132 11384.55972947562
1133 11384.66248034688
1134 11384.95197486912
1135 11385.05346563875
1136 11385.35214376834
1137 11385.45167747076
1138 11385.73166612446
1139 11385.84724302743
1140 11386.11821839059
1141 11386.21423708305
1142 11386.50659078851
1143 11386.61318588049
1144 11386.89793486543
1145 11387.01408180536
1146 11387.30061801161
1147 11387.40175619952
1148 11387.69130151542
1149 11387.78668364911
1150 11388.06010142097
1151 11388.1602695191
1152 11388.44525981278
1153 11388.54220244342
1154 11388.83571223907
1155 11388.92364165659
1156 11389.21225568661
1157 11389.2980051816
1158 11389.58864563209
1159 11389.67425012799
1160 11389.94394522001
1161 11390.02076874275
1162 11390.28783815312
1163 11390.38580546079
1164 11390.64192953402
1165 11390.7387427107
1166 11391.01910181368
1167 11391.10040876778
1168 11391.36579632388
1169 11391.44904095188
1170 11391.70370010108
1171 11391.77818874071
1172 11392.04776056213
1173 11392.13429793448
1174 11392.38449395484
1175 11392.47404541487
1176 11392.73280898092
1177 11392.80632901267
1178 11393.07038346283
1179 11393.11873417899
1180 11393.37076371315
1181 11393.44369538368
1182 11393.70301059658
1183 11393.76714613712
1184 11394.04351269936
1185 11394.09528471972
1186 11394.34704971702
1187 11394.40386888104
1188 11394.67020731667
1189 11394.73240798817
1190 11395.00260345483
1191 11395.04809039681
1192 11395.30940449786
1193 11395.35231377303
1194 11395.62690262923
1195 11395.66800389363
1196 11395.95047059857
1197 11395.99230265771
1198 11396.26379610783
1199 11396.30228563428
1200 11396.56302032658
1201 11396.60056427098
1202 11396.85871085348
1203 11396.88902743365
1204 11397.14477468109
1205 11397.18766924401
1206 11397.43279816916
1207 11397.48213857686
1208 11397.71845104115
1209 11397.74809814568
1210 11398.00127345255
1211 11398.04439377528
1212 11398.30521155051
1213 11398.34870964083
1214 11398.59407895556
1215 11398.62024670869
1216 11398.883890211
1217 11398.93244124005
1218 11399.17825431515
1219 11399.20896373906
1220 11399.47079893731
1221 11399.49597776858
1222 11399.75165518224
1223 11399.76715144681
1224 11400.01305111354
1225 11400.03514996128
1226 11400.30296868307
1227 11400.33342354776
1228 11400.57460655298
1229 11400.60080704493
1230 11400.85407950268
1231 11400.88847297774
1232 11401.12831245744
1233 11401.15916404748
1234 11401.39022922742
1235 11401.43190459166
1236 11401.64679152828
1237 11401.7127031115
1238 11401.91833150047
1239 11401.96205130515
1240 11402.16560805648
1241 11402.19822154255
1242 11402.41471660801
1243 11402.45123905378
1244 11402.66355833332
1245 11402.70672017955
1246 11402.90956868962
1247 11402.95585859798
1248 11403.16328936546
1249 11403.20266616523
1250 11403.41802062528
1251 11403.45136795806
1252 11403.6751639363
1253 11403.70753359427
1254 11403.92678644914
1255 11403.97057167838
1256 11404.17183451919
1257 11404.21330846624
1258 11404.424445205
1259 11404.43860104656
1260 11404.65404989396
1261 11404.68394859527
1262 11404.89080397583
1263 11404.92793663606
1264 11405.14234634406
1265 11405.16926100424
1266 11405.38951154757
1267 11405.41105398482
1268 11405.62720747778
1269 11405.64398895164
1270 11405.86171088404
1271 11405.88422482992
1272 11406.09409054188
1273 11406.12889712594
1274 11406.33666993151
1275 11406.37014675363
1276 11406.57798642545
1277 11406.59953274669
1278 11406.80617589226
1279 11406.82106541718
1280 11407.04246916189
1281 11407.05845292083
1282 11407.26920418524
1283 11407.27466582344
1284 11407.47899016963
1285 11407.49436062392
1286 11407.69830698596
1287 11407.70623100376
1288 11407.91617839546
1289 11407.92340113863
1290 11408.12926842168
1291 11408.1389520039
1292 11408.36144681665
1293 11408.36900833708
1294 11408.56100853337
1295 11408.57496392404
1296 11408.78361948797
1297 11408.79226034176
1298 11408.99241854034
1299 11408.99193292359
1300 11409.18864481249
1301 11409.20423236215
1302 11409.4002810903
1303 11409.40335365049
1304 11409.60618947879
1305 11409.60560183824
1306 11409.81179464374
1307 11409.80885751186
1308 11410.0060620798
1309 11410.01633252435
1310 11410.20585288838
1311 11410.21927958264
1312 11410.42428884288
1313 11410.43897915439
1314 11410.63799144706
1315 11410.63867338621
1316 11410.83759204207
1317 11410.8249537888
1318 11411.02770437477
1319 11411.03548520017
1320 11411.21594200879
1321 11411.23659995485
1322 11411.40554256976
1323 11411.40847609824
1324 11411.58151732309
1325 11411.60696996348
1326 11411.77710259364
1327 11411.82216212075
1328 11411.96786387249
1329 11411.99763788002
1330 11412.17149623633
1331 11412.18923090613
1332 11412.34590058356
1333 11412.37445283938
1334 11412.53511714175
1335 11412.55974101466
1336 11412.7329788665
1337 11412.75549360065
1338 11412.91930983022
1339 11412.92187020396
1340 11413.08464424248
1341 11413.10881275432
1342 11413.25755965071
1343 11413.26610005524
1344 11413.43505757601
1345 11413.42585008593
1346 11413.60469489694
1347 11413.58281205653
1348 11413.77779013014
1349 11413.75980352076
1350 11413.93986064544
1351 11413.93035494625
1352 11414.11111883703
1353 11414.10595471645
1354 11414.28999453155
1355 11414.28009709895
1356 11414.46567451627
1357 11414.4621435443
1358 11414.64402255879
1359 11414.62398029648
1360 11414.77460036176
1361 11414.78812963301
1362 11414.95106372993
1363 11414.95164976003
1364 11415.1125322357
1365 11415.11446145586
1366 11415.26047498987
1367 11415.26398942936
1368 11415.42335559323
1369 11415.43074188485
1370 11415.58664842345
1371 11415.57918603599
1372 11415.72601832427
1373 11415.72700926743
1374 11415.88913820952
1375 11415.87747799156
1376 11416.0386300338
1377 11416.03849448311
1378 11416.20383551233
1379 11416.19651774003
1380 11416.36940374263
1381 11416.34981389633
1382 11416.50888592228
1383 11416.48253193073
1384 11416.63027306287
1385 11416.62178722016
1386 11416.78910312567
1387 11416.7685332038
1388 11416.92489039721
1389 11416.90667464562
1390 11417.07187875175
1391 11417.05977322522
1392 11417.22102341798
1393 11417.21339063096
1394 11417.3903871286
1395 11417.37957868298
1396 11417.52192728474
1397 11417.51605741427
1398 11417.66127803871
1399 11417.64404713435
1400 11417.79794120637
1401 11417.78292016945
1402 11417.92521673013
1403 11417.91742679925
1404 11418.05218195731
1405 11418.03481944688
1406 11418.18016501924
1407 11418.17228528137
1408 11418.32310965514
1409 11418.32526506121
1410 11418.47103708946
1411 11418.44964909235
1412 11418.60464664079
1413 11418.5894933725
1414 11418.75542014673
1415 11418.73219678489
1416 11418.87794656161
1417 11418.87262093484
1418 11419.01685028599
1419 11418.99489946594
1420 11419.14286221117
1421 11419.12199861502
1422 11419.25761738444
1423 11419.24139458781
1424 11419.37894757769
1425 11419.35640748688
1426 11419.49334705416
1427 11419.47565945734
1428 11419.60461041771
1429 11419.594069025
1430 11419.72578791051
1431 11419.71096688973
1432 11419.83623829453
1433 11419.82914357798
1434 11419.96852987343
1435 11419.95693279165
1436 11420.08412724648
1437 11420.07703462713
1438 11420.20008376301
1439 11420.18762138183
1440 11420.33813114433
1441 11420.31216774806
1442 11420.45993914298
1443 11420.41600813578
1444 11420.56167144492
1445 11420.51956630165
1446 11420.67288188538
1447 11420.64044949579
1448 11420.79812989432
1449 11420.75319232425
1450 11420.91619537076
1451 11420.87370513729
1452 11421.02227101029
1453 11420.99266746974
1454 11421.13248536354
1455 11421.10086373658
1456 11421.25573869239
1457 11421.23490358868
1458 11421.38481889589
1459 11421.35348129988
1460 11421.48754315179
1461 11421.45334714302
1462 11421.58446270378
1463 11421.56350908089
1464 11421.68384387962
1465 11421.67723631211
1466 11421.80034934931
1467 11421.78981214256
1468 11421.90739553228
1469 11421.90242214512
1470 11422.02213080124
1471 11422.00964537921
1472 11422.11853135248
1473 11422.09945333675
1474 11422.21378414928
1475 11422.18890427283
1476 11422.31152079525
1477 11422.29193273722
1478 11422.41689685242
1479 11422.38967578202
1480 11422.52471691068
1481 11422.49315590295
1482 11422.62764765176
1483 11422.58826297437
1484 11422.70569529291
1485 11422.67325768201
1486 11422.8082349323
1487 11422.77970643261
1488 11422.90123482684
1489 11422.87715554067
1490 11422.99751554447
1491 11422.97250211878
1492 11423.0924989314
1493 11423.05648174481
1494 11423.19226055296
1495 11423.16399573008
1496 11423.28403204899
1497 11423.2559982986
1498 11423.39374001807
1499 11423.34821143531
1500 11423.48085134864
1501 11423.45981440498
1502 11423.58363352584
1503 11423.54523506599
1504 11423.66612856458
1505 11423.63032981689
1506 11423.74359674442
1507 11423.71026046739
1508 11423.82849586766
1509 11423.82101928995
1510 11423.92319851018
1511 11423.90021909957
1512 11423.99642028498
1513 11423.9711463059
1514 11424.07504625695
1515 11424.05717796971
1516 11424.18168092087
1517 11424.15029047647
1518 11424.26053813671
1519 11424.2216637862
1520 11424.33226071872
1521 11424.3020182521
1522 11424.43162685186
1523 11424.3884029392
1524 11424.51633098962
1525 11424.47635596066
1526 11424.61427921877
1527 11424.56312304067
1528 11424.68683294387
1529 11424.63924481004
1530 11424.77674039907
1531 11424.7222091446
1532 11424.8624393639
1533 11424.81230878387
1534 11424.95512546309
1535 11424.89506594504
1536 11425.02259734788
1537 11424.96035977691
1538 11425.07813873876
1539 11425.04341995903
1540 11425.18029971356
1541 11425.12809042843
1542 11425.24027460602
1543 11425.19690813137
1544 11425.31910173683
1545 11425.29349768607
1546 11425.39598507695
1547 11425.35005331412
1548 11425.46158569873
1549 11425.42829763824
1550 11425.54848747008
1551 11425.51316948813
1552 11425.60235025735
1553 11425.56698585146
1554 11425.6743472759
1555 11425.63716045781
1556 11425.76235744942
1557 11425.74088596478
1558 11425.85840518428
1559 11425.8002481765
1560 11425.91370856367
1561 11425.86553309895
1562 11425.99488023648
1563 11425.94435632111
1564 11426.05663817449
1565 11426.00707304553
1566 11426.12779525144
1567 11426.09146699013
1568 11426.2119206936
1569 11426.16396571592
1570 11426.26710896269
1571 11426.19943005316
1572 11426.32745359303
1573 11426.27518469296
1574 11426.40841751067
1575 11426.3498896496
1576 11426.46870076418
1577 11426.42720804204
1578 11426.56034355312
1579 11426.49534876255
1580 11426.61953161432
1581 11426.56378427251
1582 11426.68714642529
1583 11426.62578240043
1584 11426.73470167085
1585 11426.6870190545
1586 11426.8134780927
1587 11426.75483510133
1588 11426.85648705382
1589 11426.79844122786
1590 11426.90222130653
1591 11426.85653091275
1592 11426.96768403932
1593 11426.92060986486
1594 11427.02521895795
1595 11426.9785062323
1596 11427.08435406139
1597 11427.04650564056
1598 11427.17000957542
1599 11427.11395234646
1600 11427.21836178559
1601 11427.17178258333
1602 11427.28867409189
1603 11427.23916915354
1604 11427.37198291925
1605 11427.31722654239
1606 11427.43172191765
1607 11427.36974924378
1608 11427.47201769668
1609 11427.41445850828
1610 11427.53479747634
1611 11427.48251229465
1612 11427.58922838489
1613 11427.53283105335
1614 11427.6400669857
1615 11427.58555969664
1616 11427.70757959585
1617 11427.68433391479
1618 11427.79273930067
1619 11427.7431829422
1620 11427.84834244947
1621 11427.81197693721
1622 11427.91354587934
1623 11427.86805805164
1624 11427.97463980478
1625 11427.92473475492
1626 11428.03272077842
1627 11427.96231459601
1628 11428.07033581281
1629 11428.00249221303
1630 11428.1068805274
1631 11428.05317444241
1632 11428.1603266319
1633 11428.10065098175
1634 11428.2151287603
1635 11428.15403907547
1636 11428.26631563368
1637 11428.21281379035
1638 11428.31364220233
1639 11428.25848525579
1640 11428.35401114616
1641 11428.31532378859
1642 11428.41513874251
1643 11428.37698899393
1644 11428.47279166716
1645 11428.42921565975
1646 11428.51969750096
1647 11428.47005730672
1648 11428.55578424141
1649 11428.51429115728
1650 11428.60712859379
1651 11428.552875651
1652 11428.64267853943
1653 11428.59050181843
1654 11428.70656929405
1655 11428.64869003372
1656 11428.76121640335
1657 11428.69453096197
1658 11428.80543432085
1659 11428.73757360287
1660 11428.85203703343
1661 11428.78959363284
1662 11428.91814594885
1663 11428.85043430539
1664 11428.96338913475
1665 11428.89333691284
1666 11428.99002298805
1667 11428.93972800018
1668 11429.02806705826
1669 11428.98826779681
1670 11429.08518581537
1671 11429.02652007507
1672 11429.10645425647
1673 11429.06623866521
1674 11429.15226279061
1675 11429.10404656528
1676 11429.20128568217
1677 11429.14283494914
1678 11429.23656922281
1679 11429.18080570298
1680 11429.28078882224
1681 11429.22314951914
1682 11429.34276067148
1683 11429.27953330669
1684 11429.40703307113
1685 11429.33659782224
1686 11429.46951811365
1687 11429.39622623646
1688 11429.50299395159
1689 11429.4274228289
1690 11429.52774755216
1691 11429.46773935409
1692 11429.58461159765
1693 11429.51451934616
1694 11429.6271351219
1695 11429.54860793452
1696 11429.64164750142
1697 11429.5750702907
1698 11429.68500131551
1699 11429.62324382747
1700 11429.72228396139
1701 11429.66641751362
1702 11429.78055363149
1703 11429.71391968475
1704 11429.81340026267
1705 11429.75815898341
1706 11429.86287654993
1707 11429.79701475494
1708 11429.89063649274
1709 11429.82828976669
1710 11429.92349984705
1711 11429.86530824599
1712 11429.95150947329
1713 11429.90317472511
1714 11429.98879374155
1715 11429.9222695369
1716 11430.00961618042
1717 11429.95565945676
1718 11430.03706720726
1719 11429.97991997448
1720 11430.05182101066
1721 11430.0101720306
1722 11430.10590543152
1723 11430.05412843204
1724 11430.12880426821
1725 11430.0767163115
1726 11430.19407386103
1727 11430.12305289778
1728 11430.2229662587
1729 11430.14978029198
1730 11430.25633643291
1731 11430.18527761426
1732 11430.30235386227
1733 11430.23323458236
1734 11430.34927510901
1735 11430.26814016081
1736 11430.38491233803
1737 11430.29746111207
1738 11430.42392780652
1739 11430.32683878772
1740 11430.44217699746
1741 11430.35609382645
1742 11430.4878827319
1743 11430.40377664617
1744 11430.51712263491
1745 11430.42902109547
1746 11430.55582771849
1747 11430.457700584
1748 11430.57737106905
1749 11430.49745758206
1750 11430.59978647975
1751 11430.52349823622
1752 11430.60558542883
1753 11430.54552618481
1754 11430.6285102964
1755 11430.56969402585
1756 11430.65529264953
1757 11430.60968940399
1758 11430.68887435446
1759 11430.6278976006
1760 11430.70172319147
1761 11430.65561667152
1762 11430.74201197455
1763 11430.67776108319
1764 11430.77265790014
1765 11430.72499596272
1766 11430.81306327248
1767 11430.74643861542
1768 11430.84382518382
1769 11430.76456762103
1770 11430.87064004758
1771 11430.78152849547
1772 11430.88550786375
1773 11430.79543130876
1774 11430.9010127032
1775 11430.81577506668
1776 11430.92125207915
1777 11430.8391136019
1778 11430.96038654319
1779 11430.85801124914
1780 11430.99022061936
1781 11430.90830538235
1782 11431.03494456563
1783 11430.95181995789
1784 11431.06671217672
1785 11430.99734096785
1786 11431.10501078517
1787 11431.05200525439
1788 11431.14972738449
1789 11431.08938405944
1790 11431.16486583882
1791 11431.12243523129
1792 11431.21145091828
1793 11431.15135596938
1794 11431.22069425762
1795 11431.17055175949
1796 11431.24577575937
1797 11431.18812749553
1798 11431.2700872066
1799 11431.21995551788
1800 11431.30175360543
1801 11431.23820838678
1802 11431.33316613523
1803 11431.26776954628
1804 11431.34753420288
1805 11431.27244857682
1806 11431.36218088276
1807 11431.29405742669
1808 11431.39427785993
1809 11431.32684473925
1810 11431.41843589096
1811 11431.34332612689
1812 11431.4260036149
1813 11431.34492325235
1814 11431.44057190257
1815 11431.3815360682
1816 11431.46379317532
1817 11431.40418961388
1818 11431.48017484822
1819 11431.43072264829
1820 11431.51572653011
1821 11431.46638562305
1822 11431.55153003147
1823 11431.51221493501
1824 11431.58400238716
1825 11431.52557860228
1826 11431.60476813083
1827 11431.54751449543
1828 11431.61169286724
1829 11431.5629967797
1830 11431.63682488257
1831 11431.59829603294
1832 11431.67594989124
1833 11431.62219760489
1834 11431.69135560177
1835 11431.63074169948
1836 11431.69877730425
1837 11431.63334076189
1838 11431.72566890789
1839 11431.6473472882
1840 11431.74495647782
1841 11431.66558925724
1842 11431.76600056819
1843 11431.67873941957
1844 11431.7947752368
1845 11431.71116852819
1846 11431.82384635346
1847 11431.73235853024
1848 11431.82155966616
1849 11431.73807392361
1850 11431.84419885546
1851 11431.77138797024
1852 11431.87287097208
1853 11431.78221482771
1854 11431.86810282752
1855 11431.81004795625
1856 11431.89878410258
1857 11431.83408248501
1858 11431.91327234352
1859 11431.8611023712
1860 11431.92710597912
1861 11431.87177917879
1862 11431.94597415753
1863 11431.8892068009
1864 11431.97084042475
1865 11431.91502891867
1866 11431.98575650866
1867 11431.94610792594
1868 11432.01881554553
1869 11431.9775602385
1870 11432.05365199841
1871 11432.005209913
1872 11432.06304145851
1873 11432.00558269897
1874 11432.0765642345
1875 11432.0223545327
1876 11432.10230081115
1877 11432.02144222186
1878 11432.10482590277
1879 11432.03412591533
1880 11432.13190241921
1881 11432.05740508611
1882 11432.16197366264
1883 11432.07668914359
1884 11432.17036716418
1885 11432.08887945561
1886 11432.20963599388
1887 11432.12982712992
1888 11432.22757691583
1889 11432.13304930938
1890 11432.2349592032
1891 11432.15605100618
1892 11432.24405185901
1893 11432.17339399141
1894 11432.27155606686
1895 11432.19868246219
1896 11432.29033819842
1897 11432.2197788411
1898 11432.31357316531
1899 11432.23488531688
1900 11432.3106152816
1901 11432.22563895624
1902 11432.30138392733
1903 11432.25605900104
1904 11432.33844305623
1905 11432.28321687448
1906 11432.37254259951
1907 11432.31581383772
1908 11432.39825637974
1909 11432.34432551874
1910 11432.42986822356
1911 11432.35876868084
1912 11432.44538685939
1913 11432.3671466365
1914 11432.45445244136
1915 11432.38739745696
1916 11432.47260966824
1917 11432.39367195935
1918 11432.4858087346
1919 11432.40666029073
1920 11432.49181621535
1921 11432.40658580407
1922 11432.4906623998
1923 11432.41644022801
1924 11432.50167785973
1925 11432.42311825625
1926 11432.51705150988
1927 11432.44494582248
1928 11432.54401896198
1929 11432.48409803737
1930 11432.56380422465
1931 11432.48356265986
1932 11432.56516050504
1933 11432.48936046056
1934 11432.58241478968
1935 11432.50721712242
1936 11432.59904165598
1937 11432.50427177543
1938 11432.59277115932
1939 11432.50912654701
1940 11432.59842068104
1941 11432.53860367955
1942 11432.63013042394
1943 11432.55361335026
1944 11432.62312418785
1945 11432.54963531335
1946 11432.64998667822
1947 11432.58398279358
1948 11432.67114734794
1949 11432.5888655321
1950 11432.68981193054
1951 11432.61349411383
1952 11432.68949973282
1953 11432.62384784901
1954 11432.70847313845
1955 11432.63533814196
1956 11432.70804482226
1957 11432.63624765959
1958 11432.72069354348
1959 11432.65425293293
1960 11432.73851547129
1961 11432.66772614651
1962 11432.75761947406
1963 11432.69840332492
1964 11432.76649594376
1965 11432.70362672907
1966 11432.78385811327
1967 11432.75099308283
1968 11432.83452945483
1969 11432.76819466791
1970 11432.84181587791
1971 11432.78150415108
1972 11432.86252597056
1973 11432.79928071178
1974 11432.87111249117
1975 11432.79790679689
1976 11432.85687751025
1977 11432.77601050921
1978 11432.86683214231
1979 11432.79217650208
1980 11432.86942462069
1981 11432.7911072748
1982 11432.86907818924
1983 11432.79293438785
1984 11432.88628781417
1985 11432.79970861004
1986 11432.89473782862
1987 11432.80027890821
1988 11432.90438195841
1989 11432.80683738359
1990 11432.92642515092
1991 11432.81889443881
1992 11432.9345235725
1993 11432.82889927789
1994 11432.94389027416
1995 11432.84409361748
1996 11432.94335373494
1997 11432.85287147244
1998 11432.95744932947
1999 11432.87236193928
2000 11432.94555043282
2001 11432.86773245072
2002 11432.96740606914
2003 11432.87745177705
2004 11432.97202456608
2005 11432.89673189292
2006 11432.98688882832
2007 11432.90632909565
2008 11432.99608418433
2009 11432.91365277528
2010 11433.00535743075
2011 11432.94135477771
2012 11433.01515712537
2013 11432.94649768142
2014 11433.03869510926
2015 11432.95854714054
2016 11433.04303503339
2017 11432.97221568387
2018 11433.0404354725
2019 11432.95254392249
2020 11433.03796779294
2021 11432.94473533004
2022 11433.03534462092
2023 11432.95403210196
2024 11433.04618437596
2025 11432.95928548292
2026 11433.08153037094
2027 11432.98598108205
2028 11433.09475245335
2029 11433.00073208057
2030 11433.10178815783
2031 11433.03519942786
2032 11433.1241333734
2033 11433.04903808996
2034 11433.14621709592
2035 11433.06601230508
2036 11433.15411287124
2037 11433.08649367145
2038 11433.16792137096
2039 11433.08746303159
2040 11433.15841598111
2041 11433.07337505009
2042 11433.17007340105
2043 11433.10231736223
2044 11433.18610662891
2045 11433.12102855139
2046 11433.20005685641
2047 11433.13479599205
2048 11433.21488321817
2049 11433.13541482569
2050 11433.21151325744
2051 11433.13434914328
2052 11433.22383816594
2053 11433.13909487887
2054 11433.22441190782
2055 11433.14990686636
2056 11433.23726202397
2057 11433.14922641008
2058 11433.24363057209
2059 11433.16644698038
2060 11433.24087026799
2061 11433.16129511794
2062 11433.2550348633
2063 11433.17035576282
2064 11433.24476288308
2065 11433.17006633301
2066 11433.25127445274
2067 11433.20068958328
2068 11433.27492967295
2069 11433.207189196
2070 11433.27585662352
2071 11433.21011715183
2072 11433.29056539829
2073 11433.21240795566
2074 11433.28862179163
2075 11433.21989471166
2076 11433.28678817881
2077 11433.21500745383
2078 11433.28820453718
2079 11433.2317449619
2080 11433.32225305579
2081 11433.23020041839
2082 11433.31984091543
2083 11433.2352271178
2084 11433.29595779502
2085 11433.23380309965
2086 11433.31112109021
2087 11433.23834358842
2088 11433.32346105917
2089 11433.24440671477
2090 11433.32854570179
2091 11433.25899509156
2092 11433.34162236497
2093 11433.27398586304
2094 11433.36878887768
2095 11433.29295314015
2096 11433.37197438888
2097 11433.3104539829
2098 11433.36243470269
2099 11433.30513691002
2100 11433.37411440127
2101 11433.2946450944
2102 11433.36557729222
2103 11433.29918982951
2104 11433.35429128703
2105 11433.29375118286
2106 11433.36289155179
2107 11433.2957936616
2108 11433.37955915008
2109 11433.30712664956
2110 11433.39073090535
2111 11433.33274255821
2112 11433.39882946854
2113 11433.33651345251
2114 11433.40984649395
2115 11433.34681239155
2116 11433.42334578061
2117 11433.3611983343
2118 11433.42905840472
2119 11433.37507847543
2120 11433.46353134372
2121 11433.36900013188
2122 11433.46539583276
2123 11433.36993218139
2124 11433.4641774447
2125 11433.37454103114
2126 11433.47884972695
2127 11433.37372727685
2128 11433.47641582346
2129 11433.3885542649
2130 11433.4832871024
2131 11433.3963071313
2132 11433.49540021851
2133 11433.39806135806
2134 11433.51047293163
2135 11433.41078759899
2136 11433.50223394066
2137 11433.40647160039
2138 11433.48700768367
2139 11433.39636784196
2140 11433.47182293713
2141 11433.38761094272
2142 11433.470837483
2143 11433.41339027113
2144 11433.47677094137
2145 11433.40424900988
2146 11433.48267423734
2147 11433.4096434036
2148 11433.46757491784
2149 11433.4153081703
2150 11433.48378540139
2151 11433.42195479806
2152 11433.50833697354
2153 11433.44252636052
2154 11433.52448387216
2155 11433.4507927684
2156 11433.53261725992
2157 11433.4675485159
2158 11433.56739392094
2159 11433.46728701274
2160 11433.56405760663
2161 11433.45280138767
2162 11433.55769175719
2163 11433.44739281258
2164 11433.55869719451
2165 11433.44426934118
2166 11433.56731312099
2167 11433.46103365573
2168 11433.57685336205
2169 11433.48735857824
2170 11433.60133706214
2171 11433.49213629192
2172 11433.58962247694
2173 11433.50010538163
2174 11433.61031209759
2175 11433.51588117469
2176 11433.61482914112
2177 11433.53172818042
2178 11433.59753457939
2179 11433.53023289885
2180 11433.59701929858
2181 11433.53132438188
2182 11433.60397223139
2183 11433.54540860688
2184 11433.59304530708
2185 11433.52387045936
2186 11433.59397532928
2187 11433.52738968453
2188 11433.59250963574
2189 11433.5322496938
2190 11433.5935061994
2191 11433.54638888374
2192 11433.61574623907
2193 11433.55670483162
2194 11433.63680164235
2195 11433.57513857935
2196 11433.65968406956
2197 11433.58393461276
2198 11433.65246748103
2199 11433.58156386794
2200 11433.66147579708
2201 11433.57231914686
2202 11433.66352138757
2203 11433.57345496831
2204 11433.67064950622
2205 11433.56344094729
2206 11433.6679082151
2207 11433.57231588467
2208 11433.67022495951
2209 11433.57001131959
2210 11433.68238697527
2211 11433.57586490613
2212 11433.68952871964
2213 11433.58524037315
2214 11433.67265090682
2215 11433.58710313363
2216 11433.68613344695
2217 11433.59408838599
2218 11433.68814504883
2219 11433.59832807918
2220 11433.66842055916
2221 11433.5854906259
2222 11433.66146454434
2223 11433.59447163339
2224 11433.66867850789
2225 11433.59625448054
2226 11433.66078910971
2227 11433.60156434946
2228 11433.67934039762
2229 11433.61168167328
2230 11433.69065284571
2231 11433.60475136436
2232 11433.66749913014
2233 11433.60589533094
2234 11433.68922721338
2235 11433.61574401396
2236 11433.70314684911
2237 11433.60877437736
2238 11433.704525189
2239 11433.61951908722
2240 11433.73115168923
2241 11433.6331305451
2242 11433.72157543541
2243 11433.62138765729
2244 11433.72399635117
2245 11433.62564191658
2246 11433.72948207621
2247 11433.64378205696
2248 11433.74567813971
2249 11433.64879688879
2250 11433.73820090305
2251 11433.65470281215
2252 11433.74876467771
2253 11433.66668546671
2254 11433.74606024555
2255 11433.66809412952
2256 11433.72381250632
2257 11433.66189528316
2258 11433.74239881733
2259 11433.67228119298
2260 11433.74866277967
2261 11433.67144482185
2262 11433.74315128267
2263 11433.68451517469
2264 11433.75271089385
2265 11433.70715836334
2266 11433.75650343454
2267 11433.69293362835
2268 11433.77654603679
2269 11433.70073600605
2270 11433.78533912313
2271 11433.72160285543
2272 11433.78951024017
2273 11433.71351347127
2274 11433.7929338366
2275 11433.72649690133
2276 11433.81313223291
2277 11433.73042084899
2278 11433.80095235841
2279 11433.7222139378
2280 11433.80844042274
2281 11433.72057478367
2282 11433.82165195158
2283 11433.73269629578
2284 11433.81513793216
2285 11433.70572625912
2286 11433.79967976275
2287 11433.70559752886
2288 11433.80216931803
2289 11433.70577168943
2290 11433.8074072244
2291 11433.72141714934
2292 11433.82002941103
2293 11433.72987920462
2294 11433.83406567528
2295 11433.74050798349
2296 11433.83727632567
2297 11433.73416741675
2298 11433.83210528923
2299 11433.73803183795
2300 11433.82823177386
2301 11433.72752290122
2302 11433.81031793147
2303 11433.7230439583
2304 11433.80566334663
2305 11433.70179629172
2306 11433.78281528229
2307 11433.70268551079
2308 11433.76846086406
2309 11433.69336121404
2310 11433.76484715983
2311 11433.71359109931
2312 11433.76397024337
2313 11433.71807097543
2314 11433.79656016933
2315 11433.73245077104
2316 11433.80812785762
2317 11433.73247101848
2318 11433.81262698984
2319 11433.74047665179
2320 11433.81338485635
2321 11433.73774333911
2322 11433.82205658709
2323 11433.72929487792
2324 11433.82145159459
2325 11433.72006507495
2326 11433.84191838341
2327 11433.72725414716
2328 11433.83289296866
2329 11433.7031637847
2330 11433.8140552296
2331 11433.70506794912
2332 11433.8298129498
2333 11433.71493751631
2334 11433.83290215747
2335 11433.72572675587
2336 11433.83776937874
2337 11433.74204403057
2338 11433.85527596361
2339 11433.7446755224
2340 11433.83988339089
2341 11433.75419864636
2342 11433.84263088797
2343 11433.76484714055
2344 11433.84121606653
2345 11433.76419269164
2346 11433.82984873898
2347 11433.76643934337
2348 11433.83887177607
2349 11433.77686894397
2350 11433.83911254412
2351 11433.77497887592
2352 11433.83287206249
2353 11433.79566124533
2354 11433.84820746156
2355 11433.79435418307
2356 11433.85454944968
2357 11433.7956826892
2358 11433.86481876611
2359 11433.82374160238
2360 11433.87262135929
2361 11433.82042690415
2362 11433.88636448125
2363 11433.82500202857
2364 11433.88092719636
2365 11433.80077598831
2366 11433.87711641026
2367 11433.81186875777
2368 11433.89150841046
2369 11433.81017523137
2370 11433.89161903036
2371 11433.79532554389
2372 11433.882288137
2373 11433.78936828233
2374 11433.87444944673
2375 11433.78240182621
2376 11433.87672025033
2377 11433.78607363498
2378 11433.8827343988
2379 11433.7986315855
2380 11433.89001970843
2381 11433.78663916412
2382 11433.86309595779
2383 11433.78913756323
2384 11433.86643349437
2385 11433.78216742917
2386 11433.87204900893
2387 11433.78958874108
2388 11433.8711651749
2389 11433.79162316824
2390 11433.88660582823
2391 11433.81327739577
2392 11433.89562223764
2393 11433.801977182
2394 11433.88119777737
2395 11433.80445731978
2396 11433.88823037453
2397 11433.81825441081
2398 11433.91653710433
2399 11433.83731988707
2400 11433.90997718567
2401 11433.82994145541
2402 11433.92406304116
2403 11433.83519832429
2404 11433.9136091287
2405 11433.82023697712
2406 11433.90623575274
2407 11433.83588084077
2408 11433.91908795184
2409 11433.8259714836
2410 11433.91350706348
2411 11433.81752187281
2412 11433.88877135542
2413 11433.80802050608
2414 11433.89011910658
2415 11433.80469208181
2416 11433.88374926219
2417 11433.793907539
2418 11433.88682125631
2419 11433.8042662511
2420 11433.89003505693
2421 11433.80847959579
2422 11433.90175094579
2423 11433.815249752
2424 11433.88045773132
2425 11433.80153619682
2426 11433.88229298856
2427 11433.81205349219
2428 11433.90129179772
2429 11433.807453251
2430 11433.89301397786
2431 11433.81478010709
2432 11433.91250923603
2433 11433.82337527171
2434 11433.90446999121
2435 11433.83560386457
2436 11433.94669411616
2437 11433.85559229051
2438 11433.94822392579
2439 11433.86821571614
2440 11433.94760859515
2441 11433.8584613592
2442 11433.93955990144
2443 11433.85877382385
2444 11433.94578957027
2445 11433.85473095434
2446 11433.95334479885
2447 11433.86783039522
2448 11433.95400959459
2449 11433.86387746986
2450 11433.94210937596
2451 11433.85442279848
2452 11433.95193991556
2453 11433.85571882577
2454 11433.94936067637
2455 11433.86728755627
2456 11433.94837056688
2457 11433.86713278429
2458 11433.96722313485
2459 11433.86742803917
2460 11433.95497246944
2461 11433.87741644146
2462 11433.97189520715
2463 11433.88985551025
2464 11433.96330382102
2465 11433.87469754595
2466 11433.95754525632
2467 11433.88340758787
2468 11433.96035120419
2469 11433.89887734572
2470 11433.97115729151
2471 11433.89674366775
2472 11433.95288166861
2473 11433.88215358562
2474 11433.95298577203
2475 11433.88950214812
2476 11433.96819997559
2477 11433.90734142653
2478 11433.9824268009
2479 11433.92033238521
2480 11433.98720035384
2481 11433.90334069304
2482 11433.99349370729
2483 11433.90409740952
2484 11433.98851315851
2485 11433.90714373711
2486 11433.99776326249
2487 11433.90228048795
2488 11433.98800243688
2489 11433.87972415056
2490 11433.97429558487
2491 11433.88048375422
2492 11433.95886075398
2493 11433.8587826017
2494 11433.93406395317
2495 11433.85454646788
2496 11433.93021736206
2497 11433.85040584016
2498 11433.93476308727
2499 11433.87727919228
2500 11433.94997400968
2501 11433.88772050803
2502 11433.9727585551
2503 11433.8987644064
2504 11433.97577835226
2505 11433.88584448068
2506 11433.96724934616
2507 11433.89813509878
2508 11433.97388071659
2509 11433.88975100869
2510 11433.98261368602
2511 11433.8920798728
2512 11433.97748227116
2513 11433.87989124822
2514 11433.96040636271
2515 11433.88224230959
2516 11433.98127789989
2517 11433.89188360631
2518 11433.97675452895
2519 11433.90507923138
2520 11433.98491359698
2521 11433.90172086911
2522 11433.98228182145
2523 11433.89531082276
2524 11433.97040179235
2525 11433.89294408055
2526 11433.95599684776
2527 11433.90232090632
2528 11433.96819283456
2529 11433.9049561341
2530 11433.95692998423
2531 11433.88736078445
2532 11433.9406087377
2533 11433.8736794492
2534 11433.95303774945
2535 11433.87582251138
2536 11433.93845515766
2537 11433.87524465434
2538 11433.96994437254
2539 11433.89682821001
2540 11433.98208735224
2541 11433.88457900927
2542 11433.98031690033
2543 11433.88916436057
2544 11433.98174641222
2545 11433.88836099976
2546 11433.96635401824
2547 11433.87735742426
2548 11433.97268525414
2549 11433.88792080302
2550 11433.97693658745
2551 11433.90323922527
2552 11433.97606258476
2553 11433.8923455055
2554 11433.97354775184
2555 11433.88872741454
2556 11433.94995156781
2557 11433.8783763535
2558 11433.94874130604
2559 11433.8844122794
2560 11433.9545630903
2561 11433.87171683291
2562 11433.94867576074
2563 11433.87785645303
2564 11433.94065289893
2565 11433.88411077919
2566 11433.9535814545
2567 11433.88233565032
2568 11433.9535219755
2569 11433.87039589987
2570 11433.934994421
2571 11433.87154619856
2572 11433.9520455376
2573 11433.87606669068
2574 11433.95139862999
2575 11433.88382778186
2576 11433.96209280263
2577 11433.8890016789
2578 11433.97908496478
2579 11433.90714122128
2580 11433.98476571162
2581 11433.89744797317
2582 11433.98559060826
2583 11433.90448812378
2584 11433.99265095405
2585 11433.90767828089
2586 11433.99653467044
2587 11433.9124802215
2588 11433.99089689638
2589 11433.91984848897
2590 11434.00439689162
2591 11433.91439246294
2592 11433.99523422132
2593 11433.90018170928
2594 11433.98701665428
2595 11433.89037898902
2596 11433.97889533302
2597 11433.90056727621
2598 11433.99408383174
2599 11433.91288831702
2600 11433.99648799902
2601 11433.90866480336
2602 11434.00572134794
2603 11433.92522700297
2604 11434.02072906969
2605 11433.92407174952
2606 11434.01221620385
2607 11433.92963870971
2608 11433.99778942047
2609 11433.92533856679
2610 11434.01861311675
2611 11433.93253459487
2612 11434.00780339061
2613 11433.89722122446
2614 11434.00238934827
2615 11433.91219434483
2616 11433.9851763764
2617 11433.89520428506
2618 11433.98406288761
2619 11433.88551123489
2620 11433.97868111213
2621 11433.88586555514
2622 11433.98347298323
2623 11433.90405410596
2624 11433.99992633258
2625 11433.9251331295
2626 11434.00906502154
2627 11433.93251586423
2628 11434.00094023415
2629 11433.9226668809
2630 11433.99866997577
2631 11433.93499163285
2632 11433.99792615965
2633 11433.93760059329
2634 11433.99732939958
2635 11433.95481025211
2636 11434.0076498226
2637 11433.9378906282
2638 11434.00359282098
2639 11433.93383466646
2640 11433.99511924723
2641 11433.92942289593
2642 11433.992385112
2643 11433.93637368755
2644 11434.00534863687
2645 11433.93734363752
2646 11434.02005905101
2647 11433.9399893621
2648 11434.00400711481
2649 11433.93027215902
2650 11434.00155211173
2651 11433.91351151563
2652 11433.98852349179
2653 11433.90419746035
2654 11433.97038519761
2655 11433.90131866186
2656 11433.97918685551
2657 11433.89446399323
2658 11433.97137586443
2659 11433.8874107655
2660 11433.95656970244
2661 11433.88687808268
2662 11433.96647270217
2663 11433.90523067657
2664 11433.98535991875
2665 11433.89759424297
2666 11433.96786464735
2667 11433.89054457848
2668 11433.97929275946
2669 11433.89847616287
2670 11434.00328209401
2671 11433.91109818689
2672 11433.99517645905
2673 11433.89838669658
2674 11433.98716456329
2675 11433.90139989264
2676 11433.99952877113
2677 11433.89355740885
2678 11434.01883893077
2679 11433.91941902931
2680 11434.03038674188
2681 11433.9301913901
2682 11434.03094410027
2683 11433.92888205482
2684 11434.02127139774
2685 11433.93404902008
2686 11434.03971083887
2687 11433.94915387079
2688 11434.05510544669
2689 11433.94579499641
2690 11434.03281598584
2691 11433.93772513635
2692 11434.02309294068
2693 11433.92548514385
2694 11434.01108898561
2695 11433.91440036149
2696 11434.00243909917
2697 11433.9204099562
2698 11434.00370145959
2699 11433.92083401301
2700 11433.99140835847
2701 11433.92847467766
2702 11434.01188948173
2703 11433.94324999486
2704 11434.00952309135
2705 11433.92996085736
2706 11433.9988060538
2707 11433.9250346838
2708 11434.00722758487
2709 11433.93029496119
2710 11434.00168944248
2711 11433.92939111129
2712 11433.99612752179
2713 11433.91980112964
2714 11433.99529121646
2715 11433.92633541775
2716 11433.99462723848
2717 11433.91733995024
2718 11433.98145712154
2719 11433.91030122607
2720 11433.97577779401
2721 11433.9147812393
2722 11433.97221784526
2723 11433.90953360712
2724 11433.99085969614
2725 11433.9227741238
2726 11433.99592387951
2727 11433.91840887673
2728 11433.98886058589
2729 11433.89759068886
2730 11433.97546124613
2731 11433.88973884854
2732 11433.96615837148
2733 11433.89442405791
2734 11433.99532676454
2735 11433.91711420445
2736 11434.00513427186
2737 11433.91226598373
2738 11434.00292004649
2739 11433.91583802078
2740 11434.00316205279
2741 11433.90705992925
2742 11433.99959304493
2743 11433.91636697142
2744 11433.99580082038
2745 11433.90805468986
2746 11433.99610625045
2747 11433.92196084879
2748 11434.01155416909
2749 11433.91863145305
2750 11433.99380485744
2751 11433.92791912369
2752 11433.99099059935
2753 11433.92048994856
2754 11433.99760780137
2755 11433.92068091557
2756 11433.98121242883
2757 11433.90994407342
2758 11433.97528379963
2759 11433.8940383642
2760 11433.96372035275
2761 11433.90025547991
2762 11433.97857835124
2763 11433.91719309941
2764 11433.98393832333
2765 11433.92464263953
2766 11433.99292234457
2767 11433.92920248808
2768 11433.99771536444
2769 11433.9306308452
2770 11434.00193418711
2771 11433.93146854035
2772 11433.99233800797
2773 11433.92110009885
2774 11433.99709647267
2775 11433.91955879951
2776 11433.99529123102
2777 11433.90670675967
2778 11433.98152596969
2779 11433.90300036946
2780 11433.99617782049
2781 11433.90839330019
2782 11434.00555917296
2783 11433.92701743459
2784 11433.99111093231
2785 11433.9340516102
2786 11434.02122394975
2787 11433.94223961663
2788 11434.03941582615
2789 11433.95415489361
2790 11434.03751129498
2791 11433.96334384134
2792 11434.02974072035
2793 11433.94622225456
2794 11434.01815735085
2795 11433.92917785197
2796 11433.99177864633
2797 11433.92301465428
2798 11434.00075945992
2799 11433.932071344
2800 11434.00149041696
2801 11433.92138895716
2802 11433.97433657032
2803 11433.93761924227
2804 11433.98133114612
2805 11433.93923917763
2806 11433.9930927589
2807 11433.95087013223
2808 11433.98759969721
2809 11433.95181280288
2810 11433.99495893974
2811 11433.95059551362
2812 11433.98757130315
2813 11433.92749712801
2814 11433.97555864661
2815 11433.93071079768
2816 11433.99269363568
2817 11433.92907741516
2818 11434.00295757267
2819 11433.92122166977
2820 11433.99430419767
2821 11433.91940189386
2822 11433.99895256765
2823 11433.92802620479
2824 11434.00377979443
2825 11433.92081456653
2826 11434.00340975383
2827 11433.93928316529
2828 11434.01785983834
2829 11433.95452095691
2830 11434.03111679111
2831 11433.96188959419
2832 11434.02401354956
2833 11433.95325165886
2834 11434.00090657503
2835 11433.93379121866
2836 11433.99798553137
2837 11433.93096037122
2838 11434.01248249685
2839 11433.93741274187
2840 11434.01304521569
2841 11433.9393846859
2842 11434.01994216658
2843 11433.93940905238
2844 11433.99286694292
2845 11433.92124606694
2846 11434.01452246827
2847 11433.93531919773
2848 11434.01704000993
2849 11433.95103782221
2850 11434.03481039525
2851 11433.95147680426
2852 11434.03155468737
2853 11433.94682845458
2854 11434.01780533092
2855 11433.94255899085
2856 11434.01459839353
2857 11433.93058865495
2858 11434.01090367505
2859 11433.936612266
2860 11434.0142534145
2861 11433.93030642561
2862 11434.02513454716
2863 11433.93763756161
2864 11434.02335437766
2865 11433.93293181089
2866 11434.02333754509
2867 11433.94127235764
2868 11434.03286102877
2869 11433.94264396125
2870 11434.04567492195
2871 11433.94279492593
2872 11434.03834680032
2873 11433.94203759504
2874 11434.04269767651
2875 11433.94689032023
2876 11434.04221855258
2877 11433.94080827381
2878 11434.02355982603
2879 11433.93700439112
2880 11434.01677504387
2881 11433.92739990278
2882 11434.01697103713
2883 11433.93663463686
2884 11434.00875019812
2885 11433.93464344914
2886 11433.99946089327
2887 11433.93186890286
2888 11434.00269923648
2889 11433.93908677144
2890 11434.0221233291
2891 11433.95679391856
2892 11434.03041985492
2893 11433.95478829878
2894 11434.02342517526
2895 11433.96054085589
2896 11434.02653184621
2897 11433.9485918001
2898 11434.02167302271
2899 11433.95399462697
2900 11434.01483523584
2901 11433.95165543719
2902 11434.03601264754
2903 11433.95820108691
2904 11434.0396700465
2905 11433.94732862746
2906 11434.02767484375
2907 11433.95385679917
2908 11434.04160256342
2909 11433.9647735882
2910 11434.04384794329
2911 11433.98639335133
2912 11434.05075122921
2913 11433.98854980691
2914 11434.06498294089
2915 11433.99325223322
2916 11434.05496552867
2917 11433.97250431133
2918 11434.04081983998
2919 11433.97919750352
2920 11434.04745405391
2921 11433.98559477384
2922 11434.06018809419
2923 11433.97967440309
2924 11434.03662631719
2925 11433.97095566483
2926 11434.04213886858
2927 11433.96777742415
2928 11434.04212341851
2929 11433.96276938951
2930 11434.03721176524
2931 11433.95884036196
2932 11434.01920841219
2933 11433.9584510707
2934 11434.04024790455
2935 11433.96530051437
2936 11434.03928056482
2937 11433.97635738191
2938 11434.04783817006
2939 11433.96880372456
2940 11434.0361401141
2941 11433.94559543235
2942 11434.02582018726
2943 11433.94404685962
2944 11434.03266312437
2945 11433.9729057637
2946 11434.06390577686
2947 11433.97355358513
2948 11434.07235662643
2949 11433.97624234244
2950 11434.06855011146
2951 11433.98053242206
2952 11434.05523681283
2953 11433.98782033275
2954 11434.05695471582
2955 11433.98029159213
2956 11434.06409072861
2957 11433.9855042084
2958 11434.0681541695
2959 11433.98314567242
2960 11434.04353983705
2961 11433.95038794752
2962 11434.03390406979
2963 11433.95293577381
2964 11434.02734455283
2965 11433.94667971795
2966 11434.02055411891
2967 11433.94667275729
2968 11434.04091346557
2969 11433.9636693282
2970 11434.0395399553
2971 11433.96553547695
2972 11434.04763013641
2973 11433.96336221578
2974 11434.04299514413
2975 11433.97990336093
2976 11434.04246188053
2977 11433.97300609569
2978 11434.04954692046
2979 11433.97868053814
2980 11434.04537563049
2981 11433.9658970978
2982 11434.03221103199
2983 11433.96032497022
2984 11434.02445830997
2985 11433.96546062935
2986 11434.03249559075
2987 11433.96152482766
2988 11434.03501866711
2989 11433.95913451855
2990 11434.04391155774
2991 11433.97831924024
2992 11434.04524355902
2993 11433.96109268034
2994 11434.04065085793
2995 11433.95878184179
2996 11434.02924296594
2997 11433.96540975711
2998 11434.05204761158
2999 11433.97459822606
3000 11434.05117510817
3001 11433.97496257736
3002 11434.04713128148
3003 11433.97511148031
3004 11434.03864389181
3005 11433.96940745937
3006 11434.05434958238
3007 11433.97987677624
3008 11434.03925627609
3009 11433.96873602164
3010 11434.05719300783
3011 11433.97615387968
3012 11434.082549723
3013 11433.99130321127
3014 11434.08643439577
3015 11433.98385704262
3016 11434.07001388531
3017 11433.97787803585
3018 11434.05996997786
3019 11433.97221799923
3020 11434.05445796473
3021 11433.97373804772
3022 11434.04532329511
3023 11433.98138245052
3024 11434.05765985122
3025 11433.96896848422
3026 11434.05267592669
3027 11433.98819229078
3028 11434.06815201774
3029 11434.01408757571
3030 11434.08427554146
3031 11434.02663179317
3032 11434.08683879403
3033 11434.01361266255
3034 11434.08446244317
3035 11434.0183606035
3036 11434.07126209999
3037 11434.00473962511
3038 11434.0600101035
3039 11433.99957212648
3040 11434.05049226923
3041 11433.98538451683
3042 11434.05331062872
3043 11433.98373029643
3044 11434.04670361805
3045 11433.97222621067
3046 11434.04388494217
3047 11433.97435630701
3048 11434.05073994096
3049 11433.98491848445
3050 11434.06899156555
3051 11433.98139941516
3052 11434.08057539147
3053 11433.98188474126
3054 11434.06605952842
3055 11433.98464288785
3056 11434.07695171453
3057 11433.97967817266
3058 11434.06227949665
3059 11433.97072850386
3060 11434.0480679976
3061 11433.96298384631
3062 11434.03125913511
3063 11433.95097078887
3064 11434.03442374232
3065 11433.95015986306
3066 11434.03752774312
3067 11433.96504268689
3068 11434.03053671574
3069 11433.95949729758
3070 11434.04969835543
3071 11433.98079336524
3072 11434.05782547732
3073 11433.99631213016
3074 11434.06741556516
3075 11433.99742977353
3076 11434.07518065429
3077 11434.00829377829
3078 11434.07511417987
3079 11434.01626961805
3080 11434.07727309945
3081 11433.99722687587
3082 11434.06825744077
3083 11433.99191343076
3084 11434.05471431287
3085 11433.97326529777
3086 11434.03839640406
3087 11433.9706550199
3088 11434.03349494262
3089 11433.96758313802
3090 11434.02952356891
3091 11433.95518619052
3092 11434.02429678124
3093 11433.95167117873
3094 11434.03166321855
3095 11433.9717070108
3096 11434.03974341014
3097 11433.96784606977
3098 11434.03648638891
3099 11433.96811186611
3100 11434.02184457851
3101 11433.96209826149
3102 11434.02216265125
3103 11433.96405997367
3104 11434.02883765591
3105 11433.96685827576
3106 11434.03765689618
3107 11433.98618895832
3108 11434.03928419609
3109 11433.97485058954
3110 11434.03295215073
3111 11433.97336600054
3112 11434.0338519612
3113 11433.98373415106
3114 11434.04070010656
3115 11433.97668328868
3116 11434.04977691775
3117 11433.97506091384
3118 11434.04830898726
3119 11433.98105560574
3120 11434.03203228269
3121 11433.96462873097
3122 11434.03317919041
3123 11433.96469895851
3124 11434.03394362899
3125 11433.9521872682
3126 11434.03308084883
3127 11433.93350588582
3128 11434.03419818326
3129 11433.93685742035
3130 11434.03269492279
3131 11433.92561657471
3132 11434.04375513101
3133 11433.94415918591
3134 11434.06638435872
3135 11433.94253999438
3136 11434.05759582186
3137 11433.94818137647
3138 11434.04949330929
3139 11433.92953837158
3140 11434.03646483135
3141 11433.92868522571
3142 11434.02552313323
3143 11433.9346596001
3144 11434.00752824668
3145 11433.91542625612
3146 11434.00003910027
3147 11433.90865130864
3148 11433.9875799299
3149 11433.91332842621
3150 11433.98955960707
3151 11433.94054845359
3152 11434.01124682203
3153 11433.95926995119
3154 11434.03198573416
3155 11433.96658778633
3156 11434.01474180466
3157 11433.94526824843
3158 11434.0252200382
3159 11433.9626528838
3160 11434.03379167326
3161 11433.95030505358
3162 11434.01655774591
3163 11433.95131394731
3164 11434.02746327258
3165 11433.95346017119
3166 11434.0409942344
3167 11433.96004593802
3168 11434.03152637378
3169 11433.94117222725
3170 11434.02556445857
3171 11433.93520592335
3172 11434.03566697504
3173 11433.93410269216
3174 11434.04179463811
3175 11433.95225010902
3176 11434.04217424093
3177 11433.95679350158
3178 11434.03865600096
3179 11433.93799990852
3180 11434.02929164161
3181 11433.94151498239
3182 11434.03267310768
3183 11433.94610471968
3184 11434.02995047224
3185 11433.93444474436
3186 11434.01509918464
3187 11433.94127875716
3188 11434.00864035172
3189 11433.93349363474
3190 11434.00139161493
3191 11433.93097449652
3192 11434.00737200977
3193 11433.93221327553
3194 11433.99649781917
3195 11433.94607303134
3196 11434.01610231127
3197 11433.95531321451
3198 11434.01730810752
3199 11433.95009386579
3200 11434.00284807046
3201 11433.9582693542
3202 11434.00788905291
3203 11433.95425212423
3204 11433.99529310225
3205 11433.93871852467
3206 11434.00000403453
3207 11433.94302174021
3208 11434.00896982902
3209 11433.93716661663
3210 11433.99684396951
3211 11433.93946385186
3212 11434.01577543038
3213 11433.95814394395
3214 11434.0472448121
3215 11433.967366315
3216 11434.05161570921
3217 11433.97074968966
3218 11434.06488499499
3219 11433.9504987554
3220 11434.06095753561
3221 11433.95255090644
3222 11434.04286910527
3223 11433.93323386676
3224 11434.04562294523
3225 11433.93280488572
3226 11434.05239954152
3227 11433.93137366104
3228 11434.02913166074
3229 11433.92326663079
3230 11434.01610373494
3231 11433.93955936727
3232 11434.02536710607
3233 11433.95997767501
3234 11434.04411152739
3235 11433.97355849227
3236 11434.04962065061
3237 11433.99781369876
3238 11434.06486575647
3239 11433.98445408056
3240 11434.0394202882
3241 11433.96400126691
3242 11434.0360033878
3243 11433.95924524686
3244 11434.0291005941
3245 11433.95134683601
3246 11434.01221027334
3247 11433.94248620462
3248 11434.00555433044
3249 11433.94980422628
3250 11434.01223880403
3251 11433.94064032621
3252 11434.01658693286
3253 11433.94153164706
3254 11434.0223549435
3255 11433.95640090408
3256 11434.02491160467
3257 11433.93755053839
3258 11434.02432770258
3259 11433.94630799599
3260 11434.01886901316
3261 11433.94599732554
3262 11434.01535303992
3263 11433.95581820843
3264 11434.02064307924
3265 11433.94498218679
3266 11434.01523074384
3267 11433.95225131065
3268 11434.01974518433
3269 11433.94960172939
3270 11434.02171462647
3271 11433.94481986737
3272 11434.0136456687
3273 11433.9271029916
3274 11434.00405964776
3275 11433.92897887574
3276 11434.0231288359
3277 11433.94077113136
3278 11434.03112410352
3279 11433.96044041194
3280 11434.03973345137
3281 11433.95175900612
3282 11434.03258440446
3283 11433.94795540905
3284 11434.02387542393
3285 11433.94408990854
3286 11434.02083113627
3287 11433.94498597977
3288 11434.0107826535
3289 11433.93543861826
3290 11434.02779854309
3291 11433.9474220934
3292 11434.02924312475
3293 11433.94181987228
3294 11434.03061886657
3295 11433.94679574881
3296 11434.02674599682
3297 11433.94550575366
3298 11434.02896171161
3299 11433.94536449428
3300 11434.02543632226
3301 11433.93774557662
3302 11434.02296434381
3303 11433.94350340989
3304 11434.01561717223
3305 11433.91274132852
3306 11434.00583614282
3307 11433.92645230877
3308 11434.00491195325
3309 11433.92465250359
3310 11434.01287590604
3311 11433.92894191604
3312 11434.00782507428
3313 11433.93700768874
3314 11434.00222281907
3315 11433.9380993305
3316 11434.01429555435
3317 11433.95619269076
3318 11434.01744422254
3319 11433.95548126869
3320 11434.0078021495
3321 11433.9415253279
3322 11434.02037944156
3323 11433.94193339123
3324 11433.99390108185
3325 11433.92289495207
3326 11433.98355626775
3327 11433.92212795186
3328 11434.00422659157
3329 11433.92039901064
3330 11434.00660090547
3331 11433.92724272548
3332 11434.01408215478
3333 11433.93824559006
3334 11434.03740750863
3335 11433.94501988293
3336 11434.03715897518
3337 11433.93976325397
3338 11434.0423167974
3339 11433.96303732068
3340 11434.06212253375
3341 11433.98663600913
3342 11434.07645588139
3343 11433.98764784214
3344 11434.06279263739
3345 11433.98433608839
3346 11434.06972508936
3347 11433.99250516012
3348 11434.05685937106
3349 11433.97998987519
3350 11434.05365823056
3351 11433.97578454286
3352 11434.03784840597
3353 11433.95863971094
3354 11434.02783761688
3355 11433.96084160283
3356 11434.0351838082
3357 11433.95826894098
3358 11434.05001615855
3359 11433.96472206742
3360 11434.04108731351
3361 11433.97461693344
3362 11434.05096043064
3363 11433.96518863936
3364 11434.04679531028
3365 11433.97312988462
3366 11434.04624721638
3367 11433.98147877236
3368 11434.05761813498
3369 11433.97369600601
3370 11434.04948917498
3371 11433.96345026938
3372 11434.04690188554
3373 11433.97200152308
3374 11434.0605048191
3375 11433.97203286832
3376 11434.04849890937
3377 11433.97874375973
3378 11434.05070661574
3379 11433.97414684942
3380 11434.04536245946
3381 11433.97179727599
3382 11434.0470960865
3383 11433.96845245837
3384 11434.03065494576
3385 11433.96606952198
3386 11434.01928285148
3387 11433.94980365927
3388 11434.01563614882
3389 11433.94351037962
3390 11433.99661602686
3391 11433.94702628906
3392 11434.01417820362
3393 11433.94601430358
3394 11434.02638773943
3395 11433.96052215492
3396 11434.0363286307
3397 11433.970767578
3398 11434.04484962279
3399 11433.97130978111
3400 11434.06778610899
3401 11433.9670835463
3402 11434.06144381128
3403 11433.97234302251
3404 11434.05361319102
3405 11433.96454766107
3406 11434.06697815596
3407 11433.95847553765
3408 11434.05719173247
3409 11433.94502550239
3410 11434.03664365772
3411 11433.94201845125
3412 11434.03392515681
3413 11433.94352332335
3414 11434.03650951873
3415 11433.95374361291
3416 11434.0466378558
3417 11433.96031337521
3418 11434.04955116096
3419 11433.9752318332
3420 11434.03938174344
3421 11433.96250527194
3422 11434.03855659617
3423 11433.97379040202
3424 11434.03850721479
3425 11433.97370720509
3426 11434.02663851046
3427 11433.95967234524
3428 11434.02022848751
3429 11433.95199180565
3430 11434.01876709154
3431 11433.9519809464
3432 11434.01003593667
3433 11433.93488273722
3434 11434.00162935067
3435 11433.91957887334
3436 11433.98866422419
3437 11433.9094826913
3438 11434.00403176445
3439 11433.93331702759
3440 11434.02214112623
3441 11433.94748071617
3442 11434.03812928953
3443 11433.96801809591
3444 11434.0608593578
3445 11433.96056448488
3446 11434.05918413675
3447 11433.97545487465
3448 11434.05817800565
3449 11433.96000157035
3450 11434.05295944513
3451 11433.9513101681
3452 11434.0674450342
3453 11433.95099196473
3454 11434.05054445775
3455 11433.96012593333
3456 11434.03530356337
3457 11433.91428613375
3458 11434.01399229216
3459 11433.92574537729
3460 11434.01933930125
3461 11433.93216920815
3462 11434.03426424782
3463 11433.94106417565
3464 11434.02707688739
3465 11433.9468031512
3466 11434.02222812764
3467 11433.94955626747
3468 11434.01743395322
3469 11433.94349604231
3470 11434.01270839337
3471 11433.95026851186
3472 11434.0163056869
3473 11433.9459930791
3474 11434.0010627955
3475 11433.93104901246
3476 11433.98601343549
3477 11433.93923888204
3478 11433.99850279038
3479 11433.94977697237
3480 11434.00242823048
3481 11433.94616430271
3482 11434.020921123
3483 11433.95324862393
3484 11434.00235109813
3485 11433.94160643554
3486 11434.00342021857
3487 11433.941455353
3488 11434.00298107037
3489 11433.94590205032
3490 11434.01614764533
3491 11433.93724034147
3492 11434.01793275842
3493 11433.91476755087
3494 11433.98694081939
3495 11433.90591630513
3496 11433.99010263856
3497 11433.90769653042
3498 11433.9844069021
3499 11433.91594908315
3500 11433.99598650073
3501 11433.92797535108
3502 11434.01419603259
3503 11433.93792353075
3504 11434.01206016843
3505 11433.93442046383
3506 11434.00726864273
3507 11433.93315770558
3508 11434.00436797092
3509 11433.92116829089
3510 11433.99048930448
3511 11433.91138185737
3512 11433.98904302725
3513 11433.91630084177
3514 11433.98998624334
3515 11433.91687228748
3516 11433.98931662556
3517 11433.91784725766
3518 11433.99064285559
3519 11433.92259633794
3520 11434.00058867423
3521 11433.93096451406
3522 11434.00268797894
3523 11433.9420082425
3524 11434.00832016943
3525 11433.9663247814
3526 11434.0258058272
3527 11433.95982123613
3528 11434.00761680117
3529 11433.93999365799
3530 11434.00384096266
3531 11433.94771250369
3532 11434.01311903341
3533 11433.93932583295
3534 11433.99321786348
3535 11433.95275237541
3536 11434.01606738579
3537 11433.95658441138
3538 11434.02365986188
3539 11433.94558590918
3540 11434.01004202694
3541 11433.94129189149
3542 11434.00836270579
3543 11433.94620047143
3544 11434.00284051348
3545 11433.94621525949
3546 11434.02429906852
3547 11433.93559124962
3548 11434.02035823776
3549 11433.93630344619
3550 11434.01103278699
3551 11433.91181386692
3552 11433.99564807245
3553 11433.91104706075
3554 11433.9969429276
3555 11433.91440771474
3556 11434.01373102268
3557 11433.9212575408
3558 11434.00406648799
3559 11433.93905343038
3560 11434.03346431644
3561 11433.94203170849
3562 11434.03795354576
3563 11433.95026382788
3564 11434.03694407822
3565 11433.96116848182
3566 11434.04532541658
3567 11433.96286818995
3568 11434.03507824551
3569 11433.94813207708
3570 11434.02150550269
3571 11433.94847055824
3572 11434.01920135062
3573 11433.92726961056
3574 11433.99961041029
3575 11433.91250324764
3576 11433.9892163709
3577 11433.92491605782
3578 11433.99361932555
3579 11433.93008298319
3580 11433.99868889627
3581 11433.94220504779
3582 11434.00978980942
3583 11433.95433896838
3584 11434.00374878562
3585 11433.9320249206
3586 11434.00316952499
3587 11433.93018393944
3588 11434.00290353573
3589 11433.93859047036
3590 11434.01519489589
3591 11433.94214262758
3592 11434.00769022803
3593 11433.92944373251
3594 11434.00552651765
3595 11433.93531654705
3596 11434.01394516597
3597 11433.9325439916
3598 11434.02205558745
3599 11433.94293675411
3600 11434.02646304584
3601 11433.94659381672
3602 11434.04283368117
3603 11433.96276759444
3604 11434.05327433229
3605 11433.96013183015
3606 11434.04790924031
3607 11433.98491240888
3608 11434.06748093839
3609 11433.97520352312
3610 11434.04924112347
3611 11433.95040687165
3612 11434.01978172426
3613 11433.93820254959
3614 11434.01574336065
3615 11433.94181749881
3616 11434.0170976543
3617 11433.93856409856
3618 11434.01782140187
3619 11433.94544300825
3620 11434.0235305769
3621 11433.96245968915
3622 11434.03114975038
3623 11433.96633807551
3624 11434.01623032108
3625 11433.96470030192
3626 11434.04066982347
3627 11433.98662117985
3628 11434.0565479784
3629 11433.9875936607
3630 11434.05308157731
3631 11433.99515993805
3632 11434.04132560455
3633 11433.97306475282
3634 11434.02703984546
3635 11433.95975154413
3636 11434.02039133197
3637 11433.94740162518
3638 11434.00961364911
3639 11433.93630188179
3640 11433.99327538406
3641 11433.91900994469
3642 11434.00365386079
3643 11433.93281768953
3644 11434.01922081454
3645 11433.9381740497
3646 11434.04134768082
3647 11433.95275603547
3648 11434.05484106695
3649 11433.96155521869
3650 11434.05654192692
3651 11433.96783211152
3652 11434.05341919018
3653 11433.95322596078
3654 11434.03545547683
3655 11433.96874843456
3656 11434.0575366444
3657 11433.97190007718
3658 11434.05595818062
3659 11433.95966892415
3660 11434.03731003195
3661 11433.9526801275
3662 11434.03213984415
3663 11433.9506430971
3664 11434.03022429865
3665 11433.95768705159
3666 11434.04174012751
3667 11433.97174710587
3668 11434.05475018791
3669 11433.97896817754
3670 11434.06237837945
3671 11433.98484043763
3672 11434.04967485221
3673 11433.98620433356
3674 11434.05153518025
3675 11433.98484572576
3676 11434.05240072736
3677 11433.98805790001
3678 11434.03774114631
3679 11433.98027729839
3680 11434.03993949479
3681 11433.97369100119
3682 11434.04208875407
3683 11433.97188822956
3684 11434.04644921131
3685 11433.97631599491
3686 11434.06947339266
3687 11433.98523460508
3688 11434.07126910543
3689 11433.97098957402
3690 11434.05620077818
3691 11433.97658088332
3692 11434.06034070944
3693 11433.96835358734
3694 11434.05581500107
3695 11433.9668950298
3696 11434.03778613444
3697 11433.93531839741
3698 11434.01490672941
3699 11433.92844509128
3700 11434.01676124988
3701 11433.92129143099
3702 11434.01714948624
3703 11433.93648915544
3704 11434.02295443027
3705 11433.94064358261
3706 11434.0256834453
3707 11433.9569776543
3708 11434.0265503772
3709 11433.96370080409
3710 11434.0399782506
3711 11433.95499897019
3712 11434.03781510356
3713 11433.95027682271
3714 11434.01564465954
3715 11433.94603340728
3716 11434.02520970617
3717 11433.9334007887
3718 11434.01264337604
3719 11433.93784188836
3720 11434.01586285331
3721 11433.94254384832
3722 11434.02886925704
3723 11433.94232305402
3724 11434.02293043865
3725 11433.93242860825
3726 11434.0299744766
3727 11433.93998769547
3728 11434.044413585
3729 11433.93835555822
3730 11434.02792537138
3731 11433.92518544171
3732 11434.02673980846
3733 11433.92948023305
3734 11434.03460248605
3735 11433.92036139901
3736 11434.00504268833
3737 11433.90586489686
3738 11433.99642155199
3739 11433.92015081293
3740 11433.98686483114
3741 11433.90595631747
3742 11433.98463436886
3743 11433.92149289349
3744 11433.99268736367
3745 11433.93125287308
3746 11433.98231147346
3747 11433.91999723214
3748 11433.97844386424
3749 11433.92103707287
3750 11433.98534639739
3751 11433.93790116822
3752 11433.99538711185
3753 11433.9343135377
3754 11433.99287039308
3755 11433.93375691055
3756 11433.99308768927
3757 11433.92474712125
3758 11433.98919470462
3759 11433.93842787902
3760 11434.01490958352
3761 11433.93404838305
3762 11434.01656988701
3763 11433.93717887334
3764 11434.00337450429
3765 11433.92490639677
3766 11434.00884131505
3767 11433.92986999574
3768 11434.01882695793
3769 11433.94350006687
3770 11434.03677094566
3771 11433.94325376948
3772 11434.03895768605
3773 11433.94619719972
3774 11434.0352937291
3775 11433.9577993162
3776 11434.04393179001
3777 11433.9573637773
3778 11434.03385082478
3779 11433.96379956806
3780 11434.04709159983
3781 11433.9583625587
3782 11434.03495815935
3783 11433.95517269624
3784 11434.02716540934
3785 11433.95903911821
3786 11434.02761030855
3787 11433.95710885765
3788 11434.0216646991
3789 11433.94517169374
3790 11434.01922098645
3791 11433.96052400882
3792 11434.02842946064
3793 11433.96493205421
3794 11434.0290636226
3795 11433.94413726934
3796 11434.01907256004
3797 11433.94073074695
3798 11434.02603726794
3799 11433.94232676212
3800 11434.01615383085
3801 11433.93839720888
3802 11434.02165190477
3803 11433.95524720131
3804 11434.02484492001
3805 11433.95979074116
3806 11434.04081443102
3807 11433.97878146466
3808 11434.04605568556
3809 11433.99189229811
3810 11434.05119857314
3811 11433.99458079308
3812 11434.06560961962
3813 11433.99240378123
3814 11434.05011114494
3815 11433.98047726116
3816 11434.03398147696
3817 11433.94654854097
3818 11434.02373954959
3819 11433.93869706073
3820 11434.00452613496
3821 11433.93079256237
3822 11434.00409104594
3823 11433.93052949934
3824 11433.99319038022
3825 11433.91640423111
3826 11433.99905035158
3827 11433.91401208095
3828 11434.00357600933
3829 11433.91875518699
3830 11433.99140014004
3831 11433.92228913065
3832 11434.00616390942
3833 11433.93204739935
3834 11434.01911878815
3835 11433.95370689583
3836 11434.01837724712
3837 11433.94519236847
3838 11434.00935630334
3839 11433.9427791022
3840 11434.00820747915
3841 11433.93282904714
3842 11434.00969864268
3843 11433.93064805621
3844 11434.00675240693
3845 11433.92509827003
3846 11434.01935921352
3847 11433.9462654435
3848 11434.03033903796
3849 11433.9423968322
3850 11434.03517950667
3851 11433.93594220722
3852 11434.03757123744
3853 11433.92738029611
3854 11434.03565953385
3855 11433.92853198775
3856 11434.02541373132
3857 11433.90719086294
3858 11434.00416508684
3859 11433.90490337582
3860 11434.00010051633
3861 11433.89131605897
3862 11433.97485433002
3863 11433.87814607013
3864 11433.98691334991
3865 11433.89145497775
3866 11433.98702381588
3867 11433.92193465553
3868 11433.98594851179
3869 11433.91389386991
3870 11433.99965406123
3871 11433.94731756745
3872 11434.02631056939
3873 11433.95712895444
3874 11434.0074194551
3875 11433.93723058752
3876 11434.01062764119
3877 11433.92927332379
3878 11434.00427821079
3879 11433.943986328
3880 11433.99935280161
3881 11433.92816930256
3882 11434.00881192549
3883 11433.93430683178
3884 11433.99752127197
3885 11433.9416796783
3886 11434.00259389928
3887 11433.93680664733
3888 11434.00711207686
3889 11433.93330135323
3890 11434.00452570115
3891 11433.93048687206
3892 11434.00289994971
3893 11433.92523783336
3894 11434.00741446507
3895 11433.90809681581
3896 11433.99224663331
3897 11433.89956717764
3898 11433.99465696292
3899 11433.8822776867
3900 11433.97851612719
3901 11433.89070826785
3902 11433.99460248124
3903 11433.90111762468
3904 11433.99387095881
3905 11433.90147532745
3906 11434.00084350994
3907 11433.91920580869
3908 11434.00700773958
3909 11433.92661257131
3910 11434.02069790431
3911 11433.9178485477
3912 11433.99992763398
3913 11433.91597856068
3914 11433.99125150194
3915 11433.90743713505
3916 11433.97126457168
3917 11433.91753494383
3918 11433.99457876775
3919 11433.94314233574
3920 11433.99891394248
3921 11433.94442005683
3922 11433.98375423706
3923 11433.93404500048
3924 11433.98581174796
3925 11433.92681332056
3926 11433.98192437201
3927 11433.92604573763
3928 11433.9888795245
3929 11433.92357562561
3930 11434.01214526979
3931 11433.92259697943
3932 11434.00221335895
3933 11433.90519294722
3934 11434.0079010794
3935 11433.91238097127
3936 11434.00857762489
3937 11433.90346565806
3938 11433.99299595943
3939 11433.9044696203
3940 11434.00396932494
3941 11433.90653648758
3942 11433.99645268592
3943 11433.92262033571
3944 11433.98796199357
3945 11433.92396143833
3946 11433.99354841208
3947 11433.92259336565
3948 11433.9882204974
3949 11433.91782409355
3950 11433.98017385198
3951 11433.93126157299
3952 11434.00435035837
3953 11433.94112471704
3954 11433.99616244213
3955 11433.94945533732
3956 11434.00302532113
3957 11433.95919887516
3958 11434.01146922705
3959 11433.97601311035
3960 11434.01727132456
3961 11433.96646206281
3962 11434.02746100958
3963 11433.96813699627
3964 11434.02775248247
3965 11433.94921052095
3966 11434.00792114346
3967 11433.9555132395
3968 11434.00234614234
3969 11433.94960694503
3970 11434.00817661459
3971 11433.93020807996
3972 11433.99645896183
3973 11433.93454207714
3974 11433.98238001031
3975 11433.92246289058
3976 11433.98506465637
3977 11433.89685827582
3978 11433.97180619913
3979 11433.88548777846
3980 11433.96499321235
3981 11433.87160428916
3982 11433.9516765221
3983 11433.87332444926
3984 11433.97189792451
3985 11433.86953707199
3986 11433.96674200467
3987 11433.86256433932
3988 11433.96182486721
3989 11433.87190482615
3990 11433.96350746804
3991 11433.88071740856
3992 11433.98413033173
3993 11433.88308073085
3994 11434.00440248167
3995 11433.91365227186
3996 11434.00650417915
3997 11433.9292100493
3998 11434.01457028424
3999 11433.949886666
4000 11434.03122091931
4001 11433.93859046062
4002 11434.01343014474
4003 11433.93151115681
4004 11433.99725316638
4005 11433.92077711931
4006 11434.00279191438
4007 11433.93022469468
4008 11434.01388903564
4009 11433.92582229243
4010 11433.98891685238
4011 11433.92309994723
4012 11434.01201095387
4013 11433.92135246371
4014 11434.00985098535
4015 11433.9238667622
4016 11434.00439338253
4017 11433.92839910084
4018 11434.01858376858
4019 11433.93634004061
4020 11433.99242855311
4021 11433.90717255818
4022 11433.98089866992
4023 11433.9069093105
4024 11433.98834751344
4025 11433.9071171652
4026 11433.96714038334
4027 11433.89942127383
4028 11433.97496865831
4029 11433.90230221533
4030 11433.96838142353
4031 11433.9167594194
4032 11433.99067834376
4033 11433.93195532619
4034 11433.99618292425
4035 11433.94718679736
4036 11434.00439172266
4037 11433.95210448991
4038 11434.02655376673
4039 11433.95695323447
4040 11434.00611683343
4041 11433.93747942761
4042 11433.99462717742
4043 11433.91971821918
4044 11433.98868557166
4045 11433.91059452388
4046 11433.9813168193
4047 11433.89846127206
4048 11433.99261642924
4049 11433.92001765742
4050 11434.00965089579
4051 11433.92070268262
4052 11433.99352935348
4053 11433.91500312185
4054 11433.98771370239
4055 11433.93324163342
4056 11434.0090527889
4057 11433.94052856913
4058 11434.01027927183
4059 11433.94196399403
4060 11433.99224658221
4061 11433.93641470025
4062 11433.99924407335
4063 11433.92532992229
4064 11433.99740736692
4065 11433.92754682584
4066 11433.99670520713
4067 11433.92072800425
4068 11433.99552527759
4069 11433.92835741656
4070 11434.01495856514
4071 11433.93269128452
4072 11434.01780537825
4073 11433.92825019248
4074 11434.02769576131
4075 11433.93592772275
4076 11434.04022552727
4077 11433.94051479204
4078 11434.0392530956
4079 11433.93669757591
4080 11434.01693252585
4081 11433.92179945501
4082 11434.01974494422
4083 11433.92261478009
4084 11434.01253002222
4085 11433.92107626423
4086 11434.00768223712
4087 11433.93196883507
4088 11434.00798963946
4089 11433.93574623859
4090 11434.0081117949
4091 11433.93248457937
4092 11433.99753580004
4093 11433.94188183441
4094 11434.01047906885
4095 11433.93660740191
4096 11434.00878557425
4097 11433.93735590591
4098 11434.01207638393
4099 11433.94529628726
4100 11433.99556871392
4101 11433.94201005626
4102 11433.99755685875
4103 11433.93168004993
4104 11433.98285632235
4105 11433.93189220515
4106 11433.99693377235
4107 11433.93087671999
4108 11433.99840888685
4109 11433.93831107232
4110 11434.01272966891
4111 11433.94190438863
4112 11434.03020097981
4113 11433.94121607633
4114 11434.03178739842
4115 11433.95229470348
4116 11434.04127511046
4117 11433.95355222192
4118 11434.05296738445
4119 11433.96196326729
4120 11434.03223881067
4121 11433.94632954717
4122 11434.04039251451
4123 11433.96470637989
4124 11434.0461257942
4125 11433.96153863844
4126 11434.03885045348
4127 11433.97025021801
4128 11434.03841839169
4129 11433.95254140898
4130 11434.01512633296
4131 11433.95542078572
4132 11434.02195855322
4133 11433.95519829003
4134 11434.04335555271
4135 11433.97044995887
4136 11434.04378520335
4137 11433.9601895026
4138 11434.03691518401
4139 11433.9573405802
4140 11434.03824626466
4141 11433.95441782808
4142 11434.03319793948
4143 11433.94848778569
4144 11434.0205574562
4145 11433.95602271393
4146 11434.03398385037
4147 11433.9800990205
4148 11434.03824681532
4149 11433.96181703846
4150 11434.0264812617
4151 11433.95813459198
4152 11434.02506840429
4153 11433.9506624978
4154 11434.03216887403
4155 11433.95849189036
4156 11434.03146982053
4157 11433.97241461902
4158 11434.03877818282
4159 11433.97373336189
4160 11434.04838227106
4161 11433.95619289406
4162 11434.01786901196
4163 11433.95743781865
4164 11434.01689686927
4165 11433.94400835776
4166 11434.03365251851
4167 11433.95517736107
4168 11434.03169977487
4169 11433.95097960192
4170 11434.01645959217
4171 11433.95558777424
4172 11434.03022755678
4173 11433.94212755142
4174 11434.01331333578
4175 11433.93526496615
4176 11434.02047859722
4177 11433.93802987889
4178 11434.03398906148
4179 11433.93572781962
4180 11434.02683562861
4181 11433.93491887492
4182 11434.03080155006
4183 11433.93582312057
4184 11434.01807236613
4185 11433.92998422151
4186 11434.01346128569
4187 11433.92871112996
4188 11434.0264781184
4189 11433.93822385192
4190 11434.02845567851
4191 11433.9427290977
4192 11434.02795580896
4193 11433.95719388206
4194 11434.01763705037
4195 11433.96032455602
4196 11434.03938913893
4197 11433.97239677747
4198 11434.04253009881
4199 11433.97287920539
4200 11434.03460027527
4201 11433.95847740808
4202 11434.03198695173
4203 11433.95587449229
4204 11434.01712734474
4205 11433.95200848032
4206 11434.01264247693
4207 11433.94761639831
4208 11434.00694820292
4209 11433.93935303283
4210 11433.99973519112
4211 11433.9356604881
4212 11433.99262281168
4213 11433.93425447212
4214 11433.99009920323
4215 11433.93176204998
4216 11433.99786773157
4217 11433.93124202629
4218 11434.01728965798
4219 11433.95259481534
4220 11434.02659187672
4221 11433.95665098919
4222 11434.02265061002
4223 11433.94399891051
4224 11434.0185276096
4225 11433.94081160659
4226 11434.01823689835
4227 11433.9463971757
4228 11434.01888993317
4229 11433.94437087951
4230 11434.02506061237
4231 11433.96423073303
4232 11434.03778536111
4233 11433.96933572996
4234 11434.03005258925
4235 11433.96334864227
4236 11434.04640484447
4237 11433.97726152084
4238 11434.03486140821
4239 11433.97243125395
4240 11434.03882048888
4241 11433.97653447834
4242 11434.05912844784
4243 11433.98869119124
4244 11434.05182852868
4245 11433.96966058147
4246 11434.03145665552
4247 11433.96089353484
4248 11434.02719205739
4249 11433.954724602
4250 11434.02843269469
4251 11433.95405804727
4252 11434.04171057194
4253 11433.9550355143
4254 11434.03872889023
4255 11433.96054871956
4256 11434.0265987401
4257 11433.95230772774
4258 11434.0385798865
4259 11433.94970022465
4260 11434.04810197175
4261 11433.94751026488
4262 11434.05336206185
4263 11433.95781295443
4264 11434.04341766242
4265 11433.95303756726
4266 11434.03964184013
4267 11433.9285544116
4268 11434.0006558048
4269 11433.91869093609
4270 11434.00876530645
4271 11433.9244037869
4272 11434.0190207343
4273 11433.93256592912
4274 11434.02019329582
4275 11433.92878145752
4276 11434.01574988824
4277 11433.94180769287
4278 11434.0153565275
4279 11433.95203827759
4280 11434.01503995262
4281 11433.96261766283
4282 11434.03690974671
4283 11433.96947411606
4284 11434.02484854899
4285 11433.95104367443
4286 11433.99901747508
4287 11433.95292371329
4288 11434.01297950823
4289 11433.93531518543
4290 11433.99312722083
4291 11433.92007756417
4292 11433.97779909007
4293 11433.91146698436
4294 11433.9947703055
4295 11433.9218769332
4296 11434.00973671196
4297 11433.91525700056
4298 11434.01346046909
4299 11433.91945914869
4300 11434.00558651009
4301 11433.91492230876
4302 11434.03410393822
4303 11433.92703676622
4304 11434.03282374487
4305 11433.94470565787
4306 11434.05349620226
4307 11433.94715061023
4308 11434.04076933976
4309 11433.94518777621
4310 11434.04203313808
4311 11433.9582646213
4312 11434.02609040287
4313 11433.96412793285
4314 11434.04886599486
4315 11433.9747770117
4316 11434.03508474464
4317 11433.97182876771
4318 11434.03064465527
4319 11433.98930624687
4320 11434.04529809436
4321 11433.99291755532
4322 11434.04366051264
4323 11433.98017442157
4324 11434.0202663731
4325 11433.97254369911
4326 11434.02182313554
4327 11433.94872861711
4328 11434.01610867614
4329 11433.93131353064
4330 11434.02035775232
4331 11433.92323510172
4332 11434.0064840413
4333 11433.91726947111
4334 11434.00450889464
4335 11433.91838119021
4336 11434.00857063368
4337 11433.9301553052
4338 11434.02471420174
4339 11433.95204992723
4340 11434.0275080978
4341 11433.94233841537
4342 11434.02159223479
4343 11433.938874779
4344 11434.00809968231
4345 11433.93561371638
4346 11434.00742144651
4347 11433.92763988265
4348 11434.01232965137
4349 11433.93094555011
4350 11434.00833403873
4351 11433.95116409373
4352 11434.01577245345
4353 11433.93594232062
4354 11434.01825345502
4355 11433.94798218869
4356 11434.0204372232
4357 11433.95777257151
4358 11434.04781343114
4359 11433.96791845534
4360 11434.03888703449
4361 11433.96384927676
4362 11434.04198802605
4363 11433.96336697998
4364 11434.03670100977
4365 11433.95567644442
4366 11434.03860025515
4367 11433.94915263167
4368 11434.00904174287
4369 11433.94314497375
4370 11434.00588077488
4371 11433.92689982018
4372 11434.00244439045
4373 11433.92747962559
4374 11434.00267199954
4375 11433.93078351536
4376 11433.99910680351
4377 11433.93267405045
4378 11434.02107038865
4379 11433.93822733285
4380 11434.01993838119
4381 11433.94199545574
4382 11434.01692041572
4383 11433.93982007349
4384 11434.02112786822
4385 11433.94177842201
4386 11434.03406450137
4387 11433.94301182441
4388 11434.01900795329
4389 11433.93775389661
4390 11434.02413307016
4391 11433.94228841068
4392 11434.00991311797
4393 11433.93214487851
4394 11434.0080772552
4395 11433.93936469249
4396 11434.02289717728
4397 11433.94162820038
4398 11434.02145839288
