"y-rfile"
"Iteration" "y"
("Iteration" "y")
1 21697.63694648878
2 21389.07613116665
3 19645.61014177729
4 17857.68259387976
5 15351.74765843551
6 13041.2866693441
7 10987.17938163784
8 9492.333517871473
9 7895.298180546435
10 6449.319689638679
11 5138.140804894555
12 4122.643916418305
13 3399.318830701811
14 2913.809919628883
15 2738.854288661385
16 2773.79701696952
17 2954.090504157113
18 3230.240600793125
19 3582.418054920111
20 3974.135859706853
21 4342.130259689899
22 4710.341708171169
23 5063.122883940585
24 5392.834101227875
25 5719.368152558237
26 5988.758028807418
27 6229.582333159206
28 6411.365224701796
29 6547.272324142553
30 6641.083321596621
31 6700.506683565874
32 6743.53684633624
33 6774.518263456546
34 6795.554903868286
35 6814.435827747449
36 6830.234087834046
37 6844.228600859899
38 6860.901816342702
39 6879.973483148984
40 6897.908728233909
41 6923.685610238147
42 6950.683064429016
43 6978.777344512336
44 7012.199116082472
45 7044.235006735598
46 7078.067162765803
47 7104.791007164852
48 7133.543315193649
49 7155.699583727914
50 7176.757347928439
51 7196.71875689503
52 7212.907813661469
53 7229.716197558825
54 7243.647011307912
55 7261.946992106577
56 7273.211864335011
57 7289.794565409472
58 7302.674426541074
59 7316.768674113786
60 7331.525074435912
61 7346.757774935258
62 7362.375739586598
63 7382.448937842523
64 7396.17429500392
65 7413.425172212296
66 7428.252587832186
67 7440.955166629111
68 7451.534303965414
69 7460.509226271664
70 7467.794148369486
71 7472.563033615087
72 7478.006690641987
73 7481.768059290755
74 7485.105150611584
75 7488.581004721423
76 7491.766152788733
77 7494.996680682581
78 7497.857417069118
79 7500.926463675223
80 7503.784153099407
81 7505.963297492956
82 7509.32919746602
83 7511.581860331375
84 7514.972147004048
85 7517.157045590376
86 7520.340460714696
87 7522.349844284012
88 7525.223266309093
89 7527.353609189144
90 7528.962435577152
91 7529.973186406514
92 7530.519284049868
93 7530.628201098509
94 7530.334763265378
95 7529.749201830244
96 7528.704981874942
97 7527.514737988377
98 7526.069576071161
99 7525.116655627628
100 7523.444974671486
101 7522.358930196948
102 7520.819291117798
103 7519.766127771906
104 7518.207784168773
105 7517.04275108759
106 7515.927167111112
107 7514.947083144478
108 7513.996989342782
109 7513.009951873198
110 7512.042814487866
111 7511.045674773748
112 7509.928668360606
113 7508.849864769569
114 7507.777327853174
115 7506.608342930766
116 7505.285152715526
117 7504.096136461655
118 7502.671781442632
119 7501.318118741522
120 7499.765284994149
121 7498.436637587886
122 7496.776014742829
123 7495.2588034451
124 7493.726198843907
125 7492.280285273166
126 7490.804104540475
127 7489.5187807538
128 7488.154992946399
129 7487.003956615962
130 7485.816732562868
131 7484.867608961404
132 7484.033096114617
133 7483.392040025002
134 7482.842907623385
135 7482.552233893834
136 7482.37457267055
137 7482.477539290282
138 7482.730273163948
139 7483.194187840576
140 7483.835589148141
141 7484.812678860309
142 7485.98083762083
143 7487.423730179136
144 7489.102368238887
145 7491.008086531713
146 7493.058258565829
147 7495.36885458233
148 7497.932866323226
149 7500.72284354871
150 7503.692394115228
151 7506.764948464112
152 7510.056285489083
153 7513.658442078421
154 7517.384043932871
155 7521.328372705733
156 7525.320916071267
157 7529.582905049595
158 7535.901952741011
159 7540.181393330456
160 7546.480976644825
161 7550.808973539808
162 7557.253525274183
163 7561.617774539341
164 7568.064260602986
165 7572.430617783583
166 7578.813761132806
167 7585.164048904221
168 7589.444212217391
169 7595.952929597644
170 7602.288563471766
171 7608.644446956709
172 7614.823583859605
173 7621.032084394561
174 7627.023522390698
175 7633.113633949654
176 7638.98355973969
177 7644.97699210389
178 7650.680095518976
179 7656.49011146647
180 7662.268541041822
181 7668.116251802022
182 7673.780859359794
183 7679.519169394665
184 7685.142171318416
185 7691.093729599492
186 7696.628363714278
187 7702.322405858618
188 7707.860425360751
189 7713.349211735062
190 7718.584111580675
191 7723.899039472523
192 7729.208177343849
193 7734.498103697821
194 7739.453561003719
195 7744.439820018871
196 7749.247662656209
197 7753.768186863606
198 7758.184052542088
199 7762.529481555806
200 7766.580459713588
201 7770.574275074056
202 7774.056574634673
203 7777.496953429825
204 7780.485010752393
205 7783.396795825523
206 7785.80564061217
207 7788.132202523324
208 7789.916552283553
209 7791.447066893844
210 7792.422769797131
211 7793.261118499664
212 7793.543094276572
213 7793.561875606143
214 7793.094543282423
215 7792.269103104389
216 7790.933262271972
217 7789.307666264062
218 7787.076550393595
219 7784.535089493571
220 7781.480938760721
221 7778.123886814454
222 7775.495021860231
223 7771.120304692512
224 7766.137364792179
225 7760.989557012703
226 7755.220949108808
227 7749.358100899017
228 7742.938305400666
229 7736.142526310439
230 7728.986721657465
231 7721.758717662799
232 7714.026021474638
233 7706.069461487018
234 7697.792334594756
235 7689.440035690372
236 7680.854963471824
237 7672.194583810569
238 7663.146917468447
239 7654.185059416241
240 7642.182841694545
241 7633.342853325981
242 7624.46988083846
243 7612.839702040985
244 7604.146085897134
245 7595.759988466492
246 7584.62940574722
247 7576.524384378965
248 7568.477149741137
249 7558.093675157495
250 7550.433557594995
251 7543.158518063684
252 7533.617483077269
253 7526.902889232932
254 7520.209814448374
255 7513.76094056786
256 7507.312582633317
257 7499.106948830368
258 7493.223051917304
259 7487.629139103529
260 7481.986222406656
261 7476.688469461661
262 7471.394763215466
263 7466.308529686465
264 7461.208208094808
265 7456.402675139794
266 7451.636262532551
267 7447.06254926442
268 7442.566222907892
269 7438.220195982163
270 7434.002396034406
271 7429.93854922131
272 7425.867352058366
273 7423.284477793016
274 7419.294221265752
275 7416.72341744914
276 7412.805648142591
277 7410.259817055155
278 7406.341479983089
279 7403.807637748541
280 7401.185956335507
281 7397.313036318459
282 7394.715905043241
283 7392.160169038702
284 7389.495864155446
285 7386.883853389051
286 7384.244266354391
287 7381.668779192924
288 7378.968170403357
289 7376.387222769006
290 7373.784850149004
291 7371.315479484188
292 7368.810556487303
293 7366.482833623762
294 7364.166538057746
295 7362.066695057389
296 7359.948073430525
297 7358.065803598362
298 7356.242182854079
299 7354.649367273234
300 7353.142897921114
301 7351.875352514633
302 7350.688292879148
303 7349.779178729277
304 7348.965038221577
305 7348.395711510268
306 7347.896758493255
307 7347.678946133806
308 7347.54923254028
309 7347.650836576016
310 7347.842372602247
311 7348.23823435238
312 7348.735616344308
313 7349.430443557761
314 7350.184486239962
315 7351.132573189288
316 7352.146462483716
317 7353.340693640361
318 7354.574764185159
319 7356.016652042579
320 7357.469656520189
321 7359.091614458565
322 7360.67897683176
323 7362.442251537848
324 7364.172858129151
325 7366.049308352516
326 7367.873604326748
327 7369.819059545478
328 7371.731638315965
329 7373.759328243707
330 7375.688599045764
331 7377.747752667284
332 7379.732604194796
333 7381.829674298069
334 7383.787084853894
335 7385.890196763355
336 7387.877027019664
337 7389.990400915445
338 7391.981705193613
339 7394.090311420438
340 7396.083343451202
341 7398.173821879296
342 7400.11899045128
343 7402.206921739943
344 7404.162662745198
345 7406.24024036008
346 7408.219389313565
347 7410.3180245613
348 7412.316924304462
349 7414.450728386544
350 7416.480676461651
351 7418.645720130378
352 7420.71440663959
353 7422.938361977886
354 7425.065643852866
355 7427.334581126699
356 7429.534939065989
357 7431.864543294095
358 7434.151237086883
359 7436.550525828256
360 7438.896097245802
361 7441.355817042104
362 7443.770315541002
363 7446.276657638638
364 7448.770996221338
365 7451.367527796184
366 7453.923333091196
367 7456.566253585714
368 7459.160213923254
369 7461.847578254304
370 7464.485131659233
371 7467.210162455951
372 7469.858368884521
373 7472.620343016881
374 7476.57089505927
375 7479.169082624216
376 7481.694127770458
377 7484.26272626665
378 7486.794206697416
379 7489.388391133811
380 7491.915149144607
381 7495.679408859872
382 7498.053184753729
383 7500.500174816648
384 7502.862105831581
385 7505.289093749782
386 7507.630501024552
387 7510.063059582079
388 7512.411304669688
389 7514.858240393743
390 7517.221260804773
391 7519.683980878935
392 7522.044268167991
393 7524.475066246733
394 7526.830206173586
395 7529.300970374225
396 7531.718824348721
397 7534.183927707108
398 7536.582920151859
399 7539.059339698275
400 7541.460805718145
401 7543.930430912314
402 7546.319374892982
403 7548.769306378675
404 7551.143323530929
405 7553.612569806676
406 7556.014978756655
407 7558.492494749898
408 7560.861692680621
409 7563.309651801927
410 7565.681509940581
411 7568.13395271501
412 7570.501471734568
413 7572.953641521858
414 7575.319514180253
415 7577.741615193634
416 7580.079616122944
417 7582.486178891523
418 7584.832576654595
419 7587.256683740668
420 7590.696877675899
421 7593.008954107574
422 7595.237949925378
423 7597.525288709497
424 7599.734250269934
425 7601.991626629341
426 7604.180397729064
427 7606.431387870392
428 7608.634711556421
429 7610.903941479472
430 7613.139816753279
431 7615.424670035355
432 7617.660250375877
433 7619.965237056321
434 7622.225537672518
435 7624.5600992408
436 7626.815420989156
437 7629.146367867223
438 7631.405048128109
439 7633.706184822447
440 7635.930669243965
441 7638.230696966243
442 7640.4561059364
443 7642.758558561379
444 7644.966568395707
445 7647.261827825335
446 7649.479357891897
447 7651.744530705547
448 7653.94583340612
449 7656.213398431702
450 7658.42410667469
451 7660.699328185325
452 7662.910615196639
453 7665.178107585581
454 7667.347551822183
455 7669.589350079986
456 7671.759924846525
457 7673.988498722358
458 7676.150006569039
459 7678.378030860919
460 7680.553770173034
461 7682.7664605957
462 7684.886788103939
463 7687.064067873833
464 7689.184918237783
465 7691.360086689631
466 7693.441499246541
467 7695.580418102944
468 7697.674218371577
469 7699.802257954069
470 7701.8678445121
471 7704.003607762988
472 7706.029937339938
473 7708.156986594365
474 7710.170649621052
475 7712.253668697154
476 7714.242519697085
477 7716.312086522174
478 7718.260271249304
479 7720.292783036683
480 7722.211756338929
481 7724.209379394104
482 7726.095051931296
483 7728.097714172605
484 7729.975946097696
485 7731.95110832939
486 7733.792048163292
487 7735.724528890985
488 7737.54414022143
489 7739.4560477395
490 7741.239303137992
491 7743.121128908395
492 7744.888012955016
493 7746.743492429557
494 7748.489075947503
495 7750.315577225197
496 7752.050270098467
497 7753.83756960898
498 7755.550556558012
499 7757.322395888838
500 7759.029410981111
501 7760.801447627544
502 7762.495088699304
503 7764.245474030229
504 7765.925877652829
505 7767.667331044197
506 7769.330809819411
507 7771.052360483975
508 7772.687359433498
509 7774.399112633532
510 7776.008105297704
511 7777.693427858644
512 7779.280186466749
513 7780.956378864119
514 7782.524869192863
515 7784.170438708407
516 7785.714438475645
517 7787.345684840185
518 7788.865730247875
519 7790.470644109571
520 7791.960582874391
521 7793.556351455704
522 7795.025456425188
523 7796.579058569715
524 7798.023140001417
525 7799.57089596754
526 7801.000012875581
527 7802.510376145169
528 7803.922350529439
529 7805.399576710075
530 7806.796254139439
531 7808.257384735496
532 7809.634061014543
533 7811.070953456826
534 7812.444591935286
535 7813.868169100288
536 7815.216384126409
537 7816.617763680571
538 7817.949164140516
539 7819.327223038888
540 7820.641872870387
541 7822.01524284871
542 7823.301749607973
543 7824.656901438078
544 7825.921608838415
545 7827.266733725984
546 7828.526372692198
547 7829.855165405092
548 7831.091936971992
549 7832.418709992689
550 7833.641666666546
551 7834.956891082415
552 7836.16314359544
553 7837.443286125348
554 7838.635521292405
555 7839.910483935448
556 7841.087747043431
557 7842.363391983108
558 7843.538840139466
559 7844.797183426771
560 7845.941826535762
561 7847.187564983794
562 7848.322414057173
563 7849.570061631161
564 7850.704094871558
565 7851.934363775036
566 7853.043088903622
567 7854.256045293877
568 7855.33978791107
569 7856.545385733043
570 7857.624863042251
571 7858.818271958649
572 7859.887680559963
573 7861.065930496234
574 7862.123878947048
575 7863.282480384379
576 7864.327976994506
577 7865.464788377944
578 7866.505507099846
579 7867.61799250578
580 7868.628411910189
581 7869.734613670469
582 7870.760250883242
583 7871.8699356012
584 7872.860860773553
585 7873.956978636758
586 7874.944755511313
587 7876.018255413351
588 7876.975941290578
589 7878.028403283221
590 7878.984899306726
591 7880.033119425665
592 7880.982560575823
593 7882.008677217169
594 7882.948063112694
595 7883.950809484498
596 7884.878022335323
597 7885.877455825475
598 7886.807590185248
599 7887.784480058214
600 7888.700743348337
601 7889.665131830116
602 7890.567838732032
603 7891.525774731182
604 7892.419578334734
605 7893.370113939917
606 7894.264556345172
607 7895.197105320736
608 7896.069191782692
609 7896.990899635228
610 7897.842396404312
611 7898.76603288308
612 7899.60237273825
613 7900.500628427802
614 7901.323378183535
615 7902.234435162679
616 7903.053972883399
617 7903.955057604992
618 7904.758826638505
619 7905.645634674898
620 7906.426564469156
621 7907.314086940297
622 7908.092264064579
623 7908.957850210752
624 7909.728255453527
625 7910.573102364498
626 7911.341873456499
627 7912.190197781363
628 7912.942251120617
629 7913.78738552842
630 7914.55190335666
631 7915.378490628828
632 7916.119446407951
633 7916.936557072656
634 7917.686807591251
635 7918.489851817105
636 7919.219330246669
637 7920.002821507219
638 7920.755502963925
639 7921.557317258649
640 7922.287051596264
641 7923.079076798934
642 7923.797553170847
643 7924.583114592908
644 7925.302499458806
645 7926.071011678901
646 7926.795739027637
647 7927.55313396029
648 7928.251921088009
649 7929.012912324817
650 7929.713062997674
651 7930.462216708869
652 7931.155986763351
653 7931.887131326993
654 7932.574497767231
655 7933.307991437636
656 7933.985249435205
657 7934.719342826123
658 7935.399809943855
659 7936.142096158457
660 7936.79788557902
661 7937.527365437308
662 7938.179005758586
663 7938.898047461431
664 7939.534237522815
665 7940.256250784079
666 7940.904003683009
667 7941.607965781704
668 7942.242380291183
669 7942.944631877397
670 7943.591155770409
671 7944.293569564724
672 7944.928491659455
673 7945.621735044632
674 7946.255826231777
675 7946.931966487205
676 7947.573749853304
677 7948.23217605038
678 7948.864989716904
679 7949.511021225591
680 7950.133812039836
681 7950.779518946293
682 7951.402848452101
683 7952.040851105276
684 7952.646738581693
685 7953.272985640973
686 7953.878304305877
687 7954.513178624182
688 7955.101531065579
689 7955.723680315397
690 7956.312498572655
691 7956.937546100306
692 7957.494917874813
693 7958.117998345612
694 7958.69099078899
695 7959.304174719839
696 7959.861005120767
697 7960.462815528061
698 7961.016583673547
699 7961.626959852898
700 7962.179596263415
701 7962.783922684724
702 7963.332142505846
703 7963.937468541471
704 7964.481560686467
705 7965.071001188837
706 7965.621789170967
707 7966.209122468434
708 7966.73942984864
709 7967.321480678498
710 7967.858833740654
711 7968.43887461928
712 7968.961668694002
713 7969.543501687993
714 7970.078637198033
715 7970.654020134108
716 7971.165658576221
717 7971.737518009813
718 7972.248937090739
719 7972.816113211868
720 7973.315967058397
721 7973.884096611036
722 7974.391972044166
723 7974.947231846886
724 7975.442230204758
725 7975.995536844715
726 7976.498587945524
727 7977.044903998317
728 7977.542136253975
729 7978.077493128013
730 7978.569984886943
731 7979.118182624311
732 7979.597620150163
733 7980.148117413817
734 7980.639949349627
735 7981.175742891339
736 7981.660402455377
737 7982.199256269502
738 7982.672528224684
739 7983.208255284096
740 7983.674850383018
741 7984.21275935584
742 7984.680685372468
743 7985.2177687181
744 7985.680159523488
745 7986.207619522643
746 7986.678238388616
747 7987.206232480154
748 7987.673782575326
749 7988.187758177098
750 7988.671684414552
751 7989.182711513287
752 7989.630409058444
753 7990.146654749903
754 7990.59916565392
755 7991.115449616505
756 7991.581579199677
757 7992.08776802035
758 7992.535667806939
759 7993.037261382854
760 7993.487124183139
761 7993.986461819633
762 7994.436016819869
763 7994.944691918367
764 7995.391074773793
765 7995.881279124202
766 7996.323315842262
767 7996.819567840107
768 7997.228100573629
769 7997.728063327841
770 7998.140377914474
771 7998.637814016515
772 7999.063546094803
773 7999.555099792103
774 7999.972332036919
775 8000.461107758834
776 8000.87898937813
777 8001.356220717147
778 8001.777470773335
779 8002.261095969226
780 8002.672913412634
781 8003.149610222212
782 8003.575412349932
783 8004.050942967481
784 8004.478584274299
785 8004.945681171313
786 8005.353550371403
787 8005.825020675718
788 8006.235822865564
789 8006.704482115551
790 8007.116328863299
791 8007.570039625029
792 8007.962732032661
793 8008.418270608146
794 8008.811961526164
795 8009.279755552955
796 8009.654017327105
797 8010.111905938175
798 8010.496631517044
799 8010.968953199796
800 8011.344747712113
801 8011.804266049779
802 8012.166829377881
803 8012.619581715637
804 8012.987246516799
805 8013.438288227824
806 8013.806895222041
807 8014.245239736324
808 8014.596521736344
809 8015.035511987802
810 8015.39671618591
811 8015.839119639307
812 8016.197297813716
813 8016.626131909472
814 8016.993978037732
815 8017.420086890379
816 8017.790172581858
817 8018.208738002051
818 8018.577080813828
819 8018.978766903368
820 8019.356752261445
821 8019.753186038663
822 8020.114500430646
823 8020.521092100852
824 8020.890207942013
825 8021.287031492076
826 8021.650241023838
827 8022.048128240905
828 8022.407092683613
829 8022.806669763972
830 8023.171172771967
831 8023.570034978809
832 8023.925732330499
833 8024.31679305756
834 8024.66758995027
835 8025.0577599609
836 8025.402646797843
837 8025.795280821912
838 8026.121035231186
839 8026.512088104216
840 8026.856957736151
841 8027.244507971611
842 8027.586324817231
843 8027.98701342715
844 8028.322028788187
845 8028.706824620419
846 8029.050109216486
847 8029.433556759875
848 8029.762441025909
849 8030.157411380485
850 8030.48548385747
851 8030.863159017023
852 8031.174346183596
853 8031.562006411498
854 8031.87900738581
855 8032.261449963839
856 8032.57753047935
857 8032.961383914519
858 8033.270061666984
859 8033.644113724306
860 8033.949585572596
861 8034.332214481482
862 8034.63224770027
863 8035.003443554434
864 8035.298085496533
865 8035.673768970512
866 8035.97512671821
867 8036.34902373195
868 8036.638389649211
869 8037.012842215247
870 8037.293277854537
871 8037.659043936314
872 8037.946748955978
873 8038.310041304156
874 8038.601829564439
875 8038.955099253127
876 8039.244529939698
877 8039.603250307354
878 8039.888085924968
879 8040.241849536599
880 8040.512312148574
881 8040.870917488819
882 8041.146484566355
883 8041.491421366876
884 8041.770101662543
885 8042.112883986867
886 8042.398636776779
887 8042.741083177258
888 8043.024998514969
889 8043.346678392494
890 8043.621050277172
891 8043.954497795794
892 8044.236010960481
893 8044.574404842707
894 8044.861903992652
895 8045.178104915995
896 8045.464710518986
897 8045.784134450798
898 8046.066816654673
899 8046.39596161053
900 8046.669330680521
901 8046.981849023211
902 8047.252367130997
903 8047.558356246908
904 8047.831341898567
905 8048.154261793473
906 8048.426608992363
907 8048.752656752201
908 8049.013551676589
909 8049.338478028901
910 8049.59411666057
911 8049.90666562828
912 8050.155263113905
913 8050.470087882757
914 8050.707470323641
915 8051.0293159356
916 8051.270892143891
917 8051.589673744482
918 8051.829871488602
919 8052.139556752174
920 8052.373379558087
921 8052.692102544708
922 8052.919238651125
923 8053.222465948611
924 8053.446966792646
925 8053.745546093306
926 8053.981594949642
927 8054.278685787597
928 8054.514593820883
929 8054.818358768808
930 8055.05262956264
931 8055.35074087681
932 8055.579988833705
933 8055.865851790333
934 8056.104650906374
935 8056.379933264884
936 8056.624746705429
937 8056.901298291778
938 8057.138177581823
939 8057.419937081748
940 8057.654236903952
941 8057.935074024299
942 8058.163716226513
943 8058.432805966675
944 8058.667334302829
945 8058.934026619236
946 8059.159194189852
947 8059.424842365973
948 8059.650580770066
949 8059.917918480802
950 8060.137624861317
951 8060.393499869678
952 8060.606945403907
953 8060.867505680403
954 8061.079052634289
955 8061.340495543171
956 8061.54802883006
957 8061.81752120439
958 8062.029064575155
959 8062.296536561023
960 8062.508920253937
961 8062.782743459149
962 8062.986038673547
963 8063.260727797114
964 8063.448908788495
965 8063.719658741765
966 8063.918452928906
967 8064.179570557882
968 8064.374944141291
969 8064.640033734605
970 8064.830301645048
971 8065.086918674601
972 8065.283332955924
973 8065.536987318334
974 8065.738000148516
975 8065.995343347163
976 8066.198007521413
977 8066.434337067056
978 8066.632609945337
979 8066.858430810264
980 8067.054666512859
981 8067.297710058539
982 8067.492580916637
983 8067.719846159223
984 8067.909075548627
985 8068.139758842512
986 8068.331494006493
987 8068.557399428995
988 8068.746628384472
989 8068.976742258115
990 8069.153087737765
991 8069.374386892507
992 8069.567171081208
993 8069.790811805946
994 8069.97693676155
995 8070.194548354621
996 8070.379718181911
997 8070.613610126738
998 8070.791501982928
999 8071.01257365779
1000 8071.183041999507
1001 8071.417270354721
1002 8071.584732014911
1003 8071.805814665897
1004 8071.962066838031
1005 8072.195894559088
1006 8072.359961972883
1007 8072.588979242692
1008 8072.742865588465
1009 8072.965279115847
1010 8073.119255339338
1011 8073.349018760648
1012 8073.488466604918
1013 8073.721820694916
1014 8073.872901667667
1015 8074.094593079943
1016 8074.262921290987
1017 8074.494685790145
1018 8074.647845835675
1019 8074.857546811817
1020 8075.021191481727
1021 8075.233600058122
1022 8075.389709345746
1023 8075.596797766916
1024 8075.751056123981
1025 8075.960519718843
1026 8076.133297531929
1027 8076.32178209218
1028 8076.481749233355
1029 8076.682360193574
1030 8076.839364070526
1031 8077.029584446329
1032 8077.179614737429
1033 8077.379948077168
1034 8077.524026610556
1035 8077.730604722647
1036 8077.880148870503
1037 8078.092077119441
1038 8078.239554201807
1039 8078.43814676764
1040 8078.569389177832
1041 8078.775879867797
1042 8078.902509656645
1043 8079.098917210135
1044 8079.224304684617
1045 8079.435496138581
1046 8079.573924166678
1047 8079.771268064257
1048 8079.905888371442
1049 8080.106812183657
1050 8080.242809645651
1051 8080.440950995228
1052 8080.565595979355
1053 8080.773533799585
1054 8080.906390145244
1055 8081.09957828471
1056 8081.233855730737
1057 8081.420088841471
1058 8081.554408561265
1059 8081.744633722076
1060 8081.870112697426
1061 8082.0633097633
1062 8082.1911079312
1063 8082.369852728229
1064 8082.500210114523
1065 8082.684587727153
1066 8082.813024673294
1067 8082.991189499393
1068 8083.117803968848
1069 8083.300738713894
1070 8083.427672241593
1071 8083.607951577547
1072 8083.71928756787
1073 8083.914242437196
1074 8084.014847278308
1075 8084.20216073973
1076 8084.305182483026
1077 8084.496734327209
1078 8084.603573603426
1079 8084.78156793512
1080 8084.878664921216
1081 8085.065526985295
1082 8085.166081421193
1083 8085.339658517228
1084 8085.446940923317
1085 8085.623564312499
1086 8085.728618630778
1087 8085.902908001946
1088 8085.997542191201
1089 8086.18326055148
1090 8086.291797203998
1091 8086.456158452405
1092 8086.56194108491
1093 8086.731875614957
1094 8086.845508995815
1095 8087.012545708017
1096 8087.117268706578
1097 8087.279226443901
1098 8087.405956784297
1099 8087.547738568122
1100 8087.663524083542
1101 8087.824565647065
1102 8087.944201536132
1103 8088.105564781546
1104 8088.218470222475
1105 8088.372416533964
1106 8088.481410636487
1107 8088.641094825803
1108 8088.740125014523
1109 8088.904781149265
1110 8089.007608026043
1111 8089.167842959133
1112 8089.258000336085
1113 8089.423948251783
1114 8089.518793293723
1115 8089.683492007856
1116 8089.768108402006
1117 8089.929096759739
1118 8090.007792429374
1119 8090.17149593678
1120 8090.253124028922
1121 8090.419056408939
1122 8090.493548054021
1123 8090.658835359724
1124 8090.753467749786
1125 8090.911500236547
1126 8091.00688381157
1127 8091.166446443219
1128 8091.244858008339
1129 8091.405842274391
1130 8091.48643528992
1131 8091.639291618742
1132 8091.711687283075
1133 8091.871922268466
1134 8091.949566485082
1135 8092.096728179097
1136 8092.185420046262
1137 8092.333543468125
1138 8092.414693224068
1139 8092.568729080821
1140 8092.638712422269
1141 8092.783611621783
1142 8092.865258624141
1143 8093.015598876043
1144 8093.094383456728
1145 8093.250640989334
1146 8093.334980451465
1147 8093.477961442469
1148 8093.561533533752
1149 8093.709610580414
1150 8093.777883842714
1151 8093.934850018777
1152 8094.008793321057
1153 8094.162822697979
1154 8094.240334758269
1155 8094.387079642285
1156 8094.461063137718
1157 8094.611862807613
1158 8094.68554794048
1159 8094.829344147362
1160 8094.895152717193
1161 8095.033262472447
1162 8095.099638392323
1163 8095.249341005335
1164 8095.306143263782
1165 8095.45251480132
1166 8095.528148080357
1167 8095.655980001612
1168 8095.722788669647
1169 8095.862182010011
1170 8095.925949213476
1171 8096.04847362987
1172 8096.118400517728
1173 8096.261562063949
1174 8096.319391397898
1175 8096.458244794712
1176 8096.518456039865
1177 8096.650680794085
1178 8096.720947395122
1179 8096.84017164785
1180 8096.89553620386
1181 8097.034452125184
1182 8097.095694326759
1183 8097.223019726081
1184 8097.293305927261
1185 8097.418987545123
1186 8097.480197617934
1187 8097.606290777439
1188 8097.666894730362
1189 8097.799840549275
1190 8097.871300838818
1191 8097.990669219703
1192 8098.047363205285
1193 8098.171612725786
1194 8098.238236306201
1195 8098.352509842024
1196 8098.424704186869
1197 8098.540759065794
1198 8098.614192713638
1199 8098.724504532135
1200 8098.78492347256
1201 8098.902345341839
1202 8098.959014315492
1203 8099.071895601304
1204 8099.127748588786
1205 8099.243900692542
1206 8099.297597309443
1207 8099.412061926732
1208 8099.462017295446
1209 8099.570353900991
1210 8099.632599133482
1211 8099.747871794519
1212 8099.813463064895
1213 8099.932519711734
1214 8099.996279848741
1215 8100.095890058442
1216 8100.158694316764
1217 8100.277951442639
1218 8100.334631932171
1219 8100.436533597392
1220 8100.497154137894
1221 8100.596520051304
1222 8100.660741766432
1223 8100.749876190867
1224 8100.802601106481
1225 8100.898873783288
1226 8100.972099145377
1227 8101.074007368235
1228 8101.129096287408
1229 8101.230632856224
1230 8101.289960610484
1231 8101.39540288681
1232 8101.447748296753
1233 8101.557394893637
1234 8101.604324803917
1235 8101.722647678628
1236 8101.754265478484
1237 8101.88239234157
1238 8101.917664356421
1239 8102.029899062332
1240 8102.059898458599
1241 8102.170562934891
1242 8102.206479406001
1243 8102.316383315283
1244 8102.34614211908
1245 8102.463704252899
1246 8102.491968528361
1247 8102.601143240065
1248 8102.629997898196
1249 8102.74236756571
1250 8102.779934242176
1251 8102.891335873094
1252 8102.927155147158
1253 8103.044213809286
1254 8103.078472096902
1255 8103.197623751794
1256 8103.223362284746
1257 8103.345157186227
1258 8103.375701844783
1259 8103.472116369236
1260 8103.499619346289
1261 8103.610162807609
1262 8103.633339861864
1263 8103.750844826714
1264 8103.778478278758
1265 8103.89292434486
1266 8103.929120023784
1267 8104.028912142707
1268 8104.061946572422
1269 8104.156298477398
1270 8104.19780369303
1271 8104.295321859222
1272 8104.323327567539
1273 8104.432582294717
1274 8104.474458665542
1275 8104.577616835357
1276 8104.611256810494
1277 8104.70747908901
1278 8104.742156609548
1279 8104.834395903951
1280 8104.883022425377
1281 8104.97076391153
1282 8105.012069997535
1283 8105.096805013675
1284 8105.130178813066
1285 8105.227106522941
1286 8105.260525185782
1287 8105.354528223467
1288 8105.390590376081
1289 8105.483023846087
1290 8105.513926149533
1291 8105.598808387198
1292 8105.647275031117
1293 8105.734800653983
1294 8105.759541255164
1295 8105.854844871371
1296 8105.885210173773
1297 8105.979655020783
1298 8106.001031894581
1299 8106.093630196197
1300 8106.113470776651
1301 8106.218613097551
1302 8106.238585694826
1303 8106.326423317151
1304 8106.351705656652
1305 8106.445103216044
1306 8106.470174631526
1307 8106.566083747656
1308 8106.580742197856
1309 8106.682717445591
1310 8106.700207519945
1311 8106.796027553159
1312 8106.821226568931
1313 8106.921478770391
1314 8106.946131075469
1315 8107.032160427129
1316 8107.055087223527
1317 8107.137589928152
1318 8107.16545603199
1319 8107.262070893727
1320 8107.273874393381
1321 8107.377853925329
1322 8107.385923647667
1323 8107.477067624871
1324 8107.488272779236
1325 8107.594013755363
1326 8107.608811271715
1327 8107.717263946627
1328 8107.71153680962
1329 8107.819073894249
1330 8107.832169135722
1331 8107.930731452001
1332 8107.926060385409
1333 8108.030094048509
1334 8108.036702570424
1335 8108.133019956802
1336 8108.140793968894
1337 8108.242968649884
1338 8108.252894079206
1339 8108.337084413202
1340 8108.343821950758
1341 8108.443101204929
1342 8108.445456433774
1343 8108.532587268765
1344 8108.539409948937
1345 8108.617774474049
1346 8108.640661712563
1347 8108.704449127051
1348 8108.736069754118
1349 8108.806334968146
1350 8108.82781748741
1351 8108.897967523643
1352 8108.921031899475
1353 8108.996578799795
1354 8109.01664656802
1355 8109.087548405639
1356 8109.111071922091
1357 8109.187411742949
1358 8109.212558782215
1359 8109.276295041901
1360 8109.27776454031
1361 8109.36868009988
1362 8109.380295761328
1363 8109.458647932846
1364 8109.465549548052
1365 8109.550216017768
1366 8109.550136701996
1367 8109.636116712614
1368 8109.635158886782
1369 8109.728943450607
1370 8109.73111644309
1371 8109.809926354004
1372 8109.803926642739
1373 8109.892214432636
1374 8109.896947937211
1375 8109.972674887432
1376 8109.976216627657
1377 8110.066828977197
1378 8110.071034461525
1379 8110.161265162456
1380 8110.169230801923
1381 8110.244715806322
1382 8110.247021579238
1383 8110.315165900673
1384 8110.304203885561
1385 8110.389151567788
1386 8110.397656373936
1387 8110.470060909203
1388 8110.465135525411
1389 8110.541557116801
1390 8110.54882261818
1391 8110.625192371962
1392 8110.629361600033
1393 8110.708690462838
1394 8110.725291407367
1395 8110.801649990834
1396 8110.79421129929
1397 8110.875375348549
1398 8110.877423140336
1399 8110.944674034717
1400 8110.95382447815
1401 8111.025786486566
1402 8111.027097174501
1403 8111.099487576128
1404 8111.096804638274
1405 8111.167420640422
1406 8111.170167373314
1407 8111.2457642908
1408 8111.247056493024
1409 8111.334535207837
1410 8111.336937063852
1411 8111.40418954347
1412 8111.408121778015
1413 8111.482123223489
1414 8111.496182222219
1415 8111.560729233837
1416 8111.556317224366
1417 8111.632447571134
1418 8111.634007098439
1419 8111.702206431291
1420 8111.699932937394
1421 8111.773977115634
1422 8111.763642746459
1423 8111.835495038963
1424 8111.826844273693
1425 8111.896042489909
1426 8111.890714973079
1427 8111.968520718739
1428 8111.948009325644
1429 8112.035793964151
1430 8112.022312536729
1431 8112.100499173302
1432 8112.080756711426
1433 8112.166833414792
1434 8112.157545835189
1435 8112.235685896921
1436 8112.222080256002
1437 8112.299808432042
1438 8112.287071951531
1439 8112.363220341324
1440 8112.362715586285
1441 8112.430060187111
1442 8112.434239521976
1443 8112.495776625527
1444 8112.487246916402
1445 8112.555461501242
1446 8112.557381529128
1447 8112.616937782973
1448 8112.628093758258
1449 8112.685579359068
1450 8112.692610907634
1451 8112.755691345151
1452 8112.751044948913
1453 8112.818807466248
1454 8112.812480854817
1455 8112.879467467402
1456 8112.879527985572
1457 8112.954444882407
1458 8112.950876619207
1459 8113.01601702113
1460 8113.006732967813
1461 8113.072265862982
1462 8113.059888275148
1463 8113.129502375088
1464 8113.107546774095
1465 8113.191839764298
1466 8113.172341695644
1467 8113.256621326568
1468 8113.236874056088
1469 8113.321520366964
1470 8113.308546249194
1471 8113.38295191203
1472 8113.360592901337
1473 8113.432510743343
1474 8113.417918925767
1475 8113.487349765081
1476 8113.466732661743
1477 8113.541601283116
1478 8113.531143314646
1479 8113.596585866168
1480 8113.591437887832
1481 8113.653713900738
1482 8113.651211521334
1483 8113.705232820263
1484 8113.687259916138
1485 8113.752022789002
1486 8113.747175422663
1487 8113.812715231944
1488 8113.799682528023
1489 8113.867283896925
1490 8113.856734973984
1491 8113.923816888489
1492 8113.906640234686
1493 8113.96663458136
1494 8113.963364205481
1495 8114.022795902836
1496 8113.999895679305
1497 8114.066124730215
1498 8114.058569302253
1499 8114.112085240138
1500 8114.10200077718
1501 8114.1760797856
1502 8114.164842553683
1503 8114.22298913392
1504 8114.207460236541
1505 8114.267040631907
1506 8114.251497682334
1507 8114.313798413146
1508 8114.300800489575
1509 8114.384334505376
1510 8114.357291667238
1511 8114.436632486778
1512 8114.403288248519
1513 8114.476635625865
1514 8114.448473385909
1515 8114.523294985815
1516 8114.497395531419
1517 8114.571183626532
1518 8114.542811817919
1519 8114.608183702189
1520 8114.576104242924
1521 8114.649255682867
1522 8114.636158559336
1523 8114.697918363158
1524 8114.67945419993
1525 8114.737300604217
1526 8114.734972374788
1527 8114.786053597837
1528 8114.770888752094
1529 8114.824086883615
1530 8114.818458068212
1531 8114.862865856858
1532 8114.866077275879
1533 8114.911286715763
1534 8114.922822246564
1535 8114.964904598894
1536 8114.954349437544
1537 8114.998569394678
1538 8114.988199892983
1539 8115.047710922652
1540 8115.042395345846
1541 8115.096680874531
1542 8115.080053466691
1543 8115.138296879591
1544 8115.121125711889
1545 8115.196318093999
1546 8115.168102023493
1547 8115.227668446561
1548 8115.199359016208
1549 8115.264759007924
1550 8115.245880016406
1551 8115.310811877822
1552 8115.265362684501
1553 8115.338962217492
1554 8115.310970944251
1555 8115.371600019116
1556 8115.35281356822
1557 8115.430495383982
1558 8115.410509117886
1559 8115.463370078433
1560 8115.443086495264
1561 8115.502704123546
1562 8115.489347900305
1563 8115.54655389783
1564 8115.526188002317
1565 8115.585285571674
1566 8115.565458672583
1567 8115.629231755313
1568 8115.60749404737
1569 8115.6632440454
1570 8115.63774923325
1571 8115.683686029093
1572 8115.669955867406
1573 8115.723890232826
1574 8115.711231732219
1575 8115.763622429477
1576 8115.745006466293
1577 8115.820536219175
1578 8115.805791395978
1579 8115.851941454035
1580 8115.833770521806
1581 8115.884257389838
1582 8115.867439925364
1583 8115.915222308405
1584 8115.887787129684
1585 8115.94715277069
1586 8115.935938719732
1587 8115.984278124384
1588 8115.952298177567
1589 8116.004892330853
1590 8115.981182729562
1591 8116.035719757665
1592 8116.016961668662
1593 8116.072493181298
1594 8116.052408553973
1595 8116.105591693399
1596 8116.07976178232
1597 8116.14402597867
1598 8116.126418279677
1599 8116.180057614998
1600 8116.148592648266
1601 8116.208924596816
1602 8116.190328946573
1603 8116.245779681117
1604 8116.234394964707
1605 8116.286307535108
1606 8116.262702950592
1607 8116.317499115251
1608 8116.280618359517
1609 8116.338846687006
1610 8116.318708762229
1611 8116.376213965624
1612 8116.350084548055
1613 8116.405415495586
1614 8116.387187443855
1615 8116.440762499722
1616 8116.427785648502
1617 8116.495373645296
1618 8116.471107390393
1619 8116.524262755369
1620 8116.498806546353
1621 8116.558515550482
1622 8116.533299054513
1623 8116.588536168813
1624 8116.567373915807
1625 8116.621730114777
1626 8116.601164732921
1627 8116.641767132678
1628 8116.620642768095
1629 8116.664658828474
1630 8116.643339112467
1631 8116.694331956672
1632 8116.670181656411
1633 8116.722937499435
1634 8116.701876577552
1635 8116.752802669263
1636 8116.73348020062
1637 8116.783341528515
1638 8116.753878896701
1639 8116.801742055271
1640 8116.766757182534
1641 8116.830748467878
1642 8116.800111502365
1643 8116.864078060371
1644 8116.828507385142
1645 8116.893486049444
1646 8116.853027717952
1647 8116.913231563964
1648 8116.878090353534
1649 8116.943898965176
1650 8116.90581993602
1651 8116.965273938877
1652 8116.927795674285
1653 8116.991026901534
1654 8116.970170302821
1655 8117.024095610147
1656 8116.998599678139
1657 8117.043081525416
1658 8117.013647620627
1659 8117.057978210517
1660 8117.033936314839
1661 8117.084885742275
1662 8117.069230739314
1663 8117.115254480549
1664 8117.088980229082
1665 8117.136292376879
1666 8117.106997124431
1667 8117.164554717396
1668 8117.127863458923
1669 8117.196124561398
1670 8117.161866977408
1671 8117.216891808817
1672 8117.17309498848
1673 8117.244773696847
1674 8117.20905685367
1675 8117.27001619678
1676 8117.232196563935
1677 8117.289014234241
1678 8117.252104350632
1679 8117.307311447034
1680 8117.272885719003
1681 8117.325768604565
1682 8117.304256103437
1683 8117.357544200787
1684 8117.337393717963
1685 8117.390167919521
1686 8117.375399093179
1687 8117.421754524677
1688 8117.388311157949
1689 8117.434437981758
1690 8117.402689272601
1691 8117.463377384918
1692 8117.434555419372
1693 8117.487262564202
1694 8117.455863786082
1695 8117.50409413652
1696 8117.463200521325
1697 8117.516998328418
1698 8117.488221387201
1699 8117.541010428655
1700 8117.50900050671
1701 8117.560828221624
1702 8117.542745399723
1703 8117.587873596807
1704 8117.564591751991
1705 8117.610271606722
1706 8117.589471106337
1707 8117.631772850521
1708 8117.606231352991
1709 8117.649856887446
1710 8117.622369235567
1711 8117.66610984817
1712 8117.635333371956
1713 8117.687348926967
1714 8117.654207323733
1715 8117.695892994642
1716 8117.657226042502
1717 8117.714664420252
1718 8117.673891128506
1719 8117.7290896624
1720 8117.677467928643
1721 8117.747977795958
1722 8117.716984132795
1723 8117.774280333156
1724 8117.722480732667
1725 8117.782880076133
1726 8117.760642195711
1727 8117.810683035198
1728 8117.772100784141
1729 8117.824585449875
1730 8117.792589216656
1731 8117.846992215581
1732 8117.821650910341
1733 8117.879169230218
1734 8117.85537590907
1735 8117.899229388853
1736 8117.874065343778
1737 8117.906985348758
1738 8117.891154502525
1739 8117.923522611457
1740 8117.900779378844
1741 8117.932766024294
1742 8117.925319198787
1743 8117.967633552402
1744 8117.941705936133
1745 8117.984020569261
1746 8117.96907465534
1747 8117.995868742749
1748 8117.978957097585
1749 8118.014549792146
1750 8117.9855982932
1751 8118.031703626984
1752 8117.988432234973
1753 8118.04064769363
1754 8118.001603797183
1755 8118.050907674112
1756 8118.01608116549
1757 8118.080264161763
1758 8118.041487774164
1759 8118.088113050887
1760 8118.042157269762
1761 8118.098454881032
1762 8118.060030386067
1763 8118.104616452596
1764 8118.075212637827
1765 8118.129350097786
1766 8118.095973816975
1767 8118.141048108196
1768 8118.115248162609
1769 8118.147798821848
1770 8118.128854936183
1771 8118.156783323157
1772 8118.131999939631
1773 8118.167345994228
1774 8118.14451681957
1775 8118.182888460427
1776 8118.147565213869
1777 8118.192158525194
1778 8118.175337482381
1779 8118.206686568807
1780 8118.189869831856
1781 8118.231394078953
1782 8118.218164550488
1783 8118.256410367473
1784 8118.2312464414
1785 8118.277620188713
1786 8118.251298845799
1787 8118.310421632146
1788 8118.276902849465
1789 8118.333678694325
1790 8118.288977195141
1791 8118.349818572969
1792 8118.317101885082
1793 8118.372601942366
1794 8118.324961193273
1795 8118.380392024064
1796 8118.336117806097
1797 8118.386593968055
1798 8118.353748498876
1799 8118.406232750005
1800 8118.366964002724
1801 8118.410912402247
1802 8118.385617231739
1803 8118.426774987503
1804 8118.38865853815
1805 8118.426703972461
1806 8118.397054946615
1807 8118.434167479939
1808 8118.401845205418
1809 8118.455005152263
1810 8118.421800683353
1811 8118.46915727063
1812 8118.4275950172
1813 8118.471993721531
1814 8118.438255667296
1815 8118.49677392766
1816 8118.451073837765
1817 8118.511441883877
1818 8118.456992835953
1819 8118.521832542541
1820 8118.476503968031
1821 8118.536024553965
1822 8118.491000348757
1823 8118.556680223858
1824 8118.504197595205
1825 8118.563927560236
1826 8118.518248448441
1827 8118.573305254233
1828 8118.520138407311
1829 8118.584095050849
1830 8118.538447167501
1831 8118.600543892101
1832 8118.561909502162
1833 8118.619557209368
1834 8118.57602516985
1835 8118.626273715358
1836 8118.579525688287
1837 8118.625308496117
1838 8118.599837506875
1839 8118.637440176682
1840 8118.604472565587
1841 8118.645583326864
1842 8118.614374513993
1843 8118.649394804511
1844 8118.621066308045
1845 8118.660925783764
1846 8118.639538707508
1847 8118.677846187318
1848 8118.637493291254
1849 8118.680855535148
1850 8118.653934934935
1851 8118.702254221583
1852 8118.665694382135
1853 8118.707891333757
1854 8118.666378626301
1855 8118.719032272174
1856 8118.680086088039
1857 8118.730317626286
1858 8118.691671414464
1859 8118.750043073438
1860 8118.702073868975
1861 8118.75529252455
1862 8118.703678486038
1863 8118.764658840827
1864 8118.717868032595
1865 8118.782206595025
1866 8118.729896454378
1867 8118.79722262722
1868 8118.746252025438
1869 8118.814489086358
1870 8118.770105755933
1871 8118.8310131426
1872 8118.773060806378
1873 8118.827817094124
1874 8118.781187993521
1875 8118.838307791459
1876 8118.79487638526
1877 8118.838483386048
1878 8118.795004456392
1879 8118.840893009919
1880 8118.808414424426
1881 8118.850089136728
1882 8118.82679264788
1883 8118.860672116585
1884 8118.826463075189
1885 8118.868490242046
1886 8118.851698023368
1887 8118.892387731411
1888 8118.859682376035
1889 8118.890859157194
1890 8118.864528171105
1891 8118.901082048077
1892 8118.869065365863
1893 8118.910206056453
1894 8118.880218767295
1895 8118.922593156705
1896 8118.889208171249
1897 8118.932508631201
1898 8118.904511148487
1899 8118.941461360979
1900 8118.904511927932
1901 8118.939120607738
1902 8118.898672444963
1903 8118.954657032858
1904 8118.920851250135
1905 8118.973079858054
1906 8118.938715034257
1907 8118.992439807945
1908 8118.959441867255
1909 8119.014526126319
1910 8118.974917093077
1911 8119.019874338353
1912 8118.979743649753
1913 8119.027740870238
1914 8118.990908662876
1915 8119.038158898042
1916 8118.995550333491
1917 8119.040766438033
1918 8119.002626628014
1919 8119.046925210486
1920 8119.001368662039
1921 8119.047005359977
1922 8119.006862984503
1923 8119.055860154578
1924 8119.008674658782
1925 8119.054417984046
1926 8119.019100646736
1927 8119.060460930926
1928 8119.025613766185
1929 8119.08000262155
1930 8119.035684726075
1931 8119.073441108779
1932 8119.034545699278
1933 8119.075679682218
1934 8119.042326528461
1935 8119.084293808894
1936 8119.053026090367
1937 8119.081572905022
1938 8119.046302243743
1939 8119.078789718413
1940 8119.046302317192
1941 8119.102377743842
1942 8119.069595155629
1943 8119.114115017564
1944 8119.063155181218
1945 8119.106097443336
1946 8119.082887395626
1947 8119.128614734203
1948 8119.083886252088
1949 8119.12646459653
1950 8119.096657015675
1951 8119.141449989254
1952 8119.096544902809
1953 8119.14677048379
1954 8119.107248933206
1955 8119.154752025326
1956 8119.108005680332
1957 8119.159025537409
1958 8119.126277957944
1959 8119.17159514757
1960 8119.127969532717
1961 8119.176077835785
1962 8119.14362914027
1963 8119.195003061986
1964 8119.147433736519
1965 8119.196999845197
1966 8119.148954970604
1967 8119.214090091406
1968 8119.176695105297
1969 8119.227898843168
1970 8119.184032903358
1971 8119.230657360305
1972 8119.193408526146
1973 8119.243577406737
1974 8119.20288281667
1975 8119.24168431155
1976 8119.190404037814
1977 8119.230316102917
1978 8119.202227221741
1979 8119.23886066182
1980 8119.20432845059
1981 8119.2402052894
1982 8119.20553933081
1983 8119.244230473127
1984 8119.21094227495
1985 8119.248708445406
1986 8119.211794247977
1987 8119.24274025409
1988 8119.210206975529
1989 8119.242824488003
1990 8119.21818280902
1991 8119.249378502264
1992 8119.226268054163
1993 8119.256069774395
1994 8119.230583196216
1995 8119.263521900775
1996 8119.22490475795
1997 8119.263720618022
1998 8119.233101205652
1999 8119.2748595889
2000 8119.226860668454
2001 8119.270052622502
2002 8119.24064591219
2003 8119.274046973395
2004 8119.246764325538
2005 8119.289194974278
2006 8119.259218435181
2007 8119.296721591422
2008 8119.260751863163
2009 8119.302893286687
2010 8119.271259243677
2011 8119.317378594297
2012 8119.278990267062
2013 8119.322764503824
2014 8119.294326917216
2015 8119.331263434889
2016 8119.303386974622
2017 8119.345266547418
2018 8119.300844101646
2019 8119.333757767542
2020 8119.300318732679
2021 8119.331958160153
2022 8119.299690613709
2023 8119.332610688254
2024 8119.297112423899
2025 8119.332456171713
2026 8119.318924970941
2027 8119.346810279041
2028 8119.317951151894
2029 8119.350282700077
2030 8119.318705174382
2031 8119.372142435704
2032 8119.330933440139
2033 8119.377747788548
2034 8119.349272201873
2035 8119.384336629441
2036 8119.346480799105
2037 8119.390578383334
2038 8119.358356986689
2039 8119.397522353341
2040 8119.349675027277
2041 8119.387331048233
2042 8119.359319940543
2043 8119.40657631921
2044 8119.368231395721
2045 8119.417408699263
2046 8119.379268943911
2047 8119.421474973138
2048 8119.384554951802
2049 8119.417184444465
2050 8119.379181839633
2051 8119.41582025772
2052 8119.381531787341
2053 8119.417026083008
2054 8119.384145828754
2055 8119.427621389782
2056 8119.39236284306
2057 8119.431355931041
2058 8119.400502297536
2059 8119.440278195485
2060 8119.399561866857
2061 8119.441899230401
2062 8119.413367162083
2063 8119.450995056623
2064 8119.405803618854
2065 8119.454646392149
2066 8119.412209227347
2067 8119.478827223292
2068 8119.429339104956
2069 8119.481072608036
2070 8119.430101153945
2071 8119.479423313466
2072 8119.43144495771
2073 8119.472428907225
2074 8119.422893248769
2075 8119.471322934291
2076 8119.419257500655
2077 8119.471495366277
2078 8119.417209247105
2079 8119.474843838297
2080 8119.440137255167
2081 8119.479055175915
2082 8119.445477147627
2083 8119.478337720635
2084 8119.429556171752
2085 8119.480196287661
2086 8119.438234825755
2087 8119.480302659349
2088 8119.440660387066
2089 8119.481533750728
2090 8119.446909764977
2091 8119.487144029886
2092 8119.451726169385
2093 8119.501602656494
2094 8119.467430853548
2095 8119.509134240487
2096 8119.467434757817
2097 8119.51543134566
2098 8119.46291135392
2099 8119.515792656382
2100 8119.468338974474
2101 8119.507448147244
2102 8119.466651945821
2103 8119.508249798097
2104 8119.458990044643
2105 8119.503690303917
2106 8119.463293383207
2107 8119.503932944201
2108 8119.469169410506
2109 8119.510058851781
2110 8119.479864712122
2111 8119.526882914834
2112 8119.479403366481
2113 8119.51855846565
2114 8119.4816100448
2115 8119.530381979072
2116 8119.490053047542
2117 8119.541409984746
2118 8119.492965486287
2119 8119.548580958632
2120 8119.508537102947
2121 8119.543922793335
2122 8119.511365964287
2123 8119.551232142576
2124 8119.513933862937
2125 8119.549851491493
2126 8119.51908357011
2127 8119.545776695542
2128 8119.510858503235
2129 8119.549050130247
2130 8119.511147280504
2131 8119.550906085936
2132 8119.513657515658
2133 8119.548557273862
2134 8119.524146822321
2135 8119.556745987063
2136 8119.5225125651
2137 8119.552831548359
2138 8119.516087142494
2139 8119.549643236831
2140 8119.506630601149
2141 8119.548039762682
2142 8119.508817432112
2143 8119.557244253604
2144 8119.514154796584
2145 8119.55651367352
2146 8119.52297354784
2147 8119.559200858352
2148 8119.515950614721
2149 8119.564224841012
2150 8119.522438866791
2151 8119.56649506996
2152 8119.535640297928
2153 8119.581928481973
2154 8119.545537403282
2155 8119.584452388695
2156 8119.544185367904
2157 8119.594453565636
2158 8119.565973290841
2159 8119.595192595249
2160 8119.557829685325
2161 8119.586278620756
2162 8119.551337474911
2163 8119.583497699409
2164 8119.547962828181
2165 8119.579975333164
2166 8119.555816764549
2167 8119.58774716247
2168 8119.560455768844
2169 8119.599332960878
2170 8119.57246941226
2171 8119.600159738563
2172 8119.567644494046
2173 8119.601571273153
2174 8119.580951629666
2175 8119.612220579794
2176 8119.580537349929
2177 8119.625494573243
2178 8119.57906604084
2179 8119.625339869582
2180 8119.578861336387
2181 8119.624973589252
2182 8119.58407854974
2183 8119.631881732179
2184 8119.577190283817
2185 8119.617487512271
2186 8119.576859460887
2187 8119.623028872738
2188 8119.577966531134
2189 8119.624867390751
2190 8119.577462721807
2191 8119.627782051313
2192 8119.587984457392
2193 8119.632897530155
2194 8119.602190725978
2195 8119.646795159642
2196 8119.61488722809
2197 8119.649541102093
2198 8119.61015590611
2199 8119.655054357545
2200 8119.622588316984
2201 8119.655722004619
2202 8119.624176749689
2203 8119.659927429179
2204 8119.631430955073
2205 8119.653773889265
2206 8119.628982795476
2207 8119.662037769789
2208 8119.62836614296
2209 8119.660376525868
2210 8119.630438598128
2211 8119.658123685615
2212 8119.62740109058
2213 8119.655017297912
2214 8119.614331312328
2215 8119.653780269457
2216 8119.620731056161
2217 8119.652338204675
2218 8119.619667765952
2219 8119.654010094371
2220 8119.60779059748
2221 8119.650064087222
2222 8119.607443023153
2223 8119.659359963846
2224 8119.616959140183
2225 8119.665041710872
2226 8119.620484683755
2227 8119.669323249566
2228 8119.6302738608
2229 8119.674666325749
2230 8119.632653725654
2231 8119.670575045222
2232 8119.617059647476
2233 8119.668858265647
2234 8119.628022876619
2235 8119.675254270412
2236 8119.632391867721
2237 8119.667221357367
2238 8119.632966257774
2239 8119.667657370059
2240 8119.641766392942
2241 8119.672900738673
2242 8119.636127360592
2243 8119.673036326481
2244 8119.643985862085
2245 8119.674104318163
2246 8119.652451357798
2247 8119.689119253336
2248 8119.659941462947
2249 8119.689857510963
2250 8119.657118780864
2251 8119.688582761238
2252 8119.652370671955
2253 8119.697498922495
2254 8119.657236937612
2255 8119.699455418356
2256 8119.641270090378
2257 8119.694029128667
2258 8119.656070921042
2259 8119.698965957852
2260 8119.661583335597
2261 8119.701854464949
2262 8119.65760688267
2263 8119.711792323626
2264 8119.662990213295
2265 8119.726516483942
2266 8119.667399300027
2267 8119.721835734937
2268 8119.682430028198
2269 8119.730116373872
2270 8119.687951594661
2271 8119.737008564863
2272 8119.686519598868
2273 8119.728772100388
2274 8119.686068841085
2275 8119.734461380061
2276 8119.694108525711
2277 8119.726615803088
2278 8119.685749148162
2279 8119.721679013252
2280 8119.690357247618
2281 8119.719941100502
2282 8119.698460929106
2283 8119.726397949811
2284 8119.698030969634
2285 8119.712552408746
2286 8119.687751130553
2287 8119.714334182619
2288 8119.689828699455
2289 8119.715390110026
2290 8119.693636511493
2291 8119.729116851487
2292 8119.698118065171
2293 8119.730296640201
2294 8119.712057391441
2295 8119.74569724981
2296 8119.716606606343
2297 8119.748347230035
2298 8119.716728760743
2299 8119.751491567563
2300 8119.715380648729
2301 8119.746565779659
2302 8119.699528890902
2303 8119.738091891714
2304 8119.695901710443
2305 8119.72590589249
2306 8119.682092176765
2307 8119.727526080253
2308 8119.670472063175
2309 8119.718793278224
2310 8119.668422178896
2311 8119.724669774148
2312 8119.663547308326
2313 8119.725395585981
2314 8119.688321598398
2315 8119.734854920425
2316 8119.693290468757
2317 8119.737097849516
2318 8119.696681267872
2319 8119.739177929096
2320 8119.696972496073
2321 8119.740670671706
2322 8119.704830550496
2323 8119.736931833278
2324 8119.707224737554
2325 8119.732430258614
2326 8119.721878775707
2327 8119.732460833818
2328 8119.705870029928
2329 8119.715653084996
2330 8119.698362948654
2331 8119.721128354587
2332 8119.707610239521
2333 8119.729862161651
2334 8119.711846268835
2335 8119.731289200015
2336 8119.712996699812
2337 8119.744251897317
2338 8119.728564301272
2339 8119.748411924395
2340 8119.718281450492
2341 8119.75289433977
2342 8119.718943975036
2343 8119.751175708732
2344 8119.71420423795
2345 8119.756661477929
2346 8119.708643513277
2347 8119.756667010472
2348 8119.715726621516
2349 8119.765608808466
2350 8119.7144142271
2351 8119.763783172741
2352 8119.708324283049
2353 8119.773567297504
2354 8119.712122066299
2355 8119.770051838527
2356 8119.712125370119
2357 8119.773043247015
2358 8119.71951747808
2359 8119.78708702227
2360 8119.726597656853
2361 8119.786902004535
2362 8119.737361454155
2363 8119.791635238369
2364 8119.733201058671
2365 8119.773766392957
2366 8119.734296903096
2367 8119.788006730763
2368 8119.744800423672
2369 8119.789478844969
2370 8119.751771976176
2371 8119.780229625811
2372 8119.740104979199
2373 8119.766545496781
2374 8119.729919200611
2375 8119.76145827306
2376 8119.725937237344
2377 8119.758026788139
2378 8119.723333999848
2379 8119.760733499789
2380 8119.723595404826
2381 8119.749619214622
2382 8119.715353993049
2383 8119.753319319118
2384 8119.715080205455
2385 8119.757185829442
2386 8119.728169335155
2387 8119.765398634457
2388 8119.730413688892
2389 8119.770830511349
2390 8119.746891306209
2391 8119.784884263177
2392 8119.748941837769
2393 8119.779502449526
2394 8119.739803608645
2395 8119.781048588318
2396 8119.738770999685
2397 8119.786450535948
2398 8119.756065362044
2399 8119.800273622554
2400 8119.746400057883
2401 8119.79645143673
2402 8119.753194794901
2403 8119.794347715323
2404 8119.745695528614
2405 8119.785586626766
2406 8119.74503363575
2407 8119.801860960104
2408 8119.753411705687
2409 8119.796295213326
2410 8119.751451090824
2411 8119.792021324314
2412 8119.73923700018
2413 8119.78144164589
2414 8119.737060419654
2415 8119.771230166615
2416 8119.730294485332
2417 8119.766378158351
2418 8119.73316564689
2419 8119.770962796109
2420 8119.736069749958
2421 8119.772787632653
2422 8119.742660040672
2423 8119.778376824948
2424 8119.730084991395
2425 8119.775059847102
2426 8119.737611592237
2427 8119.7875784319
2428 8119.752085984161
2429 8119.793989846197
2430 8119.754443089841
2431 8119.794744919144
2432 8119.765303927421
2433 8119.803762708147
2434 8119.757425500658
2435 8119.802210724242
2436 8119.779008578619
2437 8119.811914102134
2438 8119.779182205088
2439 8119.81538808659
2440 8119.777564062679
2441 8119.810928339894
2442 8119.767263139574
2443 8119.803543107299
2444 8119.767624001745
2445 8119.799901215797
2446 8119.769769325555
2447 8119.814126670318
2448 8119.769204829728
2449 8119.803283659246
2450 8119.764877227158
2451 8119.797624505566
2452 8119.768141147997
2453 8119.803185781982
2454 8119.773102663392
2455 8119.805022340501
2456 8119.774339589971
2457 8119.806014123923
2458 8119.784568158935
2459 8119.801929471319
2460 8119.776299832289
2461 8119.808597281996
2462 8119.780345233339
2463 8119.815635976443
2464 8119.777224242642
2465 8119.806487319952
2466 8119.771807516998
2467 8119.81109195214
2468 8119.775962922762
2469 8119.827627240398
2470 8119.778694301248
2471 8119.82222058719
2472 8119.765025446201
2473 8119.813192144567
2474 8119.763281941893
2475 8119.813210858151
2476 8119.766150643809
2477 8119.826909857294
2478 8119.780125842264
2479 8119.836034387024
2480 8119.781195227729
2481 8119.818245475325
2482 8119.78381867987
2483 8119.822714616153
2484 8119.778427630318
2485 8119.825251203978
2486 8119.787487188841
2487 8119.823729538966
2488 8119.782445686612
2489 8119.8115440832
2490 8119.776760133611
2491 8119.812137573975
2492 8119.771497811617
2493 8119.804099381357
2494 8119.766835959618
2495 8119.803088305962
2496 8119.75852225863
2497 8119.795519105179
2498 8119.757886610773
2499 8119.811626073474
2500 8119.765356120907
2501 8119.818996913841
2502 8119.779572763865
2503 8119.819991866888
2504 8119.777890338094
2505 8119.809240402433
2506 8119.772979847769
2507 8119.819044137625
2508 8119.776957440915
2509 8119.815136310651
2510 8119.788016873664
2511 8119.820477222461
2512 8119.786835969672
2513 8119.820181798981
2514 8119.783819198839
2515 8119.820553274247
2516 8119.791719792008
2517 8119.820640536291
2518 8119.791206672476
2519 8119.831655804472
2520 8119.786647903081
2521 8119.82282745207
2522 8119.777225264477
2523 8119.81763846
2524 8119.773655773922
2525 8119.82249390819
2526 8119.768285386948
2527 8119.826654962068
2528 8119.778242322404
2529 8119.831804323643
2530 8119.77352032745
2531 8119.827124929457
2532 8119.767002790464
2533 8119.81758895064
2534 8119.773731878641
2535 8119.817730044629
2536 8119.763094990038
2537 8119.814830969172
2538 8119.77984151916
2539 8119.819567477688
2540 8119.780642920031
2541 8119.809832884476
2542 8119.776481113959
2543 8119.812271712879
2544 8119.77449983009
2545 8119.813164150119
2546 8119.768289964647
2547 8119.808917590027
2548 8119.776714725808
2549 8119.821891143363
2550 8119.789465773508
2551 8119.831643751512
2552 8119.788091122804
2553 8119.829218777989
2554 8119.791576421386
2555 8119.826618694155
2556 8119.777919964979
2557 8119.818077736672
2558 8119.777877117039
2559 8119.818081458349
2560 8119.775786031942
2561 8119.811030542063
2562 8119.77189461837
2563 8119.813565800639
2564 8119.768602848134
2565 8119.816521458894
2566 8119.772820882178
2567 8119.812963764076
2568 8119.770595854587
2569 8119.806440620914
2570 8119.761270585263
2571 8119.811936253089
2572 8119.774689357973
2573 8119.819177370665
2574 8119.774146063645
2575 8119.820146214569
2576 8119.770869578941
2577 8119.820703212867
2578 8119.779871694105
2579 8119.831426814852
2580 8119.784803210807
2581 8119.822335725444
2582 8119.788106538247
2583 8119.828144267668
2584 8119.790202137303
2585 8119.83383669602
2586 8119.798392256647
2587 8119.838646740304
2588 8119.796624753346
2589 8119.843250121045
2590 8119.804250743829
2591 8119.837496370154
2592 8119.800839172003
2593 8119.831139168463
2594 8119.794465215972
2595 8119.825190386454
2596 8119.78515908966
2597 8119.828807600836
2598 8119.792446340113
2599 8119.83081843296
2600 8119.795443608059
2601 8119.832437119302
2602 8119.803005988768
2603 8119.84617686717
2604 8119.81560130107
2605 8119.843240591418
2606 8119.802079059832
2607 8119.84460607857
2608 8119.795044204374
2609 8119.848200602198
2610 8119.814229373523
2611 8119.850801823619
2612 8119.806983049257
2613 8119.834027121386
2614 8119.808446216721
2615 8119.841968275269
2616 8119.798304986409
2617 8119.834736136993
2618 8119.79029207383
2619 8119.822490958551
2620 8119.785454470248
2621 8119.823206226303
2622 8119.789635738236
2623 8119.831761624369
2624 8119.797901010834
2625 8119.842117741178
2626 8119.805649422235
2627 8119.849585949725
2628 8119.796294755612
2629 8119.836794102262
2630 8119.794504702007
2631 8119.846823726643
2632 8119.797611456392
2633 8119.852655031425
2634 8119.800875585616
2635 8119.857783629974
2636 8119.805046261233
2637 8119.850247592646
2638 8119.804568133847
2639 8119.850132463354
2640 8119.804935856522
2641 8119.850656342393
2642 8119.802677483476
2643 8119.855558772677
2644 8119.813926686646
2645 8119.857210486383
2646 8119.819427408979
2647 8119.853414050583
2648 8119.800105475851
2649 8119.844264398393
2650 8119.798545952482
2651 8119.83576582635
2652 8119.792679364441
2653 8119.833303525354
2654 8119.786168701499
2655 8119.834062626544
2656 8119.792805339458
2657 8119.833099637155
2658 8119.78841308253
2659 8119.827116699288
2660 8119.782651233876
2661 8119.820625636428
2662 8119.782031784669
2663 8119.830387712313
2664 8119.791720657689
2665 8119.825692598935
2666 8119.781506141136
2667 8119.820124593198
2668 8119.788404499005
2669 8119.826515834486
2670 8119.801381527381
2671 8119.830797321513
2672 8119.797493598818
2673 8119.825170264003
2674 8119.7889540193
2675 8119.831210924438
2676 8119.797201443768
2677 8119.822500810394
2678 8119.80701569031
2679 8119.840438003432
2680 8119.809879189946
2681 8119.849180987782
2682 8119.816838419274
2683 8119.843957993559
2684 8119.810591506933
2685 8119.844741614007
2686 8119.817185238437
2687 8119.850752142371
2688 8119.823554859324
2689 8119.846698523796
2690 8119.811524928622
2691 8119.844741954691
2692 8119.810486334228
2693 8119.837295050007
2694 8119.806808969951
2695 8119.832475792579
2696 8119.801632901163
2697 8119.841058403157
2698 8119.804490476927
2699 8119.845235755301
2700 8119.796513819038
2701 8119.845964048258
2702 8119.805182779392
2703 8119.856707693254
2704 8119.805621556732
2705 8119.848164281941
2706 8119.802439465856
2707 8119.843336041608
2708 8119.799337646205
2709 8119.842430388217
2710 8119.797644996039
2711 8119.841841408318
2712 8119.790861314305
2713 8119.838701518132
2714 8119.793165569051
2715 8119.841998352657
2716 8119.796624479221
2717 8119.839168137547
2718 8119.788748783089
2719 8119.827601278278
2720 8119.777313193532
2721 8119.8296676357
2722 8119.777736072983
2723 8119.829694974616
2724 8119.790381129082
2725 8119.835994996718
2726 8119.793754058205
2727 8119.832690117332
2728 8119.790614274189
2729 8119.824451531976
2730 8119.780743605615
2731 8119.815304216874
2732 8119.783734086695
2733 8119.82539979175
2734 8119.805723647411
2735 8119.841748420639
2736 8119.811324516381
2737 8119.837747071342
2738 8119.812407897638
2739 8119.840890349579
2740 8119.804190028507
2741 8119.829764158315
2742 8119.794539169958
2743 8119.832523546102
2744 8119.790387833677
2745 8119.830632622355
2746 8119.795649861361
2747 8119.841832497965
2748 8119.804506175711
2749 8119.83996899916
2750 8119.794226453532
2751 8119.844489137754
2752 8119.790896167839
2753 8119.843149618429
2754 8119.798024692045
2755 8119.837875964949
2756 8119.783316930118
2757 8119.827086467168
2758 8119.781385174979
2759 8119.814608637194
2760 8119.771761530126
2761 8119.81414678993
2762 8119.778610699404
2763 8119.820665669483
2764 8119.776106295181
2765 8119.825088252649
2766 8119.784627549705
2767 8119.829423327904
2768 8119.790817185568
2769 8119.83843311116
2770 8119.801543078938
2771 8119.848552850532
2772 8119.800497639895
2773 8119.840591633721
2774 8119.796321563627
2775 8119.840910610836
2776 8119.799134038547
2777 8119.839361874868
2778 8119.796358189004
2779 8119.843275012504
2780 8119.80286891832
2781 8119.844562432061
2782 8119.813540012239
2783 8119.861027442123
2784 8119.804033513693
2785 8119.859047846425
2786 8119.812393423944
2787 8119.857598693755
2788 8119.821369355668
2789 8119.86487517838
2790 8119.820230342605
2791 8119.862373702257
2792 8119.810829616539
2793 8119.847100397746
2794 8119.802123253518
2795 8119.838470151679
2796 8119.786313598665
2797 8119.835440940119
2798 8119.789708039702
2799 8119.838068997456
2800 8119.790673504253
2801 8119.836604461821
2802 8119.781065156574
2803 8119.839775022335
2804 8119.788617897769
2805 8119.844482129028
2806 8119.793844425187
2807 8119.84864470967
2808 8119.788130834742
2809 8119.848525533485
2810 8119.794150788188
2811 8119.849665107234
2812 8119.788100968623
2813 8119.838153270593
2814 8119.787761672617
2815 8119.839955591985
2816 8119.796352987197
2817 8119.841843825091
2818 8119.80785284755
2819 8119.843429392789
2820 8119.797866013158
2821 8119.842292794515
2822 8119.802459818516
2823 8119.849051284503
2824 8119.804937145494
2825 8119.845529501745
2826 8119.803424120864
2827 8119.850975779947
2828 8119.807936447929
2829 8119.857921818253
2830 8119.81249369971
2831 8119.859689604412
2832 8119.808954703467
2833 8119.850912717588
2834 8119.788533927092
2835 8119.840955631836
2836 8119.795499564978
2837 8119.850906344343
2838 8119.814153140584
2839 8119.857140271874
2840 8119.81313092338
2841 8119.855380941392
2842 8119.813929323702
2843 8119.858457412955
2844 8119.798521113886
2845 8119.847773928749
2846 8119.807567431829
2847 8119.849551869547
2848 8119.810390748533
2849 8119.85943451563
2850 8119.821459109876
2851 8119.858526918401
2852 8119.81162121915
2853 8119.854492799619
2854 8119.808751470908
2855 8119.85445161982
2856 8119.813973341534
2857 8119.848720325347
2858 8119.814225442417
2859 8119.853331539653
2860 8119.817956933937
2861 8119.851861541619
2862 8119.82415410808
2863 8119.847058861093
2864 8119.817303241025
2865 8119.838672337083
2866 8119.813244917165
2867 8119.84306181498
2868 8119.808757345039
2869 8119.840562761031
2870 8119.820992994762
2871 8119.846091866592
2872 8119.817228006116
2873 8119.847608018671
2874 8119.821189563633
2875 8119.854905698388
2876 8119.819933469283
2877 8119.854984032343
2878 8119.814600111534
2879 8119.854609119221
2880 8119.805525790258
2881 8119.847493691719
2882 8119.806535828461
2883 8119.84816220732
2884 8119.797184250947
2885 8119.843446619707
2886 8119.787951452366
2887 8119.837188399749
2888 8119.786387294856
2889 8119.840915803577
2890 8119.803820530194
2891 8119.856003881275
2892 8119.808676492791
2893 8119.854329753884
2894 8119.809089500482
2895 8119.858580603874
2896 8119.807790137656
2897 8119.853724687975
2898 8119.811506946756
2899 8119.854867080033
2900 8119.805983997466
2901 8119.855393899659
2902 8119.815240637902
2903 8119.856450675614
2904 8119.814543077534
2905 8119.843103426769
2906 8119.810606558291
2907 8119.849061983244
2908 8119.816354753252
2909 8119.855041863359
2910 8119.81904235056
2911 8119.867962704315
2912 8119.823234212986
2913 8119.866572074893
2914 8119.832841062943
2915 8119.867549130815
2916 8119.827572969109
2917 8119.858558349275
2918 8119.818690943412
2919 8119.864538950744
2920 8119.814836563409
2921 8119.868415462404
2922 8119.830055480857
2923 8119.863887621897
2924 8119.813722954174
2925 8119.861800983482
2926 8119.821762900224
2927 8119.866743804744
2928 8119.820892573425
2929 8119.859106371525
2930 8119.819916774381
2931 8119.861671826032
2932 8119.806631329595
2933 8119.861816100307
2934 8119.818751849634
2935 8119.864603233048
2936 8119.816863490511
2937 8119.871655777771
2938 8119.822856775093
2939 8119.86808493193
2940 8119.819098642588
2941 8119.855764534519
2942 8119.810234735924
2943 8119.856096960251
2944 8119.810966836053
2945 8119.869123946139
2946 8119.827230262338
2947 8119.870168711387
2948 8119.839748968157
2949 8119.872699712941
2950 8119.837631086455
2951 8119.872557774959
2952 8119.829332901806
2953 8119.872736357794
2954 8119.826487925446
2955 8119.866426405816
2956 8119.830008218672
2957 8119.869323291555
2958 8119.834234177048
2959 8119.864771930271
2960 8119.82137684352
2961 8119.851950341791
2962 8119.813993498587
2963 8119.853026367255
2964 8119.812765316204
2965 8119.85558373908
2966 8119.809047106924
2967 8119.858692213167
2968 8119.827519040685
2969 8119.873201104722
2970 8119.826912789408
2971 8119.865645483541
2972 8119.825286709575
2973 8119.860184156537
2974 8119.820420978709
2975 8119.866592623512
2976 8119.812895054766
2977 8119.860738847286
2978 8119.819449537248
2979 8119.869373027515
2980 8119.819180713663
2981 8119.862738144556
2982 8119.818551739981
2983 8119.861303923562
2984 8119.810972864826
2985 8119.864482879092
2986 8119.814782510988
2987 8119.865318136587
2988 8119.816118483245
2989 8119.861282051225
2990 8119.82223252622
2991 8119.864960816066
2992 8119.811883806989
2993 8119.851571538192
2994 8119.810582263366
2995 8119.846683855309
2996 8119.798453360353
2997 8119.842284746208
2998 8119.813744359716
2999 8119.852820732501
3000 8119.814975030749
3001 8119.852704061837
3002 8119.814055141989
3003 8119.85393477847
3004 8119.812487410701
3005 8119.855556939935
3006 8119.830135903911
3007 8119.862826070013
3008 8119.823226307975
3009 8119.860491771624
3010 8119.834227263109
3011 8119.872294332929
3012 8119.851312407487
3013 8119.877439994779
3014 8119.847807902897
3015 8119.872159426528
3016 8119.840327687662
3017 8119.86920325221
3018 8119.828806136155
3019 8119.864885906859
3020 8119.82776931778
3021 8119.872439270316
3022 8119.827331193565
3023 8119.87694011698
3024 8119.833585143945
3025 8119.870930043469
3026 8119.828259956393
3027 8119.877525905872
3028 8119.831734081138
3029 8119.889890104511
3030 8119.836290276371
3031 8119.89208014884
3032 8119.837412845765
3033 8119.884199667812
3034 8119.835852713453
3035 8119.889642931408
3036 8119.826898403567
3037 8119.883792986731
3038 8119.830020305312
3039 8119.880458797241
3040 8119.819734591986
3041 8119.873353930838
3042 8119.833342590904
3043 8119.878503681692
3044 8119.827942977322
3045 8119.87186558329
3046 8119.827440184904
3047 8119.869462018808
3048 8119.829649714818
3049 8119.875880364008
3050 8119.84367035857
3051 8119.875139154554
3052 8119.843931234724
3053 8119.877169595821
3054 8119.835391894147
3055 8119.874273483546
3056 8119.839539539341
3057 8119.876639339187
3058 8119.832428008362
3059 8119.870969786733
3060 8119.823839213126
3061 8119.866539751582
3062 8119.812393273327
3063 8119.857961746917
3064 8119.812314626889
3065 8119.857278368933
3066 8119.820972018621
3067 8119.865707391702
3068 8119.815449640595
3069 8119.859759537355
3070 8119.827693402911
3071 8119.87276886008
3072 8119.829851549957
3073 8119.872889466429
3074 8119.83932195139
3075 8119.878850346999
3076 8119.845105514606
3077 8119.885575388716
3078 8119.840649203281
3079 8119.889000246933
3080 8119.837692258968
3081 8119.879027931733
3082 8119.838381604791
3083 8119.876963368225
3084 8119.830626737905
3085 8119.866414876585
3086 8119.817227327657
3087 8119.868356439776
3088 8119.812554748056
3089 8119.867766586188
3090 8119.816548633319
3091 8119.861205067682
3092 8119.814955734616
3093 8119.858097986411
3094 8119.814643902764
3095 8119.868343275869
3096 8119.818045899298
3097 8119.863700051743
3098 8119.809659829178
3099 8119.859149582559
3100 8119.795887197792
3101 8119.855323829687
3102 8119.801240235716
3103 8119.8538240109
3104 8119.80751615188
3105 8119.862673444559
3106 8119.821361935963
3107 8119.8748317215
3108 8119.816381932979
3109 8119.866979545542
3110 8119.807940321302
3111 8119.86174941758
3112 8119.805544060027
3113 8119.863186039642
3114 8119.8135245086
3115 8119.860007780548
3116 8119.81879380093
3117 8119.855273443679
3118 8119.814853853325
3119 8119.859615814665
3120 8119.808861246181
3121 8119.852181832933
3122 8119.81421007412
3123 8119.855952029648
3124 8119.822252922153
3125 8119.852901249512
3126 8119.822666060956
3127 8119.841673723251
3128 8119.819493490841
3129 8119.840190729749
3130 8119.812408438638
3131 8119.834971102597
3132 8119.813989422091
3133 8119.845755549293
3134 8119.825530215962
3135 8119.837961914648
3136 8119.815251952607
3137 8119.837990705864
3138 8119.808644028295
3139 8119.824560593837
3140 8119.797604738009
3141 8119.824243884827
3142 8119.793858088628
3143 8119.827276656717
3144 8119.782097768578
3145 8119.822398455834
3146 8119.787433310397
3147 8119.825570223419
3148 8119.782342738476
3149 8119.82598890672
3150 8119.785248842483
3151 8119.838534735497
3152 8119.794557459184
3153 8119.851718192553
3154 8119.802318774864
3155 8119.852616432664
3156 8119.788513358703
3157 8119.835689834279
3158 8119.786518260126
3159 8119.840814043519
3160 8119.789614734497
3161 8119.836279752097
3162 8119.783404857054
3163 8119.83601782402
3164 8119.79156868282
3165 8119.837906065268
3166 8119.801498520833
3167 8119.844715589737
3168 8119.801521865252
3169 8119.836442530861
3170 8119.796751113288
3171 8119.827533651916
3172 8119.807101300223
3173 8119.834979060566
3174 8119.812413270865
3175 8119.843179549141
3176 8119.81025605665
3177 8119.843522629271
3178 8119.80758982735
3179 8119.835362436837
3180 8119.807196064923
3181 8119.837683243674
3182 8119.811163202398
3183 8119.840350699543
3184 8119.809967074802
3185 8119.834104141758
3186 8119.797392198332
3187 8119.834069697026
3188 8119.795644526167
3189 8119.836689702313
3190 8119.787767863502
3191 8119.832477161212
3192 8119.792619987281
3193 8119.832040440329
3194 8119.785383363878
3195 8119.844085240011
3196 8119.799468154162
3197 8119.853220401283
3198 8119.801393113504
3199 8119.846520521387
3200 8119.788625513866
3201 8119.852365432519
3202 8119.792117309671
3203 8119.854955797075
3204 8119.789067455145
3205 8119.846117320592
3206 8119.791496245156
3207 8119.846244417771
3208 8119.794661280607
3209 8119.837179463899
3210 8119.786057416669
3211 8119.83685929401
3212 8119.790538622169
3213 8119.84195995702
3214 8119.809675476445
3215 8119.844226347647
3216 8119.80909127395
3217 8119.8459107384
3218 8119.822588305063
3219 8119.839723883263
3220 8119.819286319346
3221 8119.846570336273
3222 8119.818429998326
3223 8119.837701231011
3224 8119.817639640938
3225 8119.833952482395
3226 8119.820841013889
3227 8119.839726589296
3228 8119.812353952645
3229 8119.836637669444
3230 8119.800946951395
3231 8119.84331926745
3232 8119.802578088112
3233 8119.855116024137
3234 8119.814896127152
3235 8119.859024023554
3236 8119.814438060879
3237 8119.867457542801
3238 8119.824111615801
3239 8119.863459587395
3240 8119.809089693737
3241 8119.848973706931
3242 8119.808818479426
3243 8119.848725707449
3244 8119.802666850476
3245 8119.844720864993
3246 8119.790433453097
3247 8119.839743943095
3248 8119.78903257273
3249 8119.842487235525
3250 8119.798996615604
3251 8119.839789608674
3252 8119.796305181095
3253 8119.836612690323
3254 8119.798668690323
3255 8119.85149007887
3256 8119.802135029288
3257 8119.843420843458
3258 8119.804466696973
3259 8119.841181124742
3260 8119.795150269414
3261 8119.841611284954
3262 8119.797948591518
3263 8119.850168642226
3264 8119.797542504733
3265 8119.84091607771
3266 8119.79697855347
3267 8119.847643292949
3268 8119.80439599173
3269 8119.85130869872
3270 8119.802900810595
3271 8119.843905677752
3272 8119.801733871133
3273 8119.835390687951
3274 8119.791891806173
3275 8119.834104785186
3276 8119.801868430301
3277 8119.841357591016
3278 8119.803734461052
3279 8119.851064450462
3280 8119.80797293904
3281 8119.846687885439
3282 8119.805089219756
3283 8119.842613411937
3284 8119.804033185103
3285 8119.846029080391
3286 8119.80564823136
3287 8119.851551891533
3288 8119.801449674127
3289 8119.849505188324
3290 8119.816755445426
3291 8119.856124354736
3292 8119.816181141743
3293 8119.854255277955
3294 8119.825380709696
3295 8119.858535290824
3296 8119.820999276651
3297 8119.854205077221
3298 8119.818106822087
3299 8119.852733327245
3300 8119.814580906611
3301 8119.851132538464
3302 8119.812657278503
3303 8119.852522038862
3304 8119.810542310844
3305 8119.839112566473
3306 8119.805146608223
3307 8119.844122747135
3308 8119.800813550954
3309 8119.844935833285
3310 8119.809076955619
3311 8119.847134891657
3312 8119.803593675497
3313 8119.84606114278
3314 8119.80260481693
3315 8119.848157016679
3316 8119.806788638988
3317 8119.853277795412
3318 8119.805214179246
3319 8119.84983290467
3320 8119.793734637177
3321 8119.839836086124
3322 8119.798574661553
3323 8119.841329843374
3324 8119.780430181591
3325 8119.826777479191
3326 8119.774360122258
3327 8119.829168544801
3328 8119.783651966191
3329 8119.828913953295
3330 8119.79045633491
3331 8119.837732153355
3332 8119.796685499044
3333 8119.842597754647
3334 8119.814158631619
3335 8119.853463050094
3336 8119.817083384848
3337 8119.850997136316
3338 8119.822909600458
3339 8119.863310287679
3340 8119.82877823286
3341 8119.870742127916
3342 8119.834632035991
3343 8119.872233999356
3344 8119.830437661142
3345 8119.86938948625
3346 8119.834867158364
3347 8119.875116807646
3348 8119.830522791094
3349 8119.871879464642
3350 8119.831110177856
3351 8119.872484625926
3352 8119.813621282023
3353 8119.857413033134
3354 8119.814895597984
3355 8119.860723510006
3356 8119.818122654342
3357 8119.858511540338
3358 8119.825112698498
3359 8119.867062926975
3360 8119.826234859805
3361 8119.871994611662
3362 8119.82725710247
3363 8119.862780232698
3364 8119.821746269829
3365 8119.867990060648
3366 8119.824190276988
3367 8119.874155360454
3368 8119.827262539313
3369 8119.867448920339
3370 8119.82415773079
3371 8119.860573740839
3372 8119.81864764376
3373 8119.863519584307
3374 8119.828062563645
3375 8119.864580044264
3376 8119.820106530321
3377 8119.871324088313
3378 8119.826348753621
3379 8119.866611784019
3380 8119.822314115448
3381 8119.864138910722
3382 8119.819354115294
3383 8119.855929344055
3384 8119.806523499199
3385 8119.8523324965
3386 8119.801612934333
3387 8119.840278868453
3388 8119.795574512465
3389 8119.83896112949
3390 8119.785454988573
3391 8119.837602609546
3392 8119.794544338692
3393 8119.842263500856
3394 8119.806881786124
3395 8119.852661433472
3396 8119.813967753006
3397 8119.863074468062
3398 8119.820302859669
3399 8119.866970615553
3400 8119.834685880748
3401 8119.8642575575
3402 8119.833805233438
3403 8119.868288999193
3404 8119.823005687671
3405 8119.857614448912
3406 8119.830642282008
3407 8119.855782052969
3408 8119.828364001188
3409 8119.848680934758
3410 8119.813956969232
3411 8119.847572164774
3412 8119.8114489729
3413 8119.84698707895
3414 8119.812902007019
3415 8119.848419098842
3416 8119.818192103838
3417 8119.850879988027
3418 8119.825412903549
3419 8119.865368276404
3420 8119.82089531881
3421 8119.858736257926
3422 8119.821811320214
3423 8119.864065909326
3424 8119.811956299926
3425 8119.858489211545
3426 8119.811736934698
3427 8119.852308753906
3428 8119.802221780696
3429 8119.843376405896
3430 8119.80110414337
3431 8119.844596984982
3432 8119.79267472117
3433 8119.83027442297
3434 8119.787598788991
3435 8119.824936753735
3436 8119.780261165339
3437 8119.819686348553
3438 8119.789776452384
3439 8119.832485067745
3440 8119.804469155055
3441 8119.844727123797
3442 8119.811671894416
3443 8119.855540375124
3444 8119.828720565503
3445 8119.849205337462
3446 8119.824287379794
3447 8119.856722259046
3448 8119.822508666466
3449 8119.849533285997
3450 8119.823494982459
3451 8119.845813352108
3452 8119.833061621521
3453 8119.851417793521
3454 8119.819261461451
3455 8119.852131469337
3456 8119.805952747449
3457 8119.824842480561
3458 8119.791995577227
3459 8119.826794027679
3460 8119.790681946678
3461 8119.826996379482
3462 8119.801371420866
3463 8119.833378968913
3464 8119.792419849548
3465 8119.836729172509
3466 8119.792786326338
3467 8119.847241588589
3468 8119.796500454792
3469 8119.848303237704
3470 8119.804672201724
3471 8119.856913778027
3472 8119.807755215543
3473 8119.856337384746
3474 8119.801682417218
3475 8119.847888493072
3476 8119.789199321923
3477 8119.842969470952
3478 8119.794969479902
3479 8119.851533914322
3480 8119.797535586039
3481 8119.844054836251
3482 8119.808601472266
3483 8119.843918346063
3484 8119.793372156117
3485 8119.836426554326
3486 8119.793862346031
3487 8119.833390895967
3488 8119.789319900841
3489 8119.832814161441
3490 8119.798110825319
3491 8119.8310046591
3492 8119.800521829471
3493 8119.813538046078
3494 8119.77844234588
3495 8119.811774891726
3496 8119.776501972094
3497 8119.808666804099
3498 8119.768700466859
3499 8119.816468936288
3500 8119.784029609945
3501 8119.832629840141
3502 8119.799692467431
3503 8119.846360846254
3504 8119.801484731683
3505 8119.844127667832
3506 8119.800068592815
3507 8119.844044571279
3508 8119.796588244573
3509 8119.834398319624
3510 8119.789680962914
3511 8119.830760571831
3512 8119.790455579771
3513 8119.836065293428
3514 8119.792422680429
3515 8119.837841331963
3516 8119.78959875524
3517 8119.82854304336
3518 8119.786161781132
3519 8119.835454889127
3520 8119.784979225225
3521 8119.834152552612
3522 8119.783626490247
3523 8119.839405190596
3524 8119.786861421048
3525 8119.849481360828
3526 8119.791395534859
3527 8119.846984213136
3528 8119.782033072916
3529 8119.832207022505
3530 8119.776989112393
3531 8119.834979309971
3532 8119.785080203296
3533 8119.834544130479
3534 8119.779459905762
3535 8119.843938380886
3536 8119.795862462649
3537 8119.852670496852
3538 8119.806672195379
3539 8119.847184450242
3540 8119.8025967576
3541 8119.846972601991
3542 8119.797294765525
3543 8119.849227462521
3544 8119.791221514518
3545 8119.850827248421
3546 8119.805096416272
3547 8119.840520631697
3548 8119.797073447889
3549 8119.837209927456
3550 8119.79534941795
3551 8119.821758486568
3552 8119.785878945757
3553 8119.823997790681
3554 8119.7879442528
3555 8119.824472451059
3556 8119.799718501997
3557 8119.832653664014
3558 8119.799865746655
3559 8119.841755299926
3560 8119.814926854257
3561 8119.838975463436
3562 8119.813336445442
3563 8119.844143207113
3564 8119.803177990683
3565 8119.845881556227
3566 8119.806160794307
3567 8119.840844642776
3568 8119.796951123712
3569 8119.836292376518
3570 8119.790582990281
3571 8119.837330545718
3572 8119.792328301508
3573 8119.826487194318
3574 8119.786014826488
3575 8119.824299547797
3576 8119.780488558547
3577 8119.829689738344
3578 8119.77963103848
3579 8119.835941805502
3580 8119.783668929304
3581 8119.838415938926
3582 8119.79873547661
3583 8119.846106147222
3584 8119.788892573712
3585 8119.828648608853
3586 8119.786725364838
3587 8119.82673716198
3588 8119.780282341835
3589 8119.828422282992
3590 8119.790337121461
3591 8119.834236264046
3592 8119.785665368698
3593 8119.832579319178
3594 8119.794963191376
3595 8119.839139513017
3596 8119.794335953608
3597 8119.836434544182
3598 8119.801758944228
3599 8119.843032751029
3600 8119.806605236899
3601 8119.848494372151
3602 8119.810707454974
3603 8119.852691652241
3604 8119.813216426884
3605 8119.851773930696
3606 8119.813344687138
3607 8119.865155191922
3608 8119.824437321628
3609 8119.858544095907
3610 8119.813619423062
3611 8119.849612949653
3612 8119.792170179375
3613 8119.833780303854
3614 8119.793525244838
3615 8119.83460702396
3616 8119.800402355704
3617 8119.837189584044
3618 8119.806933722122
3619 8119.843258786817
3620 8119.81042812238
3621 8119.853715325359
3622 8119.815870842343
3623 8119.864978628255
3624 8119.812173754789
3625 8119.862044670105
3626 8119.832307148711
3627 8119.880368377584
3628 8119.841432176777
3629 8119.883876431314
3630 8119.844239785436
3631 8119.889503774575
3632 8119.832318174784
3633 8119.872401572688
3634 8119.822025963704
3635 8119.864846621951
3636 8119.806502315363
3637 8119.85672314383
3638 8119.800152817435
3639 8119.84289478356
3640 8119.787160036123
3641 8119.831602632121
3642 8119.79054800553
3643 8119.835122089289
3644 8119.793027239131
3645 8119.832507743625
3646 8119.802504795185
3647 8119.838467555454
3648 8119.812599894655
3649 8119.847675824099
3650 8119.820152619018
3651 8119.852553538068
3652 8119.818753219347
3653 8119.854419861101
3654 8119.814217267087
3655 8119.863031038871
3656 8119.824629728549
3657 8119.862220896313
3658 8119.825887658109
3659 8119.858295076241
3660 8119.811851320321
3661 8119.849742855721
3662 8119.810566705839
3663 8119.850583294539
3664 8119.806589591187
3665 8119.84824525162
3666 8119.8095732629
3667 8119.854790571198
3668 8119.816726286263
3669 8119.858619919768
3670 8119.826366905222
3671 8119.864500833053
3672 8119.822455499321
3673 8119.863248229313
3674 8119.828549808857
3675 8119.867416732637
3676 8119.827280319078
3677 8119.871632222788
3678 8119.824179083566
3679 8119.866657942565
3680 8119.816378955639
3681 8119.856430658531
3682 8119.819615605351
3683 8119.856647339582
3684 8119.817849583106
3685 8119.85942018691
3686 8119.83009395691
3687 8119.866228233229
3688 8119.825321992775
3689 8119.855621804176
3690 8119.813500546412
3691 8119.85219795743
3692 8119.816562533723
3693 8119.851478897463
3694 8119.81552412084
3695 8119.855077526576
3696 8119.80430975511
3697 8119.836856295227
3698 8119.79479296391
3699 8119.83329446761
3700 8119.804150848606
3701 8119.837130623666
3702 8119.808208477136
3703 8119.842008476706
3704 8119.808966736535
3705 8119.842555647461
3706 8119.805537923855
3707 8119.849001135849
3708 8119.805108180866
3709 8119.850035168907
3710 8119.808024768707
3711 8119.84215529047
3712 8119.805094341109
3713 8119.840120393965
3714 8119.794631095938
3715 8119.835527923743
3716 8119.801074391714
3717 8119.833969307527
3718 8119.800143108819
3719 8119.836130395289
3720 8119.800874960381
3721 8119.843044915579
3722 8119.810738805714
3723 8119.843949113297
3724 8119.807514700565
3725 8119.838646182413
3726 8119.815054255242
3727 8119.834911971297
3728 8119.813045959257
3729 8119.833029067935
3730 8119.801179456873
3731 8119.826783349953
3732 8119.801818919162
3733 8119.831709968274
3734 8119.809041183426
3735 8119.834097719321
3736 8119.79296763606
3737 8119.825997527421
3738 8119.787369947721
3739 8119.832352328079
3740 8119.781833997372
3741 8119.824660608593
3742 8119.780809214406
3743 8119.833480873282
3744 8119.788287817736
3745 8119.839597709104
3746 8119.783801031273
3747 8119.834039917093
3748 8119.782261607966
3749 8119.832174352757
3750 8119.783292497925
3751 8119.834205766018
3752 8119.786648831105
3753 8119.831039140151
3754 8119.783494724187
3755 8119.833075152021
3756 8119.792307577894
3757 8119.832824319582
3758 8119.794743034307
3759 8119.840688573188
3760 8119.806925212812
3761 8119.843307327411
3762 8119.812965008964
3763 8119.842751672977
3764 8119.804220685993
3765 8119.83731965627
3766 8119.804207259363
3767 8119.840947401721
3768 8119.813745191976
3769 8119.850044811271
3770 8119.819701296735
3771 8119.850514257206
3772 8119.819637728044
3773 8119.853612670807
3774 8119.822231447334
3775 8119.858212272128
3776 8119.821965169132
3777 8119.85919279562
3778 8119.819818192961
3779 8119.865989804583
3780 8119.827048050631
3781 8119.866937391665
3782 8119.819342884081
3783 8119.859778379091
3784 8119.811111420542
3785 8119.857645256839
3786 8119.811049037143
3787 8119.856280184146
3788 8119.804228777091
3789 8119.846658323708
3790 8119.803556076534
3791 8119.859708942158
3792 8119.817090678364
3793 8119.866429261064
3794 8119.821971347254
3795 8119.859164742335
3796 8119.820815875579
3797 8119.859106764136
3798 8119.824945495774
3799 8119.855581871253
3800 8119.811939580953
3801 8119.849575217836
3802 8119.814937335142
3803 8119.857493205956
3804 8119.814366528226
3805 8119.860393308737
3806 8119.82605917008
3807 8119.869145029358
3808 8119.823975303609
3809 8119.877897809533
3810 8119.831879631253
3811 8119.881675063235
3812 8119.833401878879
3813 8119.877553828202
3814 8119.826611769791
3815 8119.87535991072
3816 8119.821129764787
3817 8119.856866899086
3818 8119.81862949572
3819 8119.852964895847
3820 8119.800460383776
3821 8119.849291694227
3822 8119.802466062271
3823 8119.844567816214
3824 8119.790233993492
3825 8119.834711884562
3826 8119.796794773763
3827 8119.83626425474
3828 8119.799362929564
3829 8119.841272228139
3830 8119.790255256923
3831 8119.848112224937
3832 8119.80257088433
3833 8119.8498348273
3834 8119.810725155502
3835 8119.863579053284
3836 8119.807405741201
3837 8119.855112109808
3838 8119.805495014788
3839 8119.856120375016
3840 8119.805915470787
3841 8119.845448891535
3842 8119.80383263595
3843 8119.844193211521
3844 8119.805324945381
3845 8119.84165384433
3846 8119.816379413152
3847 8119.855450770289
3848 8119.820743737519
3849 8119.852834101462
3850 8119.828754160294
3851 8119.846497876857
3852 8119.822992387047
3853 8119.836064923737
3854 8119.820256468472
3855 8119.834770286884
3856 8119.810520198822
3857 8119.827984563303
3858 8119.801818072548
3859 8119.828765737766
3860 8119.80006937726
3861 8119.822281398387
3862 8119.788905069775
3863 8119.816506181554
3864 8119.79003539268
3865 8119.821811277163
3866 8119.788012256608
3867 8119.839665523885
3868 8119.788713355741
3869 8119.83374248854
3870 8119.797877148168
3871 8119.848445603943
3872 8119.809287808829
3873 8119.851911731517
3874 8119.7909584204
3875 8119.838589444512
3876 8119.792049731594
3877 8119.832719704757
3878 8119.788937610062
3879 8119.843886474528
3880 8119.786021289965
3881 8119.842680312498
3882 8119.799569647728
3883 8119.842901532796
3884 8119.782941198272
3885 8119.839960385535
3886 8119.78560152949
3887 8119.841323946377
3888 8119.785748168507
3889 8119.834914732381
3890 8119.781735240006
3891 8119.835884043696
3892 8119.784693432894
3893 8119.831063831979
3894 8119.784419495379
3895 8119.812537780269
3896 8119.776697432015
3897 8119.807461067292
3898 8119.778498286798
3899 8119.803715994757
3900 8119.77516065162
3901 8119.813789639596
3902 8119.787645011512
3903 8119.81926561563
3904 8119.7876155721
3905 8119.818481278036
3906 8119.79868555987
3907 8119.834439420827
3908 8119.800275260597
3909 8119.839241796688
3910 8119.810357610788
3911 8119.833985863004
3912 8119.795977638117
3913 8119.833347052124
3914 8119.793542152021
3915 8119.832022136061
3916 8119.780164672668
3917 8119.837801088308
3918 8119.804238246808
3919 8119.858355923722
3920 8119.809296644642
3921 8119.860372713204
3922 8119.803349772831
3923 8119.855244477464
3924 8119.798696706234
3925 8119.844957261847
3926 8119.789754927685
3927 8119.834071615843
3928 8119.786490452357
3929 8119.833050970729
3930 8119.804033366721
3931 8119.831684550133
3932 8119.7952116206
3933 8119.825306733987
3934 8119.801310884642
3935 8119.834290729482
3936 8119.79941572901
3937 8119.824283299166
3938 8119.794416667958
3939 8119.827968648373
3940 8119.804328886071
3941 8119.83252386911
3942 8119.802396710891
3943 8119.840448987472
3944 8119.792023886765
3945 8119.842241621329
3946 8119.797886333597
3947 8119.839981531868
3948 8119.789896182999
3949 8119.832473316862
3950 8119.77721716794
3951 8119.839830618655
3952 8119.792850421468
3953 8119.848690301429
3954 8119.790059873197
3955 8119.855373473451
3956 8119.798448354147
3957 8119.864745511933
3958 8119.806046101679
3959 8119.878338006466
3960 8119.8136067601
3961 8119.877021562686
3962 8119.82232975164
3963 8119.872425929368
3964 8119.818138027515
3965 8119.860507296738
3966 8119.803127446872
3967 8119.857086651546
3968 8119.796619600819
3969 8119.854572850984
3970 8119.80113543073
3971 8119.844234202083
3972 8119.790369107885
3973 8119.844977050404
3974 8119.784879817761
3975 8119.83647753197
3976 8119.782351361276
3977 8119.824763562483
3978 8119.780104254295
3979 8119.819038019637
3980 8119.779868446943
3981 8119.808928782802
3982 8119.770070959501
3983 8119.811557586182
3984 8119.788728857996
3985 8119.812752101041
3986 8119.780220325663
3987 8119.805345427972
3988 8119.77695983894
3989 8119.81113978927
3990 8119.776175062026
3991 8119.813944968689
3992 8119.78495379502
3993 8119.810521791644
3994 8119.794212060579
3995 8119.827270277893
3996 8119.794334625815
3997 8119.833152768512
3998 8119.795921673201
3999 8119.843803611456
4000 8119.803705785975
4001 8119.837159905936
4002 8119.792484138113
4003 8119.8299865112
4004 8119.778765253575
4005 8119.825975639988
4006 8119.788962811037
4007 8119.829955193615
4008 8119.797168279774
4009 8119.831475539278
4010 8119.783111026561
4011 8119.83526670107
4012 8119.800137973684
4013 8119.840209954387
4014 8119.80292796299
4015 8119.840152687827
4016 8119.801687533704
4017 8119.843184824932
4018 8119.809434612798
4019 8119.846852637726
4020 8119.788658604049
4021 8119.827612737111
4022 8119.782935595676
4023 8119.822413526379
4024 8119.784281171937
4025 8119.827087301578
4026 8119.771420695865
4027 8119.819861914939
4028 8119.783582293388
4029 8119.822159819129
4030 8119.773568268499
4031 8119.821944644491
4032 8119.779338195983
4033 8119.829002725804
4034 8119.781526522178
4035 8119.836670104728
4036 8119.783742296626
4037 8119.838468394155
4038 8119.797959781306
4039 8119.8416461738
4040 8119.788026549197
4041 8119.8350376403
4042 8119.777480190901
4043 8119.827274576193
4044 8119.777314298882
4045 8119.8262995021
4046 8119.780823981859
4047 8119.82294317675
4048 8119.783066074729
4049 8119.833127111338
4050 8119.796544958489
4051 8119.8324649871
4052 8119.784100088403
4053 8119.827141368256
4054 8119.778644695788
4055 8119.83930361068
4056 8119.793049655211
4057 8119.843033422795
4058 8119.793426014305
4059 8119.848061958854
4060 8119.786680588226
4061 8119.846459249045
4062 8119.79225252657
4063 8119.836259810723
4064 8119.790067603612
4065 8119.839803560506
4066 8119.793333186553
4067 8119.838794900836
4068 8119.788180520722
4069 8119.838041585476
4070 8119.798149148583
4071 8119.838965410891
4072 8119.79841773622
4073 8119.832639122481
4074 8119.805399579964
4075 8119.836057691874
4076 8119.808562636796
4077 8119.834354314099
4078 8119.804974855945
4079 8119.830908328158
4080 8119.789156676837
4081 8119.825275814654
4082 8119.797031724294
4083 8119.830046215816
4084 8119.796366744306
4085 8119.836224023816
4086 8119.797151359783
4087 8119.839178477542
4088 8119.794533077767
4089 8119.838243621468
4090 8119.789113288902
4091 8119.834405445544
4092 8119.787229997019
4093 8119.835308588132
4094 8119.787279075104
4095 8119.829437902365
4096 8119.788200032956
4097 8119.834709661489
4098 8119.787421063687
4099 8119.833703284827
4100 8119.77772379244
4101 8119.836379768616
4102 8119.783407717829
4103 8119.834965868524
4104 8119.775207792607
4105 8119.834516731998
4106 8119.78605579977
4107 8119.83501195322
4108 8119.787974126952
4109 8119.842367567663
4110 8119.795464174859
4111 8119.840373311582
4112 8119.805180435861
4113 8119.842142239744
4114 8119.805194541175
4115 8119.84662030965
4116 8119.806813227367
4117 8119.840393950589
4118 8119.809538192914
4119 8119.845869292523
4120 8119.802981796179
4121 8119.837169376106
4122 8119.807942950618
4123 8119.850542545237
4124 8119.812491761947
4125 8119.851380481669
4126 8119.80691882942
4127 8119.854226813791
4128 8119.798864057389
4129 8119.841035153072
4130 8119.787694854543
4131 8119.844907379418
4132 8119.793078194759
4133 8119.847726667944
4134 8119.805932992502
4135 8119.85350080074
4136 8119.810048730885
4137 8119.849706135918
4138 8119.80580910554
4139 8119.843750126388
4140 8119.80855499087
4141 8119.845148440013
4142 8119.809320332531
4143 8119.847079974963
4144 8119.803492143077
4145 8119.850356658922
4146 8119.808899276618
4147 8119.859036583418
4148 8119.808005935375
4149 8119.845921247577
4150 8119.801049640697
4151 8119.846732007079
4152 8119.802813695839
4153 8119.842605455631
4154 8119.80564324719
4155 8119.849553255087
4156 8119.804475051401
4157 8119.85978790683
4158 8119.805472991862
4159 8119.856939352878
4160 8119.808211889792
4161 8119.846081942854
4162 8119.799081819006
4163 8119.84612441455
4164 8119.796953894396
4165 8119.837630496896
4166 8119.805912011493
4167 8119.849102580941
4168 8119.806689914397
4169 8119.848344518327
4170 8119.798374193764
4171 8119.846671740266
4172 8119.804001049862
4173 8119.837785300589
4174 8119.796939238888
4175 8119.839942299129
4176 8119.802568097695
4177 8119.844406780347
4178 8119.809624583534
4179 8119.843134584869
4180 8119.805764248766
4181 8119.839974412991
4182 8119.808660133437
4183 8119.841706377463
4184 8119.804180978651
4185 8119.841485765538
4186 8119.802897513997
4187 8119.838290524839
4188 8119.806586198941
4189 8119.845684697959
4190 8119.801886890658
4191 8119.845001344542
4192 8119.804454334258
4193 8119.855224207826
4194 8119.797794830565
4195 8119.85562410543
4196 8119.806700734852
4197 8119.855869382805
4198 8119.804895481787
4199 8119.853256591806
4200 8119.801686275159
4201 8119.843856729689
4202 8119.802287440319
4203 8119.846924890715
4204 8119.797461389415
4205 8119.842089648428
4206 8119.795381509215
4207 8119.834598099622
4208 8119.791233077703
4209 8119.828238614743
4210 8119.787350124743
4211 8119.833668902468
4212 8119.78663667292
4213 8119.831832948272
4214 8119.785099855627
4215 8119.829532161552
4216 8119.78537603372
4217 8119.831795039511
4218 8119.803883167118
4219 8119.844223846991
4220 8119.79760132666
4221 8119.841871797408
4222 8119.796413777562
4223 8119.838070537665
4224 8119.796914747953
4225 8119.843326870542
4226 8119.803724672489
4227 8119.85133378967
4228 8119.810517808745
4229 8119.854072675884
4230 8119.814886946274
4231 8119.857455994484
4232 8119.812797087651
4233 8119.856922526497
4234 8119.807381600489
4235 8119.849447904605
4236 8119.812048117679
4237 8119.85623707164
4238 8119.810344582274
4239 8119.858412107239
4240 8119.814612494442
4241 8119.855343830689
4242 8119.82652336568
4243 8119.863592798211
4244 8119.820213033077
4245 8119.855601974263
4246 8119.813492111178
4247 8119.85059377744
4248 8119.806873395085
4249 8119.850434027418
4250 8119.810384392941
4251 8119.853819919761
4252 8119.822399512614
4253 8119.858987009523
4254 8119.817066416592
4255 8119.859694952479
4256 8119.813067412864
4257 8119.859485233837
4258 8119.821485505401
4259 8119.857362512461
4260 8119.823974275187
4261 8119.857858528047
4262 8119.831499264641
4263 8119.861301351086
4264 8119.819989060246
4265 8119.856946417223
4266 8119.815822013793
4267 8119.842287208414
4268 8119.790902343495
4269 8119.836336253453
4270 8119.795622666821
4271 8119.83944157797
4272 8119.797812621901
4273 8119.84162237218
4274 8119.801789883899
4275 8119.836446558956
4276 8119.793792082558
4277 8119.845169520882
4278 8119.796961010728
4279 8119.848966888089
4280 8119.797768854076
4281 8119.856043137999
4282 8119.812902875095
4283 8119.860880763966
4284 8119.80673322445
4285 8119.845736132304
4286 8119.793330484322
4287 8119.848521891153
4288 8119.801391476026
4289 8119.836670051747
4290 8119.794355374243
4291 8119.835471920993
4292 8119.786593935852
4293 8119.8326791332
4294 8119.800952812966
4295 8119.838074993681
4296 8119.810316782837
4297 8119.834772210858
4298 8119.810001660923
4299 8119.839502007651
4300 8119.800572632615
4301 8119.831630422541
4302 8119.815387097347
4303 8119.832766615372
4304 8119.808679400458
4305 8119.840813768013
4306 8119.817819558156
4307 8119.839463020952
4308 8119.808498560151
4309 8119.835351873568
4310 8119.806988797292
4311 8119.840387601504
4312 8119.792589897777
4313 8119.845389826518
4314 8119.811371958132
4315 8119.850179382347
4316 8119.803386327615
4317 8119.848488386339
4318 8119.80082669217
4319 8119.860293061891
4320 8119.809838125324
4321 8119.870505201248
4322 8119.811340738329
4323 8119.862685307783
4324 8119.794037535539
4325 8119.858581441131
4326 8119.798079226604
4327 8119.850876120729
4328 8119.800524550325
4329 8119.842188593369
4330 8119.803782633163
4331 8119.838142189165
4332 8119.79321709798
4333 8119.836196448982
4334 8119.793394855895
4335 8119.836910979639
4336 8119.793455988135
4337 8119.838880681617
4338 8119.806152541208
4339 8119.84988592201
4340 8119.803813434267
4341 8119.841441754886
4342 8119.796416617663
4343 8119.835008959909
4344 8119.792001051112
4345 8119.826966399341
4346 8119.787981895242
4347 8119.821080118297
4348 8119.788544708965
4349 8119.827145511716
4350 8119.791557084964
4351 8119.837332260755
4352 8119.796723624024
4353 8119.830318858554
4354 8119.799149899905
4355 8119.83830101983
4356 8119.79933083856
4357 8119.842167842387
4358 8119.8121824885
4359 8119.850044742003
4360 8119.805405627249
4361 8119.851097502835
4362 8119.812161571474
4363 8119.849801786564
4364 8119.804899178885
4365 8119.848936829168
4366 8119.80690867453
4367 8119.850815548188
4368 8119.79115634618
4369 8119.846413964673
4370 8119.790399219447
4371 8119.836847367748
4372 8119.784781520229
4373 8119.837705065577
4374 8119.790348917343
4375 8119.840556418624
4376 8119.789828762537
4377 8119.838194530529
4378 8119.799429261624
4379 8119.836344260585
4380 8119.790442813289
4381 8119.83461999073
4382 8119.790936938557
4383 8119.832978397596
4384 8119.794001739793
4385 8119.829948340715
4386 8119.8081875662
4387 8119.832150240962
4388 8119.794262904265
4389 8119.832655947434
4390 8119.807519078765
4391 8119.837054865966
4392 8119.793730460189
4393 8119.833710673679
4394 8119.792463305425
4395 8119.832365543915
4396 8119.801801958603
4397 8119.836573264898
4398 8119.801521703428
