"mz-rfile"
"Iteration" "mz"
("Iteration" "mz")
7000 -582.5114616179427
7001 -642.0253293396911
7002 -702.143692877329
7003 -848.6350288415141
7004 -1020.529539482154
7005 -1169.16200850767
7006 -1310.955604753093
7007 -1450.969550183905
7008 -1584.385620820999
7009 -1710.724766500031
7010 -1807.460082195535
7011 -1906.350072168114
7012 -1999.834886872158
7013 -2071.0221642332
7014 -2107.06534772622
7015 -2126.840586796893
7016 -2123.429868951202
7017 -2105.566705854717
7018 -2088.820316253593
7019 -2070.878866683038
7020 -2062.260879395639
7021 -2065.605121364043
7022 -2076.897671562729
7023 -2100.69936162754
7024 -2131.398761397057
7025 -2174.942396421779
7026 -2219.67460338788
7027 -2272.641870223445
7028 -2334.958628926315
7029 -2404.785707488546
7030 -2479.642670600125
7031 -2557.221077686797
7032 -2637.127964183195
7033 -2716.518499266415
7034 -2775.761635410151
7035 -2834.07569985903
7036 -2892.629859861115
7037 -2949.782823103432
7038 -3005.124000932125
7039 -3041.301778982403
7040 -3094.038100423639
7041 -3127.513559658157
7042 -3175.493937388916
7043 -3204.516776580638
7044 -3245.197066714577
7045 -3281.452987232469
7046 -3312.41049756034
7047 -3339.302996721281
7048 -3362.367039571604
7049 -3381.874053598975
7050 -3398.496971143633
7051 -3412.664225323679
7052 -3425.042667214619
7053 -3432.401646966494
7054 -3443.561788174294
7055 -3451.030455273241
7056 -3462.871660447149
7057 -3470.93768984562
7058 -3484.8434716668
7059 -3494.507276390016
7060 -3505.623549507091
7061 -3517.846090706307
7062 -3531.209935959814
7063 -3552.565361724631
7064 -3567.074459223917
7065 -3589.484196990153
7066 -3604.457514165653
7067 -3626.07662750897
7068 -3640.007871306217
7069 -3659.663289018507
7070 -3677.127611498594
7071 -3691.94263197126
7072 -3704.240025612558
7073 -3713.146100342464
7074 -3719.273378866941
7075 -3722.31479273566
7076 -3722.983784667655
7077 -3720.869555150733
7078 -3716.792206497611
7079 -3710.737339690163
7080 -3702.507356289196
7081 -3692.790957542258
7082 -3681.841517614498
7083 -3669.875363369044
7084 -3656.971480448422
7085 -3643.617307664725
7086 -3634.429444088647
7087 -3619.963869007257
7088 -3610.002219013673
7089 -3595.215975592472
7090 -3585.304886205714
7091 -3575.410044251047
7092 -3565.620875763435
7093 -3555.740015904345
7094 -3545.94730519699
7095 -3536.287735337263
7096 -3526.78724204699
7097 -3517.285022556402
7098 -3508.004341599279
7099 -3498.890397377084
7100 -3490.273195563095
7101 -3482.032986900776
7102 -3474.269622104799
7103 -3466.966246165689
7104 -3459.852740224901
7105 -3453.145714833292
7106 -3446.862974616655
7107 -3441.050678389433
7108 -3435.586529057955
7109 -3430.648536423043
7110 -3426.107235507619
7111 -3421.786139539235
7112 -3417.873192573808
7113 -3414.20708251369
7114 -3410.865514280156
7115 -3407.739443730245
7116 -3404.854606888143
7117 -3402.195774500606
7118 -3399.720167381121
7119 -3397.295345940829
7120 -3394.981560453612
7121 -3392.746377136614
7122 -3390.573149526417
7123 -3388.374885343838
7124 -3386.271487229656
7125 -3384.104204820223
7126 -3381.956753652675
7127 -3379.751830272792
7128 -3377.592482826122
7129 -3375.423079210438
7130 -3373.171437498326
7131 -3370.93955004186
7132 -3368.661006068428
7133 -3366.375522736351
7134 -3364.118648217558
7135 -3361.841457060031
7136 -3359.470866025175
7137 -3357.185881868828
7138 -3354.807774304047
7139 -3352.520897431105
7140 -3350.168898947099
7141 -3347.891892403139
7142 -3345.619871586902
7143 -3343.405276500325
7144 -3341.229730583796
7145 -3339.071198802615
7146 -3336.939480571274
7147 -3334.932382940725
7148 -3332.91927864784
7149 -3331.02800548799
7150 -3329.141036699748
7151 -3327.334140197329
7152 -3325.555530052243
7153 -3323.910608941381
7154 -3322.268152851105
7155 -3320.765596358133
7156 -3319.281034653417
7157 -3317.878777899853
7158 -3316.526195521607
7159 -3315.311501325784
7160 -3314.145766023021
7161 -3313.069526479916
7162 -3312.089346261449
7163 -3311.219803806252
7164 -3310.41238543657
7165 -3309.734881757737
7166 -3309.129407116781
7167 -3308.650830910738
7168 -3308.237039473478
7169 -3307.929523163633
7170 -3307.721944116562
7171 -3307.617277381059
7172 -3307.613333292256
7173 -3307.725701217903
7174 -3307.888450683574
7175 -3308.152786214277
7176 -3308.512731581704
7177 -3308.962543113819
7178 -3309.465945043522
7179 -3310.040648644566
7180 -3310.63544152491
7181 -3311.363607030942
7182 -3312.133420506375
7183 -3312.964640937473
7184 -3313.927295026872
7185 -3314.900873496255
7186 -3315.888008834857
7187 -3316.972809063344
7188 -3318.097338052727
7189 -3319.226739265258
7190 -3320.370738801778
7191 -3321.559857758017
7192 -3322.817929272238
7193 -3324.051737467515
7194 -3325.321438742218
7195 -3326.60373135497
7196 -3327.857227695963
7197 -3329.149197518722
7198 -3330.477958446283
7199 -3331.840425928845
7200 -3333.11349778318
7201 -3334.364461663356
7202 -3335.692630095863
7203 -3336.904122838173
7204 -3338.138858085732
7205 -3339.310153307258
7206 -3340.442876542621
7207 -3341.493539471869
7208 -3342.517446267994
7209 -3343.4947085991
7210 -3344.423957953439
7211 -3345.251497903696
7212 -3346.110796949242
7213 -3346.840852669303
7214 -3347.613121835156
7215 -3348.321641009364
7216 -3348.974834736361
7217 -3349.472167674979
7218 -3349.985999438929
7219 -3350.34445736388
7220 -3350.697881366046
7221 -3350.909408962839
7222 -3351.109036682653
7223 -3351.162880463179
7224 -3351.30290229917
7225 -3351.233344603749
7226 -3351.217800963079
7227 -3351.028797524545
7228 -3350.616357345887
7229 -3350.219629217998
7230 -3349.905447756248
7231 -3349.503968990173
7232 -3349.053343590475
7233 -3348.206056660742
7234 -3347.776489232727
7235 -3347.114566873445
7236 -3346.425393202296
7237 -3345.278000657564
7238 -3344.427317559228
7239 -3343.43678460409
7240 -3341.975714607749
7241 -3340.969613414894
7242 -3339.735408718022
7243 -3337.74418409435
7244 -3336.426875935847
7245 -3334.265603031949
7246 -3332.847346580327
7247 -3330.478470050693
7248 -3328.950105492767
7249 -3326.379554081552
7250 -3324.674380352715
7251 -3321.961064189658
7252 -3319.221035241257
7253 -3317.348673111562
7254 -3314.35145729531
7255 -3311.26792631997
7256 -3309.202174937221
7257 -3305.90547602508
7258 -3302.59005500221
7259 -3299.160799445491
7260 -3295.596591892784
7261 -3292.074468675246
7262 -3288.448769326174
7263 -3284.784590942182
7264 -3281.077704270138
7265 -3277.241962686283
7266 -3273.395798400238
7267 -3269.303036536639
7268 -3265.24622497164
7269 -3261.112869297331
7270 -3256.942292788541
7271 -3252.576499886617
7272 -3248.087502882502
7273 -3243.433222316795
7274 -3238.753856530513
7275 -3233.905028286992
7276 -3228.827595560821
7277 -3223.790283962989
7278 -3218.503856009323
7279 -3213.244394245624
7280 -3207.933227507999
7281 -3202.458457465561
7282 -3196.886460219636
7283 -3191.175773811778
7284 -3185.352498642552
7285 -3179.43787359119
7286 -3173.311210932474
7287 -3167.254910839819
7288 -3161.035297785862
7289 -3154.722041239641
7290 -3148.325131722384
7291 -3141.932068888375
7292 -3135.505778900099
7293 -3129.034719667373
7294 -3122.470645580277
7295 -3115.934172515986
7296 -3109.332261140775
7297 -3102.775052846721
7298 -3096.208617126655
7299 -3089.766656169428
7300 -3083.154911946644
7301 -3076.791908761314
7302 -3070.331724285028
7303 -3064.082503458047
7304 -3057.790625034952
7305 -3051.703489867117
7306 -3045.634037500339
7307 -3039.72682241186
7308 -3033.960852934469
7309 -3028.316240073515
7310 -3022.835079968543
7311 -3017.57480466316
7312 -3012.363774890762
7313 -3007.396929284741
7314 -3002.501686047359
7315 -2999.341168356661
7316 -2994.645134945576
7317 -2990.156724809024
7318 -2987.205868531228
7319 -2982.851013903455
7320 -2978.630430837465
7321 -2975.890321040047
7322 -2971.787348218541
7323 -2969.116382181302
7324 -2965.157210054578
7325 -2962.568967580499
7326 -2958.692419447759
7327 -2956.2018471601
7328 -2953.603501061541
7329 -2949.827831561133
7330 -2947.28035556003
7331 -2944.797355100238
7332 -2942.166455400989
7333 -2939.566111032366
7334 -2936.810192814251
7335 -2934.095121138068
7336 -2931.208402886379
7337 -2928.386307134928
7338 -2925.392473522281
7339 -2922.391152848087
7340 -2919.331684553484
7341 -2916.322582611488
7342 -2913.21083010983
7343 -2910.050711935458
7344 -2906.8321745022
7345 -2903.703370203554
7346 -2900.509720033202
7347 -2897.417221205162
7348 -2894.268408902758
7349 -2891.217716667199
7350 -2888.106167270424
7351 -2885.06019301059
7352 -2882.035149651354
7353 -2879.079542743139
7354 -2876.101805089907
7355 -2873.238346158471
7356 -2870.406617767406
7357 -2867.676767310662
7358 -2864.9502154064
7359 -2862.317626413667
7360 -2859.770330951163
7361 -2857.324870519296
7362 -2854.941684095412
7363 -2852.705053993549
7364 -2850.470205867601
7365 -2848.396794701259
7366 -2846.408187807886
7367 -2844.581604101937
7368 -2842.78554833417
7369 -2841.132447479803
7370 -2839.569243512713
7371 -2838.151583431528
7372 -2836.731207542632
7373 -2835.470889863236
7374 -2834.313581529707
7375 -2833.277351457318
7376 -2832.305477020458
7377 -2831.484751563121
7378 -2830.709599111097
7379 -2830.043529613359
7380 -2829.408332120988
7381 -2828.844119183883
7382 -2828.334920173966
7383 -2827.912081803589
7384 -2827.486582379962
7385 -2827.158616285906
7386 -2826.840853789601
7387 -2826.581490012737
7388 -2826.334765894638
7389 -2826.146375492537
7390 -2825.945616687629
7391 -2825.79796728809
7392 -2825.645687236372
7393 -2825.515562563567
7394 -2825.370873114809
7395 -2825.262777854008
7396 -2825.149595259897
7397 -2825.042376486591
7398 -2824.947334433247
7399 -2824.856050976166
7400 -2824.74227724456
7401 -2824.648203268264
7402 -2824.55268559
7403 -2824.475372284988
7404 -2824.385213894347
7405 -2824.305436751923
7406 -2824.226623065547
7407 -2824.163051915878
7408 -2824.082123293487
7409 -2824.037897582502
7410 -2823.957567968488
7411 -2823.927706861917
7412 -2823.878696134128
7413 -2823.856576909778
7414 -2823.826820980331
7415 -2823.849712151622
7416 -2823.833799400072
7417 -2823.854410333116
7418 -2823.876097615155
7419 -2823.931347037915
7420 -2823.965732845038
7421 -2824.020899300911
7422 -2824.067074542243
7423 -2824.139036464719
7424 -2824.223422978112
7425 -2824.326260765541
7426 -2824.426903019818
7427 -2824.540724483953
7428 -2824.641421105612
7429 -2824.769836458201
7430 -2824.890466325447
7431 -2825.04282578843
7432 -2825.195317809283
7433 -2825.356000305106
7434 -2825.535426678357
7435 -2825.727270750457
7436 -2825.903620572947
7437 -2826.122958505393
7438 -2826.334503655245
7439 -2826.557214744094
7440 -2826.778053707253
7441 -2827.027962115641
7442 -2827.263777212499
7443 -2827.545286041255
7444 -2827.815475688784
7445 -2828.134956594882
7446 -2828.444691618709
7447 -2828.798939129492
7448 -2829.151705540776
7449 -2829.561176396815
7450 -2829.956724906317
7451 -2830.407846670375
7452 -2830.86886363723
7453 -2831.37674166426
7454 -2831.897454768286
7455 -2832.473104341754
7456 -2833.034538963801
7457 -2833.660984601308
7458 -2834.281560618948
7459 -2834.966467609372
7460 -2835.62587663885
7461 -2836.363718513778
7462 -2837.076204555942
7463 -2837.841266960435
7464 -2838.619608953052
7465 -2839.431095761981
7466 -2840.233271755109
7467 -2841.081287595709
7468 -2841.900787754614
7469 -2842.766545460856
7470 -2843.607706760958
7471 -2844.49160005707
7472 -2845.33117167864
7473 -2846.215849742444
7474 -2847.045808346824
7475 -2847.931174757858
7476 -2848.777456219266
7477 -2849.66061286589
7478 -2850.482900418845
7479 -2851.349551364228
7480 -2852.146533842054
7481 -2853.004029132659
7482 -2853.811251192268
7483 -2854.638141605137
7484 -2855.406359576097
7485 -2856.220280473377
7486 -2856.965906913149
7487 -2857.749265721445
7488 -2858.485314481749
7489 -2859.248726318573
7490 -2859.95605770944
7491 -2860.719525655612
7492 -2861.400882419533
7493 -2862.147523198653
7494 -2862.822654260905
7495 -2863.562819509687
7496 -2864.244342140273
7497 -2864.976647874086
7498 -2865.662074959268
7499 -2866.396383034692
7500 -2867.091036678022
7501 -2867.823759146826
7502 -2868.525777539368
7503 -2869.274934208151
7504 -2869.99332577098
7505 -2870.766909756523
7506 -2871.495238774825
7507 -2872.280142750647
7508 -2873.033255333734
7509 -2873.833448380421
7510 -2874.595652808457
7511 -2875.417297150816
7512 -2876.197228929364
7513 -2877.032058059976
7514 -2877.825866872859
7515 -2878.659037624358
7516 -2879.443785554447
7517 -2880.270821496023
7518 -2881.053206902941
7519 -2881.880374966686
7520 -2882.659311141463
7521 -2883.483882895728
7522 -2884.257027107237
7523 -2885.075815992891
7524 -2885.851311103815
7525 -2886.670521035052
7526 -2887.436686127261
7527 -2888.252940309963
7528 -2888.999916759159
7529 -2889.79807973086
7530 -2890.524763572723
7531 -2891.299142250813
7532 -2892.014824017971
7533 -2892.769887856836
7534 -2893.474712255539
7535 -2894.212092598566
7536 -2894.900455075072
7537 -2895.61742310249
7538 -2896.308905863246
7539 -2897.026000949182
7540 -2897.705606836692
7541 -2898.39336693124
7542 -2899.06119846988
7543 -2899.766629353594
7544 -2900.439791773239
7545 -2901.145170651341
7546 -2901.792413221252
7547 -2902.49557640437
7548 -2903.155813472817
7549 -2903.85662814129
7550 -2904.503864088895
7551 -2905.21484143057
7552 -2905.87029091503
7553 -2906.591189018323
7554 -2907.245755760565
7555 -2907.973378313388
7556 -2908.635472101374
7557 -2909.373219795924
7558 -2910.029090033476
7559 -2910.76014150309
7560 -2911.426431572616
7561 -2912.149478057077
7562 -2912.798402974513
7563 -2913.521090029657
7564 -2914.174739178615
7565 -2914.90329250663
7566 -2915.557464759028
7567 -2916.273002058388
7568 -2916.925557496181
7569 -2917.623233238386
7570 -2918.276710461803
7571 -2918.972784171705
7572 -2919.627392502507
7573 -2920.322901319889
7574 -2920.946424368038
7575 -2921.62674101763
7576 -2922.254061386492
7577 -2922.921437580147
7578 -2923.547195921406
7579 -2924.218574882612
7580 -2924.83303674088
7581 -2925.472515169745
7582 -2926.083146805316
7583 -2926.732812069226
7584 -2927.336705880657
7585 -2927.990409004015
7586 -2928.580969404846
7587 -2929.223452467569
7588 -2929.811984914749
7589 -2930.449442753055
7590 -2931.011279732476
7591 -2931.654957892084
7592 -2932.209087341426
7593 -2932.833074152125
7594 -2933.393581940571
7595 -2934.026050119699
7596 -2934.580822533912
7597 -2935.191898106239
7598 -2935.734553990613
7599 -2936.349917538596
7600 -2936.892504156645
7601 -2937.492861142321
7602 -2938.03393478099
7603 -2938.627659122737
7604 -2939.163130765595
7605 -2939.760453369825
7606 -2940.293344584358
7607 -2940.877746256298
7608 -2941.403470416271
7609 -2941.966580946896
7610 -2942.498724361164
7611 -2943.068142970414
7612 -2943.578198838192
7613 -2944.144738757175
7614 -2944.660548286985
7615 -2945.213359386423
7616 -2945.714472228621
7617 -2946.270723715951
7618 -2946.769366414098
7619 -2947.315041194365
7620 -2947.801386311102
7621 -2948.345140649411
7622 -2948.830215836598
7623 -2949.368227456886
7624 -2949.840564525814
7625 -2950.382361838079
7626 -2950.856136107247
7627 -2951.386333140895
7628 -2951.858212166961
7629 -2952.386961301976
7630 -2952.853468688013
7631 -2953.373025900132
7632 -2953.844938367686
7633 -2954.366691187005
7634 -2954.823044832679
7635 -2955.336190247576
7636 -2955.791123894854
7637 -2956.296428826613
7638 -2956.751787306084
7639 -2957.248905888302
7640 -2957.701832957531
7641 -2958.186372485062
7642 -2958.632790680734
7643 -2959.109619220962
7644 -2959.55071409602
7645 -2960.008406749505
7646 -2960.444845982762
7647 -2960.909450880426
7648 -2961.340511640432
7649 -2961.78384956235
7650 -2962.219189174996
7651 -2962.667712693414
7652 -2963.072524619374
7653 -2963.517799537077
7654 -2963.92206040167
7655 -2964.353973604347
7656 -2964.745720214479
7657 -2965.176286147366
7658 -2965.569118363501
7659 -2965.987474260029
7660 -2966.368414332568
7661 -2966.78800946901
7662 -2967.168034661631
7663 -2967.569717742349
7664 -2967.918597285714
7665 -2968.330100483172
7666 -2968.677040534467
7667 -2969.065126825816
7668 -2969.397696305698
7669 -2969.785537167631
7670 -2970.106412852274
7671 -2970.477706318676
7672 -2970.795180841752
7673 -2971.160688267405
7674 -2971.466552307581
7675 -2971.805893876084
7676 -2972.109011414723
7677 -2972.452177162977
7678 -2972.752235292228
7679 -2973.086471667696
7680 -2973.379159732071
7681 -2973.697483332261
7682 -2973.989029978956
7683 -2974.305264189917
7684 -2974.585803572669
7685 -2974.896380570163
7686 -2975.180490537351
7687 -2975.486731659617
7688 -2975.75289275502
7689 -2976.061942609726
7690 -2976.324391615712
7691 -2976.625398917887
7692 -2976.886892447611
7693 -2977.18464674343
7694 -2977.427556979528
7695 -2977.724713524385
7696 -2977.966553225911
7697 -2978.263613706623
7698 -2978.496854437902
7699 -2978.797094832677
7700 -2979.028815581136
7701 -2979.319904702066
7702 -2979.537790771882
7703 -2979.827505379703
7704 -2980.045999128983
7705 -2980.330231232852
7706 -2980.543163778674
7707 -2980.833679130108
7708 -2981.04534205117
7709 -2981.324309068392
7710 -2981.5492264313
7711 -2981.824330766893
7712 -2982.039392482564
7713 -2982.308790808945
7714 -2982.516286706438
7715 -2982.773299677814
7716 -2982.989974723911
7717 -2983.24462927592
7718 -2983.438893092647
7719 -2983.686438431492
7720 -2983.88183278974
7721 -2984.142951186101
7722 -2984.339744497379
7723 -2984.584304478999
7724 -2984.771431814525
7725 -2985.020946743517
7726 -2985.216885530252
7727 -2985.453560003455
7728 -2985.647658032867
7729 -2985.885407810485
7730 -2986.072158249843
7731 -2986.314854989922
7732 -2986.499620923898
7733 -2986.735457974823
7734 -2986.921733746525
7735 -2987.147375207251
7736 -2987.325300663309
7737 -2987.557132287615
7738 -2987.72845317962
7739 -2987.948335599424
7740 -2988.111349800726
7741 -2988.343800428863
7742 -2988.492518440613
7743 -2988.714059509603
7744 -2988.862906007076
7745 -2989.094309603212
7746 -2989.234339057086
7747 -2989.463195149062
7748 -2989.597862575444
7749 -2989.837715952861
7750 -2989.967149246688
7751 -2990.187574393895
7752 -2990.322772997717
7753 -2990.538134027983
7754 -2990.669220750881
7755 -2990.896623753453
7756 -2991.029983161527
7757 -2991.253507353117
7758 -2991.383921520543
7759 -2991.599993406091
7760 -2991.741483422971
7761 -2991.959461313562
7762 -2992.099094012461
7763 -2992.311252687198
7764 -2992.458849573227
7765 -2992.679109873727
7766 -2992.816877290631
7767 -2993.04215943361
7768 -2993.195563246912
7769 -2993.417238570336
7770 -2993.56553661177
7771 -2993.770524201773
7772 -2993.917272505564
7773 -2994.125753589168
7774 -2994.27172234896
7775 -2994.460637835788
7776 -2994.598624837798
7777 -2994.796774685173
7778 -2994.927236868115
7779 -2995.123864712551
7780 -2995.25134227196
7781 -2995.449129662437
7782 -2995.579454682111
7783 -2995.760780645948
7784 -2995.885245013786
7785 -2996.078789951688
7786 -2996.203446759315
7787 -2996.384593671077
7788 -2996.511779552819
7789 -2996.70562799285
7790 -2996.82868667552
7791 -2997.014794920819
7792 -2997.134195734461
7793 -2997.319564784155
7794 -2997.450425103275
7795 -2997.627179876016
7796 -2997.751611826534
7797 -2997.92972052827
7798 -2998.057012132734
7799 -2998.227722443633
7800 -2998.359506665965
7801 -2998.524792128455
7802 -2998.629324353869
7803 -2998.807454513623
7804 -2998.92808777719
7805 -2999.099498093761
7806 -2999.215398560664
7807 -2999.386720433201
7808 -2999.49153659955
7809 -2999.66783190481
7810 -2999.766523273182
7811 -2999.943371497908
7812 -3000.05673821634
7813 -3000.236616715586
7814 -3000.331960142983
7815 -3000.500509622862
7816 -3000.608014130798
7817 -3000.781507027596
7818 -3000.873170327395
7819 -3001.036020433455
7820 -3001.145730262378
7821 -3001.31716639687
7822 -3001.419633042933
7823 -3001.576420658622
7824 -3001.669705396933
7825 -3001.848695777872
7826 -3001.933737006911
7827 -3002.109302278625
7828 -3002.195121900109
7829 -3002.360035927302
7830 -3002.461491866547
7831 -3002.613483977856
7832 -3002.716088268844
7833 -3002.876539134902
7834 -3002.976637429387
7835 -3003.13700891389
7836 -3003.228336561872
7837 -3003.380566479508
7838 -3003.477151370859
7839 -3003.636001650133
7840 -3003.723957462245
7841 -3003.882764008193
7842 -3003.977156828902
7843 -3004.144237131306
7844 -3004.228615373683
7845 -3004.393097336986
7846 -3004.47360009479
7847 -3004.634421792749
7848 -3004.708299731148
7849 -3004.879959076624
7850 -3004.950682309614
7851 -3005.115133066128
7852 -3005.191710102209
7853 -3005.362242842769
7854 -3005.437775392778
7855 -3005.601990590807
7856 -3005.676259741829
7857 -3005.839199677348
7858 -3005.905545353795
7859 -3006.063164808766
7860 -3006.147696255682
7861 -3006.300688469379
7862 -3006.379002802923
7863 -3006.535431729611
7864 -3006.622055128259
7865 -3006.78244328207
7866 -3006.873413210705
7867 -3007.015321589368
7868 -3007.107105774867
7869 -3007.268082799113
7870 -3007.34226857302
7871 -3007.487017462866
7872 -3007.578478759875
7873 -3007.723829778778
7874 -3007.813220217431
7875 -3007.966397787383
7876 -3008.04307628783
7877 -3008.189892354346
7878 -3008.258235466183
7879 -3008.391354613009
7880 -3008.456084783011
7881 -3008.596622985574
7882 -3008.670559915614
7883 -3008.809286764868
7884 -3008.874966783312
7885 -3009.0328454961
7886 -3009.094499229774
7887 -3009.236329539862
7888 -3009.302194367313
7889 -3009.449962783315
7890 -3009.520999510946
7891 -3009.66257345784
7892 -3009.728649289194
7893 -3009.884655053751
7894 -3009.957304521654
7895 -3010.089329270812
7896 -3010.169637389826
7897 -3010.313910552589
7898 -3010.389022433468
7899 -3010.523661802959
7900 -3010.586596891244
7901 -3010.727377474714
7902 -3010.803395128225
7903 -3010.947360025535
7904 -3011.017149618132
7905 -3011.164829850348
7906 -3011.236851679957
7907 -3011.372966492206
7908 -3011.445120241611
7909 -3011.595254879218
7910 -3011.662088357819
7911 -3011.801933967655
7912 -3011.871753426949
7913 -3012.01982410624
7914 -3012.086044665822
7915 -3012.232253709742
7916 -3012.29903334299
7917 -3012.453848608012
7918 -3012.513250197823
7919 -3012.660200078473
7920 -3012.733596812644
7921 -3012.870983450756
7922 -3012.940208737021
7923 -3013.089441878467
7924 -3013.151264053241
7925 -3013.289559504125
7926 -3013.365282681081
7927 -3013.494473475837
7928 -3013.576515714498
7929 -3013.70768722155
7930 -3013.779507472731
7931 -3013.912620612585
7932 -3013.988707998627
7933 -3014.114417824545
7934 -3014.178720142975
7935 -3014.309539922936
7936 -3014.371672242559
7937 -3014.502888671126
7938 -3014.567774320361
7939 -3014.697440937451
7940 -3014.765086427113
7941 -3014.905986455626
7942 -3014.963046953637
7943 -3015.099481460262
7944 -3015.15567866343
7945 -3015.293521480541
7946 -3015.343807138568
7947 -3015.480154168534
7948 -3015.517140902401
7949 -3015.655887038987
7950 -3015.701935459468
7951 -3015.835115928004
7952 -3015.880885901665
7953 -3016.026710800365
7954 -3016.063449973769
7955 -3016.190364765638
7956 -3016.239447564365
7957 -3016.362212495837
7958 -3016.41308679806
7959 -3016.535669779448
7960 -3016.587908969341
7961 -3016.712117983468
7962 -3016.77258791736
7963 -3016.885989818414
7964 -3016.941978901094
7965 -3017.077078621847
7966 -3017.131800991466
7967 -3017.244299550525
7968 -3017.304044956442
7969 -3017.41499891616
7970 -3017.465754460661
7971 -3017.57605781984
7972 -3017.634233516071
7973 -3017.740614856178
7974 -3017.793585843044
7975 -3017.894853200645
7976 -3017.951032502319
7977 -3018.058257473926
7978 -3018.10793333002
7979 -3018.211198065398
7980 -3018.272819825779
7981 -3018.375666855739
7982 -3018.429024778663
7983 -3018.543126793541
7984 -3018.59679643764
7985 -3018.696094006488
7986 -3018.740173528824
7987 -3018.856166419925
7988 -3018.903033500885
7989 -3019.021158286893
7990 -3019.056430879164
7991 -3019.177951867892
7992 -3019.217990757181
7993 -3019.332082695504
7994 -3019.376537318948
7995 -3019.500303064032
7996 -3019.543488610997
7997 -3019.663709503404
7998 -3019.698618733346
7999 -3019.804975376646
8000 -3019.848889552213
8001 -3019.962983789034
8002 -3020.00729621629
8003 -3020.119221342721
8004 -3020.177626341123
8005 -3020.290125418289
8006 -3020.337421761163
8007 -3020.451833099882
8008 -3020.507728803217
8009 -3020.618267531375
8010 -3020.668420703557
8011 -3020.783520918894
8012 -3020.816583691897
8013 -3020.939464485168
8014 -3020.973591463909
8015 -3021.083165103844
8016 -3021.125627840155
8017 -3021.235038299208
8018 -3021.278346010342
8019 -3021.39578080721
8020 -3021.426994280414
8021 -3021.537397340382
8022 -3021.570163147075
8023 -3021.673277026765
8024 -3021.726523188718
8025 -3021.834122666158
8026 -3021.87264415442
8027 -3021.97310277273
8028 -3022.010897703017
8029 -3022.114604440188
8030 -3022.155621380457
8031 -3022.255584489033
8032 -3022.287930698546
8033 -3022.393242554656
8034 -3022.421430709117
8035 -3022.525507659207
8036 -3022.559481393374
8037 -3022.66512054271
8038 -3022.683684507853
8039 -3022.787113720368
8040 -3022.820270041912
8041 -3022.92252229543
8042 -3022.952589171779
8043 -3023.053725303929
8044 -3023.08540666899
8045 -3023.181889108018
8046 -3023.223171446916
8047 -3023.308468656858
8048 -3023.353587717663
8049 -3023.458015346359
8050 -3023.494556543832
8051 -3023.595208266003
8052 -3023.630084081549
8053 -3023.738048676231
8054 -3023.771888192921
8055 -3023.880951611898
8056 -3023.906952153021
8057 -3024.021382396031
8058 -3024.045910529995
8059 -3024.151715945466
8060 -3024.171739822098
8061 -3024.286835613636
8062 -3024.310895232327
8063 -3024.422536517516
8064 -3024.444026886756
8065 -3024.544057851503
8066 -3024.561857896792
8067 -3024.671778024546
8068 -3024.692385759841
8069 -3024.797794449326
8070 -3024.820017928388
8071 -3024.918737699864
8072 -3024.949621252991
8073 -3025.039231779078
8074 -3025.051255012848
8075 -3025.144442987976
8076 -3025.171881487724
8077 -3025.256234681751
8078 -3025.275429810358
8079 -3025.365584886316
8080 -3025.386857944077
8081 -3025.468923468501
8082 -3025.491250834983
8083 -3025.572853868031
8084 -3025.593498883812
8085 -3025.679238827629
8086 -3025.69229640549
8087 -3025.772614843864
8088 -3025.792336828112
8089 -3025.873094328715
8090 -3025.884247589036
8091 -3025.973286109165
8092 -3025.993012875874
8093 -3026.070681653921
8094 -3026.084099200588
8095 -3026.175150643162
8096 -3026.192491023409
8097 -3026.287147976855
8098 -3026.296226430713
8099 -3026.390007232146
8100 -3026.404873819956
8101 -3026.49367687776
8102 -3026.507433873656
8103 -3026.599229523472
8104 -3026.62133305159
8105 -3026.714324442662
8106 -3026.743877955915
8107 -3026.82485298359
8108 -3026.851479346015
8109 -3026.938368813942
8110 -3026.966094274088
8111 -3027.044617215849
8112 -3027.072085146302
8113 -3027.145973256599
8114 -3027.190950875606
8115 -3027.260729303784
8116 -3027.302896549336
8117 -3027.365673754183
8118 -3027.393226389113
8119 -3027.454495460999
8120 -3027.481889956745
8121 -3027.56423213395
8122 -3027.587025450684
8123 -3027.659506926801
8124 -3027.688620152669
8125 -3027.765050009362
8126 -3027.784127641886
8127 -3027.865525549718
8128 -3027.886316198086
8129 -3027.969858880871
8130 -3027.978536420678
8131 -3028.06583391838
8132 -3028.075754354027
8133 -3028.158458992757
8134 -3028.160812730879
8135 -3028.243791322019
8136 -3028.26176800738
8137 -3028.334561106281
8138 -3028.343612632951
8139 -3028.421344682552
8140 -3028.42248843211
8141 -3028.492527174906
8142 -3028.491662340835
8143 -3028.567590310159
8144 -3028.576525747475
8145 -3028.659224309259
8146 -3028.65869363068
8147 -3028.738507040071
8148 -3028.745645679855
8149 -3028.828756810241
8150 -3028.837946965406
8151 -3028.918029580281
8152 -3028.929384540628
8153 -3029.003694079108
8154 -3029.015510381069
8155 -3029.088632752129
8156 -3029.099398557635
8157 -3029.17559064967
8158 -3029.187461576248
8159 -3029.259828830527
8160 -3029.275788175207
8161 -3029.349607816652
8162 -3029.361856891641
8163 -3029.441377175155
8164 -3029.456946628866
8165 -3029.543332448367
8166 -3029.547976235533
8167 -3029.619709180419
8168 -3029.62336317133
8169 -3029.702613805812
8170 -3029.696049551141
8171 -3029.783600710805
8172 -3029.792052117518
8173 -3029.859914339801
8174 -3029.858798056271
8175 -3029.933985809452
8176 -3029.942907766341
8177 -3030.016648116037
8178 -3030.023026048239
8179 -3030.095644633028
8180 -3030.113899555781
8181 -3030.177775957347
8182 -3030.203560133622
8183 -3030.267990723527
8184 -3030.295653399029
8185 -3030.346199375573
8186 -3030.365032079511
8187 -3030.429643057437
8188 -3030.449823463873
8189 -3030.514074360934
8190 -3030.525748289139
8191 -3030.584172501511
8192 -3030.612764770606
8193 -3030.675542226923
8194 -3030.680789017422
8195 -3030.760728853533
8196 -3030.771144436338
8197 -3030.843714431398
8198 -3030.837046288742
8199 -3030.917101707754
8200 -3030.911015376195
8201 -3030.984025320296
8202 -3030.984584555566
8203 -3031.061050939792
8204 -3031.069622954406
8205 -3031.151810827761
8206 -3031.157238300225
8207 -3031.244651161688
8208 -3031.246240513484
8209 -3031.318138801589
8210 -3031.312537399512
8211 -3031.388920471173
8212 -3031.393657935203
8213 -3031.463196035358
8214 -3031.468880668079
8215 -3031.540036041157
8216 -3031.544816408371
8217 -3031.620933508863
8218 -3031.627809865937
8219 -3031.69572262802
8220 -3031.697802376902
8221 -3031.76333101273
8222 -3031.765140277459
8223 -3031.829748728214
8224 -3031.8253883754
8225 -3031.883557982254
8226 -3031.88679685321
8227 -3031.940593150093
8228 -3031.946357154996
8229 -3032.00800773948
8230 -3031.996024358663
8231 -3032.045705520188
8232 -3032.036142698426
8233 -3032.094639892595
8234 -3032.076900432833
8235 -3032.140880900495
8236 -3032.134059337236
8237 -3032.197553777601
8238 -3032.175759390436
8239 -3032.24685611143
8240 -3032.233247683972
8241 -3032.28711698173
8242 -3032.261058809103
8243 -3032.334769221539
8244 -3032.317280105742
8245 -3032.382599511674
8246 -3032.362885085849
8247 -3032.427557524594
8248 -3032.41098871779
8249 -3032.47262942342
8250 -3032.457423212731
8251 -3032.519869644596
8252 -3032.519170810211
8253 -3032.578238765582
8254 -3032.569792901696
8255 -3032.624615805107
8256 -3032.626227170484
8257 -3032.680845918485
8258 -3032.690169946699
8259 -3032.759769944265
8260 -3032.757048531655
8261 -3032.827544721734
8262 -3032.838171480266
8263 -3032.900814672778
8264 -3032.898861439851
8265 -3032.980067913536
8266 -3032.985227751451
8267 -3033.065575861581
8268 -3033.061604950048
8269 -3033.138958093938
8270 -3033.137596480208
8271 -3033.217143047802
8272 -3033.21134789595
8273 -3033.291059330832
8274 -3033.272147238958
8275 -3033.350487735901
8276 -3033.330531188388
8277 -3033.407735530067
8278 -3033.394252824427
8279 -3033.461863153645
8280 -3033.455058593083
8281 -3033.517989045993
8282 -3033.51178911122
8283 -3033.58784686775
8284 -3033.56723935329
8285 -3033.638451374965
8286 -3033.625297790311
8287 -3033.685880616981
8288 -3033.67285065112
8289 -3033.734560021107
8290 -3033.724887574439
8291 -3033.76426953383
8292 -3033.760335752811
8293 -3033.810446107853
8294 -3033.802882279944
8295 -3033.863530094562
8296 -3033.851462910271
8297 -3033.898675184056
8298 -3033.878801226946
8299 -3033.933574619562
8300 -3033.925443030981
8301 -3033.972585710123
8302 -3033.961954241472
8303 -3034.025545955234
8304 -3034.025338444955
8305 -3034.080553233669
8306 -3034.06854361619
8307 -3034.144424986244
8308 -3034.13462416721
8309 -3034.206263028675
8310 -3034.186800099371
8311 -3034.254792468374
8312 -3034.244332869706
8313 -3034.314649519401
8314 -3034.302232205264
8315 -3034.374154524839
8316 -3034.367482085182
8317 -3034.437300962989
8318 -3034.419835797027
8319 -3034.490433658298
8320 -3034.47347857954
8321 -3034.546286756807
8322 -3034.533393755914
8323 -3034.602173725846
8324 -3034.584461980779
8325 -3034.658886611697
8326 -3034.642725929776
8327 -3034.71537645292
8328 -3034.698751659888
8329 -3034.766424241341
8330 -3034.744209067722
8331 -3034.805968535319
8332 -3034.781659916584
8333 -3034.842681047167
8334 -3034.818637902242
8335 -3034.882080603561
8336 -3034.858803734609
8337 -3034.916204267439
8338 -3034.895506085337
8339 -3034.959949237652
8340 -3034.930012274722
8341 -3034.992044298169
8342 -3034.953807945755
8343 -3035.02921910629
8344 -3034.994187645974
8345 -3035.068311136017
8346 -3035.039903532415
8347 -3035.111412035263
8348 -3035.09134822612
8349 -3035.159498035999
8350 -3035.125676695638
8351 -3035.192944892874
8352 -3035.170663500392
8353 -3035.248223315008
8354 -3035.217657842608
8355 -3035.291506588082
8356 -3035.256475039333
8357 -3035.322602747894
8358 -3035.294161199452
8359 -3035.359393019551
8360 -3035.340059185265
8361 -3035.395999329744
8362 -3035.364239063897
8363 -3035.417950439813
8364 -3035.394886183419
8365 -3035.447486685161
8366 -3035.427565044424
8367 -3035.488772838588
8368 -3035.478279255486
8369 -3035.535846666504
8370 -3035.530227269244
8371 -3035.57503886039
8372 -3035.562942999274
8373 -3035.631580324007
8374 -3035.626327581135
8375 -3035.684868412789
8376 -3035.677750723915
8377 -3035.737858909781
8378 -3035.732280647287
8379 -3035.783583838754
8380 -3035.763493516998
8381 -3035.824234223839
8382 -3035.818863139216
8383 -3035.881751800884
8384 -3035.867217124055
8385 -3035.935733405624
8386 -3035.909883999028
8387 -3035.969498866619
8388 -3035.938120631959
8389 -3035.997989822087
8390 -3035.982494588802
8391 -3036.04189991338
8392 -3036.020616072816
8393 -3036.087884814325
8394 -3036.06573815318
8395 -3036.115545864861
8396 -3036.081940959071
8397 -3036.142758116001
8398 -3036.123989118286
8399 -3036.182465419061
8400 -3036.162982005106
8401 -3036.211810280593
8402 -3036.199527884538
8403 -3036.251366316352
8404 -3036.246216569643
8405 -3036.295307166424
8406 -3036.285633146796
8407 -3036.331120395177
8408 -3036.317205781517
8409 -3036.361074022366
8410 -3036.341647940977
8411 -3036.395638337091
8412 -3036.385398494762
8413 -3036.432583858836
8414 -3036.413062730989
8415 -3036.471260248236
8416 -3036.45355870069
8417 -3036.516183205352
8418 -3036.488251049216
8419 -3036.547390179471
8420 -3036.513232193346
8421 -3036.579604266174
8422 -3036.548086634059
8423 -3036.628392890044
8424 -3036.588560104052
8425 -3036.660443192442
8426 -3036.627380037188
8427 -3036.70728187844
8428 -3036.66304784977
8429 -3036.73695060556
8430 -3036.689503512158
8431 -3036.762007222431
8432 -3036.710770711352
8433 -3036.783135180392
8434 -3036.750799496133
8435 -3036.816973835056
8436 -3036.784289919717
8437 -3036.840314868716
8438 -3036.7967374987
8439 -3036.845047914256
8440 -3036.810539808851
8441 -3036.868387771546
8442 -3036.835005382099
8443 -3036.880247864331
8444 -3036.849654454817
8445 -3036.903623253687
8446 -3036.882537676074
8447 -3036.936330098635
8448 -3036.916238185485
8449 -3036.963268618042
8450 -3036.931132969415
8451 -3036.985784711728
8452 -3036.954679825385
8453 -3037.01350601288
8454 -3036.988737693888
8455 -3037.046758288781
8456 -3037.026935579618
8457 -3037.071804747311
8458 -3037.05158854536
8459 -3037.107832519189
8460 -3037.089559966513
8461 -3037.128191271183
8462 -3037.093687994902
8463 -3037.148669964957
8464 -3037.118776433279
8465 -3037.173551158931
8466 -3037.15302103943
8467 -3037.200066021971
8468 -3037.189483906705
8469 -3037.240807101919
8470 -3037.216321399513
8471 -3037.277324347354
8472 -3037.260748676864
8473 -3037.314864427306
8474 -3037.292345301699
8475 -3037.349930761638
8476 -3037.325507561426
8477 -3037.377942768002
8478 -3037.348726603735
8479 -3037.400545257681
8480 -3037.374246908315
8481 -3037.424743757809
8482 -3037.383360441447
8483 -3037.442073590772
8484 -3037.40452472376
8485 -3037.460423254155
8486 -3037.414582397537
8487 -3037.472304005237
8488 -3037.436957722972
8489 -3037.499637445615
8490 -3037.470645192377
8491 -3037.529888465271
8492 -3037.479587995365
8493 -3037.54264298645
8494 -3037.499674307312
8495 -3037.559631003045
8496 -3037.524808951147
8497 -3037.569011783171
8498 -3037.541163668745
8499 -3037.58261744763
8500 -3037.548574371426
8501 -3037.599690608022
8502 -3037.564152590425
8503 -3037.610035364386
8504 -3037.584095834468
8505 -3037.634821418122
8506 -3037.594650382022
8507 -3037.646666368692
8508 -3037.618489432433
8509 -3037.661259928221
8510 -3037.634841731578
8511 -3037.698799941055
8512 -3037.679772936704
8513 -3037.736295874938
8514 -3037.714358030316
8515 -3037.764443829349
8516 -3037.747844752827
8517 -3037.802065905058
8518 -3037.776431670368
8519 -3037.840055294864
8520 -3037.836062048735
8521 -3037.896862541069
8522 -3037.866907107809
8523 -3037.936120758412
8524 -3037.904785599678
8525 -3037.983172396013
8526 -3037.950848047423
8527 -3038.019500191861
8528 -3037.987424589827
8529 -3038.05700594186
8530 -3038.022365401218
8531 -3038.096167588948
8532 -3038.059607900924
8533 -3038.12152660727
8534 -3038.089320600426
8535 -3038.157661121485
8536 -3038.11911151824
8537 -3038.183133549032
8538 -3038.147932818503
8539 -3038.199709844888
8540 -3038.16231284503
8541 -3038.213065213273
8542 -3038.176773414094
8543 -3038.224372987838
8544 -3038.190586969984
8545 -3038.244117226294
8546 -3038.209564987055
8547 -3038.256757200311
8548 -3038.21621787153
8549 -3038.259441184053
8550 -3038.217702365147
8551 -3038.260008067112
8552 -3038.222204329665
8553 -3038.267679723539
8554 -3038.23661118228
8555 -3038.27840643134
8556 -3038.241469385016
8557 -3038.279805056237
8558 -3038.24353872181
8559 -3038.282250068792
8560 -3038.237493872631
8561 -3038.281789087963
8562 -3038.242344848107
8563 -3038.282298248121
8564 -3038.237250221579
8565 -3038.282857377099
8566 -3038.24443218676
8567 -3038.286627084688
8568 -3038.259833111604
8569 -3038.300410939177
8570 -3038.267456234501
8571 -3038.304878072873
8572 -3038.277168475019
8573 -3038.320855427599
8574 -3038.290761251469
8575 -3038.329589510009
8576 -3038.313226420945
8577 -3038.355125004957
8578 -3038.332059097148
8579 -3038.386919676539
8580 -3038.364202449805
8581 -3038.417327658291
8582 -3038.396475389109
8583 -3038.448575125589
8584 -3038.426028871507
8585 -3038.48119405373
8586 -3038.459863387935
8587 -3038.519250271273
8588 -3038.493662809482
8589 -3038.555170989336
8590 -3038.533078152591
8591 -3038.598070223013
8592 -3038.564558156206
8593 -3038.627518300849
8594 -3038.586060828359
8595 -3038.655434875238
8596 -3038.615815174883
8597 -3038.68807889958
8598 -3038.64710503154
8599 -3038.712826762439
8600 -3038.672249150278
8601 -3038.744595024723
8602 -3038.70677609019
8603 -3038.760416379486
8604 -3038.726702016631
8605 -3038.77482418245
8606 -3038.73398844523
8607 -3038.78656182784
8608 -3038.762334365181
8609 -3038.811177231895
8610 -3038.783984996355
8611 -3038.820686415726
8612 -3038.791346902923
8613 -3038.832719560544
8614 -3038.806021844742
8615 -3038.843566591879
8616 -3038.813632757833
8617 -3038.834317706725
8618 -3038.813376194047
8619 -3038.852063694727
8620 -3038.830544053813
8621 -3038.865190043684
8622 -3038.837944364002
8623 -3038.873233189077
8624 -3038.852306586241
8625 -3038.893597389607
8626 -3038.855966985053
8627 -3038.899157676928
8628 -3038.858729590509
8629 -3038.912212435984
8630 -3038.862725609928
8631 -3038.927969282526
8632 -3038.882750098716
8633 -3038.955240399398
8634 -3038.905215718706
8635 -3038.977372649301
8636 -3038.924511203152
8637 -3038.980551547494
8638 -3038.930768066597
8639 -3038.995472607676
8640 -3038.952598949815
8641 -3039.020288198513
8642 -3038.984511767249
8643 -3039.043730370239
8644 -3038.999148858748
8645 -3039.065390872483
8646 -3039.029778790609
8647 -3039.078769632025
8648 -3039.043642455038
8649 -3039.091868461951
8650 -3039.055305784685
8651 -3039.101365301976
8652 -3039.060087492624
8653 -3039.110573818998
8654 -3039.077186595482
8655 -3039.120265857056
8656 -3039.08110271546
8657 -3039.133611182102
8658 -3039.107237296191
8659 -3039.139540646738
8660 -3039.101658804922
8661 -3039.150927524073
8662 -3039.104613109007
8663 -3039.150303123393
8664 -3039.120313205235
8665 -3039.16438914585
8666 -3039.116778558614
8667 -3039.154762821523
8668 -3039.112955613226
8669 -3039.168499710027
8670 -3039.117234210628
8671 -3039.161483909479
8672 -3039.116886598085
8673 -3039.168404310482
8674 -3039.13160201097
8675 -3039.203483777255
8676 -3039.164005023591
8677 -3039.210439911662
8678 -3039.170521804073
8679 -3039.22401869051
8680 -3039.186393595381
8681 -3039.238208140831
8682 -3039.210382205869
8683 -3039.265139921305
8684 -3039.230914936367
8685 -3039.283788492492
8686 -3039.250046250143
8687 -3039.297745709018
8688 -3039.271203946887
8689 -3039.31380710301
8690 -3039.285199343858
8691 -3039.343894444202
8692 -3039.315137657829
8693 -3039.365527098229
8694 -3039.323098760663
8695 -3039.37266959064
8696 -3039.341051073566
8697 -3039.39691659942
8698 -3039.362519386159
8699 -3039.409196980715
8700 -3039.362945217866
8701 -3039.415559391372
8702 -3039.376932849046
8703 -3039.433897393763
8704 -3039.386653497998
8705 -3039.446146627348
8706 -3039.3945970872
8707 -3039.444139899228
8708 -3039.401659233906
8709 -3039.454682013395
8710 -3039.420222534022
8711 -3039.470588300158
8712 -3039.439024524089
8713 -3039.489862403337
8714 -3039.451927787207
8715 -3039.501524400744
8716 -3039.464859558366
8717 -3039.517830114983
8718 -3039.493366858819
8719 -3039.536442386442
8720 -3039.515410618345
8721 -3039.555235845387
8722 -3039.529749740229
8723 -3039.56559632293
8724 -3039.550065630238
8725 -3039.584701541915
8726 -3039.56876924142
8727 -3039.605524732563
8728 -3039.592573156632
8729 -3039.630162452509
8730 -3039.607775897341
8731 -3039.638990431193
8732 -3039.629898463066
8733 -3039.662621442852
8734 -3039.641268239514
8735 -3039.685053983116
8736 -3039.658707158054
8737 -3039.714097707196
8738 -3039.678948809068
8739 -3039.747694206917
8740 -3039.705788824152
8741 -3039.778943328158
8742 -3039.734759475539
8743 -3039.806303866601
8744 -3039.767659056939
8745 -3039.841163389732
8746 -3039.800038271639
8747 -3039.873693480086
8748 -3039.832167782525
8749 -3039.894622782018
8750 -3039.850826938431
8751 -3039.901081073106
8752 -3039.8585717392
8753 -3039.916382395429
8754 -3039.871351860249
8755 -3039.905979629537
8756 -3039.861645705441
8757 -3039.91630451773
8758 -3039.869996824977
8759 -3039.89785152792
8760 -3039.846915287486
8761 -3039.887265017427
8762 -3039.839690620478
8763 -3039.883101752205
8764 -3039.833320387091
8765 -3039.866308903549
8766 -3039.820271050832
8767 -3039.852924061297
8768 -3039.810563204847
8769 -3039.852001700026
8770 -3039.807365600308
8771 -3039.842966096907
8772 -3039.797445504801
8773 -3039.823075011915
8774 -3039.773802563226
8775 -3039.805747221712
8776 -3039.756214951074
8777 -3039.790338997272
8778 -3039.743432390829
8779 -3039.781478069587
8780 -3039.721756299297
8781 -3039.753245258541
8782 -3039.700655836134
8783 -3039.740863602663
8784 -3039.694704159138
8785 -3039.735406940923
8786 -3039.6896744008
8787 -3039.734031531886
8788 -3039.698515127231
8789 -3039.736855634404
8790 -3039.692829178618
8791 -3039.73690483667
8792 -3039.690128187721
8793 -3039.747530733678
8794 -3039.702589670229
8795 -3039.755766400368
8796 -3039.703992573037
8797 -3039.756517280654
8798 -3039.719224107841
8799 -3039.779330418361
8800 -3039.739739818712
8801 -3039.8051648029
8802 -3039.765460363214
8803 -3039.819231178087
8804 -3039.78056228242
8805 -3039.8348005363
8806 -3039.789393927409
8807 -3039.84810228475
8808 -3039.798423753613
8809 -3039.857573509153
8810 -3039.803736549803
8811 -3039.861357403322
8812 -3039.813995455472
8813 -3039.877969077783
8814 -3039.820309158732
8815 -3039.8754826387
8816 -3039.811117516816
8817 -3039.869177032717
8818 -3039.802532062967
8819 -3039.850800565519
8820 -3039.807124911239
8821 -3039.85200307435
8822 -3039.799422864304
8823 -3039.841097926946
8824 -3039.787860942428
8825 -3039.829548805561
8826 -3039.784422566437
8827 -3039.822097337818
8828 -3039.782721445574
8829 -3039.816796390167
8830 -3039.78023198747
8831 -3039.815434477427
8832 -3039.784983230805
8833 -3039.822410821161
8834 -3039.785154405276
8835 -3039.824233466923
8836 -3039.786739669118
8837 -3039.825622867327
8838 -3039.790861024871
8839 -3039.818788592368
8840 -3039.796380669024
8841 -3039.832085859638
8842 -3039.798740807074
8843 -3039.850191319733
8844 -3039.82115406142
8845 -3039.857835762708
8846 -3039.821064251716
8847 -3039.871612666461
8848 -3039.839112158433
8849 -3039.900648310994
8850 -3039.858095333411
8851 -3039.91583632329
8852 -3039.885836310154
8853 -3039.945190878575
8854 -3039.901855711309
8855 -3039.970348304289
8856 -3039.923628083073
8857 -3039.989258721636
8858 -3039.93251426756
8859 -3039.987094882695
8860 -3039.937701685216
8861 -3039.988745308069
8862 -3039.947903100257
8863 -3039.99785910282
8864 -3039.951569483583
8865 -3040.005970518269
8866 -3039.957230377638
8867 -3040.00472468249
8868 -3039.956765329874
8869 -3040.004969721268
8870 -3039.95969389351
8871 -3040.002286064428
8872 -3039.964224933202
8873 -3040.00969842172
8874 -3039.968277330122
8875 -3040.012071227144
8876 -3039.963920065806
8877 -3040.003995444351
8878 -3039.957720207476
8879 -3039.994295009638
8880 -3039.947855676357
8881 -3039.991962811434
8882 -3039.948600642746
8883 -3039.99287914804
8884 -3039.944461083229
8885 -3039.985056305517
8886 -3039.936230859677
8887 -3039.977799073709
8888 -3039.930446478078
8889 -3039.979445396239
8890 -3039.921030719947
8891 -3039.962927550958
8892 -3039.920376688226
8893 -3039.965969905074
8894 -3039.907156225442
8895 -3039.954738778689
8896 -3039.897973200005
8897 -3039.956826528904
8898 -3039.904709623841
8899 -3039.957178297753
8900 -3039.916254758007
8901 -3039.967495744257
8902 -3039.921006568625
8903 -3039.971535174035
8904 -3039.934315724845
8905 -3039.987475608925
8906 -3039.956405059052
8907 -3040.00954946049
8908 -3039.979750760527
8909 -3040.035519045352
8910 -3039.996645446866
8911 -3040.043165134387
8912 -3040.010222658063
8913 -3040.057751459838
8914 -3040.023020622698
8915 -3040.064349935899
8916 -3040.023565866725
8917 -3040.073794312602
8918 -3040.025035547669
8919 -3040.069901997519
8920 -3040.026164829466
8921 -3040.084215417942
8922 -3040.047573597642
8923 -3040.090942699814
8924 -3040.044161678068
8925 -3040.094892480829
8926 -3040.047332596794
8927 -3040.08715124268
8928 -3040.037768060585
8929 -3040.077036411068
8930 -3040.042044919396
8931 -3040.083723695964
8932 -3040.036110632255
8933 -3040.082023217632
8934 -3040.047232727079
8935 -3040.066221281064
8936 -3040.016752103563
8937 -3040.068772385613
8938 -3040.021380042534
8939 -3040.063702763268
8940 -3040.026433615154
8941 -3040.062041818576
8942 -3040.023288018424
8943 -3040.067748950797
8944 -3040.017883088457
8945 -3040.06327295393
8946 -3040.012368361685
8947 -3040.059731900117
8948 -3040.006370185837
8949 -3040.053028368263
8950 -3039.994842945897
8951 -3040.043270497406
8952 -3040.00425486003
8953 -3040.064073560098
8954 -3040.018017194679
8955 -3040.078308129416
8956 -3040.022916430885
8957 -3040.083026017133
8958 -3040.026633347075
8959 -3040.089778925838
8960 -3040.038554961758
8961 -3040.101636829904
8962 -3040.047682807567
8963 -3040.103953800505
8964 -3040.050228707089
8965 -3040.109941947005
8966 -3040.067576286419
8967 -3040.131428444473
8968 -3040.07817630162
8969 -3040.139339300755
8970 -3040.087308556095
8971 -3040.142183509278
8972 -3040.101433513857
8973 -3040.155492518797
8974 -3040.117848816198
8975 -3040.159031440076
8976 -3040.129050310069
8977 -3040.166500811862
8978 -3040.131277457443
8979 -3040.164676375991
8980 -3040.139856002429
8981 -3040.179739974899
8982 -3040.159276247239
8983 -3040.186785702746
8984 -3040.165117917288
8985 -3040.189779617327
8986 -3040.168237358288
8987 -3040.202007292407
8988 -3040.182497890936
8989 -3040.21729069712
8990 -3040.189218049715
8991 -3040.236857189176
8992 -3040.19101832968
8993 -3040.239239452056
8994 -3040.18919637774
8995 -3040.233519220013
8996 -3040.190555488542
8997 -3040.241155672656
8998 -3040.18608907923
8999 -3040.22914452375
9000 -3040.185297859802
9001 -3040.226037733755
9002 -3040.166820772744
9003 -3040.22239971989
9004 -3040.164957126843
9005 -3040.215182751964
9006 -3040.145782497666
9007 -3040.188598917769
9008 -3040.143199062697
9009 -3040.186431950133
9010 -3040.132444162256
9011 -3040.182922915566
9012 -3040.136874011214
9013 -3040.174812739288
9014 -3040.117913376567
9015 -3040.165266984706
9016 -3040.115436212434
9017 -3040.155374699399
9018 -3040.109316828168
9019 -3040.149312032572
9020 -3040.097721426725
9021 -3040.162679628163
9022 -3040.10917772279
9023 -3040.154584010962
9024 -3040.094860283621
9025 -3040.154883251828
9026 -3040.104002071355
9027 -3040.160889689849
9028 -3040.104038018012
9029 -3040.151217006593
9030 -3040.094198667437
9031 -3040.137619273924
9032 -3040.089566297141
9033 -3040.135204135371
9034 -3040.078615063056
9035 -3040.124305211621
9036 -3040.070044552189
9037 -3040.119100351609
9038 -3040.072165818197
9039 -3040.11357842823
9040 -3040.067340778712
9041 -3040.108802957787
9042 -3040.062485684077
9043 -3040.101169504925
9044 -3040.059037887005
9045 -3040.093236448878
9046 -3040.054931805249
9047 -3040.096362702895
9048 -3040.054363410998
9049 -3040.092297518005
9050 -3040.049875713488
9051 -3040.079788314126
9052 -3040.047846949717
9053 -3040.085384434357
9054 -3040.062955300526
9055 -3040.095934938756
9056 -3040.065870777638
9057 -3040.09341876201
9058 -3040.068782577247
9059 -3040.10344647362
9060 -3040.073361935626
9061 -3040.093093121975
9062 -3040.059601453464
9063 -3040.106112189973
9064 -3040.063899294495
9065 -3040.121567587658
9066 -3040.074437238884
9067 -3040.134214122185
9068 -3040.097492367767
9069 -3040.165746586433
9070 -3040.120546001458
9071 -3040.184859199024
9072 -3040.13486412231
9073 -3040.204609199512
9074 -3040.154447975338
9075 -3040.220894742878
9076 -3040.171212397219
9077 -3040.245867034761
9078 -3040.210204000006
9079 -3040.263610736084
9080 -3040.222339888742
9081 -3040.275039602741
9082 -3040.221449861036
9083 -3040.272259707186
9084 -3040.215785930644
9085 -3040.259733388058
9086 -3040.210065351677
9087 -3040.249995256014
9088 -3040.201816885001
9089 -3040.244404860873
9090 -3040.199831536679
9091 -3040.229618981547
9092 -3040.170585053401
9093 -3040.217811798521
9094 -3040.167519980669
9095 -3040.203909968746
9096 -3040.165201618287
9097 -3040.204877688062
9098 -3040.169914985817
9099 -3040.212679085736
9100 -3040.165342555766
9101 -3040.208778841438
9102 -3040.153419175673
9103 -3040.189720945625
9104 -3040.131450723974
9105 -3040.173329368223
9106 -3040.121936294452
9107 -3040.155033307042
9108 -3040.113641559688
9109 -3040.152245162173
9110 -3040.110530248633
9111 -3040.14581741283
9112 -3040.091513281569
9113 -3040.133860621689
9114 -3040.082205262003
9115 -3040.126067387251
9116 -3040.079143377128
9117 -3040.13102506308
9118 -3040.084276717938
9119 -3040.133023253811
9120 -3040.101462336339
9121 -3040.142231153535
9122 -3040.089329975048
9123 -3040.148813704398
9124 -3040.106792121469
9125 -3040.162449123418
9126 -3040.124383543721
9127 -3040.173877560593
9128 -3040.135448676091
9129 -3040.193812272795
9130 -3040.168181611667
9131 -3040.218380820105
9132 -3040.176690478173
9133 -3040.226207926927
9134 -3040.192747587167
9135 -3040.24716327116
9136 -3040.207040527443
9137 -3040.260983974471
9138 -3040.221780021168
9139 -3040.261518739946
9140 -3040.216079390938
9141 -3040.263703272325
9142 -3040.224993527223
9143 -3040.261619075412
9144 -3040.212832527763
9145 -3040.246386921148
9146 -3040.204146028381
9147 -3040.248231845495
9148 -3040.194223921483
9149 -3040.233265782152
9150 -3040.189974480152
9151 -3040.210888320585
9152 -3040.181907503757
9153 -3040.213402832668
9154 -3040.171562768746
9155 -3040.207092731297
9156 -3040.173501480513
9157 -3040.20444822116
9158 -3040.161383294264
9159 -3040.198583547074
9160 -3040.160265506217
9161 -3040.196640587741
9162 -3040.160832226508
9163 -3040.192811742448
9164 -3040.165673339328
9165 -3040.202738812558
9166 -3040.154039631464
9167 -3040.198508242116
9168 -3040.153081922186
9169 -3040.198574989089
9170 -3040.150232945561
9171 -3040.211765508722
9172 -3040.161517666726
9173 -3040.221710256692
9174 -3040.173581350633
9175 -3040.227884307303
9176 -3040.181312904415
9177 -3040.247174826743
9178 -3040.199273329502
9179 -3040.260016112846
9180 -3040.205406322674
9181 -3040.264839053174
9182 -3040.215927758949
9183 -3040.263310922795
9184 -3040.222278393006
9185 -3040.276471394587
9186 -3040.23725346795
9187 -3040.291124764629
9188 -3040.252335582988
9189 -3040.298602944948
9190 -3040.256771304825
9191 -3040.297052978682
9192 -3040.253624474597
9193 -3040.300925993205
9194 -3040.266208437776
9195 -3040.307401819382
9196 -3040.264390943554
9197 -3040.300739759793
9198 -3040.255896176961
9199 -3040.287249869054
9200 -3040.234735520582
9201 -3040.285623242559
9202 -3040.230317744138
9203 -3040.274428796753
9204 -3040.214241393633
9205 -3040.273662028586
9206 -3040.214345616053
9207 -3040.26192370595
9208 -3040.19941743911
9209 -3040.248844820463
9210 -3040.183554947587
9211 -3040.233638301198
9212 -3040.173591255902
9213 -3040.238029361757
9214 -3040.170719572654
9215 -3040.220455358008
9216 -3040.171110112645
9217 -3040.207404653078
9218 -3040.16588173405
9219 -3040.205356891047
9220 -3040.161296852707
9221 -3040.204268316699
9222 -3040.160715998886
9223 -3040.187451056221
9224 -3040.151913232393
9225 -3040.195739934875
9226 -3040.156078930423
9227 -3040.193189793579
9228 -3040.156767776879
9229 -3040.187047048287
9230 -3040.142939516453
9231 -3040.18687120752
9232 -3040.143321952517
9233 -3040.190600211111
9234 -3040.15731036787
9235 -3040.19439449504
9236 -3040.158612581105
9237 -3040.212771041283
9238 -3040.176358807397
9239 -3040.220950282455
9240 -3040.178691668422
9241 -3040.223658765904
9242 -3040.1930792383
9243 -3040.235246020008
9244 -3040.203410873549
9245 -3040.252635017001
9246 -3040.197789174468
9247 -3040.230483981676
9248 -3040.183984809699
9249 -3040.226308539422
9250 -3040.176204264048
9251 -3040.21217320757
9252 -3040.17282569033
9253 -3040.209901386718
9254 -3040.166589280028
9255 -3040.203839695874
9256 -3040.152554649407
9257 -3040.200771312083
9258 -3040.153843028158
9259 -3040.18886891668
9260 -3040.141979308949
9261 -3040.18158012663
9262 -3040.133778919419
9263 -3040.172610247131
9264 -3040.131708985414
9265 -3040.170269095301
9266 -3040.12126048587
9267 -3040.168359068354
9268 -3040.12697687478
9269 -3040.169032990527
9270 -3040.125002251969
9271 -3040.161542758972
9272 -3040.122065115441
9273 -3040.16632019143
9274 -3040.118075771817
9275 -3040.164205921735
9276 -3040.131339636065
9277 -3040.175584486406
9278 -3040.128604779296
9279 -3040.182635654681
9280 -3040.128978683355
9281 -3040.186481012471
9282 -3040.148807687709
9283 -3040.191905547594
9284 -3040.165338401201
9285 -3040.216857035481
9286 -3040.176406573403
9287 -3040.223871761921
9288 -3040.186629256271
9289 -3040.240447593115
9290 -3040.206104669201
9291 -3040.249395059545
9292 -3040.209224842025
9293 -3040.25820980847
9294 -3040.231068906987
9295 -3040.269635005279
9296 -3040.236826055868
9297 -3040.285456123113
9298 -3040.257524330675
9299 -3040.287972397056
9300 -3040.254051807457
9301 -3040.30271842512
9302 -3040.271452262545
9303 -3040.299791279412
9304 -3040.274151224328
9305 -3040.316117615716
9306 -3040.281628307812
9307 -3040.322266264719
9308 -3040.280227265279
9309 -3040.331918183536
9310 -3040.275658924181
9311 -3040.32948444895
9312 -3040.279603300266
9313 -3040.332110853186
9314 -3040.271862303035
9315 -3040.315490827982
9316 -3040.25540914505
9317 -3040.29768041592
9318 -3040.234563062928
9319 -3040.282501972575
9320 -3040.229376891323
9321 -3040.276661500699
9322 -3040.220064317952
9323 -3040.281550190033
9324 -3040.220693237699
9325 -3040.274009906071
9326 -3040.215687110131
9327 -3040.263405079198
9328 -3040.207142321437
9329 -3040.261956183865
9330 -3040.202247966773
9331 -3040.243345274154
9332 -3040.196304034449
9333 -3040.247811187307
9334 -3040.202265166164
9335 -3040.24374107424
9336 -3040.203745939835
9337 -3040.239085385324
9338 -3040.195202129451
9339 -3040.239634401805
9340 -3040.192108764828
9341 -3040.234826393167
9342 -3040.191735323333
9343 -3040.234129393066
9344 -3040.197228548278
9345 -3040.245682708098
9346 -3040.215267474994
9347 -3040.25765601474
9348 -3040.213799336185
9349 -3040.258064261741
9350 -3040.214979536306
9351 -3040.262221283675
9352 -3040.222414130355
9353 -3040.278178791612
9354 -3040.231379137774
9355 -3040.278620453623
9356 -3040.229394798912
9357 -3040.276659714628
9358 -3040.235630567427
9359 -3040.271855976973
9360 -3040.229217792714
9361 -3040.277300912993
9362 -3040.241197128316
9363 -3040.284548520085
9364 -3040.236724776578
9365 -3040.269410477305
9366 -3040.226870346513
9367 -3040.263197952491
9368 -3040.218232831147
9369 -3040.251765697964
9370 -3040.205225737794
9371 -3040.24337801676
9372 -3040.202455424783
9373 -3040.243785964961
9374 -3040.203249265428
9375 -3040.249865259595
9376 -3040.213170815582
9377 -3040.247713809201
9378 -3040.193953126851
9379 -3040.237186686138
9380 -3040.187533970146
9381 -3040.234431741745
9382 -3040.196500121306
9383 -3040.23791037016
9384 -3040.196892177589
9385 -3040.237355050376
9386 -3040.19667530529
9387 -3040.246839319505
9388 -3040.192345437325
9389 -3040.252705386917
9390 -3040.189169287154
9391 -3040.250360138685
9392 -3040.191298479562
9393 -3040.265829231738
9394 -3040.204198609357
9395 -3040.269681018307
9396 -3040.206954093888
9397 -3040.26956606912
9398 -3040.215117329057
9399 -3040.278611406689
9400 -3040.221463492062
9401 -3040.281716462962
9402 -3040.242579870419
9403 -3040.288548287519
9404 -3040.253433576803
9405 -3040.300903489795
9406 -3040.265472636716
9407 -3040.301445473567
9408 -3040.266385325795
9409 -3040.305257101121
9410 -3040.263694666607
9411 -3040.305647128803
9412 -3040.2588533525
9413 -3040.304579364309
9414 -3040.25734858121
9415 -3040.296245195119
9416 -3040.248303663351
9417 -3040.291741454002
9418 -3040.238425612725
9419 -3040.282017084613
9420 -3040.238547606073
9421 -3040.278721707184
9422 -3040.228453712925
9423 -3040.270065932612
9424 -3040.226697238157
9425 -3040.261551046981
9426 -3040.21702722821
9427 -3040.256475415659
9428 -3040.211737393228
9429 -3040.249756491727
9430 -3040.205695172798
9431 -3040.236627447045
9432 -3040.19500543345
9433 -3040.234702143076
9434 -3040.19207308742
9435 -3040.223121428467
9436 -3040.185330896275
9437 -3040.22426490608
9438 -3040.189285817889
9439 -3040.229544212855
9440 -3040.197635047688
9441 -3040.239934867268
9442 -3040.211980315629
9443 -3040.260699887385
9444 -3040.223919868759
9445 -3040.267070021418
9446 -3040.231611781107
9447 -3040.273269102491
9448 -3040.237959329318
9449 -3040.287238683652
9450 -3040.258104838522
9451 -3040.298760416442
9452 -3040.265103534685
9453 -3040.309610655368
9454 -3040.282476672199
9455 -3040.322722759968
9456 -3040.279218466235
9457 -3040.329633831534
9458 -3040.284110687546
9459 -3040.331705782342
9460 -3040.283645282806
9461 -3040.343580992513
9462 -3040.299422054834
9463 -3040.354767211199
9464 -3040.302450863263
9465 -3040.353469825005
9466 -3040.307637342903
9467 -3040.361987335658
9468 -3040.305026702415
9469 -3040.35265109735
9470 -3040.305313434264
9471 -3040.342420899153
9472 -3040.291039018295
9473 -3040.333415541568
9474 -3040.298684358415
9475 -3040.320457327205
9476 -3040.273618341414
9477 -3040.30085712989
9478 -3040.246670429264
9479 -3040.281369249788
9480 -3040.244474450232
9481 -3040.266999506655
9482 -3040.223975204857
9483 -3040.254017714215
9484 -3040.208599636082
9485 -3040.234913444933
9486 -3040.190185533258
9487 -3040.22468704782
9488 -3040.179649828532
9489 -3040.224288577291
9490 -3040.173301225009
9491 -3040.214547163308
9492 -3040.172728434451
9493 -3040.212627926373
9494 -3040.171877331598
9495 -3040.219061551042
9496 -3040.172077435785
9497 -3040.197708202106
9498 -3040.154285587359
9499 -3040.195243289659
9500 -3040.145272306995
9501 -3040.205455831372
9502 -3040.174395137449
9503 -3040.22732556174
9504 -3040.184301014096
9505 -3040.242979970375
9506 -3040.206939837837
9507 -3040.251269635871
9508 -3040.22378402531
9509 -3040.275843390702
9510 -3040.254678081579
9511 -3040.296930173575
9512 -3040.268309326319
9513 -3040.316436475221
9514 -3040.298123497173
9515 -3040.336026424983
9516 -3040.310551372015
9517 -3040.355434963642
9518 -3040.326278723919
9519 -3040.361282561275
9520 -3040.323358994323
9521 -3040.360596659665
9522 -3040.324225982804
9523 -3040.369439074585
9524 -3040.337398100532
9525 -3040.379985210881
9526 -3040.33282514833
9527 -3040.375957883734
9528 -3040.330010166688
9529 -3040.385831276323
9530 -3040.326165875029
9531 -3040.385422052312
9532 -3040.327847352238
9533 -3040.382192388277
9534 -3040.320874166291
9535 -3040.369268922086
9536 -3040.299439876099
9537 -3040.351730067671
9538 -3040.28280706274
9539 -3040.340242795842
9540 -3040.280958435798
9541 -3040.329412823034
9542 -3040.269776861581
9543 -3040.317247451334
9544 -3040.259967920154
9545 -3040.30348533623
9546 -3040.24950520884
9547 -3040.295545567612
9548 -3040.248836972156
9549 -3040.294839816085
9550 -3040.23933678024
9551 -3040.281735079896
9552 -3040.238969457333
9553 -3040.280989143936
9554 -3040.238236678907
9555 -3040.280236137826
9556 -3040.239411310738
9557 -3040.289508429872
9558 -3040.250447930814
9559 -3040.283281306668
9560 -3040.248042465564
9561 -3040.28913335512
9562 -3040.256538044504
9563 -3040.298479915935
9564 -3040.262741482889
9565 -3040.307172389189
9566 -3040.269018711575
9567 -3040.318476439848
9568 -3040.277688695598
9569 -3040.321927785721
9570 -3040.292169259545
9571 -3040.322612519145
9572 -3040.279520510739
9573 -3040.322823699063
9574 -3040.277244267399
9575 -3040.308457922633
9576 -3040.25464327697
9577 -3040.298510048032
9578 -3040.244330237187
9579 -3040.285317213883
9580 -3040.246803044038
9581 -3040.28572142964
9582 -3040.238551193645
9583 -3040.281378739899
9584 -3040.233560203073
9585 -3040.272906380411
9586 -3040.222687831925
9587 -3040.28037196844
9588 -3040.230437582887
9589 -3040.278950546026
9590 -3040.232368250083
9591 -3040.275536937004
9592 -3040.244944130409
9593 -3040.28114828317
9594 -3040.247543807173
9595 -3040.291418216891
9596 -3040.246780523285
9597 -3040.286571543328
9598 -3040.235580953751
9599 -3040.26788958826
9600 -3040.219285317051
9601 -3040.268170516142
9602 -3040.220789193452
9603 -3040.267622994054
9604 -3040.223673904269
9605 -3040.273394854227
9606 -3040.2210307834
9607 -3040.275509522046
9608 -3040.224633029376
9609 -3040.270424869973
9610 -3040.223221924357
9611 -3040.273927103171
9612 -3040.221230887463
9613 -3040.264023667183
9614 -3040.221301031425
9615 -3040.273267216628
9616 -3040.234879751841
9617 -3040.282839413357
9618 -3040.237470850765
9619 -3040.275257399466
9620 -3040.228637562532
9621 -3040.273918570703
9622 -3040.230483584506
9623 -3040.275306695486
9624 -3040.234964580237
9625 -3040.270923626418
9626 -3040.237579576621
9627 -3040.278554961068
9628 -3040.233698629183
9629 -3040.284959556191
9630 -3040.24100782718
9631 -3040.288700198189
9632 -3040.249991956046
9633 -3040.297469851136
9634 -3040.257556206165
9635 -3040.29603039863
9636 -3040.270781383258
9637 -3040.312610823662
9638 -3040.25939304442
9639 -3040.305647395493
9640 -3040.259610388948
9641 -3040.310756616275
9642 -3040.2587697743
9643 -3040.302760282751
9644 -3040.257413461
9645 -3040.31349674633
9646 -3040.264174413615
9647 -3040.32807664514
9648 -3040.288889475527
9649 -3040.347308916094
9650 -3040.288232942225
9651 -3040.342956094262
9652 -3040.289351909068
9653 -3040.337007222315
9654 -3040.282045208402
9655 -3040.333318847671
9656 -3040.276419261797
9657 -3040.315085415349
9658 -3040.262017980374
9659 -3040.29795530206
9660 -3040.250377084807
9661 -3040.293587233641
9662 -3040.244909823149
9663 -3040.271300646792
9664 -3040.23701304626
9665 -3040.280387244353
9666 -3040.250327787812
9667 -3040.282433374755
9668 -3040.245334990854
9669 -3040.293665760492
9670 -3040.262745192975
9671 -3040.301275393224
9672 -3040.263692312054
9673 -3040.303514594543
9674 -3040.26417954165
9675 -3040.309037432242
9676 -3040.260655065259
9677 -3040.311943046254
9678 -3040.274481970333
9679 -3040.308374392021
9680 -3040.260444993553
9681 -3040.303598853697
9682 -3040.258232966489
9683 -3040.299681546986
9684 -3040.246838013915
9685 -3040.293098803181
9686 -3040.247099471795
9687 -3040.288215522081
9688 -3040.237956320173
9689 -3040.265588593777
9690 -3040.234052958454
9691 -3040.267516602712
9692 -3040.230493993968
9693 -3040.271147770541
9694 -3040.23134728481
9695 -3040.273669992903
9696 -3040.232663325524
9697 -3040.274331169588
9698 -3040.231843535043
9699 -3040.275713766961
9700 -3040.22478001411
9701 -3040.266081245527
9702 -3040.21893407855
9703 -3040.257251149437
9704 -3040.215001680691
9705 -3040.260031481584
9706 -3040.207720773327
9707 -3040.246130327979
9708 -3040.198262702596
9709 -3040.236443798694
9710 -3040.194317917652
9711 -3040.224211547865
9712 -3040.185651352464
9713 -3040.23028649354
9714 -3040.186433471637
9715 -3040.231791508171
9716 -3040.177378772863
9717 -3040.233360977872
9718 -3040.182500290498
9719 -3040.236713826754
9720 -3040.184179917303
9721 -3040.245274977623
9722 -3040.196726636166
9723 -3040.245708660506
9724 -3040.194589148252
9725 -3040.250364441255
9726 -3040.199316269636
9727 -3040.249852681789
9728 -3040.201847340733
9729 -3040.268498813846
9730 -3040.231524304212
9731 -3040.289379000149
9732 -3040.248324041954
9733 -3040.306676639983
9734 -3040.272111190475
9735 -3040.324222293374
9736 -3040.292451284731
9737 -3040.349615589682
9738 -3040.32884874015
9739 -3040.362427578338
9740 -3040.334802248905
9741 -3040.382567860589
9742 -3040.356116063237
9743 -3040.390701283949
9744 -3040.361601911047
9745 -3040.396711187254
9746 -3040.353062938215
9747 -3040.394927846402
9748 -3040.344226078271
9749 -3040.383313008865
9750 -3040.326270458942
9751 -3040.362610614206
9752 -3040.315446972505
9753 -3040.357822584278
9754 -3040.303791398243
9755 -3040.349523253009
9756 -3040.295274874932
9757 -3040.341484283004
9758 -3040.298755090045
9759 -3040.351156159477
9760 -3040.307343212854
9761 -3040.352190184321
9762 -3040.310238034512
9763 -3040.346455466949
9764 -3040.314769730971
9765 -3040.360997142265
9766 -3040.316122752104
9767 -3040.348631627367
9768 -3040.302954436789
9769 -3040.336930102691
9770 -3040.295736931974
9771 -3040.323035861663
9772 -3040.278745119333
9773 -3040.307162462678
9774 -3040.271943692956
9775 -3040.303816194569
9776 -3040.266288004649
9777 -3040.316252678247
9778 -3040.273008833142
9779 -3040.318451992209
9780 -3040.264675142078
9781 -3040.316623161732
9782 -3040.266958630943
9783 -3040.312486883849
9784 -3040.257263128254
9785 -3040.316552413946
9786 -3040.268973094207
9787 -3040.312993615386
9788 -3040.266383728442
9789 -3040.308963812188
9790 -3040.252520492419
9791 -3040.305897443358
9792 -3040.252087744715
9793 -3040.310802355679
9794 -3040.265684827702
9795 -3040.312709390485
9796 -3040.259127750825
9797 -3040.295711546636
9798 -3040.250021457204
9799 -3040.288150203746
9800 -3040.251705457622
9801 -3040.28937991571
9802 -3040.252702970078
9803 -3040.294614894588
9804 -3040.250175839911
9805 -3040.283825553486
9806 -3040.242884614144
9807 -3040.295507267897
9808 -3040.254357981263
9809 -3040.298977468124
9810 -3040.257054153949
9811 -3040.283459533677
9812 -3040.245052564557
9813 -3040.28189948455
9814 -3040.236257751681
9815 -3040.279354847639
9816 -3040.233632380588
9817 -3040.270760230369
9818 -3040.226795751436
9819 -3040.276330678241
9820 -3040.226410755165
9821 -3040.270251285761
9822 -3040.227336863251
9823 -3040.272449071275
9824 -3040.219403411694
9825 -3040.279574599462
9826 -3040.232446496747
9827 -3040.277946594996
9828 -3040.225436292624
9829 -3040.278964337765
9830 -3040.232499608305
9831 -3040.282573157734
9832 -3040.242389146985
9833 -3040.291954520043
9834 -3040.250011331832
9835 -3040.293646014254
9836 -3040.244438878322
9837 -3040.298945766483
9838 -3040.250711897058
9839 -3040.302893405673
9840 -3040.258196163445
9841 -3040.308389095677
9842 -3040.265882681553
9843 -3040.306739308781
9844 -3040.254897614088
9845 -3040.303607865718
9846 -3040.261451077328
9847 -3040.31492175184
9848 -3040.267770372367
9849 -3040.309959431246
9850 -3040.261278110785
9851 -3040.299635545848
9852 -3040.244326321858
9853 -3040.29022913705
9854 -3040.236118217219
9855 -3040.274762665754
9856 -3040.230195214549
9857 -3040.27963195113
9858 -3040.231817717482
9859 -3040.283146844873
9860 -3040.240417110069
9861 -3040.277324979048
9862 -3040.226909005943
9863 -3040.278819676233
9864 -3040.22846440345
9865 -3040.26785521511
9866 -3040.225044210845
9867 -3040.262603792194
9868 -3040.231248395219
9869 -3040.260858623401
9870 -3040.229155430999
9871 -3040.252851124097
9872 -3040.221410013158
9873 -3040.249291328551
9874 -3040.208792451494
9875 -3040.248028010843
9876 -3040.212507981517
9877 -3040.247510072728
9878 -3040.215715383266
9879 -3040.258073760469
9880 -3040.23092774961
9881 -3040.273021999885
9882 -3040.233803291305
9883 -3040.272438003155
9884 -3040.228381327403
9885 -3040.277988462186
9886 -3040.235312175933
9887 -3040.284028444235
9888 -3040.243114578717
9889 -3040.292813917031
9890 -3040.259741171417
9891 -3040.30984182202
9892 -3040.269797033562
9893 -3040.312986160364
9894 -3040.27336658826
9895 -3040.322598657373
9896 -3040.284949520017
9897 -3040.334380908626
9898 -3040.302640670286
9899 -3040.339146714477
9900 -3040.312676210138
9901 -3040.347997189916
9902 -3040.315187630504
9903 -3040.361681267232
9904 -3040.324922874306
9905 -3040.365268094343
9906 -3040.333269592717
9907 -3040.372080116927
9908 -3040.332949269629
9909 -3040.374107555668
9910 -3040.330749807306
9911 -3040.374442370834
9912 -3040.330438500724
9913 -3040.381495235028
9914 -3040.337419697962
9915 -3040.378947264695
9916 -3040.324896497785
9917 -3040.363775688715
9918 -3040.308563633031
9919 -3040.355776959963
9920 -3040.30868701897
9921 -3040.348315960138
9922 -3040.294974155669
9923 -3040.347471976362
9924 -3040.282202107965
9925 -3040.332661553032
9926 -3040.267550611353
9927 -3040.313591018657
9928 -3040.243853904349
9929 -3040.303873679375
9930 -3040.243935772718
9931 -3040.290387078833
9932 -3040.213874347314
9933 -3040.264465282825
9934 -3040.199034851185
9935 -3040.252238799741
9936 -3040.196292778154
9937 -3040.242717046821
9938 -3040.193260052158
9939 -3040.232868033678
9940 -3040.189976442889
9941 -3040.230814492883
9942 -3040.195598270574
9943 -3040.23330788932
9944 -3040.200932683855
9945 -3040.245237637827
9946 -3040.219547516186
9947 -3040.2495531822
9948 -3040.218590875538
9949 -3040.244472744472
9950 -3040.218822040745
9951 -3040.255213220105
9952 -3040.216938224138
9953 -3040.259224069532
9954 -3040.218728503459
9955 -3040.25169986914
9956 -3040.209673656477
9957 -3040.259491634968
9958 -3040.216337688948
9959 -3040.274291030548
9960 -3040.223288266911
9961 -3040.264248507422
9962 -3040.203739786011
9963 -3040.257940714774
9964 -3040.206123393868
9965 -3040.259300632109
9966 -3040.211151667689
9967 -3040.259188721236
9968 -3040.217066310315
9969 -3040.272120893487
9970 -3040.21744962907
9971 -3040.273190390477
9972 -3040.214715228587
9973 -3040.276447455825
9974 -3040.226870052564
9975 -3040.284752630577
9976 -3040.236077385356
9977 -3040.293945950501
9978 -3040.254351202715
9979 -3040.295145052332
9980 -3040.249816968043
9981 -3040.3050547347
9982 -3040.255739395117
9983 -3040.300196676284
9984 -3040.251466036441
9985 -3040.302091434672
9986 -3040.26343513438
9987 -3040.309335149328
9988 -3040.277484474668
9989 -3040.316164362026
9990 -3040.284460637173
9991 -3040.32578005835
9992 -3040.281164989746
9993 -3040.336893530452
9994 -3040.299500444733
9995 -3040.344291898989
9996 -3040.297451742904
9997 -3040.344093370655
9998 -3040.304162995888
9999 -3040.351780642716
10000 -3040.305852017035
10001 -3040.36099578914
10002 -3040.315333660704
10003 -3040.356171165447
10004 -3040.306009384131
10005 -3040.354681001811
10006 -3040.302711643289
10007 -3040.338590117075
10008 -3040.286525863102
10009 -3040.326689848128
10010 -3040.288357211803
10011 -3040.325741929429
10012 -3040.28139417048
10013 -3040.317770973804
10014 -3040.279727181861
10015 -3040.312959538712
10016 -3040.275117501023
10017 -3040.311743903553
10018 -3040.261649368557
10019 -3040.297530057001
10020 -3040.25644501623
10021 -3040.281498662147
10022 -3040.241572524631
10023 -3040.281370412578
10024 -3040.238870337369
10025 -3040.27155152712
10026 -3040.231274852756
10027 -3040.270995284146
10028 -3040.231250212492
10029 -3040.274480432159
10030 -3040.233009421606
10031 -3040.278797168415
10032 -3040.238949551772
10033 -3040.284585267459
10034 -3040.239306997691
10035 -3040.28657607592
10036 -3040.230132951669
10037 -3040.282104474062
10038 -3040.236323340697
10039 -3040.289196316456
10040 -3040.234558316824
10041 -3040.293636413443
10042 -3040.239507618419
10043 -3040.282775565245
10044 -3040.23362309547
10045 -3040.283583808212
10046 -3040.236941026337
10047 -3040.290604738132
10048 -3040.238383908079
10049 -3040.279302803833
10050 -3040.236097369916
10051 -3040.27295971479
10052 -3040.224781244769
10053 -3040.266985817075
10054 -3040.222799056507
10055 -3040.270093101195
10056 -3040.235328324547
10057 -3040.276676925099
10058 -3040.22848173886
10059 -3040.269431287795
10060 -3040.221342824101
10061 -3040.262589706186
10062 -3040.21985084065
10063 -3040.267298229631
10064 -3040.220829038459
10065 -3040.265014755164
10066 -3040.215311185674
10067 -3040.256351904985
10068 -3040.204183140825
10069 -3040.246566032971
10070 -3040.188032463387
10071 -3040.229515046042
10072 -3040.177633947015
10073 -3040.22288074471
10074 -3040.174448212977
10075 -3040.2141437597
10076 -3040.181084652455
10077 -3040.225010222954
10078 -3040.1807818761
10079 -3040.21215900547
10080 -3040.173844570962
10081 -3040.211074626335
10082 -3040.171851664953
10083 -3040.213131949187
10084 -3040.184850024739
10085 -3040.219691418863
10086 -3040.188634380773
10087 -3040.223906873709
10088 -3040.193012919843
10089 -3040.231092063135
10090 -3040.194411044013
10091 -3040.224405889529
10092 -3040.19520576982
10093 -3040.244266326699
10094 -3040.21166915882
10095 -3040.255697215059
10096 -3040.224956052602
10097 -3040.277453434313
10098 -3040.247164518895
10099 -3040.291075928197
10100 -3040.25068468727
10101 -3040.305656159816
10102 -3040.257358196052
10103 -3040.310012089461
10104 -3040.268839445444
10105 -3040.330841166765
10106 -3040.29098541648
10107 -3040.348798343857
10108 -3040.306604901476
10109 -3040.360059131172
10110 -3040.309734924917
10111 -3040.357671062681
10112 -3040.317874307929
10113 -3040.367117365005
10114 -3040.319315746661
10115 -3040.364878171312
10116 -3040.327755739822
10117 -3040.363315826625
10118 -3040.309720789811
10119 -3040.348647949204
10120 -3040.300347073105
10121 -3040.338776820004
10122 -3040.288406000633
10123 -3040.324750002063
10124 -3040.285178222689
10125 -3040.315527819987
10126 -3040.261245799071
10127 -3040.294444790515
10128 -3040.247261316337
10129 -3040.281145062594
10130 -3040.24131391271
10131 -3040.280373370794
10132 -3040.238947044506
10133 -3040.270351038001
10134 -3040.229590864653
10135 -3040.267881475025
10136 -3040.221998951037
10137 -3040.268399239994
10138 -3040.211554240392
10139 -3040.256481969666
10140 -3040.201054401448
10141 -3040.238482893469
10142 -3040.177956254125
10143 -3040.224624734135
10144 -3040.172478881213
10145 -3040.207322269398
10146 -3040.167610656659
10147 -3040.203652866838
10148 -3040.148534272826
10149 -3040.201290801862
10150 -3040.14740929353
10151 -3040.192515218366
10152 -3040.143696555318
10153 -3040.197728674415
10154 -3040.141474303288
10155 -3040.193452492708
10156 -3040.149824731986
10157 -3040.189017516369
10158 -3040.154374005427
10159 -3040.193439867536
10160 -3040.151283241285
10161 -3040.191447882445
10162 -3040.151909833623
10163 -3040.191858922486
10164 -3040.156283804253
10165 -3040.209843683859
10166 -3040.170641337554
10167 -3040.219315512795
10168 -3040.188663655006
10169 -3040.238684795969
10170 -3040.199422357958
10171 -3040.252773564357
10172 -3040.209246278877
10173 -3040.267683646132
10174 -3040.220956087032
10175 -3040.272357964271
10176 -3040.230569789049
10177 -3040.281957401383
10178 -3040.234490745361
10179 -3040.284483095442
10180 -3040.232945977541
10181 -3040.285563046621
10182 -3040.234310912221
10183 -3040.278504626672
10184 -3040.226230372406
10185 -3040.266172545729
10186 -3040.214026756897
10187 -3040.258048201668
10188 -3040.211113138411
10189 -3040.257750765599
10190 -3040.201997368556
10191 -3040.241180901337
10192 -3040.200417707613
10193 -3040.240762179816
10194 -3040.193990142917
10195 -3040.236774165798
10196 -3040.2042210087
10197 -3040.240440599229
10198 -3040.205325255176
10199 -3040.244912892198
10200 -3040.209047385839
10201 -3040.249611420019
10202 -3040.21501587723
10203 -3040.255558134166
10204 -3040.223340253898
10205 -3040.262913572581
10206 -3040.233073468492
10207 -3040.257203290197
10208 -3040.216812041208
10209 -3040.255911027657
10210 -3040.225324256686
10211 -3040.266407501026
10212 -3040.235532144925
10213 -3040.271510106481
10214 -3040.242055020573
10215 -3040.279268954932
10216 -3040.244828427067
10217 -3040.285717781556
10218 -3040.26347152226
10219 -3040.305503418105
10220 -3040.268675531793
10221 -3040.313814108104
10222 -3040.27499793408
10223 -3040.313867968404
10224 -3040.285193939242
10225 -3040.330968114985
10226 -3040.285313409968
10227 -3040.332460586735
10228 -3040.302829134486
10229 -3040.341869683874
10230 -3040.30471644627
10231 -3040.346027418642
10232 -3040.297444356313
10233 -3040.345843095231
10234 -3040.303521036876
10235 -3040.348096347519
10236 -3040.301661884622
10237 -3040.342101497173
10238 -3040.284860997055
10239 -3040.324322344657
10240 -3040.271595466757
10241 -3040.307507494343
10242 -3040.25905772584
10243 -3040.298378350059
10244 -3040.246461951264
10245 -3040.27974993743
10246 -3040.214698614968
10247 -3040.261613441019
10248 -3040.204169584174
10249 -3040.253328766482
10250 -3040.200613765115
10251 -3040.244799927317
10252 -3040.198409312955
10253 -3040.248969757107
10254 -3040.197159508197
10255 -3040.240541317609
10256 -3040.199855442156
10257 -3040.233666436823
10258 -3040.195295616867
10259 -3040.2406511942
10260 -3040.182677399367
10261 -3040.225165638057
10262 -3040.177891966279
10263 -3040.223375387094
10264 -3040.173734523924
10265 -3040.22919118173
10266 -3040.187197466243
10267 -3040.228402104385
10268 -3040.181044345356
10269 -3040.223123817984
10270 -3040.179167817434
10271 -3040.219871726457
10272 -3040.179697171256
10273 -3040.226366163909
10274 -3040.194922922062
10275 -3040.229105774508
10276 -3040.198809105937
10277 -3040.244541918813
10278 -3040.218379355547
10279 -3040.256653198818
10280 -3040.217555273362
10281 -3040.262782486035
10282 -3040.225190569463
10283 -3040.273572996743
10284 -3040.240351366388
10285 -3040.281939039776
10286 -3040.24020212278
10287 -3040.297350518929
10288 -3040.253943711607
10289 -3040.2985177581
10290 -3040.247094169898
10291 -3040.292893119755
10292 -3040.250062992308
10293 -3040.295162707083
10294 -3040.245966787036
10295 -3040.292347223983
10296 -3040.246891855519
10297 -3040.290283809575
10298 -3040.252431145969
10299 -3040.297914706279
10300 -3040.248392822421
10301 -3040.280295749349
10302 -3040.240300561809
10303 -3040.278180531335
10304 -3040.231261436245
10305 -3040.271382034496
10306 -3040.218920534302
10307 -3040.2655246001
10308 -3040.210082333224
10309 -3040.261881707052
10310 -3040.207779266472
10311 -3040.25324512645
10312 -3040.201057171232
10313 -3040.262923933205
10314 -3040.217822496491
10315 -3040.27116424129
10316 -3040.214543108963
10317 -3040.279756790457
10318 -3040.223441297844
10319 -3040.288798070013
10320 -3040.23345750452
10321 -3040.299420531784
10322 -3040.265318061627
10323 -3040.32570531039
10324 -3040.273583568771
10325 -3040.331278714972
10326 -3040.285893406578
10327 -3040.341506270355
10328 -3040.300085909619
10329 -3040.364304619968
10330 -3040.319823469791
10331 -3040.372060641286
10332 -3040.327891419812
10333 -3040.387585035277
10334 -3040.347916037951
10335 -3040.402251362469
10336 -3040.355449105641
10337 -3040.395253582556
10338 -3040.344399411634
10339 -3040.379656770611
10340 -3040.338522813673
10341 -3040.36643655399
10342 -3040.328017185098
10343 -3040.354838957824
10344 -3040.32623763383
10345 -3040.347164107449
10346 -3040.306700146049
10347 -3040.333792241075
10348 -3040.28363453126
10349 -3040.321585139845
10350 -3040.268177046191
10351 -3040.29121052391
10352 -3040.249771716656
10353 -3040.287111576282
10354 -3040.230884750817
10355 -3040.264472128326
10356 -3040.218398931002
10357 -3040.243201036677
10358 -3040.201468751319
10359 -3040.23957017131
10360 -3040.184941022766
10361 -3040.224221655964
10362 -3040.190521714329
10363 -3040.220497562736
10364 -3040.18627721237
10365 -3040.224404416483
10366 -3040.185581908142
10367 -3040.219941684563
10368 -3040.163262854091
10369 -3040.207611453103
10370 -3040.160372675118
10371 -3040.198636130239
10372 -3040.165724015478
10373 -3040.206891321922
10374 -3040.179665932084
10375 -3040.205674863512
10376 -3040.177742828164
10377 -3040.226383733008
10378 -3040.189401179081
10379 -3040.238337737517
10380 -3040.19162985797
10381 -3040.250675017235
10382 -3040.205408043157
10383 -3040.257801246078
10384 -3040.211629137081
10385 -3040.264401259917
10386 -3040.226972435638
10387 -3040.270272898966
10388 -3040.224685495092
10389 -3040.268490287667
10390 -3040.221227175267
10391 -3040.273081918046
10392 -3040.220610963271
10393 -3040.269625567676
10394 -3040.222065235282
10395 -3040.265606385627
10396 -3040.215968072587
10397 -3040.260464535913
10398 -3040.207567047741
10399 -3040.255680494165
10400 -3040.202231073387
10401 -3040.249396277978
10402 -3040.188802780644
10403 -3040.250925918267
10404 -3040.197789991671
10405 -3040.242778007324
10406 -3040.196389802706
10407 -3040.242814032245
10408 -3040.196928843127
10409 -3040.243737692214
10410 -3040.197041188333
10411 -3040.231041656144
10412 -3040.189571913212
10413 -3040.229115148234
10414 -3040.191692521747
10415 -3040.224767849741
10416 -3040.186595444568
10417 -3040.226527047918
10418 -3040.192023500555
10419 -3040.231471002758
10420 -3040.203234775933
10421 -3040.244111529832
10422 -3040.213904380646
10423 -3040.255762723873
10424 -3040.226230890996
10425 -3040.285454171005
10426 -3040.250939364973
10427 -3040.309477900342
10428 -3040.265510491033
10429 -3040.314258159221
10430 -3040.274150658066
10431 -3040.316321743604
10432 -3040.272706186627
10433 -3040.323556195105
10434 -3040.291875462294
10435 -3040.340370628957
10436 -3040.289861476251
10437 -3040.335832518655
10438 -3040.291672784686
10439 -3040.33636004856
10440 -3040.293717157182
10441 -3040.334386174235
10442 -3040.291510780985
10443 -3040.336558785888
10444 -3040.28799413916
10445 -3040.330233795975
10446 -3040.277087426023
10447 -3040.323239543078
10448 -3040.274544870638
10449 -3040.314721178923
10450 -3040.264941801808
10451 -3040.306633439975
10452 -3040.268959910013
10453 -3040.300284200433
10454 -3040.251192317698
10455 -3040.286329527493
10456 -3040.236924951174
10457 -3040.288105846737
10458 -3040.238321739113
10459 -3040.286138754538
10460 -3040.24588286104
10461 -3040.286056994855
10462 -3040.234788146402
10463 -3040.277201006646
10464 -3040.227270665224
10465 -3040.26818274801
10466 -3040.2206804462
10467 -3040.270899153188
10468 -3040.225023641534
10469 -3040.266009415671
10470 -3040.218913069681
10471 -3040.257538433707
10472 -3040.2164880911
10473 -3040.273719210209
10474 -3040.230794609254
10475 -3040.277768110557
10476 -3040.229336514216
10477 -3040.291543978685
10478 -3040.244377919296
10479 -3040.286391638328
10480 -3040.243751166025
10481 -3040.298515544802
10482 -3040.265815646792
10483 -3040.306501634437
10484 -3040.267624220798
10485 -3040.307745491645
10486 -3040.266150271635
10487 -3040.302512008904
10488 -3040.265362032862
10489 -3040.314468285509
10490 -3040.276000123229
10491 -3040.313170165311
10492 -3040.280046148899
10493 -3040.317585604005
10494 -3040.279985579681
10495 -3040.318074682845
10496 -3040.272028162021
10497 -3040.312604401599
10498 -3040.261212749215
10499 -3040.310557589155
10500 -3040.256773334626
10501 -3040.308962247836
10502 -3040.240768841603
10503 -3040.287383347691
10504 -3040.232764180678
10505 -3040.278326927295
10506 -3040.224422319009
10507 -3040.271834669976
10508 -3040.217981714759
10509 -3040.272522798874
10510 -3040.204157736471
10511 -3040.252903351809
10512 -3040.194556072611
10513 -3040.235339255167
10514 -3040.185860498345
10515 -3040.221632741762
10516 -3040.181846581067
10517 -3040.224714423846
10518 -3040.178913884491
10519 -3040.218342062193
10520 -3040.169188769993
10521 -3040.217848761533
10522 -3040.18006992651
10523 -3040.225967560195
10524 -3040.182048032951
10525 -3040.230815016894
10526 -3040.194603623412
10527 -3040.243906996669
10528 -3040.20664729562
10529 -3040.264448022584
10530 -3040.229177883994
10531 -3040.26481360711
10532 -3040.225416719813
10533 -3040.279740667529
10534 -3040.232260436879
10535 -3040.281243770657
10536 -3040.236098074319
10537 -3040.285985393644
10538 -3040.240391821881
10539 -3040.290608234721
10540 -3040.258330208385
10541 -3040.309514365734
10542 -3040.284043222013
10543 -3040.317010618306
10544 -3040.273016646462
10545 -3040.315704273497
10546 -3040.283793685916
10547 -3040.327895573291
10548 -3040.293353930823
10549 -3040.320268553652
10550 -3040.284717638274
10551 -3040.320422809433
10552 -3040.297018277426
10553 -3040.330097190965
10554 -3040.306768417731
10555 -3040.334816283521
10556 -3040.299454712193
10557 -3040.331800117147
10558 -3040.285453080041
10559 -3040.317296453959
10560 -3040.283006713245
10561 -3040.313054575861
10562 -3040.266978197201
10563 -3040.306464828403
10564 -3040.260274192348
10565 -3040.298158124043
10566 -3040.24571285778
10567 -3040.297693193083
10568 -3040.242068440106
10569 -3040.297093891294
10570 -3040.241884571381
10571 -3040.285654500987
10572 -3040.230975606335
10573 -3040.277663068297
10574 -3040.217063983333
10575 -3040.261013836308
10576 -3040.20552001204
10577 -3040.246499536049
10578 -3040.196548230847
10579 -3040.245501843327
10580 -3040.206445602805
10581 -3040.243794392135
10582 -3040.201864201733
10583 -3040.246222738748
10584 -3040.207892922183
10585 -3040.257424291743
10586 -3040.219240131436
10587 -3040.249108235443
10588 -3040.212294070257
10589 -3040.262962169646
10590 -3040.230132696805
10591 -3040.250866335823
10592 -3040.218307095698
10593 -3040.254574697977
10594 -3040.222803381
10595 -3040.256060136808
10596 -3040.225330519568
10597 -3040.268234099447
10598 -3040.22003881881
10599 -3040.251677566689
10600 -3040.207722873227
10601 -3040.244909772086
10602 -3040.209899984372
10603 -3040.242269804488
10604 -3040.200045401117
10605 -3040.242644321252
10606 -3040.192073754898
10607 -3040.25013855378
10608 -3040.187218341043
10609 -3040.247662876526
10610 -3040.188863614337
10611 -3040.243696098381
10612 -3040.179475926569
10613 -3040.238620346987
10614 -3040.18561361413
10615 -3040.230104631974
10616 -3040.172409105354
10617 -3040.227898812802
10618 -3040.168840468404
10619 -3040.225829389376
10620 -3040.164697990822
10621 -3040.21312526716
10622 -3040.151557348464
10623 -3040.194917959468
10624 -3040.147330599751
10625 -3040.180601311634
10626 -3040.148277963741
10627 -3040.187856499253
10628 -3040.155509612033
10629 -3040.190882710019
10630 -3040.164841077092
10631 -3040.192903977687
10632 -3040.170566509659
10633 -3040.202467095743
10634 -3040.182570368516
10635 -3040.216415065706
10636 -3040.183791868842
10637 -3040.224940929176
10638 -3040.192102143991
10639 -3040.233417889997
10640 -3040.191249915186
10641 -3040.236792361893
10642 -3040.19634033844
10643 -3040.248949533355
10644 -3040.214687611614
10645 -3040.262654488309
10646 -3040.21580829402
10647 -3040.265575469785
10648 -3040.222432620529
10649 -3040.276382929847
10650 -3040.238684511461
10651 -3040.278422556021
10652 -3040.233543703478
10653 -3040.285061850013
10654 -3040.240425508439
10655 -3040.285954363924
10656 -3040.236949655835
10657 -3040.290337505883
10658 -3040.246099022353
10659 -3040.289538135584
10660 -3040.248351601581
10661 -3040.287898526878
10662 -3040.247292292973
10663 -3040.287934643152
10664 -3040.247872710541
10665 -3040.2810525373
10666 -3040.23592344077
10667 -3040.287410347005
10668 -3040.241300131659
10669 -3040.286019910607
10670 -3040.242003666923
10671 -3040.274699960937
10672 -3040.229515959267
10673 -3040.274857257536
10674 -3040.227458426918
10675 -3040.265613756311
10676 -3040.22123713358
10677 -3040.266896147735
10678 -3040.213923846247
10679 -3040.259501765841
10680 -3040.212351369298
10681 -3040.250039775287
10682 -3040.212258908109
10683 -3040.26053514349
10684 -3040.217021364015
10685 -3040.270317323431
10686 -3040.221309669105
10687 -3040.270403246966
10688 -3040.231034552128
10689 -3040.286453952779
10690 -3040.244427128358
10691 -3040.285652545285
10692 -3040.238351281544
10693 -3040.285008084356
10694 -3040.239396243982
10695 -3040.294758980898
10696 -3040.254532378478
10697 -3040.296104104953
10698 -3040.258100497323
10699 -3040.297558118824
10700 -3040.269258212589
10701 -3040.311871465907
10702 -3040.26979463055
10703 -3040.310349229423
10704 -3040.272412401383
10705 -3040.317762815077
10706 -3040.276962624362
10707 -3040.324706331232
10708 -3040.288041493929
10709 -3040.323751035827
10710 -3040.276131286713
10711 -3040.320052476898
10712 -3040.267845332285
10713 -3040.330824302136
10714 -3040.269626961178
10715 -3040.322793767052
10716 -3040.271543248888
10717 -3040.325692578642
10718 -3040.267618246942
10719 -3040.308994566983
10720 -3040.262893982492
10721 -3040.301046145114
10722 -3040.245992911717
10723 -3040.28182134955
10724 -3040.23076957594
10725 -3040.266299382716
10726 -3040.214466559168
10727 -3040.252625861403
10728 -3040.21928212958
10729 -3040.258611810203
10730 -3040.220716194968
10731 -3040.255009530732
10732 -3040.214316288786
10733 -3040.253457965608
10734 -3040.213233187621
10735 -3040.250710923295
10736 -3040.202818963955
10737 -3040.235618794646
10738 -3040.197807395749
10739 -3040.221140438236
10740 -3040.183915675416
10741 -3040.217994251039
10742 -3040.187363504923
10743 -3040.229775134238
10744 -3040.191879358574
10745 -3040.242809208061
10746 -3040.198454445038
10747 -3040.243787784754
10748 -3040.199646543957
10749 -3040.256687667168
10750 -3040.223828468459
10751 -3040.279318489542
10752 -3040.233330719897
10753 -3040.295657781322
10754 -3040.260559690951
10755 -3040.318885339448
10756 -3040.263940717258
10757 -3040.341266451825
10758 -3040.298096186667
10759 -3040.354883605242
10760 -3040.304114761766
10761 -3040.368174297261
10762 -3040.315113041099
10763 -3040.374941301427
10764 -3040.311968020622
10765 -3040.365653224992
10766 -3040.302196194802
10767 -3040.344094680316
10768 -3040.284564553423
10769 -3040.329062412088
10770 -3040.27702194023
10771 -3040.317789233332
10772 -3040.270076150769
10773 -3040.324549081901
10774 -3040.273094508617
10775 -3040.325130405245
10776 -3040.269429425073
10777 -3040.315160628051
10778 -3040.26354096246
10779 -3040.319549460997
10780 -3040.263402238092
10781 -3040.308355426718
10782 -3040.268433752983
10783 -3040.310674576062
10784 -3040.260698933209
10785 -3040.308476111386
10786 -3040.246472283539
10787 -3040.285990573654
10788 -3040.232760726521
10789 -3040.264792347408
10790 -3040.211820169864
10791 -3040.251636298964
10792 -3040.201336721042
10793 -3040.234472349803
10794 -3040.192781012194
10795 -3040.218652586294
10796 -3040.175635120686
10797 -3040.214414717938
10798 -3040.177618759278
10799 -3040.220395109598
10800 -3040.178117224424
10801 -3040.216384658469
10802 -3040.177940927445
10803 -3040.222270504321
10804 -3040.179020034685
10805 -3040.217648100134
10806 -3040.183767140595
10807 -3040.218802186713
10808 -3040.182761240373
10809 -3040.222074085255
10810 -3040.184263032038
10811 -3040.227445521893
10812 -3040.191943637596
10813 -3040.250193458216
10814 -3040.212592926172
10815 -3040.263020067783
10816 -3040.227226321403
10817 -3040.274554088399
10818 -3040.229953830404
10819 -3040.279249485534
10820 -3040.231552480819
10821 -3040.294252035684
10822 -3040.234376891415
10823 -3040.292329008888
10824 -3040.243429253082
10825 -3040.28768639199
10826 -3040.224998434677
10827 -3040.270414595372
10828 -3040.217140319504
10829 -3040.254765669069
10830 -3040.209010423745
10831 -3040.244743569172
10832 -3040.197212279294
10833 -3040.239747941819
10834 -3040.185982647886
10835 -3040.218307318493
10836 -3040.173968696122
10837 -3040.212539589276
10838 -3040.175400501158
10839 -3040.207752194351
10840 -3040.177048685916
10841 -3040.209838634556
10842 -3040.171701292346
10843 -3040.208393361508
10844 -3040.167064500303
10845 -3040.205072568926
10846 -3040.169620042911
10847 -3040.205515051122
10848 -3040.169928341366
10849 -3040.204988893135
10850 -3040.155869392423
10851 -3040.18702696346
10852 -3040.148852985683
10853 -3040.201950554683
10854 -3040.165115642333
10855 -3040.212419532329
10856 -3040.173474404899
10857 -3040.230963458856
10858 -3040.197781600297
10859 -3040.238266933842
10860 -3040.206353290609
10861 -3040.259047965797
10862 -3040.221066774781
10863 -3040.274644832877
10864 -3040.235363023337
10865 -3040.30116283455
10866 -3040.25835348039
10867 -3040.310499976204
10868 -3040.273642409763
10869 -3040.324024734206
10870 -3040.286417957616
10871 -3040.339194348114
10872 -3040.295039319772
10873 -3040.343953029148
10874 -3040.292820703546
10875 -3040.344257868971
10876 -3040.2933536403
10877 -3040.350444616317
10878 -3040.308540446696
10879 -3040.349555722649
10880 -3040.31003457931
10881 -3040.355959361376
10882 -3040.313348202514
10883 -3040.365200861374
10884 -3040.323921891528
10885 -3040.372744598718
10886 -3040.326161596057
10887 -3040.365762957395
10888 -3040.329485112457
10889 -3040.365489034724
10890 -3040.319934094395
10891 -3040.362644413737
10892 -3040.307074042591
10893 -3040.346244588847
10894 -3040.301528202711
10895 -3040.340565292494
10896 -3040.28633679536
10897 -3040.319372568996
10898 -3040.274163029882
10899 -3040.305474810414
10900 -3040.255107931931
10901 -3040.28860509509
10902 -3040.247533680679
10903 -3040.26869737219
10904 -3040.218311321721
10905 -3040.258646300283
10906 -3040.220152017584
10907 -3040.252608664126
10908 -3040.21033181433
10909 -3040.252125986843
10910 -3040.208750697604
10911 -3040.257206773588
10912 -3040.207604125592
10913 -3040.268335902646
10914 -3040.221854176598
10915 -3040.265648328715
10916 -3040.212964796769
10917 -3040.278404594193
10918 -3040.229221752986
10919 -3040.282910443604
10920 -3040.223030276311
10921 -3040.283256963151
10922 -3040.229998320155
10923 -3040.285644898042
10924 -3040.228240962044
10925 -3040.293868554829
10926 -3040.238387609442
10927 -3040.29772623348
10928 -3040.24035716254
10929 -3040.299385633799
10930 -3040.233871763134
10931 -3040.296020376381
10932 -3040.242412476739
10933 -3040.296086401273
10934 -3040.25149945606
10935 -3040.298103793357
10936 -3040.250761944196
10937 -3040.292486570133
10938 -3040.246323884361
10939 -3040.284566674146
10940 -3040.240654074668
10941 -3040.282416745425
10942 -3040.239663032185
10943 -3040.279724673718
10944 -3040.231901762644
10945 -3040.258300192814
10946 -3040.22833224448
10947 -3040.256064449562
10948 -3040.222744321803
10949 -3040.252036552274
10950 -3040.213734113273
10951 -3040.236102336941
10952 -3040.19156047391
10953 -3040.228986278655
10954 -3040.183898357234
10955 -3040.229761334365
10956 -3040.192684373352
10957 -3040.23478282844
10958 -3040.208125090158
10959 -3040.240671208036
10960 -3040.19415913791
10961 -3040.236158042264
10962 -3040.192138665476
10963 -3040.238718092295
10964 -3040.189579270112
10965 -3040.242973498157
10966 -3040.208097427569
10967 -3040.246972782896
10968 -3040.21296351318
10969 -3040.268643583302
10970 -3040.229371117511
10971 -3040.271969143413
10972 -3040.233376192586
10973 -3040.280216546667
10974 -3040.25109956155
10975 -3040.2996181421
10976 -3040.259407777053
10977 -3040.307975725555
10978 -3040.282303205627
10979 -3040.316201261641
10980 -3040.290199227986
10981 -3040.335230748361
10982 -3040.297958867915
10983 -3040.345183970826
10984 -3040.305947682027
10985 -3040.356807922566
10986 -3040.32041703006
10987 -3040.355765193909
10988 -3040.308884044291
10989 -3040.339074902617
10990 -3040.296288358416
10991 -3040.319162384099
10992 -3040.279228116176
10993 -3040.312886353158
10994 -3040.273179243356
10995 -3040.3033110013
10996 -3040.256425133171
10997 -3040.298644973849
10998 -3040.255623424287
10999 -3040.299047280824
11000 -3040.250534893951
11001 -3040.287244942504
11002 -3040.230817686469
11003 -3040.266141663966
11004 -3040.228918708656
11005 -3040.267349023105
11006 -3040.229648786926
11007 -3040.257449938598
11008 -3040.215643246452
11009 -3040.254280887684
11010 -3040.212440325392
11011 -3040.238242181994
11012 -3040.196222815739
11013 -3040.245884725438
11014 -3040.207233802549
11015 -3040.230864947413
11016 -3040.177782553326
11017 -3040.209806612477
11018 -3040.165194785848
11019 -3040.209293441249
11020 -3040.157050234309
11021 -3040.214809173942
11022 -3040.162313204465
11023 -3040.220749182941
11024 -3040.169265056838
11025 -3040.225589113059
11026 -3040.181867031327
11027 -3040.23084720101
11028 -3040.185898779434
11029 -3040.246890551149
11030 -3040.193203249058
11031 -3040.25517505782
11032 -3040.196024452802
11033 -3040.262746194242
11034 -3040.21488574157
11035 -3040.260475155648
11036 -3040.200188260275
11037 -3040.266984169136
11038 -3040.214957396177
11039 -3040.271308564159
11040 -3040.219682097983
11041 -3040.274187775424
11042 -3040.217472527562
11043 -3040.269185958394
11044 -3040.220182160175
11045 -3040.27381820124
11046 -3040.221319598327
11047 -3040.26446159288
11048 -3040.22301841505
11049 -3040.269301081885
11050 -3040.229645670473
11051 -3040.25598831865
11052 -3040.219047384976
11053 -3040.251679081631
11054 -3040.214876835151
11055 -3040.23505374015
11056 -3040.199301133115
11057 -3040.223162691232
11058 -3040.180203419079
11059 -3040.207824181343
11060 -3040.164630964567
11061 -3040.20724581665
11062 -3040.174945675383
11063 -3040.207322841511
11064 -3040.161421837169
11065 -3040.200979655054
11066 -3040.16380097723
11067 -3040.197117451346
11068 -3040.144362910721
11069 -3040.203571668952
11070 -3040.14968588936
11071 -3040.192835674041
11072 -3040.137031304359
11073 -3040.195901488938
11074 -3040.148606662439
11075 -3040.205094604706
11076 -3040.147357835143
11077 -3040.209951072437
11078 -3040.150258820874
11079 -3040.202730527654
11080 -3040.143846946962
11081 -3040.214304376966
11082 -3040.167437124197
11083 -3040.22740116391
11084 -3040.172245891351
11085 -3040.230573769568
11086 -3040.182246643456
11087 -3040.246647148512
11088 -3040.203474561613
11089 -3040.253012306076
11090 -3040.210605569565
11091 -3040.262523014703
11092 -3040.21586533603
11093 -3040.272280799883
11094 -3040.231066778492
11095 -3040.266927401257
11096 -3040.228347229844
11097 -3040.27190525074
11098 -3040.231109484012
11099 -3040.26797482427
11100 -3040.24367452454
11101 -3040.281673606779
11102 -3040.247022938966
11103 -3040.283512744566
11104 -3040.249348109466
11105 -3040.283702665574
11106 -3040.241526501347
11107 -3040.285582269313
11108 -3040.232567504667
11109 -3040.277590233311
11110 -3040.227366514562
11111 -3040.268150994023
11112 -3040.217922444782
11113 -3040.262017074316
11114 -3040.215023332979
11115 -3040.25629859661
11116 -3040.208783952736
11117 -3040.260539212078
11118 -3040.210452671728
11119 -3040.252137708384
11120 -3040.200276686085
11121 -3040.248600585254
11122 -3040.206580375715
11123 -3040.236917310114
11124 -3040.193643622927
11125 -3040.233171778797
11126 -3040.198879832916
11127 -3040.233534584514
11128 -3040.193573049728
11129 -3040.241012310129
11130 -3040.203135254264
11131 -3040.24305527772
11132 -3040.192769712391
11133 -3040.23713941425
11134 -3040.196915565669
11135 -3040.241018174843
11136 -3040.198967223672
11137 -3040.251091574446
11138 -3040.201078099905
11139 -3040.248393389921
11140 -3040.202238212491
11141 -3040.25483507529
11142 -3040.214733813708
11143 -3040.262042733647
11144 -3040.224361943116
11145 -3040.269327889705
11146 -3040.223514561958
11147 -3040.275138668917
11148 -3040.237372566558
11149 -3040.268981246904
11150 -3040.231540908945
11151 -3040.270487451967
11152 -3040.227105859534
11153 -3040.270811399143
11154 -3040.236676457728
11155 -3040.262197148081
11156 -3040.232608051765
11157 -3040.257099571837
11158 -3040.219162835025
11159 -3040.249960580015
11160 -3040.204419858688
11161 -3040.230536826482
11162 -3040.190809148253
11163 -3040.213647722699
11164 -3040.17432841322
11165 -3040.205946848903
11166 -3040.168944077445
11167 -3040.196966496255
11168 -3040.162555672342
11169 -3040.202597627758
11170 -3040.16792672395
11171 -3040.194942153374
11172 -3040.158199562601
11173 -3040.200449967339
11174 -3040.160504917323
11175 -3040.198311999357
11176 -3040.155447053382
11177 -3040.211570004575
11178 -3040.156907600355
11179 -3040.203951983284
11180 -3040.146169334092
11181 -3040.200164876154
11182 -3040.150642345743
11183 -3040.194673448411
11184 -3040.14909332058
11185 -3040.205326814347
11186 -3040.157248010939
11187 -3040.207356326252
11188 -3040.155651796984
11189 -3040.214578992133
11190 -3040.169466685425
11191 -3040.224918098183
11192 -3040.17974364009
11193 -3040.239807563336
11194 -3040.194661690772
11195 -3040.247821857906
11196 -3040.207091723528
11197 -3040.257104681946
11198 -3040.218366767105
11199 -3040.267677173305
11200 -3040.22756987017
11201 -3040.279886281892
11202 -3040.249916859441
11203 -3040.300019539564
11204 -3040.270965502034
11205 -3040.313238300541
11206 -3040.272977399824
11207 -3040.311402066309
11208 -3040.273548824628
11209 -3040.327769540143
11210 -3040.286801936839
11211 -3040.328798532692
11212 -3040.279498487459
11213 -3040.326360149203
11214 -3040.275868563281
11215 -3040.329270807045
11216 -3040.270624634632
11217 -3040.321178250063
11218 -3040.262451537142
11219 -3040.311333446512
11220 -3040.251694316029
11221 -3040.302314137576
11222 -3040.266266752865
11223 -3040.311262522262
11224 -3040.249964811831
11225 -3040.302126707779
11226 -3040.247494073218
11227 -3040.288547009252
11228 -3040.227815894417
11229 -3040.268637101514
11230 -3040.209854763355
11231 -3040.251569717595
11232 -3040.199465513982
11233 -3040.240730402274
11234 -3040.207323681615
11235 -3040.242267144927
11236 -3040.203186243175
11237 -3040.243769647775
11238 -3040.208856720481
11239 -3040.243902978827
11240 -3040.206166397063
11241 -3040.247603229048
11242 -3040.225678814264
11243 -3040.261980105948
11244 -3040.235223173137
11245 -3040.272508969796
11246 -3040.241174402442
11247 -3040.2849512326
11248 -3040.243385528194
11249 -3040.293798013604
11250 -3040.25898398331
11251 -3040.309751700041
11252 -3040.269672279153
11253 -3040.320839815587
11254 -3040.273663536579
11255 -3040.3290957777
11256 -3040.283501491209
11257 -3040.342296419139
11258 -3040.288492802409
11259 -3040.336071454938
11260 -3040.28043126914
11261 -3040.334925516589
11262 -3040.268537251215
11263 -3040.305717912911
11264 -3040.247921130768
11265 -3040.292554285818
11266 -3040.236777989163
11267 -3040.274694136573
11268 -3040.230789335801
11269 -3040.260659245595
11270 -3040.211296841649
11271 -3040.242259056815
11272 -3040.200820186312
11273 -3040.235846251268
11274 -3040.196052263727
11275 -3040.224313141563
11276 -3040.18980840043
11277 -3040.211390070162
11278 -3040.174437675887
11279 -3040.201643023717
11280 -3040.166920739073
11281 -3040.190511792188
11282 -3040.164969416584
11283 -3040.201917770654
11284 -3040.155088539112
11285 -3040.209417622007
11286 -3040.170081231407
11287 -3040.220007156203
11288 -3040.172466734495
11289 -3040.243573164615
11290 -3040.196541562187
11291 -3040.268426331691
11292 -3040.221592518853
11293 -3040.280964137222
11294 -3040.23232389855
11295 -3040.300114063122
11296 -3040.254882608659
11297 -3040.323826146639
11298 -3040.288924494349
11299 -3040.344898541338
11300 -3040.300889904851
11301 -3040.371020079075
11302 -3040.33201928281
11303 -3040.375114136348
11304 -3040.339082479584
11305 -3040.38276947144
11306 -3040.338349072442
11307 -3040.390668377511
11308 -3040.350995017594
11309 -3040.384412186337
11310 -3040.34482235938
11311 -3040.380201115242
11312 -3040.341479886255
11313 -3040.384911055443
11314 -3040.33133208452
11315 -3040.36705796506
11316 -3040.322254709004
11317 -3040.354565464994
11318 -3040.303865702996
11319 -3040.334718153557
11320 -3040.288368763417
11321 -3040.321148848599
11322 -3040.266887299899
11323 -3040.303331252596
11324 -3040.249616381078
11325 -3040.284962091528
11326 -3040.229386178811
11327 -3040.268491257051
11328 -3040.214812754829
11329 -3040.257584556953
11330 -3040.204459328018
11331 -3040.241035115861
11332 -3040.191952995269
11333 -3040.230570633895
11334 -3040.186461856757
11335 -3040.238581979489
11336 -3040.181661877009
11337 -3040.223877479479
11338 -3040.179014998338
11339 -3040.219263207533
11340 -3040.181563529199
11341 -3040.220164264936
11342 -3040.188110462146
11343 -3040.233268856571
11344 -3040.182817862413
11345 -3040.226737897622
11346 -3040.175099895479
11347 -3040.21475093669
11348 -3040.164955950658
11349 -3040.217785107966
11350 -3040.172259003274
11351 -3040.214032902935
11352 -3040.171653328592
11353 -3040.212748297096
11354 -3040.170250236942
11355 -3040.223796275778
11356 -3040.183098569682
11357 -3040.237522723242
11358 -3040.1864170277
11359 -3040.243231510164
11360 -3040.190539063447
11361 -3040.251568380207
11362 -3040.19489333532
11363 -3040.249416295338
11364 -3040.207033287878
11365 -3040.248262465755
11366 -3040.191240591057
11367 -3040.247323309657
11368 -3040.194236215725
11369 -3040.233740256361
11370 -3040.182668812984
11371 -3040.223658929818
11372 -3040.173792309959
11373 -3040.202379336939
11374 -3040.15636592033
11375 -3040.183315249888
11376 -3040.154185173608
11377 -3040.181104204047
11378 -3040.14280013104
11379 -3040.168039735428
11380 -3040.134597196199
11381 -3040.157918773435
11382 -3040.114513648663
11383 -3040.148786327421
11384 -3040.119028691435
11385 -3040.162055523629
11386 -3040.129162773275
11387 -3040.157856236981
11388 -3040.128408635494
11389 -3040.17506214997
11390 -3040.134654006853
11391 -3040.172622883804
11392 -3040.138221993113
11393 -3040.197511003722
11394 -3040.153181976317
11395 -3040.212468189979
11396 -3040.15482470611
11397 -3040.2226557412
11398 -3040.169590003746
11399 -3040.233420770571
11400 -3040.193061829832
11401 -3040.249795362089
11402 -3040.198186716339
11403 -3040.253208207484
11404 -3040.204835924821
11405 -3040.267908947443
11406 -3040.215033690191
11407 -3040.272509100597
11408 -3040.224690309519
11409 -3040.289878534486
11410 -3040.236136397806
11411 -3040.289947699192
11412 -3040.239513757434
11413 -3040.292702169145
11414 -3040.243719265838
11415 -3040.295935836897
11416 -3040.250845996195
11417 -3040.301024095748
11418 -3040.249038834097
11419 -3040.283792093445
11420 -3040.2369056217
11421 -3040.276313601868
11422 -3040.221384800351
11423 -3040.261928890822
11424 -3040.224197035583
11425 -3040.26070921553
11426 -3040.211530287077
11427 -3040.251774842684
11428 -3040.194166396152
11429 -3040.231495580939
11430 -3040.190138405302
11431 -3040.219687084956
11432 -3040.173039627392
11433 -3040.219767686037
11434 -3040.173965079553
11435 -3040.219853178334
11436 -3040.184596279476
11437 -3040.226645585969
11438 -3040.185987148121
11439 -3040.230364061497
11440 -3040.197038813401
11441 -3040.23072303116
11442 -3040.201244237065
11443 -3040.234840680442
11444 -3040.198474751455
11445 -3040.241583641258
11446 -3040.213909410484
11447 -3040.250407897402
11448 -3040.212239117001
11449 -3040.2511366069
11450 -3040.22112162562
11451 -3040.257294843915
11452 -3040.22289751318
11453 -3040.260799212821
11454 -3040.219188593014
11455 -3040.262915920897
11456 -3040.219048589453
11457 -3040.276359822373
11458 -3040.233323405376
11459 -3040.278652807906
11460 -3040.233861302022
11461 -3040.281331008279
11462 -3040.237845247465
11463 -3040.293129455621
11464 -3040.251787627054
11465 -3040.319540672196
11466 -3040.284024574055
11467 -3040.35062867878
11468 -3040.293714906604
11469 -3040.354672157461
11470 -3040.297703946265
11471 -3040.360056411424
11472 -3040.310584646924
11473 -3040.36274195358
11474 -3040.318421215676
11475 -3040.375983937602
11476 -3040.320198926647
11477 -3040.369617834356
11478 -3040.317234294675
11479 -3040.353458628184
11480 -3040.309858864779
11481 -3040.345842848882
11482 -3040.297800671931
11483 -3040.332759495795
11484 -3040.282637086968
11485 -3040.310351897953
11486 -3040.25901824818
11487 -3040.292098507231
11488 -3040.245745723143
11489 -3040.282853101763
11490 -3040.233709607264
11491 -3040.264765517085
11492 -3040.204707232972
11493 -3040.25199985187
11494 -3040.18774205822
11495 -3040.225513606821
11496 -3040.165274673605
11497 -3040.21215796744
11498 -3040.158101752208
11499 -3040.196921691833
11500 -3040.140255127442
11501 -3040.18618623736
11502 -3040.136976469821
11503 -3040.184708605382
11504 -3040.128946270534
11505 -3040.173218277183
11506 -3040.121815009023
11507 -3040.16332797285
11508 -3040.116936805546
11509 -3040.170887888628
11510 -3040.130473553746
11511 -3040.170964658255
11512 -3040.117489177762
11513 -3040.172280752027
11514 -3040.125774298389
11515 -3040.167634279479
11516 -3040.120258860524
11517 -3040.172581964106
11518 -3040.140934224525
11519 -3040.176808682384
11520 -3040.142612374982
11521 -3040.188152047726
11522 -3040.150248861719
11523 -3040.195493824418
11524 -3040.167890177644
11525 -3040.216477691018
11526 -3040.185175660584
11527 -3040.234025741453
11528 -3040.199472410351
11529 -3040.255167670207
11530 -3040.223992915447
11531 -3040.277664063841
11532 -3040.244975081731
11533 -3040.302624224788
11534 -3040.261582157213
11535 -3040.314810429109
11536 -3040.266155208973
11537 -3040.32073144414
11538 -3040.275438445845
11539 -3040.327595152326
11540 -3040.281596957292
11541 -3040.33249313156
11542 -3040.281865556758
11543 -3040.33346293271
11544 -3040.283870704954
11545 -3040.345339809517
11546 -3040.299944740585
11547 -3040.340435980584
11548 -3040.288643961033
11549 -3040.333336950954
11550 -3040.286516850503
11551 -3040.320490824666
11552 -3040.266504385534
11553 -3040.310967978033
11554 -3040.265405964421
11555 -3040.308951006982
11556 -3040.265570502587
11557 -3040.304943204103
11558 -3040.252763551005
11559 -3040.286276518189
11560 -3040.222630433097
11561 -3040.274419147511
11562 -3040.221716862587
11563 -3040.266487077085
11564 -3040.212704400952
11565 -3040.263573642943
11566 -3040.208090639767
11567 -3040.248973848433
11568 -3040.20639396566
11569 -3040.244866472799
11570 -3040.20295198173
11571 -3040.2466032741
11572 -3040.192426259763
11573 -3040.235057046284
11574 -3040.191001965198
11575 -3040.235227589838
11576 -3040.1988810989
11577 -3040.252255081907
11578 -3040.217410555153
11579 -3040.256564024451
11580 -3040.224703160929
11581 -3040.26030145278
11582 -3040.223489513987
11583 -3040.273961572143
11584 -3040.24473014007
11585 -3040.275587892884
11586 -3040.238492521848
11587 -3040.268126856472
11588 -3040.236042465557
11589 -3040.259140919291
11590 -3040.227310961639
11591 -3040.253073520726
11592 -3040.226614544976
11593 -3040.257546083721
11594 -3040.228885092452
11595 -3040.264186872612
11596 -3040.234539567587
11597 -3040.260565149068
11598 -3040.227346854665
11599 -3040.256258218699
11600 -3040.210360125229
11601 -3040.262350358805
11602 -3040.209570680961
11603 -3040.261013774978
11604 -3040.201821903599
11605 -3040.267284813708
11606 -3040.205559233847
11607 -3040.257309829614
11608 -3040.190456598207
11609 -3040.257654979032
11610 -3040.189120144033
11611 -3040.248369528083
11612 -3040.185791911232
11613 -3040.252500770099
11614 -3040.201322567117
11615 -3040.254315620612
11616 -3040.190269564727
11617 -3040.247652299983
11618 -3040.195501159368
11619 -3040.247749371207
11620 -3040.199118413248
11621 -3040.255479405873
11622 -3040.213536090033
11623 -3040.258234860677
11624 -3040.217873091847
11625 -3040.261156410982
11626 -3040.223115075455
11627 -3040.260431670074
11628 -3040.228882821969
11629 -3040.2645556289
11630 -3040.220305618374
11631 -3040.248221187961
11632 -3040.200801313874
11633 -3040.23409026518
11634 -3040.196584608804
11635 -3040.234385485768
11636 -3040.191832916772
11637 -3040.225199482839
11638 -3040.176470636384
11639 -3040.215444254896
11640 -3040.173149088997
11641 -3040.228672351597
11642 -3040.177219371491
11643 -3040.228124533164
11644 -3040.185383388381
11645 -3040.224057790288
11646 -3040.168579716331
11647 -3040.218262768803
11648 -3040.174657372754
11649 -3040.22979098454
11650 -3040.177495462816
11651 -3040.230450063776
11652 -3040.184472923629
11653 -3040.226484278051
11654 -3040.174882598484
11655 -3040.219272825476
11656 -3040.164259427748
11657 -3040.217266106575
11658 -3040.16945464581
11659 -3040.204234044636
11660 -3040.160381338356
11661 -3040.200620136058
11662 -3040.172449189311
11663 -3040.197714360323
11664 -3040.169889373993
11665 -3040.215263724327
11666 -3040.192644413416
11667 -3040.23251229061
11668 -3040.192896084333
11669 -3040.240997214464
11670 -3040.195214712005
11671 -3040.235621843122
11672 -3040.187460414328
11673 -3040.258960515671
11674 -3040.216500496988
11675 -3040.259154693857
11676 -3040.220180140348
11677 -3040.273927127282
11678 -3040.221563467585
11679 -3040.276004291766
11680 -3040.231874958182
11681 -3040.293062969208
11682 -3040.249215315961
11683 -3040.303501256291
11684 -3040.260598348816
11685 -3040.315160690664
11686 -3040.278323689635
11687 -3040.323609189257
11688 -3040.285775938003
11689 -3040.331469878969
11690 -3040.286409105355
11691 -3040.335438903741
11692 -3040.292335805831
11693 -3040.340384647408
11694 -3040.30164771132
11695 -3040.325649040165
11696 -3040.284695751615
11697 -3040.307487309323
11698 -3040.266427775735
11699 -3040.300612452815
11700 -3040.263925529267
11701 -3040.28285993194
11702 -3040.243131120595
11703 -3040.270884614231
11704 -3040.22781917867
11705 -3040.25381175332
11706 -3040.2069220802
11707 -3040.223702053075
11708 -3040.176213162093
11709 -3040.206844355372
11710 -3040.159456503071
11711 -3040.186576359527
11712 -3040.146108313572
11713 -3040.186668852872
11714 -3040.145311875782
11715 -3040.190495590007
11716 -3040.150974685573
11717 -3040.191764884918
11718 -3040.151999583259
11719 -3040.189707876477
11720 -3040.132855005838
11721 -3040.191489936173
11722 -3040.143744494001
11723 -3040.188326559029
11724 -3040.13194894816
11725 -3040.197489781921
11726 -3040.150240803322
11727 -3040.196450071984
11728 -3040.148947993784
11729 -3040.212049713484
11730 -3040.173564143581
11731 -3040.223262337522
11732 -3040.180845677697
11733 -3040.232936275808
11734 -3040.196495292653
11735 -3040.237672599923
11736 -3040.206135857918
11737 -3040.255188824753
11738 -3040.217532476816
11739 -3040.263810896791
11740 -3040.226973484715
11741 -3040.268303576125
11742 -3040.239195158224
11743 -3040.280559239506
11744 -3040.238502198053
11745 -3040.274085456755
11746 -3040.239211815369
11747 -3040.267931719507
11748 -3040.224549023913
11749 -3040.256177290383
11750 -3040.227216602307
11751 -3040.265116258923
11752 -3040.22096261379
11753 -3040.26004914955
11754 -3040.217572268517
11755 -3040.256808760594
11756 -3040.206519148667
11757 -3040.261182361503
11758 -3040.217975684243
11759 -3040.257414654909
11760 -3040.214773310069
11761 -3040.260008948952
11762 -3040.219842492035
11763 -3040.251868337548
11764 -3040.205460344865
11765 -3040.240299681582
11766 -3040.200861169581
11767 -3040.230505053458
11768 -3040.187850244733
11769 -3040.222758592336
11770 -3040.182807063855
11771 -3040.212197357826
11772 -3040.165174950566
11773 -3040.210188364919
11774 -3040.15644757814
11775 -3040.192001410897
11776 -3040.14464166169
11777 -3040.189488597934
11778 -3040.145082378648
11779 -3040.187389917179
11780 -3040.144691857792
11781 -3040.194628420944
11782 -3040.158629644236
11783 -3040.209251785698
11784 -3040.162872396932
11785 -3040.229919509465
11786 -3040.185194167803
11787 -3040.238104754558
11788 -3040.191653037352
11789 -3040.259411349725
11790 -3040.212949571456
11791 -3040.277386075664
11792 -3040.232587609446
11793 -3040.294232852647
11794 -3040.248921974875
11795 -3040.30744537702
11796 -3040.267135458436
11797 -3040.319971760812
11798 -3040.273213837751
11799 -3040.330946683586
11800 -3040.282675376138
11801 -3040.338591033435
11802 -3040.280431839032
11803 -3040.33458403796
11804 -3040.277955837056
11805 -3040.329169879215
11806 -3040.274564177654
11807 -3040.320883822589
11808 -3040.272930727722
11809 -3040.316045316753
11810 -3040.264160514838
11811 -3040.299356630958
11812 -3040.243856033746
11813 -3040.297110823494
11814 -3040.245165477783
11815 -3040.268907204522
11816 -3040.225465737798
11817 -3040.266970049729
11818 -3040.229845716909
11819 -3040.253559687002
11820 -3040.203819096657
11821 -3040.24514506591
11822 -3040.196399757208
11823 -3040.231431901288
11824 -3040.180709485629
11825 -3040.223140799082
11826 -3040.166839969825
11827 -3040.213316083346
11828 -3040.164312509614
11829 -3040.221346681818
11830 -3040.175398098044
11831 -3040.225907820867
11832 -3040.175619933495
11833 -3040.23339426008
11834 -3040.182132125191
11835 -3040.231884964692
11836 -3040.174444952982
11837 -3040.225963645774
11838 -3040.182518166157
11839 -3040.216629489261
11840 -3040.173039494901
11841 -3040.224742100949
11842 -3040.191225419047
11843 -3040.22391177611
11844 -3040.189580121504
11845 -3040.224714313581
11846 -3040.194465983459
11847 -3040.237218663071
11848 -3040.207440644451
11849 -3040.250928326016
11850 -3040.224265166333
11851 -3040.268674369746
11852 -3040.237852925625
11853 -3040.285822893298
11854 -3040.246920780186
11855 -3040.285581362734
11856 -3040.249464936019
11857 -3040.288338950546
11858 -3040.255426495263
11859 -3040.30284638748
11860 -3040.26030164545
11861 -3040.31363239415
11862 -3040.266465370202
11863 -3040.314071017192
11864 -3040.269419126256
11865 -3040.309293390675
11866 -3040.267126128755
11867 -3040.308957599094
11868 -3040.25055733332
11869 -3040.300467594133
11870 -3040.259580767911
11871 -3040.29697040624
11872 -3040.242309331573
11873 -3040.293149818159
11874 -3040.257288138448
11875 -3040.296114834101
11876 -3040.252673938257
11877 -3040.297779809687
11878 -3040.25394137669
11879 -3040.293973245676
11880 -3040.249397157877
11881 -3040.29291693494
11882 -3040.257627858015
11883 -3040.290325799562
11884 -3040.244068123115
11885 -3040.286488219699
11886 -3040.240901341962
11887 -3040.271798357459
11888 -3040.222055895725
11889 -3040.272187729936
11890 -3040.223300598939
11891 -3040.270837904338
11892 -3040.229667104886
11893 -3040.27521176697
11894 -3040.237737509748
11895 -3040.27784091582
11896 -3040.231209366918
11897 -3040.282046817952
11898 -3040.251379765433
11899 -3040.307542007929
11900 -3040.263292788183
11901 -3040.31418783683
11902 -3040.267910767279
11903 -3040.308528595368
11904 -3040.278210157239
11905 -3040.309227301221
11906 -3040.281596893066
11907 -3040.327918883624
11908 -3040.292029390284
11909 -3040.327700394718
11910 -3040.282656023925
11911 -3040.315053067786
11912 -3040.280111651422
11913 -3040.312517850075
11914 -3040.278413255556
11915 -3040.305053093839
11916 -3040.271197727448
11917 -3040.30257839587
11918 -3040.269959270974
11919 -3040.304673818062
11920 -3040.275411832587
11921 -3040.314625118262
11922 -3040.27642897659
11923 -3040.305781872086
11924 -3040.264149917024
11925 -3040.307866825412
11926 -3040.271816309846
11927 -3040.305843464944
11928 -3040.265371539986
11929 -3040.311649480311
11930 -3040.269809727093
11931 -3040.309388937033
11932 -3040.259151863419
11933 -3040.306544111238
11934 -3040.251665896357
11935 -3040.292596749745
11936 -3040.233590968008
11937 -3040.292563416196
11938 -3040.231515631218
11939 -3040.286057787515
