"x-rfile"
"Iteration" "x"
("Iteration" "x")
7000 10.05298977128684
7001 8.051074645117195
7002 6.019340204763391
7003 0.6439494890442763
7004 -5.029781799009976
7005 -10.6984053128933
7006 -15.43571093299314
7007 -19.97905392399612
7008 -24.65912223499983
7009 -29.13870620720448
7010 -32.20054008207347
7011 -35.65655895474543
7012 -39.18805693731239
7013 -42.16593097824629
7014 -45.39442262245814
7015 -48.05778661335554
7016 -50.63385357991901
7017 -53.5428416439564
7018 -57.32874594463617
7019 -62.50632549421741
7020 -69.15657981088317
7021 -76.68112624969092
7022 -85.29178023490581
7023 -95.22282530393015
7024 -104.8040908628381
7025 -116.4778760827794
7026 -126.6744822375445
7027 -138.8897097331122
7028 -151.8518962857591
7029 -165.8942841903834
7030 -180.4627616214951
7031 -195.735535910465
7032 -211.1904695531697
7033 -227.1563517855521
7034 -239.9006625115271
7035 -254.4950533618464
7036 -269.3198041642221
7037 -284.8496537519952
7038 -300.130064420898
7039 -311.5053618335075
7040 -328.9270383966657
7041 -340.4705255690165
7042 -357.9399566306834
7043 -369.0685254582844
7044 -385.823440349438
7045 -400.362504058602
7046 -414.0998444048328
7047 -426.7266657435754
7048 -438.7439310511094
7049 -450.0317071008533
7050 -460.9951383943687
7051 -471.3451215741814
7052 -481.3772031698632
7053 -488.3271199800071
7054 -499.1134842422669
7055 -506.1121038119308
7056 -516.9594614335904
7057 -523.8421052676202
7058 -534.5581176105227
7059 -541.3218381139205
7060 -549.0013254740554
7061 -556.7959675189469
7062 -565.0322517741463
7063 -576.5535611513026
7064 -584.0949892891791
7065 -595.1915416272719
7066 -602.4054470044393
7067 -613.2565721305093
7068 -620.302263008802
7069 -631.0425987222122
7070 -640.5320976720054
7071 -649.6443509694309
7072 -658.3117460910039
7073 -666.6506586605656
7074 -674.7706757453814
7075 -682.5243326137602
7076 -690.0280204428763
7077 -697.2135646936442
7078 -704.1357939619743
7079 -710.6811999548879
7080 -716.9179331840996
7081 -722.7665015334663
7082 -728.2909309097205
7083 -733.4095270062455
7084 -738.2645076598961
7085 -742.6534070121268
7086 -745.6451384084781
7087 -750.0814013344747
7088 -752.8001091700601
7089 -756.8034818117238
7090 -759.0721181316031
7091 -761.6391739565203
7092 -763.861653202453
7093 -766.2253453613707
7094 -768.2382599637651
7095 -770.3318789685184
7096 -771.9862744351955
7097 -773.7274026051115
7098 -775.1441111019009
7099 -776.5745130217836
7100 -777.6937210574545
7101 -778.8945671896586
7102 -779.8083486801436
7103 -780.7518470845932
7104 -781.5283719860174
7105 -782.2828826845143
7106 -782.8759479880254
7107 -783.4342269167205
7108 -783.888181908833
7109 -784.3233793544556
7110 -784.6615126313735
7111 -784.9533386126309
7112 -785.1761046492129
7113 -785.2974757979007
7114 -785.4035495738872
7115 -785.4513426435808
7116 -785.4637884736857
7117 -785.4254440586684
7118 -785.3354358493126
7119 -785.2155397780253
7120 -785.04449362336
7121 -784.8947038373738
7122 -784.6519941332127
7123 -784.4708350664778
7124 -784.1711724011145
7125 -783.9500995707117
7126 -783.6171307940598
7127 -783.4067337657095
7128 -783.0388174988572
7129 -782.8271390482531
7130 -782.4815886621649
7131 -782.2825483671609
7132 -781.9329670387466
7133 -781.7610223445785
7134 -781.409656351096
7135 -781.251390659531
7136 -780.938032173204
7137 -780.7843774651125
7138 -780.4916113266263
7139 -780.3706047838451
7140 -780.1081944081817
7141 -779.9916515016322
7142 -779.7665503520105
7143 -779.6787868390612
7144 -779.4874676680998
7145 -779.4271909219817
7146 -779.2436225146628
7147 -779.2256106050611
7148 -779.062016367035
7149 -779.0401088726464
7150 -778.9028686378564
7151 -778.9031040731597
7152 -778.7845477693924
7153 -778.795828017518
7154 -778.7084462501223
7155 -778.7275654920001
7156 -778.6611280225742
7157 -778.6719794762548
7158 -778.5968755657362
7159 -778.6204707091683
7160 -778.5297109162906
7161 -778.5553196957989
7162 -778.4749200088155
7163 -778.5060543795579
7164 -778.414097304518
7165 -778.4351122873073
7166 -778.340022740721
7167 -778.3561180743401
7168 -778.2519859788434
7169 -778.2625832849853
7170 -778.1378447076506
7171 -778.1371404605202
7172 -778.0061033376586
7173 -778.0058428122596
7174 -777.8563447246902
7175 -777.8552637107216
7176 -777.6931558318549
7177 -777.6870021457456
7178 -777.5273447015774
7179 -777.5095816678804
7180 -777.3466469215457
7181 -777.3133942019721
7182 -777.1270800530002
7183 -777.1019757008247
7184 -776.9165525900385
7185 -776.8694434561112
7186 -776.6929956960804
7187 -776.6670406443982
7188 -776.4936192628562
7189 -776.438184523086
7190 -776.2761097257735
7191 -776.2134429395849
7192 -776.0536256523013
7193 -775.9900015586949
7194 -775.809965582289
7195 -775.7786445833025
7196 -775.6133288214658
7197 -775.5569957380823
7198 -775.4044802534527
7199 -775.3622664987896
7200 -775.2121932383875
7201 -775.1560780164631
7202 -775.0013285348973
7203 -774.9606214192981
7204 -774.8181484671424
7205 -774.7725852894487
7206 -774.6251016298293
7207 -774.5955754221658
7208 -774.4667287278276
7209 -774.4132261298189
7210 -774.2900988479125
7211 -774.250056335022
7212 -774.137594629162
7213 -774.0667840610965
7214 -773.9443680928294
7215 -773.8689710439575
7216 -773.7814917080971
7217 -773.6797070179111
7218 -773.5809818485762
7219 -773.4784438594515
7220 -773.4068606071789
7221 -773.2942699805735
7222 -773.2107793121415
7223 -773.044554996001
7224 -772.9155539600001
7225 -772.8128768131846
7226 -772.6979695206694
7227 -772.6048581662785
7228 -772.4079544133316
7229 -772.2991212065527
7230 -772.1544408988916
7231 -772.0499115636876
7232 -771.9033045501295
7233 -771.7261280277195
7234 -771.5544284325646
7235 -771.4421338405615
7236 -771.2690612488706
7237 -771.0710975508131
7238 -770.8785500265087
7239 -770.7898702050367
7240 -770.5114337896492
7241 -770.3801315942633
7242 -770.1903253821905
7243 -770.022293690206
7244 -769.8092048958916
7245 -769.6335376261163
7246 -769.4156859285162
7247 -769.2380806571443
7248 -769.0285252753258
7249 -768.8428452571425
7250 -768.6366066635034
7251 -768.4454389590281
7252 -768.1468178309328
7253 -768.0422063950857
7254 -767.7445314631183
7255 -767.5590373697688
7256 -767.3629344034533
7257 -767.1627854595645
7258 -766.8560346211918
7259 -766.656602900678
7260 -766.3621024687737
7261 -766.166164335793
7262 -765.8434812456098
7263 -765.6541039012466
7264 -765.3597318472013
7265 -765.1556796702225
7266 -764.8393032290591
7267 -764.6336074882147
7268 -764.325356097459
7269 -764.1051000775211
7270 -763.7817172114195
7271 -763.5500354981123
7272 -763.2389983701443
7273 -763.0040097717184
7274 -762.6534422878045
7275 -762.4386366161232
7276 -762.0899852537525
7277 -761.8760809048281
7278 -761.4863816910585
7279 -761.2925663933921
7280 -760.9241648487163
7281 -760.6916764708009
7282 -760.2975425953309
7283 -760.1069866669972
7284 -759.7105094462827
7285 -759.5054775602082
7286 -759.0821208016615
7287 -758.8806224068318
7288 -758.4755903320654
7289 -758.2617902254124
7290 -757.8333068581613
7291 -757.6180737644053
7292 -757.1932721715702
7293 -756.9695543097508
7294 -756.5479271513175
7295 -756.3159998686422
7296 -755.8901053803698
7297 -755.6222775488003
7298 -755.1818043038253
7299 -754.8982663432166
7300 -754.4926414399308
7301 -754.1691685236304
7302 -753.7279297203386
7303 -753.414195517827
7304 -752.9638750327356
7305 -752.6132219420754
7306 -752.1427591360847
7307 -751.8030359264588
7308 -751.3147167703644
7309 -750.9533189731073
7310 -750.4463080696637
7311 -750.0648549664071
7312 -749.555324341595
7313 -749.1488681401117
7314 -748.6357441370307
7315 -748.3471407731066
7316 -747.7685017812083
7317 -747.2878725588952
7318 -746.8812286584251
7319 -746.350663149108
7320 -745.7583323775696
7321 -745.4051398866734
7322 -744.7687821342163
7323 -744.421370220189
7324 -743.7397396947941
7325 -743.3750596217553
7326 -742.6958662066552
7327 -742.3436992059115
7328 -741.8392861383003
7329 -741.2244532680897
7330 -740.721162836331
7331 -740.3374162450179
7332 -739.7857211342804
7333 -739.3632551743847
7334 -738.7891847569243
7335 -738.3798719849265
7336 -737.7791156265916
7337 -737.3904649655148
7338 -736.8043732819004
7339 -736.4157243917824
7340 -735.844095343635
7341 -735.4729550511486
7342 -734.9057978953253
7343 -734.5645041149728
7344 -734.0278439696068
7345 -733.6773907917279
7346 -733.1696540807762
7347 -732.8366112420057
7348 -732.3510248054664
7349 -732.0282177207919
7350 -731.5804251866419
7351 -731.2612392993063
7352 -730.8679969580395
7353 -730.548108406908
7354 -730.1747319355051
7355 -729.8619165437419
7356 -729.5222232497846
7357 -729.2093505219525
7358 -728.9034896167533
7359 -728.6095463440726
7360 -728.2908035520519
7361 -728.030166368358
7362 -727.7027030394202
7363 -727.4645798506718
7364 -727.1439309350541
7365 -726.9303180932666
7366 -726.6045644799096
7367 -726.4063750169693
7368 -726.0800201796
7369 -725.8820891256897
7370 -725.5551612859197
7371 -725.3883371584056
7372 -725.0666951416349
7373 -724.8965359757426
7374 -724.5768678381376
7375 -724.4143514341162
7376 -724.1103874637591
7377 -723.9419407647187
7378 -723.6417234249717
7379 -723.4758191847437
7380 -723.1941342333431
7381 -723.0344059362779
7382 -722.7451361678595
7383 -722.6056178722433
7384 -722.3040844923153
7385 -722.1680421597887
7386 -721.8761034463943
7387 -721.7375142315875
7388 -721.4665436999313
7389 -721.3425569805612
7390 -721.0636451262171
7391 -720.960419443898
7392 -720.6923176315895
7393 -720.582433181073
7394 -720.3431020875287
7395 -720.255919976733
7396 -720.0211678493829
7397 -719.9351389243333
7398 -719.7020325849018
7399 -719.633329289015
7400 -719.4369229232805
7401 -719.3681849607993
7402 -719.1894714819006
7403 -719.1485425366283
7404 -718.9761629327211
7405 -718.9611541665874
7406 -718.8014489974213
7407 -718.8086683292172
7408 -718.6407669745048
7409 -718.6760796830073
7410 -718.5220801231116
7411 -718.5544008571163
7412 -718.4214629922863
7413 -718.4597530161313
7414 -718.3497496032929
7415 -718.402480360883
7416 -718.3143620719098
7417 -718.3712646618758
7418 -718.3071199231231
7419 -718.3729799937825
7420 -718.3115465639255
7421 -718.3811155987665
7422 -718.3460352661433
7423 -718.4017341522217
7424 -718.387544458932
7425 -718.4515469952079
7426 -718.4405924530256
7427 -718.5350755775117
7428 -718.5180203994669
7429 -718.6230938471189
7430 -718.588714060881
7431 -718.7211324736465
7432 -718.6838024057625
7433 -718.8249557976644
7434 -718.8072378281889
7435 -718.937633927777
7436 -718.9357228263883
7437 -719.0682893289643
7438 -719.0772059837268
7439 -719.2040136657596
7440 -719.2089619519677
7441 -719.3483149219942
7442 -719.35726306014
7443 -719.523865344344
7444 -719.5396275298798
7445 -719.7028416129076
7446 -719.7209558709774
7447 -719.8985010873932
7448 -719.90345342469
7449 -720.0969258956513
7450 -720.0983064011945
7451 -720.2952424076716
7452 -720.3109510132182
7453 -720.5035708549716
7454 -720.5308554664805
7455 -720.7238862551678
7456 -720.763308115049
7457 -720.9323012949139
7458 -720.9892722048986
7459 -721.1299617082368
7460 -721.2152788192129
7461 -721.36545413534
7462 -721.4337228435506
7463 -721.5869546077861
7464 -721.6767697513297
7465 -721.8164584388835
7466 -721.907919685471
7467 -722.0642047722899
7468 -722.1346948435432
7469 -722.2901409592439
7470 -722.3579430621903
7471 -722.5444994239641
7472 -722.6018022647426
7473 -722.8086394469528
7474 -722.838853611599
7475 -723.0611294505954
7476 -723.0906595781383
7477 -723.2954398043566
7478 -723.3472159617244
7479 -723.56798886816
7480 -723.5931382186154
7481 -723.8103096002022
7482 -723.8559326522419
7483 -724.0806195108617
7484 -724.1324075788143
7485 -724.3541451821955
7486 -724.4058844903991
7487 -724.6262707097288
7488 -724.6911511058435
7489 -724.9119522175184
7490 -724.983280316121
7491 -725.2227671035433
7492 -725.2791179069699
7493 -725.5165334690353
7494 -725.5746124266857
7495 -725.8248600908745
7496 -725.8935771120657
7497 -726.1410757725351
7498 -726.2119143363246
7499 -726.4562209849379
7500 -726.5401539232315
7501 -726.7640689182832
7502 -726.8626691236519
7503 -727.0948305437146
7504 -727.1806118581426
7505 -727.4204471653866
7506 -727.5062267601722
7507 -727.7427735006734
7508 -727.8327019175942
7509 -728.0849779425909
7510 -728.1655307884328
7511 -728.4118133472584
7512 -728.5079214598929
7513 -728.7529128867839
7514 -728.8400172753422
7515 -729.0912354235036
7516 -729.1759248633385
7517 -729.4177543954103
7518 -729.5098899460932
7519 -729.7532023793476
7520 -729.8350987620511
7521 -730.0749200542116
7522 -730.1602849599312
7523 -730.4066252573717
7524 -730.4981025138492
7525 -730.7371057229167
7526 -730.8156130498764
7527 -731.0728248853342
7528 -731.1368034681924
7529 -731.3839331420431
7530 -731.4535850875108
7531 -731.7057483197682
7532 -731.7904394464654
7533 -732.030912762801
7534 -732.1165633943513
7535 -732.3518698939221
7536 -732.4501762026802
7537 -732.670032210561
7538 -732.783816702706
7539 -733.0082775619414
7540 -733.1085395896467
7541 -733.3202797400587
7542 -733.423718039019
7543 -733.6350878254128
7544 -733.739965490625
7545 -733.9551561069891
7546 -734.0424556848546
7547 -734.2724887642479
7548 -734.3686704170415
7549 -734.5987526170773
7550 -734.6761008096935
7551 -734.9270234461632
7552 -734.9779985086212
7553 -735.2362326567616
7554 -735.2994378879417
7555 -735.5543116176274
7556 -735.6123216075421
7557 -735.8632183990011
7558 -735.9257749839247
7559 -736.1748501778657
7560 -736.2397364194559
7561 -736.470866860762
7562 -736.5547579452602
7563 -736.7834532616858
7564 -736.8617577499604
7565 -737.074588039966
7566 -737.1649131747547
7567 -737.3590128427659
7568 -737.4622885924877
7569 -737.6559150271528
7570 -737.7420715378473
7571 -737.9600865411118
7572 -738.0349612428284
7573 -738.262280086214
7574 -738.3245440826939
7575 -738.5577662350797
7576 -738.6178788201597
7577 -738.822712866298
7578 -738.9028307358516
7579 -739.1117090909418
7580 -739.1760371367621
7581 -739.383362944508
7582 -739.4595016578745
7583 -739.6607482332604
7584 -739.7411480666542
7585 -739.9388758819257
7586 -740.0264604028744
7587 -740.2254512787198
7588 -740.2961737997347
7589 -740.4773537228707
7590 -740.5528047765291
7591 -740.748511058542
7592 -740.8265745025798
7593 -741.0238574882177
7594 -741.0836481335059
7595 -741.2910855433333
7596 -741.3509145573115
7597 -741.5647643338486
7598 -741.6165740815077
7599 -741.8285634344903
7600 -741.8668062138715
7601 -742.0745167154417
7602 -742.115586625923
7603 -742.3346577203898
7604 -742.3794053364207
7605 -742.5979195477439
7606 -742.6309751545524
7607 -742.8499032538398
7608 -742.8914781465295
7609 -743.0842801016558
7610 -743.1341989294856
7611 -743.3302482469022
7612 -743.3711906574225
7613 -743.5525092772994
7614 -743.613193075735
7615 -743.7991853458636
7616 -743.8672231598027
7617 -744.0436165381708
7618 -744.0957159282046
7619 -744.2747006086307
7620 -744.3249679908281
7621 -744.4923883297926
7622 -744.5530317903996
7623 -744.7383120962888
7624 -744.7650253650781
7625 -744.9556278371168
7626 -744.995658893355
7627 -745.1845509751257
7628 -745.2171543786881
7629 -745.4137639568953
7630 -745.4325921425127
7631 -745.6376947467369
7632 -745.6580848439062
7633 -745.85280565225
7634 -745.8664988435112
7635 -746.07302513302
7636 -746.0795463524923
7637 -746.2838558125711
7638 -746.3024335191429
7639 -746.4925803117968
7640 -746.5175711359301
7641 -746.69549022707
7642 -746.7327416492687
7643 -746.8920555870098
7644 -746.9392982393688
7645 -747.0845929237854
7646 -747.141504717568
7647 -747.3007346429811
7648 -747.3440114567308
7649 -747.489420346311
7650 -747.5478491402463
7651 -747.7019378083213
7652 -747.7386124912703
7653 -747.9069983972408
7654 -747.9432539567077
7655 -748.0987007779743
7656 -748.126868760139
7657 -748.2661332105826
7658 -748.3166725177668
7659 -748.4662668319006
7660 -748.4969380629224
7661 -748.643436633922
7662 -748.6768019923981
7663 -748.8276626631299
7664 -748.8624657742123
7665 -749.0062090105115
7666 -749.0384744060126
7667 -749.1809040752842
7668 -749.208976064338
7669 -749.3641878592541
7670 -749.3783508817636
7671 -749.5554129959022
7672 -749.5514919153995
7673 -749.7143827512635
7674 -749.7263549325496
7675 -749.8875003910521
7676 -749.8922866292536
7677 -750.0745793611904
7678 -750.056353102893
7679 -750.2247751729966
7680 -750.2167407697655
7681 -750.3808823496519
7682 -750.3813780997306
7683 -750.5560352745172
7684 -750.5437217664008
7685 -750.7000095892856
7686 -750.713447396247
7687 -750.8544228459522
7688 -750.8751676923736
7689 -751.0010840056271
7690 -751.0183204879604
7691 -751.1618347896285
7692 -751.1813893188199
7693 -751.3178143662019
7694 -751.3317293101072
7695 -751.473425511172
7696 -751.4690733952581
7697 -751.6275383391405
7698 -751.6157369367743
7699 -751.7694859841713
7700 -751.7488464802033
7701 -751.9191465180161
7702 -751.8879210644596
7703 -752.0572790564815
7704 -752.0217971670166
7705 -752.1930120055852
7706 -752.1627326336801
7707 -752.339740978887
7708 -752.2959486987216
7709 -752.4536702440017
7710 -752.4359520381583
7711 -752.5887057041869
7712 -752.5635295379678
7713 -752.7252550139831
7714 -752.6934334961965
7715 -752.8467852432842
7716 -752.8227893552261
7717 -752.9698694475834
7718 -752.9510473884339
7719 -753.0988370104432
7720 -753.0693535995669
7721 -753.2162374099047
7722 -753.1997062814602
7723 -753.332883869723
7724 -753.3197190098406
7725 -753.4521378099038
7726 -753.4357386353215
7727 -753.5709617409556
7728 -753.5531311147278
7729 -753.6744009360806
7730 -753.6722001848215
7731 -753.7914932153953
7732 -753.7867376171218
7733 -753.9011653491168
7734 -753.9038945527516
7735 -754.0226361792802
7736 -754.0032557806256
7737 -754.1358835928464
7738 -754.1128750795272
7739 -754.2451057565817
7740 -754.2207951398204
7741 -754.3600673274226
7742 -754.3315538288933
7743 -754.4709669433174
7744 -754.4296336776342
7745 -754.5610779023521
7746 -754.5372966786141
7747 -754.6818384304107
7748 -754.6396690136111
7749 -754.7838674708591
7750 -754.7473730234074
7751 -754.8856444197588
7752 -754.8544263364688
7753 -754.980764963753
7754 -754.9442820354016
7755 -755.0784073114349
7756 -755.0280991942623
7757 -755.1696672932499
7758 -755.1265188650477
7759 -755.2640043925085
7760 -755.2201056547074
7761 -755.359279476902
7762 -755.3137849831014
7763 -755.4455507271155
7764 -755.4050780232436
7765 -755.5255442032717
7766 -755.4946777784223
7767 -755.6088346401361
7768 -755.5873683513807
7769 -755.7046826501338
7770 -755.6948073721583
7771 -755.7851961604322
7772 -755.7757198850397
7773 -755.875594884933
7774 -755.8747648112542
7775 -755.9572192200244
7776 -755.9612349580017
7777 -756.0589876083045
7778 -756.0556673693466
7779 -756.1571736486444
7780 -756.1335019419221
7781 -756.238025700663
7782 -756.2260291893909
7783 -756.336954814246
7784 -756.304022075786
7785 -756.4268788332606
7786 -756.387629704135
7787 -756.5058420636702
7788 -756.4509076609066
7789 -756.5722287138726
7790 -756.5283402613201
7791 -756.6632867681558
7792 -756.6110390018943
7793 -756.7308455651068
7794 -756.6999834997109
7795 -756.808654994277
7796 -756.7813292400128
7797 -756.8756783382071
7798 -756.8497503309023
7799 -756.9502899337514
7800 -756.9313522920496
7801 -757.0268309348344
7802 -757.0146994862882
7803 -757.1141503531298
7804 -757.0884338019355
7805 -757.1958841907332
7806 -757.1686854731165
7807 -757.2776069055496
7808 -757.2334795732871
7809 -757.3563939106012
7810 -757.2946597443602
7811 -757.4358845387221
7812 -757.368449469228
7813 -757.5107151073272
7814 -757.4468821579682
7815 -757.5899480222819
7816 -757.5048207766703
7817 -757.6500725007392
7818 -757.5756653197097
7819 -757.7090530561713
7820 -757.6509568329062
7821 -757.7838986074821
7822 -757.7272166432833
7823 -757.8510487244499
7824 -757.800437674224
7825 -757.9281887281182
7826 -757.8821936728381
7827 -757.997831215284
7828 -757.9477337005662
7829 -758.049771125394
7830 -758.0264777833147
7831 -758.1228670547536
7832 -758.0929847540895
7833 -758.1962834727448
7834 -758.1570199296193
7835 -758.2672233959458
7836 -758.2240903872647
7837 -758.3302176832963
7838 -758.2906014158284
7839 -758.4115305938072
7840 -758.3546225494656
7841 -758.4595114929239
7842 -758.4307553202927
7843 -758.5235370832654
7844 -758.4977961820168
7845 -758.5978011991714
7846 -758.5638460074396
7847 -758.6708923738612
7848 -758.6246762619013
7849 -758.7284385988961
7850 -758.7040246783349
7851 -758.7998876190727
7852 -758.7588299140383
7853 -758.8582250181061
7854 -758.8253043635359
7855 -758.9312526095977
7856 -758.8773311158479
7857 -759.0012176493109
7858 -758.9286870803809
7859 -759.0566266971215
7860 -758.9820517082819
7861 -759.1154276206274
7862 -759.0482807960025
7863 -759.1881391719137
7864 -759.1020005419927
7865 -759.2328726698944
7866 -759.1757838987785
7867 -759.2949010549851
7868 -759.2332218612318
7869 -759.3562605208273
7870 -759.2927180823515
7871 -759.401574549758
7872 -759.3624425744581
7873 -759.4554828097114
7874 -759.4350112850533
7875 -759.5292196572567
7876 -759.5002498971735
7877 -759.5834698221557
7878 -759.5563078913075
7879 -759.637298639712
7880 -759.6046040715079
7881 -759.7000495801991
7882 -759.6749332294463
7883 -759.7595632010508
7884 -759.726895739337
7885 -759.8102543109815
7886 -759.7766564547835
7887 -759.8635230708146
7888 -759.810122665201
7889 -759.9080095912999
7890 -759.8774887537606
7891 -759.966997397094
7892 -759.9258352263696
7893 -760.0321449209855
7894 -759.9780908737592
7895 -760.0827524175678
7896 -760.0368492225235
7897 -760.1425557897243
7898 -760.0997314398721
7899 -760.2018373563654
7900 -760.1485215794617
7901 -760.2517862327206
7902 -760.2083630864737
7903 -760.3090035441154
7904 -760.253584271033
7905 -760.3702415137077
7906 -760.3180503441874
7907 -760.4121670032547
7908 -760.3638335692455
7909 -760.4650382354966
7910 -760.4215287769938
7911 -760.529257457023
7912 -760.4705369256405
7913 -760.5804468981547
7914 -760.526368034064
7915 -760.6284064168668
7916 -760.5673921080264
7917 -760.6868211260951
7918 -760.6186025901584
7919 -760.7306900827779
7920 -760.6755480003036
7921 -760.7665959590988
7922 -760.723097342203
7923 -760.8266301380442
7924 -760.7717995455272
7925 -760.8658593854319
7926 -760.8271960671011
7927 -760.915870059835
7928 -760.887310260473
7929 -760.9716251769338
7930 -760.9408670910457
7931 -761.0086189616416
7932 -760.9866405781918
7933 -761.0545663449697
7934 -761.0337711018846
7935 -761.1191171857323
7936 -761.080619004383
7937 -761.169999496333
7938 -761.1126727066101
7939 -761.2213741404739
7940 -761.1533083463686
7941 -761.2755048182742
7942 -761.1934530699173
7943 -761.3219514412253
7944 -761.2411619216875
7945 -761.3789567434608
7946 -761.2965268777656
7947 -761.44021133127
7948 -761.343455162483
7949 -761.4743716221152
7950 -761.4047090259036
7951 -761.5204947618128
7952 -761.4594139771967
7953 -761.5629581370578
7954 -761.5108872608572
7955 -761.6033058802747
7956 -761.5639333344986
7957 -761.6428863571975
7958 -761.6049375210313
7959 -761.6954908758971
7960 -761.6406392287391
7961 -761.7338489899859
7962 -761.6901665108036
7963 -761.7878654042335
7964 -761.7170963773252
7965 -761.8399419902603
7966 -761.7596414801508
7967 -761.8893666451544
7968 -761.8120210964294
7969 -761.9264055309244
7970 -761.8639958307061
7971 -761.9754402078742
7972 -761.90881993772
7973 -762.0068677931297
7974 -761.9668530930097
7975 -762.0457442137151
7976 -762.0097682575673
7977 -762.0865803858081
7978 -762.0490569384162
7979 -762.111797539279
7980 -762.0903090233297
7981 -762.1603501732637
7982 -762.1404148114138
7983 -762.2061073647135
7984 -762.1725133644717
7985 -762.2383364503459
7986 -762.2074351215474
7987 -762.288779100933
7988 -762.2459875313189
7989 -762.3415900508797
7990 -762.2816768334545
7991 -762.3804819849173
7992 -762.3264522618543
7993 -762.4126182727224
7994 -762.3783541414703
7995 -762.4622328466573
7996 -762.4192548865741
7997 -762.5053025006926
7998 -762.4672605647448
7999 -762.5410001317861
8000 -762.5066540254811
8001 -762.581026149075
8002 -762.5415742547231
8003 -762.612587530554
8004 -762.5847881247836
8005 -762.665751427361
8006 -762.6203729519721
8007 -762.6963492344383
8008 -762.631443185721
8009 -762.727752851693
8010 -762.6643547167856
8011 -762.7648659906733
8012 -762.6991718904505
8013 -762.8185355883776
8014 -762.7362913596128
8015 -762.858203839969
8016 -762.7787453034088
8017 -762.8968986219136
8018 -762.8246225340343
8019 -762.9421502288919
8020 -762.8550187754644
8021 -762.9650330633488
8022 -762.8928222599598
8023 -762.999765631754
8024 -762.9358415028244
8025 -763.040729894752
8026 -762.9763197618892
8027 -763.0682239377581
8028 -763.0043597159608
8029 -763.1135991864226
8030 -763.0357359909164
8031 -763.1476271816197
8032 -763.0699809638985
8033 -763.174873165603
8034 -763.1181853220919
8035 -763.2031657131844
8036 -763.1483627128057
8037 -763.2506846123486
8038 -763.1845752038923
8039 -763.2746748699775
8040 -763.219809984752
8041 -763.3033106596545
8042 -763.2572453184722
8043 -763.3444316141283
8044 -763.2936643259831
8045 -763.3775512274915
8046 -763.3322931703215
8047 -763.4122629240137
8048 -763.3579047072773
8049 -763.4603050047007
8050 -763.3897501381343
8051 -763.4900750183215
8052 -763.4195648654591
8053 -763.5223248705549
8054 -763.4402885636889
8055 -763.5741567874802
8056 -763.4723924263957
8057 -763.5966766728301
8058 -763.5118565396288
8059 -763.6355683302249
8060 -763.5473225360994
8061 -763.6667761393766
8062 -763.5767887721912
8063 -763.6868760942308
8064 -763.6085789511599
8065 -763.7153647320379
8066 -763.6486719166006
8067 -763.7529354342263
8068 -763.6787568869875
8069 -763.7821681732756
8070 -763.7080611187281
8071 -763.8063534849556
8072 -763.7519711552707
8073 -763.8405910273543
8074 -763.7710218923687
8075 -763.8664677115424
8076 -763.7951597076468
8077 -763.8821650679324
8078 -763.8236621392824
8079 -763.9206294590349
8080 -763.8490518137229
8081 -763.942685038961
8082 -763.8906711608139
8083 -763.9629956514801
8084 -763.9207494150339
8085 -763.9943733222991
8086 -763.9498934622276
8087 -764.0274364411647
8088 -763.9798503086379
8089 -764.0657403961193
8090 -764.0165332932246
8091 -764.1016733875678
8092 -764.0375449490473
8093 -764.1203477622461
8094 -764.0714007880371
8095 -764.1562425753064
8096 -764.092425914024
8097 -764.1839412609636
8098 -764.1123814427671
8099 -764.2054293073554
8100 -764.1480335180299
8101 -764.2301743902793
8102 -764.1833389848042
8103 -764.2645399505752
8104 -764.2119736326582
8105 -764.2879656695656
8106 -764.2424879841473
8107 -764.3053698295973
8108 -764.2715970421207
8109 -764.3339632908212
8110 -764.3001699428878
8111 -764.3559764793401
8112 -764.330320498128
8113 -764.3772196594298
8114 -764.3600089826474
8115 -764.4089954413978
8116 -764.3780326013521
8117 -764.4370552809567
8118 -764.3982758286761
8119 -764.4663015762867
8120 -764.4034680161626
8121 -764.4985669915833
8122 -764.4317590468523
8123 -764.538258244812
8124 -764.4505263596496
8125 -764.5617089911676
8126 -764.480797078084
8127 -764.5996329624154
8128 -764.4914584042054
8129 -764.6123180389933
8130 -764.5206867528626
8131 -764.6352001219154
8132 -764.5485478224867
8133 -764.6687136103646
8134 -764.577568226472
8135 -764.673825430183
8136 -764.6154375366741
8137 -764.6976357662141
8138 -764.6488484934976
8139 -764.7228482433296
8140 -764.659391164588
8141 -764.7378115740422
8142 -764.6757530849883
8143 -764.767053153394
8144 -764.6982385835818
8145 -764.8004606079576
8146 -764.7197941343195
8147 -764.8279243136527
8148 -764.7290393538382
8149 -764.8345837085118
8150 -764.7476286790621
8151 -764.8617974632845
8152 -764.7513450155848
8153 -764.8776118005666
8154 -764.7824482731914
8155 -764.8877529830979
8156 -764.8019826716169
8157 -764.9280617180151
8158 -764.8378710695374
8159 -764.9347081006608
8160 -764.8552937829542
8161 -764.9463014924477
8162 -764.8889366103391
8163 -764.9730551439752
8164 -764.9072176661602
8165 -764.9999827106881
8166 -764.946112137084
8167 -765.0382737129956
8168 -764.9543003463954
8169 -765.0562905520371
8170 -764.967063553534
8171 -765.0703995618421
8172 -764.9865171995439
8173 -765.0868613797809
8174 -765.0133334355231
8175 -765.1202879172965
8176 -765.0420421716019
8177 -765.1315110856908
8178 -765.0690020200033
8179 -765.1471455406648
8180 -765.0802671595981
8181 -765.1615723464504
8182 -765.106843478251
8183 -765.1760369646591
8184 -765.1328521738934
8185 -765.1813003364528
8186 -765.1586468393314
8187 -765.2145106004994
8188 -765.1733148914282
8189 -765.2285018258485
8190 -765.1870065520968
8191 -765.2491287153454
8192 -765.2057832096476
8193 -765.2793454949706
8194 -765.2115426121582
8195 -765.3072021194985
8196 -765.2281430228511
8197 -765.322986085981
8198 -765.252884658817
8199 -765.3476639017133
8200 -765.254823755871
8201 -765.3590954698221
8202 -765.2717965879134
8203 -765.3799411413667
8204 -765.2939550726973
8205 -765.3992145517346
8206 -765.3182916249314
8207 -765.4157487170301
8208 -765.3413829499433
8209 -765.428077169236
8210 -765.3638913022249
8211 -765.4484403159665
8212 -765.3811303617171
8213 -765.4553490173861
8214 -765.4005348007522
8215 -765.4639619573303
8216 -765.4128914821366
8217 -765.4767640637334
8218 -765.4241983572306
8219 -765.4886210565813
8220 -765.4434679987779
8221 -765.5103176789225
8222 -765.4702191196576
8223 -765.5355022409271
8224 -765.467764350616
8225 -765.5481971458768
8226 -765.4912081965873
8227 -765.5702310546839
8228 -765.5099764571427
8229 -765.5936228300692
8230 -765.5202073731592
8231 -765.6136854958562
8232 -765.5357558282432
8233 -765.6290900244711
8234 -765.5542410178182
8235 -765.6525292159768
8236 -765.5664170206488
8237 -765.6648820739624
8238 -765.5863516528048
8239 -765.6905611209007
8240 -765.6030249122111
8241 -765.7159120452067
8242 -765.6179587744405
8243 -765.7353083967128
8244 -765.6335119551896
8245 -765.7393972765764
8246 -765.6514154890846
8247 -765.760018710718
8248 -765.6555627379882
8249 -765.7749041516576
8250 -765.6790311313983
8251 -765.7889889710749
8252 -765.6916171418536
8253 -765.8114677786057
8254 -765.6948651174233
8255 -765.8126847250941
8256 -765.7109732257951
8257 -765.8332428389627
8258 -765.7320272021611
8259 -765.85243719254
8260 -765.7396274247999
8261 -765.8508797637692
8262 -765.7670668147347
8263 -765.8595651400606
8264 -765.7724848420775
8265 -765.8771993186037
8266 -765.7861332543654
8267 -765.8831400907399
8268 -765.7886178273579
8269 -765.8819990690923
8270 -765.8099127333652
8271 -765.9067497844582
8272 -765.8207564430544
8273 -765.9263488939806
8274 -765.8240820715423
8275 -765.940823806576
8276 -765.8357614915949
8277 -765.9724220141669
8278 -765.851537446782
8279 -765.9832537888453
8280 -765.8743324231655
8281 -765.9942219045915
8282 -765.8784070627564
8283 -765.9975598002081
8284 -765.8804518035207
8285 -766.0071725389162
8286 -765.9036058882377
8287 -766.0253640245777
8288 -765.9275655506522
8289 -766.0339229618803
8290 -765.9309230254488
8291 -766.0368263973812
8292 -765.9529858374026
8293 -766.0475713662065
8294 -765.9651754223054
8295 -766.0724559947211
8296 -765.9744454852861
8297 -766.0850148570476
8298 -765.9922524873037
8299 -766.1007283210923
8300 -766.0168226607539
8301 -766.1241270650153
8302 -766.0239067424874
8303 -766.1292506793706
8304 -766.0407808185995
8305 -766.1288678212521
8306 -766.0542429402317
8307 -766.1373736012415
8308 -766.0604507416361
8309 -766.1454769070748
8310 -766.069298161799
8311 -766.1508414744318
8312 -766.0729420425422
8313 -766.1633879005497
8314 -766.0773485735523
8315 -766.1703586789947
8316 -766.1039691686597
8317 -766.1902396222517
8318 -766.1090899232707
8319 -766.2060065426605
8320 -766.1196389063683
8321 -766.2260018566831
8322 -766.1300108642549
8323 -766.231129178364
8324 -766.1407124479847
8325 -766.2449088083314
8326 -766.1504510361242
8327 -766.2510719314846
8328 -766.1606280896902
8329 -766.2587484766324
8330 -766.1777005317116
8331 -766.2787074502736
8332 -766.1846834644051
8333 -766.2857503850232
8334 -766.1917832785712
8335 -766.2935367951491
8336 -766.2040977264331
8337 -766.3146179250595
8338 -766.2142909044328
8339 -766.3228575798997
8340 -766.229629983024
8341 -766.3333744148185
8342 -766.2310849378641
8343 -766.3535406214822
8344 -766.2338485598475
8345 -766.3493451396458
8346 -766.2502876598647
8347 -766.3537066898284
8348 -766.2577323320706
8349 -766.3695841415113
8350 -766.2634994207291
8351 -766.3742729806809
8352 -766.2657456839867
8353 -766.3825088735567
8354 -766.2865686403617
8355 -766.4005291571719
8356 -766.2827378595001
8357 -766.4108164402243
8358 -766.3081095747687
8359 -766.4248112935416
8360 -766.322856131664
8361 -766.4347213467927
8362 -766.3285092853957
8363 -766.4387476104118
8364 -766.3389440240063
8365 -766.4505168470514
8366 -766.3569179668236
8367 -766.4642212624085
8368 -766.3647872387809
8369 -766.4650748630978
8370 -766.3930240545477
8371 -766.4792517502773
8372 -766.3909740252529
8373 -766.4738567874294
8374 -766.3969394110004
8375 -766.472605031057
8376 -766.4055446992877
8377 -766.4838754461462
8378 -766.41787373253
8379 -766.5005330624489
8380 -766.412476347624
8381 -766.5030893241745
8382 -766.4283832642417
8383 -766.5258309279777
8384 -766.4257319501116
8385 -766.5457460061077
8386 -766.4392281390959
8387 -766.5555272873402
8388 -766.4378905109251
8389 -766.5563815533076
8390 -766.4570750692892
8391 -766.5825168141225
8392 -766.4568180411536
8393 -766.5871042814171
8394 -766.470726071002
8395 -766.5871889415356
8396 -766.4639314063256
8397 -766.5841338084208
8398 -766.4788173058732
8399 -766.5901317174012
8400 -766.4833465484534
8401 -766.5846624447504
8402 -766.4973806163697
8403 -766.5991475350265
8404 -766.4990320757443
8405 -766.6159081303441
8406 -766.5081852920232
8407 -766.6153792130129
8408 -766.5249459296087
8409 -766.628592259346
8410 -766.5396595170323
8411 -766.6464812064887
8412 -766.5450246411523
8413 -766.6491772416754
8414 -766.5637940241118
8415 -766.6519529603255
8416 -766.5518788357892
8417 -766.6506739936026
8418 -766.5788110223367
8419 -766.658405291525
8420 -766.5736565499869
8421 -766.665967164352
8422 -766.5762457273042
8423 -766.6748805574331
8424 -766.5783905799744
8425 -766.669321985204
8426 -766.5976132567597
8427 -766.6879861006854
8428 -766.5875513601865
8429 -766.6905467205461
8430 -766.6041230832241
8431 -766.7055850017767
8432 -766.600274791764
8433 -766.7271155352635
8434 -766.6216881026365
8435 -766.7458807686595
8436 -766.6281540944349
8437 -766.7534423590691
8438 -766.6354929985142
8439 -766.7639824780165
8440 -766.6395897230992
8441 -766.7601130602183
8442 -766.6483876670608
8443 -766.7668524861128
8444 -766.649042114924
8445 -766.7684138440766
8446 -766.662515817963
8447 -766.7689047146854
8448 -766.6690185248084
8449 -766.7543122867637
8450 -766.6682954085798
8451 -766.768829766859
8452 -766.676425290123
8453 -766.7730679646967
8454 -766.6894418100561
8455 -766.7920752212659
8456 -766.6964714986476
8457 -766.8014620630884
8458 -766.7038598663206
8459 -766.8061569155267
8460 -766.715095880699
8461 -766.8117599578162
8462 -766.7173753730023
8463 -766.8235971470547
8464 -766.7191759319128
8465 -766.8139621235856
8466 -766.7277751467717
8467 -766.8233329354881
8468 -766.7429172796963
8469 -766.835025621046
8470 -766.736751419101
8471 -766.8243187189622
8472 -766.7355497452387
8473 -766.8203266899915
8474 -766.7390597458765
8475 -766.8487491764695
8476 -766.7455392118262
8477 -766.8576941266319
8478 -766.7586812784429
8479 -766.8695385485527
8480 -766.7599771828565
8481 -766.8780131612433
8482 -766.758459120029
8483 -766.8811449544813
8484 -766.7648838667368
8485 -766.8918611147122
8486 -766.7720696200042
8487 -766.8996732736226
8488 -766.779443923714
8489 -766.8971116696908
8490 -766.7999449749201
8491 -766.8966835969422
8492 -766.7944614800481
8493 -766.8860699765281
8494 -766.7961606565796
8495 -766.8947036330235
8496 -766.8173101161561
8497 -766.8937813204445
8498 -766.8223183212142
8499 -766.9159175789524
8500 -766.8251080263046
8501 -766.9181216907133
8502 -766.8290034927464
8503 -766.9268546453052
8504 -766.828917480882
8505 -766.9451309635855
8506 -766.8255811024379
8507 -766.9419277684138
8508 -766.839084036042
8509 -766.9482738722492
8510 -766.8365757843109
8511 -766.9625440470425
8512 -766.8364570414121
8513 -766.949896429707
8514 -766.8405228068434
8515 -766.9480784640328
8516 -766.8458118020236
8517 -766.9552291210748
8518 -766.846322021957
8519 -766.9563094523046
8520 -766.8629362826166
8521 -766.9607507992184
8522 -766.8597629172829
8523 -766.9674148251419
8524 -766.8559443821916
8525 -766.9647057351515
8526 -766.8739962975442
8527 -766.9859225866123
8528 -766.8790527593089
8529 -766.9882650364603
8530 -766.8868564236707
8531 -766.9850736756271
8532 -766.8867908139973
8533 -766.9890835737513
8534 -766.8962680526452
8535 -766.9957665795984
8536 -766.894188900414
8537 -766.994163626899
8538 -766.9044766340871
8539 -766.9956319509224
8540 -766.8883949550925
8541 -767.0029985371726
8542 -766.9025873480361
8543 -767.0079601115998
8544 -766.8837513769778
8545 -767.0174748757902
8546 -766.9075155307657
8547 -767.0377348438751
8548 -766.9018484875681
8549 -767.0332783986618
8550 -766.9225959368945
8551 -767.0285637883486
8552 -766.929377840512
8553 -767.0273726378392
8554 -766.9447775627125
8555 -767.0302078221166
8556 -766.9467488798614
8557 -767.0274743402808
8558 -766.9576292052037
8559 -767.0322926851695
8560 -766.9504379540367
8561 -767.0292158157838
8562 -766.9682235919526
8563 -767.04424552798
8564 -766.9602680606898
8565 -767.0586659241603
8566 -766.9772948274887
8567 -767.058684336501
8568 -766.9782642487099
8569 -767.0584345735365
8570 -766.9912390717599
8571 -767.0770888583836
8572 -766.9842773511094
8573 -767.0752867571717
8574 -766.9981107873509
8575 -767.0695843036233
8576 -766.9981219099519
8577 -767.0838238930893
8578 -767.0018817497026
8579 -767.0805089195567
8580 -766.9893125428702
8581 -767.0643804835539
8582 -766.9933378001459
8583 -767.0815378006871
8584 -766.9913660338512
8585 -767.0937303709852
8586 -767.0008524988286
8587 -767.1150165504231
8588 -766.9884502448659
8589 -767.1180950933291
8590 -766.9919576417649
8591 -767.1237580040608
8592 -766.9783698252833
8593 -767.1243441800275
8594 -766.9815339524648
8595 -767.1335119939191
8596 -766.9742651038513
8597 -767.1303705381587
8598 -766.990597158876
8599 -767.1344653500782
8600 -766.9960331815345
8601 -767.1331478835793
8602 -767.0047379203156
8603 -767.1124556366601
8604 -767.0132905530031
8605 -767.1121894748762
8606 -767.0329338665175
8607 -767.1263119506
8608 -767.0351332262682
8609 -767.114193875299
8610 -767.0366003312769
8611 -767.1187136105164
8612 -767.0342286358042
8613 -767.1323175173764
8614 -767.0342343272674
8615 -767.150815574976
8616 -767.046920997518
8617 -767.1449900106975
8618 -767.045394332525
8619 -767.162782662469
8620 -767.0346885153264
8621 -767.1593317543199
8622 -767.047937567722
8623 -767.1587437937429
8624 -767.0489488037431
8625 -767.1704652269311
8626 -767.0653107036719
8627 -767.1668044675509
8628 -767.0647805018333
8629 -767.16864808282
8630 -767.076699310506
8631 -767.1703110286077
8632 -767.0632300684711
8633 -767.1682615530274
8634 -767.0817954164191
8635 -767.1757780648413
8636 -767.0777315575609
8637 -767.1814606746218
8638 -767.0691525746902
8639 -767.1760313580141
8640 -767.0719502178769
8641 -767.1781410075662
8642 -767.0852808387377
8643 -767.1943759473775
8644 -767.0770372351703
8645 -767.1906124597267
8646 -767.0930044892255
8647 -767.1865592368317
8648 -767.0798458072614
8649 -767.1925535624163
8650 -767.0844959045965
8651 -767.1824349822755
8652 -767.0801193593735
8653 -767.1778126098899
8654 -767.1059618587913
8655 -767.1980332865844
8656 -767.1081798121348
8657 -767.1899633852963
8658 -767.1262753378486
8659 -767.1894203658819
8660 -767.1093359576768
8661 -767.2061148609184
8662 -767.1152865494129
8663 -767.2127729549006
8664 -767.1164211593007
8665 -767.2213366778321
8666 -767.1295272573957
8667 -767.2283283397851
8668 -767.1174502165906
8669 -767.2239698951133
8670 -767.1207342750943
8671 -767.2268841024215
8672 -767.1226533387535
8673 -767.2247124429887
8674 -767.1218687159906
8675 -767.2289949552887
8676 -767.1314549997726
8677 -767.2158422558233
8678 -767.1358890445929
8679 -767.2240996970341
8680 -767.1316410891513
8681 -767.1962176021684
8682 -767.1409970983583
8683 -767.2145528355038
8684 -767.13810108224
8685 -767.2250566109876
8686 -767.1371801848322
8687 -767.227915623904
8688 -767.136980635245
8689 -767.2375074792016
8690 -767.1368037418533
8691 -767.2577864313741
8692 -767.1281689547769
8693 -767.2631732125838
8694 -767.1366255297045
8695 -767.2621124245388
8696 -767.1346764341422
8697 -767.2768870765839
8698 -767.1447251814971
8699 -767.2769572221251
8700 -767.1349358058911
8701 -767.2621923996851
8702 -767.1476324903374
8703 -767.2667566332821
8704 -767.1451745000693
8705 -767.2654235496832
8706 -767.1627870787522
8707 -767.2639761089755
8708 -767.1570912171319
8709 -767.2555737570334
8710 -767.1561361384412
8711 -767.2509825866854
8712 -767.1510638831588
8713 -767.2547542860651
8714 -767.1629412378692
8715 -767.2643780531574
8716 -767.1614461450606
8717 -767.2623386638487
8718 -767.1764807140848
8719 -767.2696498986863
8720 -767.1660142256759
8721 -767.2711663690455
8722 -767.1767504493882
8723 -767.262317951168
8724 -767.1778186616804
8725 -767.2726392511465
8726 -767.1825207276364
8727 -767.2905441686735
8728 -767.1780233116034
8729 -767.2877019885954
8730 -767.184132722295
8731 -767.2861353728168
8732 -767.1887096015173
8733 -767.2872749195294
8734 -767.1905858966163
8735 -767.2865529182947
8736 -767.1752920321946
8737 -767.2762821735868
8738 -767.1749615432734
8739 -767.2956599562092
8740 -767.1525752844163
8741 -767.2974663993704
8742 -767.1596088121316
8743 -767.3037459485369
8744 -767.1638579833094
8745 -767.2981802967316
8746 -767.1694142687086
8747 -767.2966948621098
8748 -767.166889016309
8749 -767.3021089620044
8750 -767.180177433385
8751 -767.2916552918084
8752 -767.1719683415279
8753 -767.2907218538452
8754 -767.1984555512607
8755 -767.2853241251033
8756 -767.1933340662462
8757 -767.2870749490661
8758 -767.2082834693035
8759 -767.2778334576044
8760 -767.2060528242624
8761 -767.2796299952365
8762 -767.2160358399502
8763 -767.2842533870336
8764 -767.2135829245664
8765 -767.2726735131815
8766 -767.2253901179824
8767 -767.2797467515938
8768 -767.2107374575326
8769 -767.2950340724075
8770 -767.2194058948257
8771 -767.3063569260412
8772 -767.2154414239233
8773 -767.3053616195709
8774 -767.2275101956618
8775 -767.3281337744899
8776 -767.214210600819
8777 -767.3245174288659
8778 -767.2204651982016
8779 -767.324015523067
8780 -767.2128364197952
8781 -767.3172590675649
8782 -767.2217361519569
8783 -767.3212925280354
8784 -767.2258789567203
8785 -767.3125964403514
8786 -767.2360397823193
8787 -767.3222366522937
8788 -767.2329293141883
8789 -767.3230157385344
8790 -767.232120769141
8791 -767.3187464480679
8792 -767.2138145739186
8793 -767.3282114537435
8794 -767.2226779521952
8795 -767.3164847835
8796 -767.209375266047
8797 -767.3228644650715
8798 -767.2217520772556
8799 -767.3343890990785
8800 -767.2159471852295
8801 -767.3316257786352
8802 -767.2181072319265
8803 -767.3349918950881
8804 -767.2199987663986
8805 -767.3354831031007
8806 -767.2269089580381
8807 -767.3353245100355
8808 -767.2169883933967
8809 -767.3230682718961
8810 -767.2247080682786
8811 -767.3332366806851
8812 -767.2069288530481
8813 -767.3303552923971
8814 -767.2105119624371
8815 -767.3271825640826
8816 -767.2063927198348
8817 -767.3370087168721
8818 -767.2039304962196
8819 -767.3321097176419
8820 -767.2136930144997
8821 -767.3288433798654
8822 -767.2200776636716
8823 -767.3382416261916
8824 -767.2113401553771
8825 -767.3294817445146
8826 -767.2199306866834
8827 -767.3355256835919
8828 -767.223856152218
8829 -767.3270043856199
8830 -767.224703815033
8831 -767.3342538694314
8832 -767.2297290738143
8833 -767.3316034993371
8834 -767.2416509375802
8835 -767.3416166468107
8836 -767.2383285295573
8837 -767.3356547335866
8838 -767.2373917240427
8839 -767.3399543370888
8840 -767.2364637191289
8841 -767.3490360127681
8842 -767.2403683780527
8843 -767.3448437829716
8844 -767.240856534179
8845 -767.333316109213
8846 -767.2215713031084
8847 -767.3383513346973
8848 -767.213562174632
8849 -767.3337193408394
8850 -767.2177976671867
8851 -767.3306924314129
8852 -767.2224066466756
8853 -767.3413721108411
8854 -767.2204533981878
8855 -767.3274328014631
8856 -767.2152404015329
8857 -767.3229434393972
8858 -767.2198620406645
8859 -767.3312573652585
8860 -767.2226484293603
8861 -767.3269475172082
8862 -767.2369454662576
8863 -767.3300727626111
8864 -767.249592270473
8865 -767.3280353843599
8866 -767.2432621310768
8867 -767.3241269771584
8868 -767.232097448172
8869 -767.3296077857775
8870 -767.2498873488287
8871 -767.3414716312877
8872 -767.2508352109176
8873 -767.3403981541594
8874 -767.2493113743951
8875 -767.3501595407993
8876 -767.2505090794414
8877 -767.3448534692604
8878 -767.233236324451
8879 -767.3303740120697
8880 -767.2351158833446
8881 -767.3457996386355
8882 -767.2436494574029
8883 -767.3571000232021
8884 -767.2451229452853
8885 -767.3511220002022
8886 -767.2561513712758
8887 -767.3499278389095
8888 -767.2518858386298
8889 -767.3612938645798
8890 -767.2480408294435
8891 -767.3645500715412
8892 -767.2600944233411
8893 -767.3656512120718
8894 -767.2614143588402
8895 -767.3692967587775
8896 -767.2425070628146
8897 -767.3649044675293
8898 -767.2492976453977
8899 -767.3642830573544
8900 -767.2457003948879
8901 -767.3642907876032
8902 -767.2392191688615
8903 -767.3591570815055
8904 -767.2420168770374
8905 -767.3512511011788
8906 -767.250474326727
8907 -767.3563520617643
8908 -767.2499114607848
8909 -767.3450796528975
8910 -767.2611329215505
8911 -767.3554256057869
8912 -767.2747820623845
8913 -767.359078886027
8914 -767.2759452140937
8915 -767.3419714277338
8916 -767.2787017712182
8917 -767.3465137805734
8918 -767.2713848358654
8919 -767.3527265896303
8920 -767.2516011047932
8921 -767.3520457269287
8922 -767.2518986727857
8923 -767.3483357340808
8924 -767.2416908550044
8925 -767.3607021641969
8926 -767.2450056077472
8927 -767.3581507630951
8928 -767.2374868834688
8929 -767.3518835276603
8930 -767.2459371337253
8931 -767.3711038215926
8932 -767.2358907251206
8933 -767.3525251521173
8934 -767.2464824257841
8935 -767.3602361776283
8936 -767.2362705283178
8937 -767.3590014518953
8938 -767.2444947909306
8939 -767.3619396185549
8940 -767.2442898214097
8941 -767.3549324460573
8942 -767.2533585555017
8943 -767.3574006866513
8944 -767.2538245006173
8945 -767.35985522792
8946 -767.2553836010719
8947 -767.3592532301935
8948 -767.2582790631966
8949 -767.362452878759
8950 -767.2631883736231
8951 -767.3732933232513
8952 -767.2703335779198
8953 -767.3726251841107
8954 -767.2681305992252
8955 -767.3775911385773
8956 -767.2569086315237
8957 -767.3625378157183
8958 -767.257390399753
8959 -767.3744689099045
8960 -767.2653695828897
8961 -767.3838818191739
8962 -767.2694336773696
8963 -767.3770018539808
8964 -767.26648212442
8965 -767.3807211975719
8966 -767.2647708397265
8967 -767.3870435954772
8968 -767.2578078226251
8969 -767.376428371923
8970 -767.2581860393576
8971 -767.3727623900429
8972 -767.2696836785126
8973 -767.3800579371537
8974 -767.265150882609
8975 -767.3717063057146
8976 -767.2636379184995
8977 -767.3636825197655
8978 -767.2653741392322
8979 -767.3626997011572
8980 -767.2609093958316
8981 -767.3624332843
8982 -767.2803959556087
8983 -767.363216831806
8984 -767.2769386372967
8985 -767.3575914219886
8986 -767.2736073659677
8987 -767.3514079222167
8988 -767.2717174816984
8989 -767.3448200232309
8990 -767.268575643861
8991 -767.3640391578583
8992 -767.2676351715905
8993 -767.3567701366493
8994 -767.2783022098424
8995 -767.3590922120286
8996 -767.2736583353991
8997 -767.3648798730532
8998 -767.2710677909782
8999 -767.3586940198062
9000 -767.2647362063436
9001 -767.3568151210418
9002 -767.2760873434698
9003 -767.371836643879
9004 -767.2707023476751
9005 -767.3783653670432
9006 -767.2606397639906
9007 -767.3757955657318
9008 -767.2706177243268
9009 -767.3764394412601
9010 -767.2726292133279
9011 -767.3670501822849
9012 -767.2705999711997
9013 -767.370290264823
9014 -767.2654318929491
9015 -767.3821530975564
9016 -767.266725749457
9017 -767.3739688940856
9018 -767.2732697209799
9019 -767.3734383322388
9020 -767.2779883162643
9021 -767.3769483409183
9022 -767.2811865478039
9023 -767.3746589095449
9024 -767.277899904164
9025 -767.3663375124894
9026 -767.2810253223023
9027 -767.3735327288367
9028 -767.2749562215276
9029 -767.3646009006534
9030 -767.2800353595227
9031 -767.365796719221
9032 -767.2838950884498
9033 -767.3685716983312
9034 -767.2694271070584
9035 -767.3730896085934
9036 -767.2595593082108
9037 -767.3835985959477
9038 -767.2665640601019
9039 -767.4032085154404
9040 -767.2551824195747
9041 -767.3938534437558
9042 -767.2572760311843
9043 -767.3906556711554
9044 -767.2547703181662
9045 -767.3928849703733
9046 -767.2572432340053
9047 -767.3954111568052
9048 -767.2728036818885
9049 -767.3836054934112
9050 -767.2758713122876
9051 -767.3806978564833
9052 -767.2717230308207
9053 -767.3677345865655
9054 -767.2860363666637
9055 -767.3699585919431
9056 -767.2863079211626
9057 -767.3706392851642
9058 -767.2882045187224
9059 -767.3805659684821
9060 -767.2937024146347
9061 -767.3882846788248
9062 -767.3013735812169
9063 -767.3969749376364
9064 -767.2852443524118
9065 -767.3859071228977
9066 -767.2810965911171
9067 -767.3721714660106
9068 -767.2783710436128
9069 -767.3756116840196
9070 -767.2868351368334
9071 -767.368549291632
9072 -767.2639893318981
9073 -767.3616793786839
9074 -767.2712984622734
9075 -767.3609231225228
9076 -767.2552108655208
9077 -767.351255950043
9078 -767.2625597055442
9079 -767.3653837499618
9080 -767.2644412289669
9081 -767.380178069424
9082 -767.2634514776779
9083 -767.3957412699665
9084 -767.257283378602
9085 -767.3992853643957
9086 -767.2665235145204
9087 -767.4005322188243
9088 -767.2563342685672
9089 -767.396804687288
9090 -767.2710112405449
9091 -767.3822407451595
9092 -767.2628238733907
9093 -767.3807163072723
9094 -767.2672689629658
9095 -767.360760322455
9096 -767.2722230997427
9097 -767.34604571184
9098 -767.2826470773798
9099 -767.3519843588901
9100 -767.2796389541807
9101 -767.3502137439639
9102 -767.2968027959178
9103 -767.3542605760598
9104 -767.2867823347634
9105 -767.3626183911224
9106 -767.284373901971
9107 -767.3661254729093
9108 -767.2839923440337
9109 -767.3768837103852
9110 -767.2942315569594
9111 -767.3929590238678
9112 -767.2827853725719
9113 -767.3948532049737
9114 -767.2898621105494
9115 -767.398655805557
9116 -767.2776258478943
9117 -767.4012343760085
9118 -767.2809990779664
9119 -767.3933661446114
9120 -767.2745551638084
9121 -767.3812868767363
9122 -767.269866348443
9123 -767.3871485578455
9124 -767.2604026614936
9125 -767.3766593407131
9126 -767.2681550870193
9127 -767.3676199991178
9128 -767.2666227021956
9129 -767.3707391180681
9130 -767.2841246482402
9131 -767.3752771376254
9132 -767.2696854146684
9133 -767.3743475464285
9134 -767.2707325918918
9135 -767.3821313568495
9136 -767.2685231391697
9137 -767.3792002583441
9138 -767.2801166470457
9139 -767.3820352958268
9140 -767.2815540512089
9141 -767.3753852236656
9142 -767.2817802563578
9143 -767.3721732022285
9144 -767.2834483936574
9145 -767.3740755087154
9146 -767.2813627464795
9147 -767.3858234755996
9148 -767.2831450319612
9149 -767.381951435001
9150 -767.2997102194013
9151 -767.3691199071204
9152 -767.2995506115881
9153 -767.373027903586
9154 -767.2862106761183
9155 -767.3736321919139
9156 -767.2813522426469
9157 -767.3801851768811
9158 -767.2857630209903
9159 -767.3988432418055
9160 -767.2800630665273
9161 -767.3970062319634
9162 -767.2861967856737
9163 -767.3941766528837
9164 -767.2806118006577
9165 -767.4083740993163
9166 -767.2682727102028
9167 -767.3976654780872
9168 -767.2660437574737
9169 -767.3899881374908
9170 -767.2797220819335
9171 -767.3943288964243
9172 -767.2715183049793
9173 -767.3927249261386
9174 -767.2880431009723
9175 -767.3831118051137
9176 -767.2860212652694
9177 -767.3800281953811
9178 -767.2845766842454
9179 -767.3846568992308
9180 -767.2910516934239
9181 -767.3844901217678
9182 -767.2897979516727
9183 -767.3972436815928
9184 -767.2803888443082
9185 -767.383346916044
9186 -767.2738848797275
9187 -767.389140074058
9188 -767.269097192584
9189 -767.4012965184013
9190 -767.2657031624934
9191 -767.3850724791902
9192 -767.2558685434815
9193 -767.3827792040939
9194 -767.2667924379465
9195 -767.3866189378501
9196 -767.2663549695336
9197 -767.384858754561
9198 -767.2845517943807
9199 -767.3785265633863
9200 -767.2777276277043
9201 -767.3773701173435
9202 -767.2795565355153
9203 -767.3775859885818
9204 -767.274358729695
9205 -767.3777204245954
9206 -767.2888350954138
9207 -767.3955067300199
9208 -767.2872066417103
9209 -767.388468291879
9210 -767.278890898579
9211 -767.3861745975794
9212 -767.2816424803001
9213 -767.4020185181806
9214 -767.2815955873812
9215 -767.3916406600416
9216 -767.2897262581979
9217 -767.3831283482031
9218 -767.3044788322201
9219 -767.3859382254044
9220 -767.2990818378714
9221 -767.3753062729711
9222 -767.3030751343523
9223 -767.3737345990769
9224 -767.2977353504463
9225 -767.3779495933206
9226 -767.3037843296673
9227 -767.3716950083374
9228 -767.310423779982
9229 -767.3770922374011
9230 -767.310531416314
9231 -767.3916643365641
9232 -767.286218541415
9233 -767.3791499058919
9234 -767.2889619269848
9235 -767.3751728430004
9236 -767.2798256083532
9237 -767.3882918029045
9238 -767.2818739958574
9239 -767.3884266801848
9240 -767.2796414737128
9241 -767.3687746096487
9242 -767.2892127857529
9243 -767.3775049258645
9244 -767.2761045122699
9245 -767.3757238585545
9246 -767.2885567052624
9247 -767.371082071598
9248 -767.2870918761662
9249 -767.3712517987747
9250 -767.3007538078397
9251 -767.3712255861076
9252 -767.297855449718
9253 -767.374161200727
9254 -767.2966899909829
9255 -767.3833738436416
9256 -767.2873674188362
9257 -767.3853458195008
9258 -767.3010500691205
9259 -767.3922256044181
9260 -767.2945844994077
9261 -767.3987069713904
9262 -767.2954060462827
9263 -767.4043234423796
9264 -767.2779639208625
9265 -767.4051496430631
9266 -767.2674709277798
9267 -767.4065089347115
9268 -767.2511575030651
9269 -767.3990299828527
9270 -767.266884594879
9271 -767.4052065189056
9272 -767.2604499412158
9273 -767.402966309363
9274 -767.2582050695704
9275 -767.3979510794394
9276 -767.2596784643605
9277 -767.3880693627239
9278 -767.2783632692129
9279 -767.3878916753679
9280 -767.2693757298744
9281 -767.3829482018859
9282 -767.286487388722
9283 -767.3702686934661
9284 -767.2862905934664
9285 -767.3804212836142
9286 -767.2868430485526
9287 -767.3723681948393
9288 -767.2716988877459
9289 -767.3693388377748
9290 -767.2878188388694
9291 -767.3790111067858
9292 -767.2827761525893
9293 -767.3804098271366
9294 -767.3080234407403
9295 -767.3786922071172
9296 -767.2954325147014
9297 -767.373197225555
9298 -767.3022259095405
9299 -767.3666427058005
9300 -767.290360451812
9301 -767.3700861437925
9302 -767.2949885509164
9303 -767.3688685279898
9304 -767.2767584536397
9305 -767.3611517103923
9306 -767.2932217908335
9307 -767.3675436955035
9308 -767.2756270052826
9309 -767.3656420122148
9310 -767.2654784023142
9311 -767.3735875816525
9312 -767.2633071076157
9313 -767.3856994544367
9314 -767.2721792233981
9315 -767.3979296223035
9316 -767.269957018988
9317 -767.3950629190613
9318 -767.2716662317204
9319 -767.3830233325948
9320 -767.2621453369455
9321 -767.3927864845998
9322 -767.2731152465017
9323 -767.4007001335251
9324 -767.2704561657314
9325 -767.3941608369929
9326 -767.2865635432648
9327 -767.4043647945977
9328 -767.2800476834915
9329 -767.3925520240549
9330 -767.2956126580997
9331 -767.3889451280148
9332 -767.2963267478102
9333 -767.3936850871958
9334 -767.3083251825358
9335 -767.3973648579871
9336 -767.300320059496
9337 -767.3962831129869
9338 -767.3059733889598
9339 -767.3957968326885
9340 -767.2902107052333
9341 -767.380378228426
9342 -767.287510615876
9343 -767.3846028639466
9344 -767.2791426622277
9345 -767.39401856115
9346 -767.2938451533922
9347 -767.3957069744029
9348 -767.2808556622821
9349 -767.3931212479657
9350 -767.2918210956108
9351 -767.3933783047107
9352 -767.2777698455116
9353 -767.3810103615982
9354 -767.291653129088
9355 -767.3740450134547
9356 -767.2942156582309
9357 -767.3793332197448
9358 -767.3033019292008
9359 -767.3831244218854
9360 -767.3004849653937
9361 -767.3739586770234
9362 -767.3016324106967
9363 -767.3803561803213
9364 -767.2850620083009
9365 -767.375885084281
9366 -767.2987339482395
9367 -767.3880490467113
9368 -767.2971538832247
9369 -767.3902640859874
9370 -767.2825508012641
9371 -767.3897521439171
9372 -767.2786629600264
9373 -767.3882731238391
9374 -767.2824858207641
9375 -767.3997231289624
9376 -767.280951834379
9377 -767.4020275712941
9378 -767.2865866394357
9379 -767.3913597153086
9380 -767.2849472690373
9381 -767.4007302572007
9382 -767.2935216685488
9383 -767.390011272999
9384 -767.2878172245669
9385 -767.397157836882
9386 -767.3084231176434
9387 -767.4106392962969
9388 -767.2944110660302
9389 -767.3945475847535
9390 -767.294535770625
9391 -767.3994942636631
9392 -767.2736127277127
9393 -767.4093757223743
9394 -767.2748047693165
9395 -767.409199644208
9396 -767.276855309583
9397 -767.4010330849281
9398 -767.2870123080243
9399 -767.4100891824252
9400 -767.2743609346269
9401 -767.3979909015708
9402 -767.2911680758947
9403 -767.3899143041259
9404 -767.3000802012274
9405 -767.3922972488135
9406 -767.299310589829
9407 -767.3805853374391
9408 -767.2919502067069
9409 -767.3853844907343
9410 -767.2987135964887
9411 -767.3931245557552
9412 -767.2853534624744
9413 -767.3901907657967
9414 -767.2848232962174
9415 -767.388283596747
9416 -767.2812173673602
9417 -767.3835323700531
9418 -767.286597655703
9419 -767.3886394551367
9420 -767.2846927633113
9421 -767.4006681520581
9422 -767.2883151688111
9423 -767.4006555160412
9424 -767.2748633096739
9425 -767.3842484136082
9426 -767.2967762363648
9427 -767.393158595706
9428 -767.2865067194153
9429 -767.3949664263992
9430 -767.292304615269
9431 -767.3964953134783
9432 -767.2883824183461
9433 -767.3977922192252
9434 -767.3039649180628
9435 -767.4016429669205
9436 -767.2869561038481
9437 -767.4081356952632
9438 -767.3048259998209
9439 -767.3904207125358
9440 -767.2967573442604
9441 -767.3902910423908
9442 -767.2999697222581
9443 -767.3856562660909
9444 -767.3039900495255
9445 -767.3758955679629
9446 -767.3111990929369
9447 -767.3811286069753
9448 -767.3067542351781
9449 -767.3695645613549
9450 -767.3094348213872
9451 -767.3696448165742
9452 -767.3035351681569
9453 -767.3760340666303
9454 -767.3094069606407
9455 -767.3848987540597
9456 -767.2989173715204
9457 -767.3851742669762
9458 -767.2931865223995
9459 -767.4003119004899
9460 -767.2823185441932
9461 -767.3912421531493
9462 -767.2864618294391
9463 -767.3835508254399
9464 -767.2809941974609
9465 -767.3891292722722
9466 -767.2845262136328
9467 -767.3906614790285
9468 -767.2761093686656
9469 -767.3808391655956
9470 -767.2839721148434
9471 -767.3962555555137
9472 -767.2769301764631
9473 -767.3864089475824
9474 -767.2917086464759
9475 -767.3848634834103
9476 -767.2933954476441
9477 -767.4010238565482
9478 -767.2833088972865
9479 -767.405253633088
9480 -767.2855935924561
9481 -767.3963842968246
9482 -767.2938426174932
9483 -767.4029912136392
9484 -767.291014599782
9485 -767.3876412067681
9486 -767.2953494358695
9487 -767.3911370720145
9488 -767.2973183744399
9489 -767.3993696930042
9490 -767.2958299442736
9491 -767.3936390185272
9492 -767.2976826837255
9493 -767.3922626221809
9494 -767.3141450508466
9495 -767.4057220835025
9496 -767.3087717363493
9497 -767.3899113391315
9498 -767.3023035523407
9499 -767.405205104503
9500 -767.2893760775005
9501 -767.4204187231597
9502 -767.3033596367111
9503 -767.4258019582269
9504 -767.3038190211398
9505 -767.4200223698188
9506 -767.3146539751255
9507 -767.4161265825682
9508 -767.2968885122085
9509 -767.4104871603165
9510 -767.313112162161
9511 -767.404063569907
9512 -767.30398312739
9513 -767.3981717272005
9514 -767.3063871847796
9515 -767.3837977918598
9516 -767.3137528625138
9517 -767.3792373403542
9518 -767.3190340316803
9519 -767.3950763743726
9520 -767.3099062349542
9521 -767.3888399593236
9522 -767.3046827865794
9523 -767.3813491531075
9524 -767.3122574202922
9525 -767.4051814827617
9526 -767.3074533573639
9527 -767.3973307917242
9528 -767.2911333006198
9529 -767.3874617828398
9530 -767.2801605194973
9531 -767.3917373202351
9532 -767.278005935915
9533 -767.3872199683664
9534 -767.2828033717094
9535 -767.3820344041218
9536 -767.2756901937423
9537 -767.3924579476252
9538 -767.2827915256146
9539 -767.3878371230309
9540 -767.2924267372695
9541 -767.3997578162038
9542 -767.2994560289088
9543 -767.3851801675324
9544 -767.2925425332519
9545 -767.3735023525246
9546 -767.301692919572
9547 -767.3702491758053
9548 -767.3081344486875
9549 -767.3843339621583
9550 -767.307507268749
9551 -767.3794909855973
9552 -767.3078480480997
9553 -767.3750838315555
9554 -767.3104315068243
9555 -767.3811768321493
9556 -767.3069693142716
9557 -767.3745118645585
9558 -767.3172779019072
9559 -767.3651561831468
9560 -767.3167414218209
9561 -767.3685955450188
9562 -767.3197851130169
9563 -767.3629850296454
9564 -767.3209802567
9565 -767.3676279739595
9566 -767.3282975341267
9567 -767.3749000847976
9568 -767.3212878516074
9569 -767.3683464073712
9570 -767.3238419473985
9571 -767.3812087084564
9572 -767.3186617503779
9573 -767.3918287840786
9574 -767.3184090894084
9575 -767.3881086854328
9576 -767.3064912171194
9577 -767.3955386907988
9578 -767.3008413674663
9579 -767.4131771131721
9580 -767.308047624903
9581 -767.4144281470551
9582 -767.3098818744946
9583 -767.4140040991525
9584 -767.3015109352918
9585 -767.4074630219284
9586 -767.2930553421421
9587 -767.4041792751741
9588 -767.3017486289342
9589 -767.3969250378093
9590 -767.3064530759723
9591 -767.3983637739925
9592 -767.3082004290752
9593 -767.3822820110192
9594 -767.3189177033101
9595 -767.3928007080906
9596 -767.3111381147216
9597 -767.3938130779159
9598 -767.3022273208653
9599 -767.3785438970689
9600 -767.2926287687119
9601 -767.381177909741
9602 -767.2954800840707
9603 -767.3899013472504
9604 -767.2896065015356
9605 -767.3849602546533
9606 -767.2880055828883
9607 -767.392886579829
9608 -767.2808726267039
9609 -767.3915624941134
9610 -767.2877190283779
9611 -767.3887224912277
9612 -767.2839084611398
9613 -767.3847424714893
9614 -767.3009339335136
9615 -767.398062028647
9616 -767.2976445687736
9617 -767.3875398270985
9618 -767.3015609709934
9619 -767.3904582789578
9620 -767.291104885993
9621 -767.4019154034645
9622 -767.2943522940174
9623 -767.4038159056527
9624 -767.2924909720983
9625 -767.4028193083393
9626 -767.2996621421701
9627 -767.4073178060904
9628 -767.285681223835
9629 -767.406223921577
9630 -767.2872868355724
9631 -767.3999477190615
9632 -767.2783090360001
9633 -767.4023609609228
9634 -767.2908234765471
9635 -767.3992677354936
9636 -767.2998177555589
9637 -767.3995793622602
9638 -767.3028331369304
9639 -767.3890471449804
9640 -767.2975237061866
9641 -767.3877640064014
9642 -767.302771222885
9643 -767.3892585390016
9644 -767.2972654381078
9645 -767.3948693867775
9646 -767.2911046586028
9647 -767.3905968958487
9648 -767.3022119896993
9649 -767.4025874965034
9650 -767.2917331430294
9651 -767.3997653068898
9652 -767.2814532837094
9653 -767.3983926823987
9654 -767.2876074420958
9655 -767.4131024914906
9656 -767.2876036461126
9657 -767.4168668342178
9658 -767.2861153332772
9659 -767.4032111178108
9660 -767.2801885272816
9661 -767.3901913307709
9662 -767.2837601555926
9663 -767.3866105963521
9664 -767.2803277050211
9665 -767.3784190693509
9666 -767.2947938739561
9667 -767.3764394797039
9668 -767.2971817326606
9669 -767.3870557537097
9670 -767.3095795369727
9671 -767.3777334313355
9672 -767.3053545146768
9673 -767.3668412599915
9674 -767.3113948418959
9675 -767.382377129452
9676 -767.3077688933323
9677 -767.3903257371361
9678 -767.3125084864292
9679 -767.3982068716706
9680 -767.2978753351772
9681 -767.3965443440222
9682 -767.2852022212144
9683 -767.3977588593456
9684 -767.2875932767514
9685 -767.4100568778937
9686 -767.3035132290645
9687 -767.415647042595
9688 -767.2875845357808
9689 -767.3897285518694
9690 -767.2883813427171
9691 -767.3895410699553
9692 -767.2951283665029
9693 -767.3884567498409
9694 -767.2909842650459
9695 -767.3822567344589
9696 -767.300918347147
9697 -767.3846113011283
9698 -767.3015685546644
9699 -767.3936085223141
9700 -767.2966149522131
9701 -767.3883616603239
9702 -767.3033230208774
9703 -767.3950067966445
9704 -767.2887374984891
9705 -767.401508839809
9706 -767.2947572632635
9707 -767.4017837305506
9708 -767.2881588055567
9709 -767.4013954432949
9710 -767.3016878387245
9711 -767.4177998784062
9712 -767.302712102484
9713 -767.4028519075844
9714 -767.3074392038776
9715 -767.4015259443914
9716 -767.2962253233866
9717 -767.3995246499057
9718 -767.2837870109694
9719 -767.3983670725144
9720 -767.2840556785754
9721 -767.3993687993725
9722 -767.2848963315651
9723 -767.4153033805919
9724 -767.2744453566878
9725 -767.4079673076335
9726 -767.2809511936625
9727 -767.4065345973989
9728 -767.2693430451892
9729 -767.4159908829359
9730 -767.2756254497983
9731 -767.4110201647659
9732 -767.2674798990054
9733 -767.4146439096935
9734 -767.277346816049
9735 -767.4060417316302
9736 -767.2775694976973
9737 -767.3758693977899
9738 -767.2899917974614
9739 -767.3690328375665
9740 -767.2911319949851
9741 -767.3683334872912
9742 -767.3019107752655
9743 -767.3698236194192
9744 -767.3062001589685
9745 -767.3554230727506
9746 -767.3048632613391
9747 -767.3663812963337
9748 -767.3104000855636
9749 -767.3657806551696
9750 -767.3147261635684
9751 -767.3707162503462
9752 -767.3137041546964
9753 -767.3857354805028
9754 -767.3004614594175
9755 -767.3739449764623
9756 -767.3032063761943
9757 -767.3834367752014
9758 -767.3170331980339
9759 -767.3851338784058
9760 -767.3086114338114
9761 -767.3723907374967
9762 -767.3101111144706
9763 -767.3786791616747
9764 -767.3143400004569
9765 -767.3910017049875
9766 -767.3038795939416
9767 -767.3813774716956
9768 -767.3080985101066
9769 -767.3807664997497
9770 -767.3142452856601
9771 -767.3873105380993
9772 -767.3046810004421
9773 -767.3834442996372
9774 -767.3150899354529
9775 -767.3873560829783
9776 -767.3170572537105
9777 -767.3936374508511
9778 -767.3155062247546
9779 -767.3804342652404
9780 -767.3085858059308
9781 -767.3738702011947
9782 -767.3134633410172
9783 -767.3724606554284
9784 -767.2985752448727
9785 -767.3688662944792
9786 -767.309002928753
9787 -767.3706226478693
9788 -767.301914585745
9789 -767.381779834489
9790 -767.3059117632547
9791 -767.3817544019394
9792 -767.3004736591291
9793 -767.384103506153
9794 -767.3052887785119
9795 -767.3971330919439
9796 -767.3080452773089
9797 -767.3972741844789
9798 -767.3071038290128
9799 -767.3932966193837
9800 -767.3042079706401
9801 -767.3888671061812
9802 -767.3082595758677
9803 -767.3857561334017
9804 -767.3017184660213
9805 -767.3763439645035
9806 -767.3066522856516
9807 -767.3915379944299
9808 -767.2974588353719
9809 -767.3852169464993
9810 -767.3092971270756
9811 -767.3912830440767
9812 -767.3048932041838
9813 -767.4027903543931
9814 -767.3021807089772
9815 -767.3982373575135
9816 -767.2978017510942
9817 -767.3997029708512
9818 -767.3038654781446
9819 -767.4107120695789
9820 -767.3008725457262
9821 -767.399373419787
9822 -767.2948067659127
9823 -767.3890806084838
9824 -767.2951664973967
9825 -767.3913954195318
9826 -767.30491187258
9827 -767.3844278177336
9828 -767.2996016859144
9829 -767.3716057268192
9830 -767.3024610691667
9831 -767.383483279461
9832 -767.2942749803756
9833 -767.3804409819688
9834 -767.3020596245173
9835 -767.3860368593204
9836 -767.2877183102303
9837 -767.3949206692914
9838 -767.291830355416
9839 -767.3924878176731
9840 -767.2920383362986
9841 -767.4033349941298
9842 -767.2943259295533
9843 -767.4078014287498
9844 -767.2755697288356
9845 -767.3979693799424
9846 -767.2865238529513
9847 -767.4109786816723
9848 -767.2893072209415
9849 -767.4015467125358
9850 -767.2868518194027
9851 -767.3861066159868
9852 -767.2767955117994
9853 -767.3831296063897
9854 -767.2822659797847
9855 -767.3846202593043
9856 -767.2749386175276
9857 -767.3727472693164
9858 -767.2796722662023
9859 -767.3757510592135
9860 -767.2761122588496
9861 -767.3917289068211
9862 -767.2720418060243
9863 -767.4041336197763
9864 -767.2814849483166
9865 -767.4024907386089
9866 -767.2946650360199
9867 -767.4115845801233
9868 -767.2891462562997
9869 -767.3990561632846
9870 -767.2956801920437
9871 -767.3916438407817
9872 -767.2978116869773
9873 -767.3908305763431
9874 -767.3009020324155
9875 -767.3995056039436
9876 -767.3070947293003
9877 -767.3945958107116
9878 -767.3209491158805
9879 -767.3802983769865
9880 -767.3051958650575
9881 -767.362570785485
9882 -767.3044561181538
9883 -767.3627693366262
9884 -767.2997018091625
9885 -767.3837115030706
9886 -767.302885117089
9887 -767.3851977591399
9888 -767.3026841522191
9889 -767.3911512485023
9890 -767.3094439049748
9891 -767.3944301300534
9892 -767.2972301500985
9893 -767.384638301033
9894 -767.2989179021509
9895 -767.3972652164982
9896 -767.2957362383094
9897 -767.3965456384119
9898 -767.2931756820082
9899 -767.3854538732728
9900 -767.2934425512738
9901 -767.3778486125145
9902 -767.2972963358545
9903 -767.3763950595536
9904 -767.2875214211338
9905 -767.373913184664
9906 -767.3017287890061
9907 -767.3855697744123
9908 -767.3030349356925
9909 -767.3868923448625
9910 -767.2957626347954
9911 -767.3832124391964
9912 -767.2844975711799
9913 -767.378248363642
9914 -767.2917223079922
9915 -767.3927566549994
9916 -767.2765237874099
9917 -767.3963566318722
9918 -767.2762696500645
9919 -767.4008734833226
9920 -767.275367114556
9921 -767.4006855724786
9922 -767.2798961271906
9923 -767.3977186988591
9924 -767.2755585916223
9925 -767.3966081321682
9926 -767.2763472733441
9927 -767.4039242389223
9928 -767.2648739876327
9929 -767.3963967160666
9930 -767.2831588783122
9931 -767.4172190493392
9932 -767.2752881222276
9933 -767.4248567611278
9934 -767.2718424354183
9935 -767.4066800588497
9936 -767.2723055549344
9937 -767.3883726570866
9938 -767.2915050519238
9939 -767.3986582954424
9940 -767.2815238031803
9941 -767.3920563596388
9942 -767.2912786396574
9943 -767.3784156749258
9944 -767.2951495191734
9945 -767.3795852590572
9946 -767.308831144318
9947 -767.3756391966608
9948 -767.3049801834366
9949 -767.3693879406109
9950 -767.309888099418
9951 -767.3750102530093
9952 -767.3023868187261
9953 -767.3672105987315
9954 -767.3044602029985
9955 -767.3784547894537
9956 -767.3014544256558
9957 -767.3733326606491
9958 -767.301871711265
9959 -767.3818888205867
9960 -767.3008875260613
9961 -767.3838943215977
9962 -767.2982970977333
9963 -767.3941097338876
9964 -767.2929545144382
9965 -767.3861445384784
9966 -767.3083371239443
9967 -767.3921262060488
9968 -767.3003760898251
9969 -767.3957060181342
9970 -767.3013374918593
9971 -767.394529402602
9972 -767.3008168372812
9973 -767.3935341644806
9974 -767.3083103952944
9975 -767.3984595710757
9976 -767.2875135496425
9977 -767.3886703098501
9978 -767.3065685976046
9979 -767.382948300415
9980 -767.3040215005308
9981 -767.3905275635003
9982 -767.3122965036991
9983 -767.3819703299638
9984 -767.3013446886099
9985 -767.3658768967678
9986 -767.3150122921154
9987 -767.3705301807063
9988 -767.3095865999858
9989 -767.359117319892
9990 -767.3115930567367
9991 -767.3686330955945
9992 -767.2959772888667
9993 -767.37458797683
9994 -767.2913375315046
9995 -767.378728997935
9996 -767.2751012737274
9997 -767.3755341684438
9998 -767.2840622239034
9999 -767.3872886974209
10000 -767.2719827282376
10001 -767.3865694279871
10002 -767.2900089866931
10003 -767.3949745346974
10004 -767.2893108926474
10005 -767.3942370086405
10006 -767.30191172539
10007 -767.3760970796728
10008 -767.3001087211084
10009 -767.3713352979332
10010 -767.3164261926138
10011 -767.3683968580757
10012 -767.3055265260813
10013 -767.3540309689365
10014 -767.3108507376684
10015 -767.3634340980253
10016 -767.3080402618667
10017 -767.3784469172415
10018 -767.3087694395125
10019 -767.3723322711229
10020 -767.3041766083127
10021 -767.3674145759358
10022 -767.3176553400309
10023 -767.3921598318433
10024 -767.3140184037566
10025 -767.3898661146146
10026 -767.3155826193735
10027 -767.3829511255134
10028 -767.3064563756374
10029 -767.381647611176
10030 -767.3081318075856
10031 -767.37693627995
10032 -767.311764506232
10033 -767.3717012927902
10034 -767.3088461828285
10035 -767.3774750442261
10036 -767.29756576581
10037 -767.3764673146513
10038 -767.3035802077657
10039 -767.3870717992967
10040 -767.2904404160091
10041 -767.3954777180342
10042 -767.2824483574633
10043 -767.4018392917632
10044 -767.2766240693533
10045 -767.4199077601317
10046 -767.2825426233361
10047 -767.4237963073909
10048 -767.2687108948639
10049 -767.4167610449194
10050 -767.2724091703114
10051 -767.4055097574787
10052 -767.2675393913653
10053 -767.4150213902789
10054 -767.2803922060234
10055 -767.404913676614
10056 -767.2819789065933
10057 -767.3874012234375
10058 -767.283282551096
10059 -767.3876183450304
10060 -767.2787123292359
10061 -767.3825927593866
10062 -767.2960594204075
10063 -767.3837446180252
10064 -767.2941810215603
10065 -767.3906164893666
10066 -767.2897309489114
10067 -767.3945780069488
10068 -767.2861328942072
10069 -767.387535717994
10070 -767.2830152704954
10071 -767.3958128617448
10072 -767.2750270233931
10073 -767.4065122831956
10074 -767.2891551153028
10075 -767.4056671549437
10076 -767.293068656133
10077 -767.4094156249581
10078 -767.2906488226002
10079 -767.391157777723
10080 -767.2867815631001
10081 -767.3994379850835
10082 -767.2981963059585
10083 -767.3971333165334
10084 -767.3051719649528
10085 -767.3892730539587
10086 -767.3106256312226
10087 -767.3916107519832
10088 -767.313642583101
10089 -767.3901173372874
10090 -767.2963626379134
10091 -767.3716403089603
10092 -767.3023302273514
10093 -767.3706287342326
10094 -767.2987274025439
10095 -767.3804916185217
10096 -767.2940844863135
10097 -767.3851125164797
10098 -767.2986225158409
10099 -767.3735370980984
10100 -767.2868855453274
10101 -767.3864289343846
10102 -767.2835365556466
10103 -767.3807654636852
10104 -767.2814714991792
10105 -767.3824519662244
10106 -767.2914847961721
10107 -767.3846449916106
10108 -767.2832169069195
10109 -767.3856709972985
10110 -767.292981019702
10111 -767.3833679607953
10112 -767.3011650283984
10113 -767.3846320295604
10114 -767.2955819167219
10115 -767.385803392984
10116 -767.2975881365137
10117 -767.3866527380541
10118 -767.2892342273991
10119 -767.3927455649367
10120 -767.287037435362
10121 -767.3913666465687
10122 -767.289999318471
10123 -767.3935553668973
10124 -767.2837828659713
10125 -767.3983988299026
10126 -767.2864050706993
10127 -767.3886027957653
10128 -767.2832262053672
10129 -767.3816198164874
10130 -767.290238491638
10131 -767.3892052484227
10132 -767.2877997063446
10133 -767.3778760107369
10134 -767.2961522701728
10135 -767.3702172617661
10136 -767.2951334626975
10137 -767.3792688881783
10138 -767.2862986360115
10139 -767.3836393451323
10140 -767.2940542252563
10141 -767.3846259650878
10142 -767.2915994988408
10143 -767.3921082950562
10144 -767.2839255915602
10145 -767.38937774005
10146 -767.2911859512033
10147 -767.3949559362994
10148 -767.2801796626775
10149 -767.410252318943
10150 -767.2769457792206
10151 -767.4086334076926
10152 -767.2776797775912
10153 -767.418491026896
10154 -767.2859556651804
10155 -767.4237626525268
10156 -767.288110223689
10157 -767.4092140924108
10158 -767.2977553799138
10159 -767.4064674929897
10160 -767.2996071344145
10161 -767.4090835860522
10162 -767.3085669926245
10163 -767.4010413884076
10164 -767.3050866888905
10165 -767.3906398167712
10166 -767.3041939761134
10167 -767.3842599104015
10168 -767.2979081572089
10169 -767.3798959295085
10170 -767.3005796424565
10171 -767.3803763401809
10172 -767.3039223620648
10173 -767.3914947016979
10174 -767.3012983487545
10175 -767.3947484251163
10176 -767.3015933500702
10177 -767.3934721487507
10178 -767.2935069826729
10179 -767.393241057425
10180 -767.2773118002532
10181 -767.3980026675723
10182 -767.2919547975722
10183 -767.4053033908788
10184 -767.2796595460183
10185 -767.4031976124508
10186 -767.2808307804343
10187 -767.3982459108911
10188 -767.2784232367446
10189 -767.3969914597627
10190 -767.2834605883304
10191 -767.4053938027859
10192 -767.2706492946484
10193 -767.3965062945849
10194 -767.2668953683632
10195 -767.3892027611083
10196 -767.269889347192
10197 -767.3961966736813
10198 -767.2658563053918
10199 -767.3874738171871
10200 -767.2644098768714
10201 -767.3822954494917
10202 -767.2738510567266
10203 -767.3896882367513
10204 -767.2775417461137
10205 -767.3836423645341
10206 -767.2890242607228
10207 -767.3927253591789
10208 -767.2893027136848
10209 -767.3842806265179
10210 -767.297252954701
10211 -767.3813667518735
10212 -767.3042100175558
10213 -767.3629953835743
10214 -767.3169439021348
10215 -767.3730229069748
10216 -767.3107981335578
10217 -767.3767885476514
10218 -767.3182105177559
10219 -767.3804872796564
10220 -767.3116300988776
10221 -767.3832099575848
10222 -767.3099524940619
10223 -767.3768357537407
10224 -767.2972752433877
10225 -767.3735410324086
10226 -767.304190070329
10227 -767.3865674425934
10228 -767.2996862651785
10229 -767.3905037003849
10230 -767.3020296172737
10231 -767.3867968079203
10232 -767.3042848010502
10233 -767.3871089532846
10234 -767.3076671711621
10235 -767.3788957390747
10236 -767.2995473671127
10237 -767.3799539511292
10238 -767.3063720239975
10239 -767.3810566729121
10240 -767.293177030108
10241 -767.3729941357784
10242 -767.3019881679794
10243 -767.37751956051
10244 -767.2956091102326
10245 -767.3779733134489
10246 -767.2940509278778
10247 -767.3812987638186
10248 -767.2928715431599
10249 -767.3790519089143
10250 -767.2949406034365
10251 -767.3907671252047
10252 -767.28582763423
10253 -767.3861353680555
10254 -767.299357417268
10255 -767.3795931241968
10256 -767.2879828586941
10257 -767.3824889072367
10258 -767.3007944180164
10259 -767.3905213948266
10260 -767.2982501031785
10261 -767.3861963857406
10262 -767.3029875560617
10263 -767.3943269254803
10264 -767.2964602531217
10265 -767.3846871650152
10266 -767.2981219617868
10267 -767.3909299913835
10268 -767.2962246320252
10269 -767.4013739738554
10270 -767.3044387198541
10271 -767.3903651788501
10272 -767.3005430501066
10273 -767.3860117179129
10274 -767.3084180936542
10275 -767.3837475228846
10276 -767.2899684948505
10277 -767.3665811841751
10278 -767.3027394037795
10279 -767.3771059642407
10280 -767.2968594925793
10281 -767.3809506172471
10282 -767.3010690861629
10283 -767.3740353626283
10284 -767.2904654365794
10285 -767.3621306460649
10286 -767.2950151610883
10287 -767.3710852836758
10288 -767.2751582242645
10289 -767.3733429485427
10290 -767.2914092122194
10291 -767.3766106139466
10292 -767.2822649539474
10293 -767.3853717754521
10294 -767.2840242241667
10295 -767.3873548272895
10296 -767.2800663304932
10297 -767.3825894814669
10298 -767.2954784369642
10299 -767.3941448348138
10300 -767.2898421498049
10301 -767.3898628765671
10302 -767.3004616572008
10303 -767.3941009987446
10304 -767.2886040832863
10305 -767.3966407130079
10306 -767.2889547201778
10307 -767.3957401997053
10308 -767.2896757314962
10309 -767.3946757511106
10310 -767.3013128519926
10311 -767.3943318288939
10312 -767.276947561928
10313 -767.3795199905263
10314 -767.2921504546749
10315 -767.3744296729707
10316 -767.2757056696663
10317 -767.3854383695943
10318 -767.2809037319911
10319 -767.3660738481142
10320 -767.2873801011726
10321 -767.3566255858675
10322 -767.2978550006947
10323 -767.3619966443246
10324 -767.2827595109698
10325 -767.359067920268
10326 -767.2906234481695
10327 -767.3619321242364
10328 -767.2852005658865
10329 -767.3696143481238
10330 -767.2915425544958
10331 -767.3752919629546
10332 -767.2883374871986
10333 -767.3714540099694
10334 -767.2989704327834
10335 -767.3899635341272
10336 -767.2899495093061
10337 -767.3798554601166
10338 -767.2852139756401
10339 -767.3783840298438
10340 -767.280182602964
10341 -767.3764815060761
10342 -767.2928889652183
10343 -767.3732251401168
10344 -767.2895842058942
10345 -767.3699702265492
10346 -767.2945776779354
10347 -767.3873180017066
10348 -767.2828404386863
10349 -767.3821419298009
10350 -767.2935280507548
10351 -767.3879687024365
10352 -767.2778042858738
10353 -767.3891399942939
10354 -767.2864493948944
10355 -767.3943167977326
10356 -767.2766229260109
10357 -767.3883877597042
10358 -767.2929772958263
10359 -767.4106852615313
10360 -767.2877843683455
10361 -767.3912292364543
10362 -767.3103739161492
10363 -767.3970218598009
10364 -767.3091744553926
10365 -767.3876607740207
10366 -767.3161341857426
10367 -767.3880127142249
10368 -767.2997146100527
10369 -767.3753555205285
10370 -767.3069586976653
10371 -767.387437784556
10372 -767.2908337052592
10373 -767.3882478018769
10374 -767.2996246660391
10375 -767.3776407567651
10376 -767.2908723159189
10377 -767.3939159076446
10378 -767.2889329058871
10379 -767.4025988964628
10380 -767.2743770650582
10381 -767.4026667583779
10382 -767.2794267948723
10383 -767.4108020493707
10384 -767.270509780023
10385 -767.4035146306859
10386 -767.2868992193675
10387 -767.4044829300416
10388 -767.2758364304209
10389 -767.4106884227276
10390 -767.2713188811078
10391 -767.4050516161714
10392 -767.2803663962789
10393 -767.3966308736256
10394 -767.2779745438911
10395 -767.4020662106761
10396 -767.2761828179381
10397 -767.3940874478144
10398 -767.2895162938718
10399 -767.3939592786543
10400 -767.2808283904128
10401 -767.401135037868
10402 -767.2737449741834
10403 -767.404453413915
10404 -767.2766358133275
10405 -767.3983088240069
10406 -767.2860628559919
10407 -767.4180638544325
10408 -767.2899782937867
10409 -767.4117134986659
10410 -767.2969616184917
10411 -767.3998613669609
10412 -767.2841893956096
10413 -767.3952376762001
10414 -767.2898504571178
10415 -767.3885439553153
10416 -767.280822927669
10417 -767.3870250326511
10418 -767.2968200657706
10419 -767.4003236978275
10420 -767.2910538962461
10421 -767.3818663263903
10422 -767.2788322825844
10423 -767.3732905620996
10424 -767.2847923717051
10425 -767.3745014071361
10426 -767.2891717637475
10427 -767.3799024802646
10428 -767.2894832578669
10429 -767.3771966179959
10430 -767.2964031826638
10431 -767.3873259576942
10432 -767.2888930635488
10433 -767.3751042395206
10434 -767.2930922238349
10435 -767.3819301003366
10436 -767.2915465759485
10437 -767.3938023310978
10438 -767.3063216702409
10439 -767.3904175342337
10440 -767.305188175354
10441 -767.3832303039383
10442 -767.3118740764077
10443 -767.3921876324174
10444 -767.2884052886959
10445 -767.3922099802978
10446 -767.3016516506577
10447 -767.3922135476886
10448 -767.302057849617
10449 -767.3944385566862
10450 -767.3092387924962
10451 -767.3941227808803
10452 -767.309829624443
10453 -767.3784461081809
10454 -767.2983857512036
10455 -767.3822124829593
10456 -767.294142844562
10457 -767.3806592359629
10458 -767.3044337553906
10459 -767.3851872389396
10460 -767.2959049574322
10461 -767.3940564894511
10462 -767.3011459835787
10463 -767.3894546828166
10464 -767.2962617312985
10465 -767.3856104800824
10466 -767.306301892194
10467 -767.3942939707765
10468 -767.306052029756
10469 -767.3860640940998
10470 -767.3123443763888
10471 -767.3849178812744
10472 -767.3035819959513
10473 -767.3848222800418
10474 -767.2990534883444
10475 -767.3726063593846
10476 -767.3001013525859
10477 -767.3724960941989
10478 -767.3107120573552
10479 -767.3745116657904
10480 -767.2994817303032
10481 -767.3580721894702
10482 -767.3104742197339
10483 -767.3537674633109
10484 -767.3063552371792
10485 -767.3701021981933
10486 -767.3106276605741
10487 -767.3681361172737
10488 -767.2951979242497
10489 -767.3628304578315
10490 -767.3023324766095
10491 -767.3893889280246
10492 -767.2913601856521
10493 -767.3950182541344
10494 -767.2898235432377
10495 -767.4048108080769
10496 -767.2847445817141
10497 -767.3995054918828
10498 -767.2730363615067
10499 -767.393233647316
10500 -767.2748118122825
10501 -767.3943217021879
10502 -767.2863835699574
10503 -767.4001156000402
10504 -767.2892002886863
10505 -767.3813271311564
10506 -767.297932634792
10507 -767.3871913772546
10508 -767.2923568077376
10509 -767.4017512722695
10510 -767.287975775985
10511 -767.3967413498807
10512 -767.2836686720957
10513 -767.4019221806391
10514 -767.2947901091758
10515 -767.4172935041165
10516 -767.286089522334
10517 -767.4128554047662
10518 -767.2927029601408
10519 -767.4047372270367
10520 -767.2801995433529
10521 -767.3995307196368
10522 -767.2810570427034
10523 -767.399737661001
10524 -767.2793623796044
10525 -767.3828466494294
10526 -767.2880594088923
10527 -767.3901124042224
10528 -767.2868102052895
10529 -767.3868400397022
10530 -767.2966331159168
10531 -767.3800666138715
10532 -767.283037958817
10533 -767.3837787134421
10534 -767.2776919595323
10535 -767.3874483516609
10536 -767.2775064108372
10537 -767.388482805513
10538 -767.2825761641444
10539 -767.4065126188239
10540 -767.2790011008133
10541 -767.4010854127054
10542 -767.2822730988163
10543 -767.3988637959582
10544 -767.2729143755784
10545 -767.4015899835123
10546 -767.2838868589117
10547 -767.3849758097753
10548 -767.2901315150207
10549 -767.3819459992829
10550 -767.2971014241404
10551 -767.3727194383152
10552 -767.2941529588062
10553 -767.3587078849336
10554 -767.302831899971
10555 -767.3652224517762
10556 -767.3060521751114
10557 -767.3710102084316
10558 -767.3192794754185
10559 -767.3739787025909
10560 -767.3234531089001
10561 -767.3673765008642
10562 -767.3158465163967
10563 -767.3858877326882
10564 -767.2971133949035
10565 -767.3812684984268
10566 -767.2928860616175
10567 -767.3967625388689
10568 -767.2977874439775
10569 -767.4040358491039
10570 -767.2908142368428
10571 -767.3985686915436
10572 -767.2802233714406
10573 -767.3962463803509
10574 -767.2783490868835
10575 -767.3979960202262
10576 -767.2683894075647
10577 -767.3896473723674
10578 -767.2776715113486
10579 -767.3891722351832
10580 -767.2847273750376
10581 -767.3860669148394
10582 -767.2805870153288
10583 -767.3860343031475
10584 -767.2804065000321
10585 -767.3790096860347
10586 -767.2852042047418
10587 -767.3781047005206
10588 -767.2785647427888
10589 -767.381727583593
10590 -767.2928184954869
10591 -767.3812359907022
10592 -767.2910995386471
10593 -767.3846895963937
10594 -767.2934002100005
10595 -767.3763385868671
10596 -767.2901083238498
10597 -767.3859474027731
10598 -767.2964335047675
10599 -767.3960110555772
10600 -767.2915565097283
10601 -767.3917488356944
10602 -767.2984598176666
10603 -767.3925482384094
10604 -767.28398443923
10605 -767.4019860929984
10606 -767.2908804470815
10607 -767.3965476864732
10608 -767.2841397435159
10609 -767.3882409150129
10610 -767.2829423576778
10611 -767.4030693715866
10612 -767.2739382306063
10613 -767.4016715445489
10614 -767.2762723397445
10615 -767.4081374673976
10616 -767.272565491963
10617 -767.4050725627171
10618 -767.2693160679814
10619 -767.4067384982512
10620 -767.2671867410887
10621 -767.4013343699053
10622 -767.2729799899134
10623 -767.4134518839295
10624 -767.2790793713826
10625 -767.3965820655324
10626 -767.2937162085701
10627 -767.4073536173591
10628 -767.3135841490565
10629 -767.3970143268099
10630 -767.3140006771443
10631 -767.3651160212534
10632 -767.3153006992011
10633 -767.3640623210393
10634 -767.3228997766457
10635 -767.3761506391836
10636 -767.3058840665122
10637 -767.3740222592952
10638 -767.308107159932
10639 -767.3760679379751
10640 -767.2879040287302
10641 -767.3829494788114
10642 -767.2724842208588
10643 -767.3871393664995
10644 -767.2762632510144
10645 -767.3903301115662
10646 -767.2774602094513
10647 -767.4082945692749
10648 -767.2617483632496
10649 -767.4021834127511
10650 -767.2776248836914
10651 -767.3979772537075
10652 -767.2791270038121
10653 -767.3931369822742
10654 -767.2842088165936
10655 -767.3867717086036
10656 -767.2898001486917
10657 -767.3790492705934
10658 -767.2979731808692
10659 -767.3837348883076
10660 -767.2911318333137
10661 -767.3646622517907
10662 -767.2944167660399
10663 -767.372806800633
10664 -767.2978393966007
10665 -767.3824521610671
10666 -767.295401276032
10667 -767.3772125663278
10668 -767.2969926572102
10669 -767.3793000179118
10670 -767.2920255524847
10671 -767.3856082390553
10672 -767.28604153556
10673 -767.3816761164474
10674 -767.2866945649872
10675 -767.3795174671625
10676 -767.2816452060448
10677 -767.3861664877363
10678 -767.278736537801
10679 -767.384161476669
10680 -767.2717596509352
10681 -767.3711396551762
10682 -767.2898074948207
10683 -767.3832686965985
10684 -767.2817637337877
10685 -767.3871552744027
10686 -767.287052597451
10687 -767.3965842501527
10688 -767.2925501830557
10689 -767.4016409064483
10690 -767.2927596607772
10691 -767.3946037959192
10692 -767.2920879387491
10693 -767.4011319147093
10694 -767.2978255733752
10695 -767.4072822890158
10696 -767.2969123959552
10697 -767.3951723855208
10698 -767.2981319725546
10699 -767.3847503449006
10700 -767.3021790226718
10701 -767.387639032265
10702 -767.2961423013444
10703 -767.3771490144184
10704 -767.2982215722286
10705 -767.3739198861812
10706 -767.306175063349
10707 -767.3903085976879
10708 -767.2977068010317
10709 -767.3783923824494
10710 -767.2929050514487
10711 -767.3885031721305
10712 -767.2882757499979
10713 -767.4020871710518
10714 -767.2857967733058
10715 -767.3910793624252
10716 -767.2777818823755
10717 -767.4129614921987
10718 -767.2898465390326
10719 -767.4111451107736
10720 -767.26357463468
10721 -767.4112123687735
10722 -767.2724288125366
10723 -767.4178365063806
10724 -767.2677623718363
10725 -767.4229770044852
10726 -767.2804202387451
10727 -767.4082697216857
10728 -767.2681697210875
10729 -767.396742976726
10730 -767.2762862424322
10731 -767.403550337901
10732 -767.2738840315253
10733 -767.3979562599933
10734 -767.2960070870978
10735 -767.3964012437854
10736 -767.2942751692958
10737 -767.3985465322843
10738 -767.2956985505533
10739 -767.3850877356831
10740 -767.2883205301737
10741 -767.3879687711652
10742 -767.3001221637547
10743 -767.4009780082185
10744 -767.2908978196697
10745 -767.3921869264348
10746 -767.3014089428916
10747 -767.4047157324337
10748 -767.2926320179954
10749 -767.3960913306342
10750 -767.2949546049005
10751 -767.3891537414619
10752 -767.2767817747568
10753 -767.3791948419279
10754 -767.2873914707872
10755 -767.390953697657
10756 -767.280296448848
10757 -767.3854282102601
10758 -767.2924310482459
10759 -767.3857137085857
10760 -767.2840756137535
10761 -767.3903828096717
10762 -767.290331116916
10763 -767.3934436507535
10764 -767.2910886411413
10765 -767.4036594063309
10766 -767.2939726714025
10767 -767.4099526901771
10768 -767.2744878292151
10769 -767.4014201265137
10770 -767.28267610605
10771 -767.3989586769287
10772 -767.2824755116451
10773 -767.394231136788
10774 -767.2882745682218
10775 -767.401902439441
10776 -767.2800491307997
10777 -767.3794994515968
10778 -767.2728465382993
10779 -767.3831248527039
10780 -767.2692643423998
10781 -767.3734168505324
10782 -767.2934539181015
10783 -767.3876608342637
10784 -767.2951006860546
10785 -767.391126344413
10786 -767.29906069351
10787 -767.391970261948
10788 -767.2983028235014
10789 -767.3934477051953
10790 -767.3090110943041
10791 -767.4136594457306
10792 -767.3044374401884
10793 -767.3987483894658
10794 -767.3082420065057
10795 -767.3932906465683
10796 -767.3019848913902
10797 -767.3940871678607
10798 -767.2950559890871
10799 -767.4007605790282
10800 -767.2908340242263
10801 -767.3976694709939
10802 -767.2901336112938
10803 -767.4117009741535
10804 -767.2988179317979
10805 -767.4025062855125
10806 -767.305507337619
10807 -767.3905253345209
10808 -767.2881720860609
10809 -767.3861808556262
10810 -767.2840402970176
10811 -767.3822950095469
10812 -767.2908196380636
10813 -767.3862878621554
10814 -767.3029918099045
10815 -767.3988832061017
10816 -767.3014700682578
10817 -767.3845572296838
10818 -767.2974192301784
10819 -767.3810131620676
10820 -767.2871615188471
10821 -767.3886317300464
10822 -767.2810745693941
10823 -767.3913604230872
10824 -767.2784774414187
10825 -767.4049024070684
10826 -767.2842185120595
10827 -767.4101700500396
10828 -767.2732621704636
10829 -767.3893409208563
10830 -767.2735392968576
10831 -767.3979286433308
10832 -767.2832811965783
10833 -767.4082913302854
10834 -767.2773985579604
10835 -767.4036444333153
10836 -767.2875353621013
10837 -767.3857554860166
10838 -767.2811785446372
10839 -767.3892270989912
10840 -767.275405054319
10841 -767.393307637879
10842 -767.2793649682485
10843 -767.3858855709219
10844 -767.2794971761685
10845 -767.3850812649122
10846 -767.2816346779159
10847 -767.3787829515368
10848 -767.2813727189778
10849 -767.3850607322482
10850 -767.2828407028892
10851 -767.3934350608054
10852 -767.2735790706288
10853 -767.3889156533554
10854 -767.2839826865923
10855 -767.3855050537475
10856 -767.2902080300289
10857 -767.3995576898423
10858 -767.3001297601721
10859 -767.382421946174
10860 -767.29706488615
10861 -767.3821143048904
10862 -767.3051292343619
10863 -767.3892555228243
10864 -767.2918886370219
10865 -767.380017283255
10866 -767.281586455788
10867 -767.3822975019935
10868 -767.2787469084528
10869 -767.3850886623368
10870 -767.2790781828934
10871 -767.3931445736212
10872 -767.2714529765542
10873 -767.3847336238788
10874 -767.2779853288106
10875 -767.4036439453006
10876 -767.2594344963139
10877 -767.3927316293427
10878 -767.2737645949077
10879 -767.390995340314
10880 -767.2798980643902
10881 -767.3918606856913
10882 -767.2837513887572
10883 -767.3869988043632
10884 -767.2749690776475
10885 -767.3859909024608
10886 -767.2845767508137
10887 -767.391691003148
10888 -767.2778890309696
10889 -767.3760927338415
10890 -767.2980371154849
10891 -767.3840616958892
10892 -767.3069768704512
10893 -767.3898977732149
10894 -767.3046343672819
10895 -767.3873619212827
10896 -767.3122924762232
10897 -767.386318910928
10898 -767.3192334838826
10899 -767.3963886725014
10900 -767.3062136626061
10901 -767.3863283094699
10902 -767.3152152826415
10903 -767.3937905599598
10904 -767.3228973554883
10905 -767.3879412248723
10906 -767.3096053337556
10907 -767.3777314066997
10908 -767.2935531469457
10909 -767.3765247108228
10910 -767.2938866218241
10911 -767.3882350003257
10912 -767.279444614904
10913 -767.3895050698444
10914 -767.2921179841834
10915 -767.3941787407654
10916 -767.278846091909
10917 -767.3944981787592
10918 -767.2703572299052
10919 -767.3943644517118
10920 -767.2636050515869
10921 -767.3910139189852
10922 -767.2732539015633
10923 -767.3969572588534
10924 -767.2776811153402
10925 -767.3961847021576
10926 -767.2760855635805
10927 -767.3983254227878
10928 -767.2676522466729
10929 -767.40068353565
10930 -767.2680699000114
10931 -767.3942442466796
10932 -767.2733993754273
10933 -767.403919564135
10934 -767.2899154697436
10935 -767.4073872473829
10936 -767.2879550426245
10937 -767.3834583749447
10938 -767.2904647566515
10939 -767.3884437069188
10940 -767.2912380030956
10941 -767.39595058219
10942 -767.2965246913284
10943 -767.3841019417388
10944 -767.3024419933606
10945 -767.3844721662339
10946 -767.305732587644
10947 -767.3935171737903
10948 -767.2964703320941
10949 -767.3981928962917
10950 -767.2995074607228
10951 -767.385647830792
10952 -767.2945150863217
10953 -767.391622636838
10954 -767.2876123827876
10955 -767.3977495586408
10956 -767.2886744463925
10957 -767.3902813186553
10958 -767.2972578201111
10959 -767.3977959095206
10960 -767.2863189499134
10961 -767.3862209153334
10962 -767.2879042052165
10963 -767.3951642869243
10964 -767.2882628394473
10965 -767.3970246047658
10966 -767.2885010255474
10967 -767.3902497257012
10968 -767.2938232204838
10969 -767.3896483806934
10970 -767.2953635332354
10971 -767.3909583983742
10972 -767.2918710361267
10973 -767.3813340829815
10974 -767.2950091923693
10975 -767.3828766581622
10976 -767.2805354664085
10977 -767.3758821968454
10978 -767.2748647999637
10979 -767.3800358329578
10980 -767.2801605156368
10981 -767.3885135819584
10982 -767.2887972703687
10983 -767.3895015087727
10984 -767.2729858752516
10985 -767.3864884018469
10986 -767.287519496801
10987 -767.3812156206773
10988 -767.2865780463646
10989 -767.3937071109065
10990 -767.2913265455963
10991 -767.3853412220855
10992 -767.281926809052
10993 -767.3848443624462
10994 -767.2924750487632
10995 -767.3893000622134
10996 -767.2673125129235
10997 -767.378159615163
10998 -767.2867513449023
10999 -767.3841931313844
11000 -767.2907593434893
11001 -767.3791823993942
11002 -767.3014074382017
11003 -767.3755797796819
11004 -767.2965003930335
11005 -767.3638646600705
11006 -767.3108192581659
11007 -767.3691750909688
11008 -767.3037443870484
11009 -767.3683189601945
11010 -767.321198430315
11011 -767.3752113864749
11012 -767.3052623338997
11013 -767.38583915979
11014 -767.3273821308529
11015 -767.3806288138381
11016 -767.3081196403625
11017 -767.3804457443449
11018 -767.3155839249767
11019 -767.3950221514002
11020 -767.2979426064031
11021 -767.3814079983682
11022 -767.3027416634512
11023 -767.3810091612264
11024 -767.2928655686082
11025 -767.3629167416707
11026 -767.2857767762957
11027 -767.357739363302
11028 -767.2783358637918
11029 -767.3578631389937
11030 -767.2889600465535
11031 -767.3756370420118
11032 -767.270442933627
11033 -767.3805646728309
11034 -767.2826609764352
11035 -767.384300462012
11036 -767.2725723224765
11037 -767.3913279184251
11038 -767.283043665214
11039 -767.398297707603
11040 -767.2833790453509
11041 -767.3932497017644
11042 -767.2897672650295
11043 -767.3844156885741
11044 -767.2790320276059
11045 -767.3725038683538
11046 -767.3001529449217
11047 -767.3623245067
11048 -767.2922881135747
11049 -767.354676948461
11050 -767.3068237707909
11051 -767.3610391925747
11052 -767.3043007509642
11053 -767.3638374285696
11054 -767.3177872999302
11055 -767.375118297413
11056 -767.3003212600227
11057 -767.3623421582723
11058 -767.3025276636746
11059 -767.3678982699809
11060 -767.2887368375704
11061 -767.3808034652673
11062 -767.2960246425562
11063 -767.3884243746029
11064 -767.2872922371367
11065 -767.3782192878971
11066 -767.2783057917616
11067 -767.3879503147994
11068 -767.2650414731114
11069 -767.377066957324
11070 -767.2832366647308
11071 -767.3704588925705
11072 -767.2762065118696
11073 -767.3663581842839
11074 -767.2780649549446
11075 -767.3644200385398
11076 -767.2785623381411
11077 -767.3786951278571
11078 -767.2914990821273
11079 -767.3829513689822
11080 -767.2840874586217
11081 -767.3753824219443
11082 -767.2921880586113
11083 -767.3780281628246
11084 -767.2835761094143
11085 -767.3788661971037
11086 -767.2847270250116
11087 -767.3881892580139
11088 -767.2799546041567
11089 -767.3779018552469
11090 -767.2955349300994
11091 -767.3806052589331
11092 -767.2800421716566
11093 -767.3638304136714
11094 -767.2832585119531
11095 -767.3615618319577
11096 -767.283527700469
11097 -767.3580466559571
11098 -767.2832167793589
11099 -767.3563621946194
11100 -767.2906822923546
11101 -767.3623783826
11102 -767.2943678022041
11103 -767.3746636602225
11104 -767.2781570776209
11105 -767.3655660201402
11106 -767.2802588724371
11107 -767.3778997204444
11108 -767.2704279566098
11109 -767.3945343247377
11110 -767.2692073186462
11111 -767.3987334547911
11112 -767.261369575601
11113 -767.3791412877285
11114 -767.2671966503319
11115 -767.3907741129092
11116 -767.2541405367572
11117 -767.3867661040216
11118 -767.2819396613504
11119 -767.3823111150075
11120 -767.2843398224848
11121 -767.3720142879555
11122 -767.2885064766989
11123 -767.3628324268529
11124 -767.2960764908786
11125 -767.3620990419303
11126 -767.3063138463053
11127 -767.3688201160995
11128 -767.2980755306097
11129 -767.3686419775539
11130 -767.298258699332
11131 -767.3656452321147
11132 -767.2813493555991
11133 -767.3878027333544
11134 -767.2723389069457
11135 -767.3746634211573
11136 -767.2643240371664
11137 -767.3825623976469
11138 -767.2662470027182
11139 -767.3919392684281
11140 -767.2541694419031
11141 -767.38414296803
11142 -767.2699665443112
11143 -767.3749037944392
11144 -767.2612762634714
11145 -767.3843324333856
11146 -767.279575560597
11147 -767.3865305352778
11148 -767.2935375699681
11149 -767.3782506706307
11150 -767.3068213833317
11151 -767.3818211941315
11152 -767.2927418238946
11153 -767.3760372377819
11154 -767.304030168242
11155 -767.3694343568773
11156 -767.2975480926634
11157 -767.3847881947975
11158 -767.2949161405865
11159 -767.3933782876209
11160 -767.2846129702588
11161 -767.3940648577947
11162 -767.2840280495636
11163 -767.3976565382671
11164 -767.2714679004614
11165 -767.3920243157183
11166 -767.2813418478675
11167 -767.3881843913005
11168 -767.2791961434917
11169 -767.380882584874
11170 -767.2856551999059
11171 -767.3747324118516
11172 -767.2876750665932
11173 -767.3807101886057
11174 -767.2879926873742
11175 -767.3796568782329
11176 -767.2731269610041
11177 -767.3769615605547
11178 -767.2793654058314
11179 -767.3844173608779
11180 -767.2839400823792
11181 -767.3916868493169
11182 -767.2720218595351
11183 -767.3985311270058
11184 -767.2695654741483
11185 -767.3985177742322
11186 -767.2699666842234
11187 -767.411351942298
11188 -767.2646559967427
11189 -767.408722734766
11190 -767.2831823756882
11191 -767.3988404748804
11192 -767.2848372428398
11193 -767.3934797465275
11194 -767.2876052068013
11195 -767.3996831022092
11196 -767.2862998220334
11197 -767.3934971680244
11198 -767.3018467465599
11199 -767.3835594553457
11200 -767.2881832399952
11201 -767.3733326773078
11202 -767.2887348769051
11203 -767.3699949017578
11204 -767.2790032659905
11205 -767.3709595496097
11206 -767.2695923406942
11207 -767.3673636145101
11208 -767.2744346159873
11209 -767.3813145146297
11210 -767.2796769233531
11211 -767.3887439659354
11212 -767.2734329612431
11213 -767.3779171321421
11214 -767.2712153829304
11215 -767.3841848930297
11216 -767.2645106019264
11217 -767.3902811846395
11218 -767.271360801917
11219 -767.3859628488874
11220 -767.2633230700708
11221 -767.3910768369718
11222 -767.2903782474631
11223 -767.4014002090494
11224 -767.2825838121736
11225 -767.396942348844
11226 -767.304194040561
11227 -767.3891627700409
11228 -767.3012567242297
11229 -767.3944776685904
11230 -767.3106640090833
11231 -767.394126393939
11232 -767.302328956545
11233 -767.3771850990749
11234 -767.3075376292981
11235 -767.3827034996129
11236 -767.3018254630528
11237 -767.3734802168537
11238 -767.3118522748337
11239 -767.3707538819134
11240 -767.304790972569
11241 -767.3697348753623
11242 -767.3084776901507
11243 -767.3656449953268
11244 -767.3020777993768
11245 -767.3644270957752
11246 -767.3080368233328
11247 -767.3693521095092
11248 -767.2905754680268
11249 -767.3562603485083
11250 -767.2986167377555
11251 -767.3545408174657
11252 -767.2956130960259
11253 -767.363650911786
11254 -767.2981551731779
11255 -767.3604324837628
11256 -767.2941615555656
11257 -767.3623572139203
11258 -767.2999780949732
11259 -767.3766644534271
11260 -767.2922708310997
11261 -767.3880553171498
11262 -767.2959772707784
11263 -767.3825067207802
11264 -767.286519161244
11265 -767.3911076072245
11266 -767.2904417127064
11267 -767.3879874078876
11268 -767.2917010983426
11269 -767.3880587691002
11270 -767.2966316010863
11271 -767.4022619325657
11272 -767.2872299223745
11273 -767.3919819893055
11274 -767.3005930167471
11275 -767.386387721839
11276 -767.2990534718773
11277 -767.3919926384938
11278 -767.313197218326
11279 -767.3868445749289
11280 -767.3048800626386
11281 -767.373286364762
11282 -767.3147822762065
11283 -767.3797727941087
11284 -767.2993112805274
11285 -767.3792672418905
11286 -767.3041425915538
11287 -767.3808557497765
11288 -767.2981579257358
11289 -767.3906692151385
11290 -767.2913710771594
11291 -767.3801215066499
11292 -767.2741794757482
11293 -767.3780775244036
11294 -767.2751100914946
11295 -767.3819883086529
11296 -767.270182258124
11297 -767.3697745234535
11298 -767.2852270992653
11299 -767.377318085004
11300 -767.2833513029759
11301 -767.3827621964962
11302 -767.2821067465783
11303 -767.3676275284904
11304 -767.2791231300107
11305 -767.3566676624837
11306 -767.2835702842707
11307 -767.3748677543608
11308 -767.2817838878387
11309 -767.3690875610054
11310 -767.2873505138215
11311 -767.3643042839345
11312 -767.2797349709117
11313 -767.3701361360665
11314 -767.2753102044924
11315 -767.3700111011881
11316 -767.2768619267852
11317 -767.3693672554266
11318 -767.2946800160248
11319 -767.3805445851642
11320 -767.2878121406451
11321 -767.3769905269585
11322 -767.2928235693782
11323 -767.3796840850025
11324 -767.2898601176151
11325 -767.389578759422
11326 -767.2922727300104
11327 -767.3887582106724
11328 -767.2889997733506
11329 -767.3882419701573
11330 -767.2942159247391
11331 -767.3973033970655
11332 -767.2992995832805
11333 -767.3795532889217
11334 -767.2930907769413
11335 -767.3825923165907
11336 -767.2887344859537
11337 -767.3854549855266
11338 -767.2872371657915
11339 -767.3803273237502
11340 -767.2856820540771
11341 -767.3755761718717
11342 -767.2998464631651
11343 -767.3883864391861
11344 -767.2747317714027
11345 -767.376560118575
11346 -767.2819378887343
11347 -767.372431727228
11348 -767.2814338363788
11349 -767.3893904853676
11350 -767.2916254012769
11351 -767.3834984122608
11352 -767.2939759254642
11353 -767.3890759783625
11354 -767.3027940260072
11355 -767.3873184918324
11356 -767.2901763762562
11357 -767.3786219380855
11358 -767.2997016590974
11359 -767.3721906689525
11360 -767.2868932730086
11361 -767.3793891870256
11362 -767.2824404063238
11363 -767.3642582115995
11364 -767.2799711401485
11365 -767.371487725697
11366 -767.2805165975557
11367 -767.3791856181361
11368 -767.2705204342324
11369 -767.3715405920362
11370 -767.2748813015887
11371 -767.3812723597291
11372 -767.2785227892086
11373 -767.3957866744856
11374 -767.285138652154
11375 -767.4033900325272
11376 -767.2956935681005
11377 -767.3886914181174
11378 -767.2893088303226
11379 -767.3950549766556
11380 -767.2765470745129
11381 -767.3896520847412
11382 -767.2821439235918
11383 -767.386639366429
11384 -767.2861249439031
11385 -767.3964096303793
11386 -767.286666680593
11387 -767.3912121959196
11388 -767.2754861015671
11389 -767.3883877876294
11390 -767.2813915003957
11391 -767.3838736810699
11392 -767.2698173753961
11393 -767.3784279034481
11394 -767.2799661335637
11395 -767.3855600044396
11396 -767.2669683119474
11397 -767.3908332177167
11398 -767.2700072511306
11399 -767.3841320837869
11400 -767.2681968472217
11401 -767.3866944583405
11402 -767.2727569978396
11403 -767.3964913066104
11404 -767.2673050436644
11405 -767.3996965062967
11406 -767.2803721262012
11407 -767.4011075082095
11408 -767.2775231912643
11409 -767.4096859908409
11410 -767.2750325629581
11411 -767.3944944812052
11412 -767.271300955386
11413 -767.3918393494065
11414 -767.2736412672436
11415 -767.4002205999208
11416 -767.2746225797432
11417 -767.3905780348085
11418 -767.2768384174666
11419 -767.3917032085383
11420 -767.2834908656112
11421 -767.3936291356509
11422 -767.2774899822401
11423 -767.3937160119833
11424 -767.277790583496
11425 -767.3895816552
11426 -767.2800850986634
11427 -767.4022865247567
11428 -767.2791392338752
11429 -767.398026445399
11430 -767.2935789829647
11431 -767.3978590753883
11432 -767.2884051934827
11433 -767.3827886769575
11434 -767.2939667196949
11435 -767.3788073987938
11436 -767.303567699797
11437 -767.3750083484282
11438 -767.3097466026763
11439 -767.3793045972049
11440 -767.3009358549753
11441 -767.3638409507378
11442 -767.3045758614905
11443 -767.3634823007924
11444 -767.2952090832426
11445 -767.36891029342
11446 -767.29212321687
11447 -767.3665041825268
11448 -767.2842333758035
11449 -767.3666068283662
11450 -767.2923796075426
11451 -767.3885832542938
11452 -767.2839667268615
11453 -767.3862588961516
11454 -767.2891032299977
11455 -767.3807249880606
11456 -767.2782657189579
11457 -767.3918886074237
11458 -767.2779818635341
11459 -767.3918820686189
11460 -767.2793422874208
11461 -767.3843730456459
11462 -767.2761407085929
11463 -767.3865588108539
11464 -767.2793340788207
11465 -767.3803494598702
11466 -767.2799259243005
11467 -767.386569465617
11468 -767.2769937468089
11469 -767.3855975168243
11470 -767.2751816122794
11471 -767.3845495392117
11472 -767.2805423907948
11473 -767.388242585194
11474 -767.2865406046717
11475 -767.3957275658252
11476 -767.2811001142867
11477 -767.3881868279104
11478 -767.290434012685
11479 -767.3790300225355
11480 -767.2907144906011
11481 -767.3881043746588
11482 -767.295856396871
11483 -767.3792713339606
11484 -767.2985413746352
11485 -767.3806325442741
11486 -767.2921358191666
11487 -767.3840097561368
11488 -767.2816776949619
11489 -767.3732754688695
11490 -767.2849568365831
11491 -767.3867389811616
11492 -767.277501624453
11493 -767.4025607176679
11494 -767.2780153434257
11495 -767.4099548052459
11496 -767.2700238983781
11497 -767.3945768706807
11498 -767.2782959610033
11499 -767.403661773066
11500 -767.2633843759576
11501 -767.3838664224437
11502 -767.280515411997
11503 -767.3822285993915
11504 -767.276275552164
11505 -767.3910793915987
11506 -767.2782576141733
11507 -767.3959943293277
11508 -767.2776117184169
11509 -767.3871963168197
11510 -767.2826882032905
11511 -767.3977175563755
11512 -767.283899858158
11513 -767.391337111243
11514 -767.29437465203
11515 -767.3968348523914
11516 -767.2842252171633
11517 -767.4016446401523
11518 -767.2936841204535
11519 -767.4001677721549
11520 -767.288927407808
11521 -767.3869550341213
11522 -767.2882038893298
11523 -767.3954406951179
11524 -767.2854399220577
11525 -767.3917641463935
11526 -767.2942254015402
11527 -767.395239152443
11528 -767.2858493637605
11529 -767.3998968744824
11530 -767.2823166229023
11531 -767.3903564386786
11532 -767.2762488835208
11533 -767.3871221142654
11534 -767.2810037969086
11535 -767.4168450904334
11536 -767.2728259784984
11537 -767.3959420739837
11538 -767.2637342216897
11539 -767.3888976580495
11540 -767.269415387668
11541 -767.3954060472751
11542 -767.2785432641074
11543 -767.3899599756529
11544 -767.2770540493042
11545 -767.3708806887182
11546 -767.2929179752919
11547 -767.3732397750813
11548 -767.2952218731177
11549 -767.3731469833649
11550 -767.3002041200926
11551 -767.3829586482575
11552 -767.2928894966681
11553 -767.3810749953379
11554 -767.2813254222442
11555 -767.3832286465812
11556 -767.2899195839575
11557 -767.3830943098014
11558 -767.2847669195429
11559 -767.390191184523
11560 -767.266189656187
11561 -767.3824712048134
11562 -767.2793671557636
11563 -767.393425000127
11564 -767.2889288043451
11565 -767.3996194037686
11566 -767.2957419667229
11567 -767.3827583491466
11568 -767.2962412638731
11569 -767.3760954954869
11570 -767.2974746373592
11571 -767.3840539260116
11572 -767.2941617612662
11573 -767.3695522225685
11574 -767.296320392417
11575 -767.3700855078099
11576 -767.300402057717
11577 -767.3793836146469
11578 -767.2902298613739
11579 -767.3804960447259
11580 -767.2923686184472
11581 -767.3823939730847
11582 -767.2971370887079
11583 -767.3907584599962
11584 -767.2923353278004
11585 -767.3857612717095
11586 -767.3096067031826
11587 -767.3902916668459
11588 -767.3168585525592
11589 -767.3765828312221
11590 -767.3011161945417
11591 -767.3747992417818
11592 -767.2971786246591
11593 -767.3729243245649
11594 -767.304551577672
11595 -767.387548258566
11596 -767.3061460256246
11597 -767.3773773387593
11598 -767.2999423161203
11599 -767.3934315847962
11600 -767.2823189169266
11601 -767.4070741453772
11602 -767.2801757719254
11603 -767.4068269545505
11604 -767.2647827165599
11605 -767.4216902893378
11606 -767.2657746079332
11607 -767.4401814637927
11608 -767.2574810183855
11609 -767.4240404824468
11610 -767.255554450554
11611 -767.4132480288245
11612 -767.2553376502581
11613 -767.4099746560116
11614 -767.2660432608805
11615 -767.4001124542322
11616 -767.2696992286237
11617 -767.3852450836963
11618 -767.2909879559173
11619 -767.3867923838511
11620 -767.2873024063199
11621 -767.3759893634181
11622 -767.2986513369659
11623 -767.374416340108
11624 -767.2984110678823
11625 -767.3745716654774
11626 -767.3020913291667
11627 -767.3841152488177
11628 -767.2939873198152
11629 -767.3963828069604
11630 -767.3002522380875
11631 -767.3971273048247
11632 -767.2782935542353
11633 -767.3885954082539
11634 -767.2874951902706
11635 -767.4024550955156
11636 -767.2864524630176
11637 -767.3997686372626
11638 -767.2797130013822
11639 -767.3903607746686
11640 -767.2788771166896
11641 -767.3862697735822
11642 -767.2801382370677
11643 -767.3917297603101
11644 -767.283510457738
11645 -767.3737925020788
11646 -767.289741107967
11647 -767.3787451938507
11648 -767.297811470925
11649 -767.3858483284955
11650 -767.2924923531392
11651 -767.3922311872662
11652 -767.2980488132968
11653 -767.3944556048987
11654 -767.2952713970889
11655 -767.396375213768
11656 -767.2810651532961
11657 -767.3942656414386
11658 -767.2872815586612
11659 -767.3884503800585
11660 -767.2813658337129
11661 -767.3939617101046
11662 -767.2857898174877
11663 -767.3854612050311
11664 -767.2912148059773
11665 -767.3721169717177
11666 -767.2929998733509
11667 -767.3735552741675
11668 -767.2827832310433
11669 -767.3740332218013
11670 -767.2848870612173
11671 -767.38126336251
11672 -767.2803260430055
11673 -767.3847760234387
11674 -767.2834561005454
11675 -767.3842014857472
11676 -767.2927424074992
11677 -767.391527299735
11678 -767.2781269536592
11679 -767.3934566959987
11680 -767.2707191830265
11681 -767.3784372871809
11682 -767.2723082020207
11683 -767.389383847792
11684 -767.2788695028503
11685 -767.3923767667246
11686 -767.2844354275541
11687 -767.3784982297085
11688 -767.2836143411023
11689 -767.3675334728268
11690 -767.2862122755379
11691 -767.3728405452782
11692 -767.2795592019046
11693 -767.3663400034137
11694 -767.2928045835642
11695 -767.3544407185632
11696 -767.3022955969176
11697 -767.3614467483615
11698 -767.288256041984
11699 -767.3578005507928
11700 -767.2895667189835
11701 -767.3705070119055
11702 -767.294253197343
11703 -767.3857947815536
11704 -767.2874858307223
11705 -767.3911374288934
11706 -767.2990364258523
11707 -767.4036519385429
11708 -767.2942840393504
11709 -767.4007937667858
11710 -767.2874740317578
11711 -767.3868042012869
11712 -767.2690158046214
11713 -767.3895881476932
11714 -767.2826962457979
11715 -767.3957848307105
11716 -767.2794145077581
11717 -767.3942229577367
11718 -767.2869491961966
11719 -767.3987274049141
11720 -767.2709362873228
11721 -767.4031287805175
11722 -767.2766924081054
11723 -767.403493628252
11724 -767.2761150754612
11725 -767.3923215768694
11726 -767.2991917622006
11727 -767.4094134263427
11728 -767.2875631517422
11729 -767.395266215681
11730 -767.2991705718457
11731 -767.3974444982364
11732 -767.2859360131407
11733 -767.3889808278165
11734 -767.2871089750348
11735 -767.3803921413946
11736 -767.2822157887545
11737 -767.3797566941574
11738 -767.2895523259343
11739 -767.3775984525479
11740 -767.2795966205343
11741 -767.370907411802
11742 -767.2830199859005
11743 -767.3703239008688
11744 -767.2800082001057
11745 -767.3776931592392
11746 -767.2924828102171
11747 -767.3858078801009
11748 -767.2937809970812
11749 -767.3768047098123
11750 -767.2983673955566
11751 -767.3877027554914
11752 -767.2804622197958
11753 -767.3713186254587
11754 -767.2833684318432
11755 -767.3882458224526
11756 -767.2765547356419
11757 -767.400294361951
11758 -767.2747746576379
11759 -767.3985243790446
11760 -767.2636891387585
11761 -767.4049461573184
11762 -767.2762155859625
11763 -767.4120829513569
11764 -767.2700762565156
11765 -767.3980612029337
11766 -767.2875527902798
11767 -767.3998560370927
11768 -767.2881991074512
11769 -767.4022757861045
11770 -767.296872413495
11771 -767.3925012483527
11772 -767.2866158142065
11773 -767.3891951947353
11774 -767.3088494540812
11775 -767.3893730830329
11776 -767.3010852067192
11777 -767.3762525862473
11778 -767.3084319959534
11779 -767.3817696640363
11780 -767.2986922048981
11781 -767.3823345312669
11782 -767.296242353925
11783 -767.3814646427383
11784 -767.2892933023927
11785 -767.3799162807423
11786 -767.289236393948
11787 -767.3745711383942
11788 -767.271956925797
11789 -767.3740482759135
11790 -767.2793472774121
11791 -767.378126130739
11792 -767.2721705900227
11793 -767.3819294995054
11794 -767.2836017469473
11795 -767.380489149489
11796 -767.2858509958591
11797 -767.3782443700726
11798 -767.2950018405974
11799 -767.3878020376191
11800 -767.2858325845212
11801 -767.3810677152663
11802 -767.2890597322424
11803 -767.3837122424355
11804 -767.2822762530382
11805 -767.3937204179198
11806 -767.283513070095
11807 -767.3809485957438
11808 -767.2656104393467
11809 -767.3817720513111
11810 -767.2828362409215
11811 -767.39641767644
11812 -767.2725028278747
11813 -767.3976673120527
11814 -767.2891205952718
11815 -767.3952821550231
11816 -767.2930681259988
11817 -767.4028420666848
11818 -767.3052734033015
11819 -767.4072592583808
11820 -767.2943529171864
11821 -767.4023800553557
11822 -767.3036917155267
11823 -767.4034551104673
11824 -767.2943478192684
11825 -767.3985522187619
11826 -767.2952870076818
11827 -767.3921878544601
11828 -767.2889735193861
11829 -767.3920245663054
11830 -767.2909868492247
11831 -767.4025731265052
11832 -767.2762258210951
11833 -767.3993208479131
11834 -767.2855774418905
11835 -767.4059280134547
11836 -767.2713183907267
11837 -767.3915397599555
11838 -767.2877034359126
11839 -767.39447537642
11840 -767.2830260786254
11841 -767.3940493699914
11842 -767.2841022248642
11843 -767.388890738892
11844 -767.2828733404106
11845 -767.3835497835398
11846 -767.2935633570261
11847 -767.3938516384195
11848 -767.2786534888721
11849 -767.3871858335198
11850 -767.2902372930478
11851 -767.3835240146751
11852 -767.2843715775596
11853 -767.388048052873
11854 -767.293756954184
11855 -767.3933992623839
11856 -767.2899355592155
11857 -767.3808125296619
11858 -767.2939337294714
11859 -767.3938989260834
11860 -767.2833837958275
11861 -767.3916394486289
11862 -767.2918599478958
11863 -767.3960695071456
11864 -767.2803122757954
11865 -767.3980733902852
11866 -767.2832679238333
11867 -767.4073173636621
11868 -767.2764471536858
11869 -767.4032934282491
11870 -767.2852522948701
11871 -767.4136579542853
11872 -767.2768414297044
11873 -767.3973262015337
11874 -767.2840047787694
11875 -767.3860936581184
11876 -767.274628500727
11877 -767.3804761153477
11878 -767.2864465703788
11879 -767.3822393816178
11880 -767.2856204037653
11881 -767.3757566640468
11882 -767.2945554381186
11883 -767.3792110401375
11884 -767.2844125083968
11885 -767.369450224666
11886 -767.2861200738768
11887 -767.3731282206541
11888 -767.2869500431024
11889 -767.3872068474274
11890 -767.297587634392
11891 -767.3920163953452
11892 -767.2962320800187
11893 -767.3847589848596
11894 -767.3090044229268
11895 -767.3817819494149
11896 -767.2864070525363
11897 -767.3681547144025
11898 -767.3021335647491
11899 -767.3817014028291
11900 -767.3011346545269
11901 -767.3884705874185
11902 -767.3097238184978
11903 -767.3884713836659
11904 -767.3003988108525
11905 -767.3758726651376
11906 -767.31907617566
11907 -767.3865791359698
11908 -767.2957059711028
11909 -767.3828064155321
11910 -767.3012174133414
11911 -767.3911743104595
11912 -767.3062752459591
11913 -767.4097899202769
11914 -767.3085062859367
11915 -767.4064535406135
11916 -767.2920529323115
11917 -767.3969293903555
11918 -767.288015338317
11919 -767.3974827337667
11920 -767.2840216285904
11921 -767.4018346956904
11922 -767.2960327568528
11923 -767.4003598613961
11924 -767.2921589163933
11925 -767.4091871851646
11926 -767.2885591289277
11927 -767.3909747040849
11928 -767.2939382706132
11929 -767.3819352941093
11930 -767.300678286094
11931 -767.3917930530982
11932 -767.2927105221905
11933 -767.38860129073
11934 -767.299376984577
11935 -767.3775231282904
11936 -767.2842069569521
11937 -767.3808306956338
11938 -767.2824035923475
11939 -767.3772591836473
11940 -767.2769635249273
