"mz-rfile"
"Iteration" "mz"
("Iteration" "mz")
2552 -696.7379841867444
2553 -711.4784286653411
2554 -730.1458000746231
2555 -774.2207048110185
2556 -830.7209121897614
2557 -886.1304848298172
2558 -938.7898637990827
2559 -992.9259485515159
2560 -1045.516349525837
2561 -1093.47073438376
2562 -1143.351657872406
2563 -1180.450286047319
2564 -1205.754424518248
2565 -1214.722482614694
2566 -1209.2422258044
2567 -1194.041372285659
2568 -1178.443297049389
2569 -1156.970547192953
2570 -1138.516771998112
2571 -1124.620462284237
2572 -1112.346192783673
2573 -1105.791712139717
2574 -1101.106668058145
2575 -1101.564105537305
2576 -1107.805759989704
2577 -1116.800226239817
2578 -1134.370741350803
2579 -1152.151434357947
2580 -1173.337219840147
2581 -1198.040897272085
2582 -1226.22455796052
2583 -1256.706253669105
2584 -1289.570766127412
2585 -1323.154039878043
2586 -1358.245029027706
2587 -1393.218352380788
2588 -1427.261041619523
2589 -1460.080898543079
2590 -1491.094718652811
2591 -1519.824085776093
2592 -1554.364469042906
2593 -1576.175553597836
2594 -1595.208668860636
2595 -1610.814605296831
2596 -1622.812842449522
2597 -1631.117673911176
2598 -1636.52410279443
2599 -1638.562922764013
2600 -1638.063970763061
2601 -1635.357053860409
2602 -1630.515790417414
2603 -1623.707111861537
2604 -1615.481118433481
2605 -1606.232705363564
2606 -1596.068805513408
2607 -1585.369920761302
2608 -1574.443164401658
2609 -1563.331446695752
2610 -1552.419029895589
2611 -1541.564380992571
2612 -1530.83956828792
2613 -1520.532988804186
2614 -1511.003971669425
2615 -1501.916202128038
2616 -1493.558156590066
2617 -1485.706797937063
2618 -1478.666125509929
2619 -1472.144279747812
2620 -1466.488082295886
2621 -1463.136729824869
2622 -1458.889791650976
2623 -1454.954230218645
2624 -1451.908667387602
2625 -1450.073277101555
2626 -1447.902946262098
2627 -1445.998871157865
2628 -1444.484886495233
2629 -1443.567119916347
2630 -1442.566106807755
2631 -1442.117311476565
2632 -1441.91613029293
2633 -1441.72617545596
2634 -1441.756729016749
2635 -1441.699386314491
2636 -1442.023349333489
2637 -1442.212039253551
2638 -1442.461730012383
2639 -1442.715677979974
2640 -1443.38678689384
2641 -1443.425351611088
2642 -1443.785889990991
2643 -1443.540764508456
2644 -1443.745976737707
2645 -1443.355385738659
2646 -1443.169556142604
2647 -1442.846198602512
2648 -1442.403609724055
2649 -1441.539651040521
2650 -1440.878414875641
2651 -1439.787024660239
2652 -1438.8343560171
2653 -1437.565584129379
2654 -1436.826831626006
2655 -1435.475960407226
2656 -1434.173662938232
2657 -1432.557013230894
2658 -1431.356665856819
2659 -1429.812135151601
2660 -1428.167209509739
2661 -1426.516299837533
2662 -1425.450856326572
2663 -1423.773468937393
2664 -1422.623814393212
2665 -1421.371226192217
2666 -1420.737160151507
2667 -1420.254820151882
2668 -1419.47604079737
2669 -1419.025217653277
2670 -1418.796554985792
2671 -1418.691133021489
2672 -1419.376200762402
2673 -1419.468754296801
2674 -1419.949945704082
2675 -1420.892391283233
2676 -1421.301834223681
2677 -1421.652243866713
2678 -1422.422721878234
2679 -1423.547910783592
2680 -1424.65523391602
2681 -1426.082638580324
2682 -1427.411401717541
2683 -1429.264700651589
2684 -1430.691417324746
2685 -1432.100523834119
2686 -1433.925789643268
2687 -1435.742017926865
2688 -1438.450589296144
2689 -1441.358442929647
2690 -1443.902431302292
2691 -1446.235097278015
2692 -1448.738694006318
2693 -1451.401385556723
2694 -1454.166073039979
2695 -1456.994329636276
2696 -1459.922880179481
2697 -1463.120829827875
2698 -1466.613574581067
2699 -1470.342025490429
2700 -1474.582099703086
2701 -1478.601176315268
2702 -1482.784262668558
2703 -1486.97258077551
2704 -1491.456220947331
2705 -1496.213644809957
2706 -1500.786463951013
2707 -1506.108760412181
2708 -1511.425373485264
2709 -1517.027655029468
2710 -1522.295314909981
2711 -1528.195591756776
2712 -1534.159649120309
2713 -1540.326561090975
2714 -1546.943766473787
2715 -1553.805234132616
2716 -1560.849144825921
2717 -1568.428557963852
2718 -1576.590601098015
2719 -1584.8523631762
2720 -1593.399340829229
2721 -1602.665001963882
2722 -1612.093097162174
2723 -1622.026882949466
2724 -1631.953045406168
2725 -1641.698667137848
2726 -1651.674797756612
2727 -1662.176155583854
2728 -1673.20370946402
2729 -1684.131127265668
2730 -1695.506413248273
2731 -1706.896315638128
2732 -1718.14918006943
2733 -1730.154016606629
2734 -1741.773528190447
2735 -1753.560247094153
2736 -1766.385176051622
2737 -1779.335673333777
2738 -1791.833569149976
2739 -1805.319783116205
2740 -1818.137202873438
2741 -1831.00013472622
2742 -1844.18010538455
2743 -1857.598914358597
2744 -1870.731205966295
2745 -1884.224010054336
2746 -1897.53075174888
2747 -1910.928196514695
2748 -1924.175459942376
2749 -1937.737340333091
2750 -1951.291452311314
2751 -1964.778789644594
2752 -1978.313240625788
2753 -1991.90654151509
2754 -2005.747487970465
2755 -2019.146193230363
2756 -2032.689277909235
2757 -2046.21629730812
2758 -2059.205703227439
2759 -2072.838957613925
2760 -2085.813635149468
2761 -2098.526583571709
2762 -2110.870737974465
2763 -2123.161695879083
2764 -2135.328051646787
2765 -2147.428118143979
2766 -2158.952086882513
2767 -2167.782076892587
2768 -2179.636672887891
2769 -2190.86778929815
2770 -2202.027422973111
2771 -2210.333364707117
2772 -2221.145370237494
2773 -2231.79459883066
2774 -2239.904432607452
2775 -2250.588193471442
2776 -2258.278796168951
2777 -2268.247300721402
2778 -2275.821843214675
2779 -2285.530382879962
2780 -2292.800801486012
2781 -2301.899078978854
2782 -2308.736858060352
2783 -2317.51848188747
2784 -2323.629728556024
2785 -2329.824005848758
2786 -2337.819517238355
2787 -2343.565314666941
2788 -2349.105243654121
2789 -2354.117765288575
2790 -2358.935798084958
2791 -2363.691755701156
2792 -2368.323413185456
2793 -2372.519650722566
2794 -2376.668638153021
2795 -2380.115795721916
2796 -2383.677104602868
2797 -2386.788836327074
2798 -2389.869268171471
2799 -2392.267097883163
2800 -2394.292963178378
2801 -2396.067883297278
2802 -2397.48005342248
2803 -2398.498372371161
2804 -2399.256447523702
2805 -2399.501220180259
2806 -2399.722046350545
2807 -2399.333154186955
2808 -2398.722748356136
2809 -2397.432937294127
2810 -2395.955605938945
2811 -2394.149058487241
2812 -2392.571991729409
2813 -2390.549058260558
2814 -2388.179085443815
2815 -2385.311776910886
2816 -2382.478484277145
2817 -2379.307169372397
2818 -2376.039875071527
2819 -2372.681142584104
2820 -2369.097030780231
2821 -2365.099025724528
2822 -2361.006523508107
2823 -2356.749705375407
2824 -2352.233926384048
2825 -2347.256407460205
2826 -2342.42553760369
2827 -2337.145169529956
2828 -2332.362820147466
2829 -2326.808426510305
2830 -2321.473650003241
2831 -2315.863339581848
2832 -2310.098201213334
2833 -2304.295360243034
2834 -2298.338332311469
2835 -2291.946212837569
2836 -2285.634418012399
2837 -2279.180765592521
2838 -2272.544753338734
2839 -2265.634613691016
2840 -2256.284103905695
2841 -2249.325732044289
2842 -2242.534619127241
2843 -2235.390656718004
2844 -2225.960156054708
2845 -2218.787018707035
2846 -2211.468741831701
2847 -2202.05409172568
2848 -2194.980526715316
2849 -2187.693656008163
2850 -2178.436362316652
2851 -2171.588492386537
2852 -2162.299086123577
2853 -2155.585148896299
2854 -2146.7762767364
2855 -2140.277978796338
2856 -2131.672080827832
2857 -2125.477155460389
2858 -2119.24932665188
2859 -2110.812294224587
2860 -2104.589856106848
2861 -2096.051522285485
2862 -2090.097914467085
2863 -2082.034735078064
2864 -2076.228399253345
2865 -2068.6186942589
2866 -2063.221596358195
2867 -2057.808328350608
2868 -2050.780152971454
2869 -2045.647799788156
2870 -2040.597461459752
2871 -2034.064453682538
2872 -2029.296949883936
2873 -2024.469094544429
2874 -2019.872134249086
2875 -2015.465564772816
2876 -2011.042708705845
2877 -2006.535050395579
2878 -2002.396703234193
2879 -1998.152333625111
2880 -1994.057464951353
2881 -1989.767627934722
2882 -1985.893982007363
2883 -1981.791492197222
2884 -1978.03469080472
2885 -1974.213748288051
2886 -1970.084039942292
2887 -1965.767672350789
2888 -1961.610220516937
2889 -1957.300957685677
2890 -1953.06589324114
2891 -1948.750090095301
2892 -1944.288508429947
2893 -1939.848408523984
2894 -1935.54759378484
2895 -1930.899932161126
2896 -1926.032289557021
2897 -1921.413784457169
2898 -1916.298007515125
2899 -1911.073429390551
2900 -1905.874036503092
2901 -1900.156627824756
2902 -1894.088774062471
2903 -1888.115816403176
2904 -1881.750111634288
2905 -1874.97258521553
2906 -1867.907727549212
2907 -1860.673583182879
2908 -1853.076244552257
2909 -1845.474468436536
2910 -1837.526731862875
2911 -1829.339061877752
2912 -1818.608500592059
2913 -1810.465007796021
2914 -1802.354440476337
2915 -1791.082059878235
2916 -1782.759115076735
2917 -1774.387517183096
2918 -1763.330970399702
2919 -1755.070027464216
2920 -1744.365817758517
2921 -1736.265471001404
2922 -1725.867552248202
2923 -1718.074992206488
2924 -1707.519093440688
2925 -1699.800524205713
2926 -1689.610688803404
2927 -1681.936248284663
2928 -1671.75898729461
2929 -1664.174344576666
2930 -1654.061975438814
2931 -1646.487811418783
2932 -1636.582245565148
2933 -1629.301317074883
2934 -1621.87020596593
2935 -1611.527117933987
2936 -1603.891810465884
2937 -1596.079362210322
2938 -1585.728046717822
2939 -1577.756801950784
2940 -1569.786368029235
2941 -1561.665488691458
2942 -1553.664067228657
2943 -1545.43993073497
2944 -1537.224976437051
2945 -1528.516285555461
2946 -1520.158155220472
2947 -1511.810941660746
2948 -1503.015198605526
2949 -1494.302065910749
2950 -1485.604429054061
2951 -1476.975969321599
2952 -1468.17814370309
2953 -1459.618108107325
2954 -1451.334040935725
2955 -1442.793018380357
2956 -1434.531036243661
2957 -1426.472878805447
2958 -1418.724672331445
2959 -1411.041225012975
2960 -1403.847391466618
2961 -1396.414236533072
2962 -1389.076169479893
2963 -1381.90333382806
2964 -1375.040256286015
2965 -1368.231286234289
2966 -1361.431435990214
2967 -1356.968358589874
2968 -1350.335507736384
2969 -1343.686535990461
2970 -1337.043201538269
2971 -1332.60259688926
2972 -1326.085494903153
2973 -1319.602174838368
2974 -1313.180178844317
2975 -1308.930549784255
2976 -1302.489538464105
2977 -1296.148345013195
2978 -1292.02586572472
2979 -1285.763905903409
2980 -1279.786848415263
2981 -1275.800824991651
2982 -1270.06471658705
2983 -1266.257059020382
2984 -1260.778664652822
2985 -1257.233550218411
2986 -1252.160449121616
2987 -1248.935928586272
2988 -1244.5058582411
2989 -1241.58410432728
2990 -1237.425479567359
2991 -1234.902204770028
2992 -1232.596423811944
2993 -1229.315108301394
2994 -1227.279639869006
2995 -1225.494558287649
2996 -1223.784265928545
2997 -1222.291992517237
2998 -1220.380392629509
2999 -1219.094211992089
3000 -1218.036350678798
3001 -1217.163944250314
3002 -1216.393351081818
3003 -1215.723957716365
3004 -1215.137027673768
3005 -1214.601668501712
3006 -1214.276584250373
3007 -1213.93553540318
3008 -1213.666955215831
3009 -1213.469907018643
3010 -1213.305429940905
3011 -1213.171810235594
3012 -1213.119786542576
3013 -1213.049780628635
3014 -1212.975658737954
3015 -1212.917487025451
3016 -1212.829783888419
3017 -1212.625478461669
3018 -1212.473587777321
3019 -1212.20437701444
3020 -1211.809749498819
3021 -1211.454134341571
3022 -1211.032154311958
3023 -1210.453399886902
3024 -1210.075439867568
3025 -1209.616713894482
3026 -1208.853364451831
3027 -1208.139656370794
3028 -1207.361291640223
3029 -1206.078144435217
3030 -1205.259445587879
3031 -1204.362920088918
3032 -1203.063931765874
3033 -1202.222600972218
3034 -1201.38806551624
3035 -1200.472325290654
3036 -1199.067402890782
3037 -1198.11282808812
3038 -1197.21433621609
3039 -1196.326264515818
3040 -1195.525892969216
3041 -1194.706397750033
3042 -1193.937037238746
3043 -1193.320271935472
3044 -1192.54125885523
3045 -1192.095202479574
3046 -1191.791056504979
3047 -1191.506809103697
3048 -1191.423554729331
3049 -1191.453741914788
3050 -1191.662973544908
3051 -1191.952674737624
3052 -1192.32250570059
3053 -1192.801688342581
3054 -1193.663193011364
3055 -1194.326122816188
3056 -1195.528463165744
3057 -1196.374601684322
3058 -1197.812795467352
3059 -1198.763298243244
3060 -1200.269354112743
3061 -1201.342775463695
3062 -1202.900052624723
3063 -1204.019580112194
3064 -1205.742859724289
3065 -1206.867427346168
3066 -1208.703948733252
3067 -1209.85338621095
3068 -1211.588268807654
3069 -1213.210227761183
3070 -1214.220774717461
3071 -1215.676217954087
3072 -1217.017412055585
3073 -1218.193425101135
3074 -1219.00009951184
3075 -1220.049852381501
3076 -1221.141032136112
3077 -1222.039321107265
3078 -1222.880432756698
3079 -1223.646102138276
3080 -1224.057222398692
3081 -1224.63986356489
3082 -1225.177966118465
3083 -1225.630856790807
3084 -1225.879108684011
3085 -1226.220532719307
3086 -1226.613418468123
3087 -1226.928599772669
3088 -1227.249038629824
3089 -1227.551922255147
3090 -1228.009183471657
3091 -1228.326991519506
3092 -1228.755180769727
3093 -1229.29055555732
3094 -1229.746955170247
3095 -1230.464363160101
3096 -1231.265308677476
3097 -1231.847527565964
3098 -1232.883126214875
3099 -1233.928406878312
3100 -1234.687831836009
3101 -1236.048801538273
3102 -1237.353923490414
3103 -1238.348480996996
3104 -1239.901709439268
3105 -1241.493752374825
3106 -1242.654978759749
3107 -1244.385405985172
3108 -1246.346730257369
3109 -1247.596220753367
3110 -1249.610809923148
3111 -1251.715355018569
3112 -1253.182513909398
3113 -1255.362874190803
3114 -1257.725224045772
3115 -1259.285239629039
3116 -1261.679429788435
3117 -1264.055018599209
3118 -1266.461115663801
3119 -1268.116558485654
3120 -1270.747995984967
3121 -1273.183107364176
3122 -1275.732241074547
3123 -1277.455733895958
3124 -1280.090936683421
3125 -1282.696997440957
3126 -1284.460005098017
3127 -1287.066761497653
3128 -1289.717196894788
3129 -1291.438787433431
3130 -1294.283322297657
3131 -1297.131435607947
3132 -1299.994522235354
3133 -1301.944198910199
3134 -1304.734237498392
3135 -1307.522189135208
3136 -1310.461896651784
3137 -1312.32027966605
3138 -1315.295723488246
3139 -1318.319378951887
3140 -1321.355845175337
3141 -1323.377214773177
3142 -1326.430868443672
3143 -1329.695199563071
3144 -1332.902384028107
3145 -1335.060017786035
3146 -1338.538640220693
3147 -1341.976266923003
3148 -1344.327573348466
3149 -1348.119565461824
3150 -1351.886389024444
3151 -1355.719181175704
3152 -1358.439624284747
3153 -1362.555103635027
3154 -1366.789958214533
3155 -1370.942098190472
3156 -1375.191743819652
3157 -1378.038213106846
3158 -1382.343751484078
3159 -1386.842363010974
3160 -1391.410598794294
3161 -1395.893249203781
3162 -1400.593482069328
3163 -1405.319626097453
3164 -1409.987975569828
3165 -1414.579211965592
3166 -1419.293492587331
3167 -1423.958369726639
3168 -1428.720634531873
3169 -1433.350677581342
3170 -1438.067001530408
3171 -1442.649032356331
3172 -1447.312619877169
3173 -1451.916980958103
3174 -1456.561917619014
3175 -1461.082966261023
3176 -1465.54438177469
3177 -1469.889213824129
3178 -1474.171450676286
3179 -1478.478650777764
3180 -1482.656390529336
3181 -1486.717541791235
3182 -1490.665860121954
3183 -1494.609112947442
3184 -1498.454355154069
3185 -1502.207169273714
3186 -1505.915864773617
3187 -1509.564751699223
3188 -1511.903272153836
3189 -1515.227395653655
3190 -1518.575537552226
3191 -1520.708085807029
3192 -1523.90189295328
3193 -1526.922448292066
3194 -1528.89879431797
3195 -1531.655360457218
3196 -1533.516852497058
3197 -1536.134750223446
3198 -1537.849797992445
3199 -1540.112095380336
3200 -1541.618762587124
3201 -1543.616222220867
3202 -1544.943164149397
3203 -1546.179097830304
3204 -1547.30294399173
3205 -1548.785050211131
3206 -1549.640876461521
3207 -1550.327305304865
3208 -1551.001643165621
3209 -1551.506714489993
3210 -1551.938440703592
3211 -1552.294937463357
3212 -1552.543164961439
3213 -1552.749042780343
3214 -1552.803302520251
3215 -1552.78046272941
3216 -1552.708520642961
3217 -1552.42374158137
3218 -1552.172575568334
3219 -1551.790648714708
3220 -1551.111156508498
3221 -1550.634216853877
3222 -1549.895453642208
3223 -1549.256348274456
3224 -1548.369434022413
3225 -1547.750224498287
3226 -1546.846756954206
3227 -1546.212477615901
3228 -1545.260433202241
3229 -1544.627208082594
3230 -1543.798291374546
3231 -1543.045775017954
3232 -1542.542817341101
3233 -1541.844661228208
3234 -1541.239881008244
3235 -1540.908496691792
3236 -1540.43845689188
3237 -1540.099368842247
3238 -1539.992843632453
3239 -1539.879592457216
3240 -1539.839949395559
3241 -1539.907763935591
3242 -1540.164066127231
3243 -1540.30925790856
3244 -1540.550539458055
3245 -1540.995646980624
3246 -1541.548788773016
3247 -1541.864408238675
3248 -1542.468951574555
3249 -1542.873397571947
3250 -1543.648513457997
3251 -1544.135837865906
3252 -1544.908239762499
3253 -1545.448951484088
3254 -1546.236571746432
3255 -1546.729614870088
3256 -1547.5806157997
3257 -1548.11258665912
3258 -1548.680635453291
3259 -1549.456411507846
3260 -1550.040805320135
3261 -1550.528612129691
3262 -1551.439121292394
3263 -1551.9952234849
3264 -1552.63161112435
3265 -1553.529993582931
3266 -1554.193343663661
3267 -1555.127901774774
3268 -1555.779733743486
3269 -1556.732452187567
3270 -1557.366228418638
3271 -1558.313812455295
3272 -1558.931042234283
3273 -1559.846547254964
3274 -1560.50923235708
3275 -1561.428809596654
3276 -1562.02143985926
3277 -1562.947833506411
3278 -1563.608951580623
3279 -1564.5069025943
3280 -1565.13083454084
3281 -1566.094082768509
3282 -1567.057901885407
3283 -1567.62285233408
3284 -1568.468726878781
3285 -1569.300872064955
3286 -1569.865909205132
3287 -1570.68007101784
3288 -1571.414914479656
3289 -1572.152790914411
3290 -1572.883182190872
3291 -1573.579136098918
3292 -1574.349918651166
3293 -1574.889660610211
3294 -1575.405641896288
3295 -1575.82358393196
3296 -1576.286729281777
3297 -1576.683665795463
3298 -1577.006165298522
3299 -1577.208037741039
3300 -1577.270997613042
3301 -1577.272681220522
3302 -1577.209890760115
3303 -1577.154221120797
3304 -1576.945816916098
3305 -1576.697194091593
3306 -1576.219696690465
3307 -1575.722425197847
3308 -1575.108883106216
3309 -1574.455586938029
3310 -1573.502610608129
3311 -1572.455315638005
3312 -1571.310854732308
3313 -1570.024780252616
3314 -1568.582408927622
3315 -1567.109485893297
3316 -1565.534643538336
3317 -1563.867729473143
3318 -1561.923854952456
3319 -1559.910830092651
3320 -1557.726546570094
3321 -1555.465394156656
3322 -1552.988515404634
3323 -1550.396159889353
3324 -1547.809661655499
3325 -1544.976129818523
3326 -1542.198369969953
3327 -1539.344770078903
3328 -1536.346918180477
3329 -1533.169564465245
3330 -1529.976800185981
3331 -1525.33808809285
3332 -1521.933546321702
3333 -1518.407868200327
3334 -1514.832196176078
3335 -1510.017387419235
3336 -1506.432469605471
3337 -1502.828562961652
3338 -1499.165390328766
3339 -1494.177407355702
3340 -1490.433090291129
3341 -1486.524351136029
3342 -1481.319388640562
3343 -1477.445512695504
3344 -1472.125450093469
3345 -1468.158385867761
3346 -1462.726955736989
3347 -1458.671903777476
3348 -1453.238154058077
3349 -1449.155075687505
3350 -1443.669863518685
3351 -1439.525552221472
3352 -1433.742809142457
3353 -1429.444564860892
3354 -1423.685161206849
3355 -1419.255616682408
3356 -1413.327156488431
3357 -1408.755821650869
3358 -1402.641322824558
3359 -1398.017786593032
3360 -1391.689153247974
3361 -1386.834514533691
3362 -1380.350948095943
3363 -1375.407453674283
3364 -1368.74700092973
3365 -1363.761883121504
3366 -1357.089440265154
3367 -1351.92311389234
3368 -1346.770309043478
3369 -1339.809349897262
3370 -1334.457731616051
3371 -1329.136442961066
3372 -1321.980627094274
3373 -1316.698301352978
3374 -1311.314600480266
3375 -1305.833393627886
3376 -1300.354355365436
3377 -1294.776393012213
3378 -1289.287324840649
3379 -1283.669368282067
3380 -1277.982435600339
3381 -1272.299387959282
3382 -1266.702217877719
3383 -1261.069241017769
3384 -1255.414412036574
3385 -1249.905352151486
3386 -1244.411920684969
3387 -1239.078101396793
3388 -1234.135203103901
3389 -1228.982418978213
3390 -1224.263687535587
3391 -1219.618718660264
3392 -1215.345808038979
3393 -1211.166485365681
3394 -1207.287336901274
3395 -1203.598038852771
3396 -1200.07080031519
3397 -1196.742864627628
3398 -1193.826579976442
3399 -1190.940871698979
3400 -1188.429950856972
3401 -1186.014120550623
3402 -1183.827761330193
3403 -1182.550611587937
3404 -1180.876436365872
3405 -1179.436495532191
3406 -1178.636133006366
3407 -1177.625867600977
3408 -1177.184948487597
3409 -1176.648660813395
3410 -1176.423697512002
3411 -1176.167912406424
3412 -1176.210087592552
3413 -1176.43373916696
3414 -1176.735440655423
3415 -1177.379803569401
3416 -1177.93603258059
3417 -1178.539596256681
3418 -1179.678129810716
3419 -1180.563298023958
3420 -1181.644232225849
3421 -1183.378937350355
3422 -1184.70417504899
3423 -1186.02409916234
3424 -1188.206015901566
3425 -1189.722135130819
3426 -1192.151132779503
3427 -1193.809297808412
3428 -1196.492828883961
3429 -1198.152859873362
3430 -1200.759183494504
3431 -1202.382672218195
3432 -1204.872904389161
3433 -1206.455919490691
3434 -1208.774643910633
3435 -1210.938373742514
3436 -1212.303287034324
3437 -1214.19739538967
3438 -1215.953599159187
3439 -1217.005946499615
3440 -1218.506229765243
3441 -1219.741853680627
3442 -1220.423971717123
3443 -1221.213802528045
3444 -1221.645154179551
3445 -1222.017673465507
3446 -1222.203616930467
3447 -1222.232242441102
3448 -1222.187613114405
3449 -1221.860136396588
3450 -1221.594262176399
3451 -1220.928129182078
3452 -1220.366894821338
3453 -1219.373658720887
3454 -1218.619479176998
3455 -1217.359678280739
3456 -1216.472406950024
3457 -1215.432028418809
3458 -1214.337936890459
3459 -1212.499824748767
3460 -1211.218640102366
3461 -1209.876993364528
3462 -1208.453617528057
3463 -1206.235766302294
3464 -1204.736291918426
3465 -1203.152026548497
3466 -1200.774341831211
3467 -1199.148609106851
3468 -1196.751779295099
3469 -1195.145391294385
3470 -1192.745012765782
3471 -1191.103078100808
3472 -1188.706412871096
3473 -1186.345294604998
3474 -1184.073451446914
3475 -1181.84291368338
3476 -1179.728699257669
3477 -1177.723834277615
3478 -1175.736614109449
3479 -1173.788053306816
3480 -1172.101557711411
3481 -1170.372185172531
3482 -1168.836060605207
3483 -1167.298148065215
3484 -1165.889433825949
3485 -1164.597749439381
3486 -1163.387467739335
3487 -1162.131692170018
3488 -1160.918327731521
3489 -1159.708088718434
3490 -1158.518942954823
3491 -1157.384659271941
3492 -1156.306688025026
3493 -1155.246945512926
3494 -1154.18667038576
3495 -1153.130542380683
3496 -1152.089860149331
3497 -1151.030334153567
3498 -1150.008856445934
3499 -1148.948183760111
3500 -1148.016943187324
3501 -1147.050558371725
3502 -1146.24544268264
3503 -1145.368477786604
3504 -1144.578596688583
3505 -1143.860059895766
3506 -1143.213287519278
3507 -1142.487333346304
3508 -1141.82796391151
3509 -1141.173538476752
3510 -1140.783293539057
3511 -1140.197023330144
3512 -1139.791040914045
3513 -1139.379461370634
3514 -1139.203120497273
3515 -1139.050638885548
3516 -1138.973858599506
3517 -1138.875384472962
3518 -1138.906589379211
3519 -1138.984185540019
3520 -1139.16264405346
3521 -1139.297465017638
3522 -1139.712995735428
3523 -1140.100494586292
3524 -1140.680558061519
3525 -1141.385102262967
3526 -1142.527787616157
3527 -1143.428698937618
3528 -1144.419525631073
3529 -1145.505180999473
3530 -1146.978086361136
3531 -1148.290672783975
3532 -1149.85269967424
3533 -1151.785857039928
3534 -1153.408132856616
3535 -1155.084372871434
3536 -1157.26128015915
3537 -1159.007482201357
3538 -1160.768474694287
3539 -1163.157632940219
3540 -1164.908369505851
3541 -1167.458348994724
3542 -1169.305212666314
3543 -1171.119338192522
3544 -1173.544676026074
3545 -1175.244808433253
3546 -1177.642333336489
3547 -1179.405989734534
3548 -1181.69114999879
3549 -1183.271903907916
3550 -1185.259107439854
3551 -1186.718127295394
3552 -1188.206737843179
3553 -1190.06016307451
3554 -1191.518051500655
3555 -1193.314814247363
3556 -1194.607452310992
3557 -1195.808960166725
3558 -1197.386469265585
3559 -1198.506033811547
3560 -1199.469093676892
3561 -1200.955310867473
3562 -1201.859874472618
3563 -1202.77346000709
3564 -1203.764508526068
3565 -1204.560995024739
3566 -1205.44850825973
3567 -1206.321658166107
3568 -1207.151017067814
3569 -1207.849858280692
3570 -1208.67821994246
3571 -1209.536104989567
3572 -1210.364125327317
3573 -1211.116810852849
3574 -1212.016914616962
3575 -1212.943545164967
3576 -1213.862110699827
3577 -1214.929419669836
3578 -1216.069057623727
3579 -1217.237713440854
3580 -1218.377935893366
3581 -1219.678053669911
3582 -1221.1304709374
3583 -1222.656001547221
3584 -1224.239806815527
3585 -1225.780622936162
3586 -1227.532458678481
3587 -1229.005631328623
3588 -1230.57982749497
3589 -1231.67125172484
3590 -1233.496885202612
3591 -1235.333658977484
3592 -1236.671424522541
3593 -1238.648770290162
3594 -1240.783940294711
3595 -1242.145050836298
3596 -1244.400365659274
3597 -1246.006586504471
3598 -1248.579125946755
3599 -1250.258825629837
3600 -1252.974933777486
3601 -1254.794446022257
3602 -1257.721831504693
3603 -1259.621321216888
3604 -1262.518653237972
3605 -1264.473598203798
3606 -1267.529637224754
3607 -1270.395480848051
3608 -1272.402750518415
3609 -1275.365895740515
3610 -1277.392769052894
3611 -1280.304035589979
3612 -1283.164939078263
3613 -1285.031437239825
3614 -1287.957033885635
3615 -1290.77973582393
3616 -1292.598596094944
3617 -1295.225324586101
3618 -1297.686590008562
3619 -1299.322170351695
3620 -1301.904765191379
3621 -1304.268946957708
3622 -1305.89710856604
3623 -1308.104783672325
3624 -1310.36614075822
3625 -1311.793850488889
3626 -1313.871386029703
3627 -1315.814466534724
3628 -1317.069754180107
3629 -1319.014039622301
3630 -1320.825108755425
3631 -1321.936146701538
3632 -1323.56145364093
3633 -1325.092114291694
3634 -1326.061868192121
3635 -1327.476157529875
3636 -1328.921729827811
3637 -1329.728991800293
3638 -1330.994208273102
3639 -1332.038320991289
3640 -1332.665518620778
3641 -1333.527489365965
3642 -1334.00372025983
3643 -1334.629423485969
3644 -1335.030011351906
3645 -1335.384903610802
3646 -1335.693291459805
3647 -1336.091236709715
3648 -1336.293291299804
3649 -1336.567174852544
3650 -1336.709356440496
3651 -1336.871979253863
3652 -1336.969614319809
3653 -1337.072937637637
3654 -1337.12138157956
3655 -1337.234473005735
3656 -1337.333772503292
3657 -1337.273118077487
3658 -1337.313349558253
3659 -1337.276437307775
3660 -1337.358642002609
3661 -1337.317018510844
3662 -1337.368099168174
3663 -1337.423378257073
3664 -1337.487274558171
3665 -1337.571164730458
3666 -1337.778088302383
3667 -1338.060311681516
3668 -1338.296284430238
3669 -1338.645330668167
3670 -1338.836630958796
3671 -1339.257375013454
3672 -1339.512174596184
3673 -1339.970726671856
3674 -1340.408144456761
3675 -1341.054919449387
3676 -1341.558444372423
3677 -1342.299828924153
3678 -1342.946846597474
3679 -1343.820532340136
3680 -1344.468905837706
3681 -1345.416179026214
3682 -1346.160655951794
3683 -1347.350278988355
3684 -1348.179896623516
3685 -1349.056073932051
3686 -1350.358953409725
3687 -1351.298424581556
3688 -1352.729796080683
3689 -1353.700631753877
3690 -1354.7283904104
3691 -1356.193494348537
3692 -1357.278447751474
3693 -1358.431709595236
3694 -1360.177356122251
3695 -1361.284936729209
3696 -1362.466610864654
3697 -1364.161371008676
3698 -1365.250743333966
3699 -1366.23895571231
3700 -1367.751627794161
3701 -1368.686355706153
3702 -1369.621659192002
3703 -1371.002617987497
3704 -1371.79594135225
3705 -1372.935640970285
3706 -1373.669054113876
3707 -1374.59346915416
3708 -1375.10255879839
3709 -1375.716863190671
3710 -1376.087830575153
3711 -1376.401014360625
3712 -1376.598175205095
3713 -1376.742300751656
3714 -1376.787170697115
3715 -1376.627082651611
3716 -1376.526558108603
3717 -1376.230297697433
3718 -1375.970837510339
3719 -1375.478069671375
3720 -1375.11766661284
3721 -1374.444711866195
3722 -1373.983582420613
3723 -1373.120683182883
3724 -1372.556264422455
3725 -1371.574220334097
3726 -1370.938292867604
3727 -1369.887900951899
3728 -1369.224322887783
3729 -1368.134534360233
3730 -1367.481315132306
3731 -1366.393934833599
3732 -1365.439806106139
3733 -1364.78496023583
3734 -1363.906636345324
3735 -1363.02900745839
3736 -1362.162701100801
3737 -1361.266788313276
3738 -1360.603999065169
3739 -1359.959935566425
3740 -1359.327791911288
3741 -1358.840674220866
3742 -1358.443188802142
3743 -1358.125998985444
3744 -1357.89488226264
3745 -1357.723588836472
3746 -1357.751382424044
3747 -1357.750573800962
3748 -1357.842697596913
3749 -1358.008548120735
3750 -1358.261106989819
3751 -1358.517052655498
3752 -1358.898936244653
3753 -1359.208946404147
3754 -1359.627605899374
3755 -1360.049453322287
3756 -1360.475634612165
3757 -1360.938560828991
3758 -1361.415601567699
3759 -1361.736589877248
3760 -1362.092698632311
3761 -1362.369839214899
3762 -1362.629787890912
3763 -1362.711900813971
3764 -1362.958628743828
3765 -1363.025831641854
3766 -1363.090285516791
3767 -1363.061474690147
3768 -1362.972352167793
3769 -1362.753858704218
3770 -1362.371878149472
3771 -1361.907931462222
3772 -1361.363790308696
3773 -1360.564897562734
3774 -1359.814917862259
3775 -1358.866565254001
3776 -1357.752327546434
3777 -1356.560207894317
3778 -1355.23972144022
3779 -1353.69940214508
3780 -1352.110291655047
3781 -1350.427318401603
3782 -1348.671110925997
3783 -1346.825799389867
3784 -1344.914970414835
3785 -1342.915638852599
3786 -1340.919083379826
3787 -1339.021515779861
3788 -1337.157272361499
3789 -1335.144683800502
3790 -1333.211393147559
3791 -1331.308988600527
3792 -1329.542355008888
3793 -1327.947200262365
3794 -1326.513073091352
3795 -1325.286007939744
3796 -1324.14494168481
3797 -1323.122088063726
3798 -1322.304032605404
3799 -1321.694305705195
3800 -1321.290369401029
3801 -1321.046686272776
3802 -1321.111919217797
3803 -1321.226325914317
3804 -1321.570089106249
3805 -1322.110799486338
3806 -1322.974675676414
3807 -1324.014851095679
3808 -1325.157976238047
3809 -1326.576151495797
3810 -1328.173188256889
3811 -1329.916052135859
3812 -1331.930192578882
3813 -1333.926644346363
3814 -1336.066715477672
3815 -1338.281644261362
3816 -1339.876475514528
3817 -1342.281738565123
3818 -1344.697651996658
3819 -1347.064979013741
3820 -1349.379134205708
3821 -1351.600132949876
3822 -1353.858824948719
3823 -1355.995585016128
3824 -1358.033673859312
3825 -1360.055478477932
3826 -1361.880711990479
3827 -1363.548105783903
3828 -1365.057079534729
3829 -1366.340820804242
3830 -1367.554452932349
3831 -1368.537872217385
3832 -1369.353724538913
3833 -1369.982183418342
3834 -1370.47340816989
3835 -1370.74232544183
3836 -1370.838103866417
3837 -1370.719413279984
3838 -1370.436008929076
3839 -1369.931079766948
3840 -1369.547102201183
3841 -1368.720202741206
3842 -1368.11207501034
3843 -1366.996389690904
3844 -1366.204249876653
3845 -1364.865907613039
3846 -1363.963147187522
3847 -1362.963640362119
3848 -1361.412527210111
3849 -1360.308372024883
3850 -1359.228116294529
3851 -1358.078756601684
3852 -1356.913391100624
3853 -1355.018094512739
3854 -1353.837953181422
3855 -1352.567676898774
3856 -1350.769493239261
3857 -1349.584305647178
3858 -1347.930369438232
3859 -1346.842915170372
3860 -1345.216083327439
3861 -1343.766151793106
3862 -1342.860762611354
3863 -1341.604597764121
3864 -1340.43355170736
3865 -1339.426492199138
3866 -1338.839259785323
3867 -1337.987814892979
3868 -1337.355305266797
3869 -1336.714121948215
3870 -1336.378034543316
3871 -1335.875044328439
3872 -1335.44358730107
3873 -1335.127518719198
3874 -1334.766821178526
3875 -1334.515382022315
3876 -1334.234570756251
3877 -1334.021369467867
3878 -1333.678569493928
3879 -1333.415554369204
3880 -1333.095778226338
3881 -1332.8073232758
3882 -1332.312371679282
3883 -1331.912936593866
3884 -1331.552009548992
3885 -1330.880905255099
3886 -1330.402822107534
3887 -1329.860190527035
3888 -1329.314408989819
3889 -1328.308986409819
3890 -1327.638825628516
3891 -1326.880138361633
3892 -1326.064870378065
3893 -1324.682789302405
3894 -1323.730968116314
3895 -1322.703040550099
3896 -1321.138555914711
3897 -1320.034308701719
3898 -1318.879258923355
3899 -1316.982410311632
3900 -1315.696555560278
3901 -1313.769806175038
3902 -1312.543967905638
3903 -1310.57654881277
3904 -1309.255117236546
3905 -1307.266877841579
3906 -1305.997008786914
3907 -1304.032491361922
3908 -1302.139741225359
3909 -1300.912499308952
3910 -1299.122960560737
3911 -1297.401885630268
3912 -1295.799891161949
3913 -1294.296778813816
3914 -1292.910424731677
3915 -1291.543912335365
3916 -1290.366615312372
3917 -1289.268170273808
3918 -1288.347345088924
3919 -1287.539099252198
3920 -1286.907872894628
3921 -1286.40842950928
3922 -1286.006892777035
3923 -1285.812903730258
3924 -1285.790286479596
3925 -1285.928599288099
3926 -1286.256508471429
3927 -1286.673222764128
3928 -1287.224713927449
3929 -1287.945243323864
3930 -1288.807715394624
3931 -1289.451429192336
3932 -1290.552529916487
3933 -1291.774351715683
3934 -1292.757515509095
3935 -1294.326927032227
3936 -1295.479005894123
3937 -1297.328522178817
3938 -1298.687584067997
3939 -1300.778483639845
3940 -1302.240861473869
3941 -1304.523627080755
3942 -1306.883379129845
3943 -1308.514486328206
3944 -1310.965823244387
3945 -1313.458988630777
3946 -1315.959372900429
3947 -1318.417898895655
3948 -1320.781362627756
3949 -1323.05871862264
3950 -1325.321722879374
3951 -1327.446190968248
3952 -1329.520696706992
3953 -1331.518684204271
3954 -1333.421759800392
3955 -1335.154266848589
3956 -1336.757335303928
3957 -1338.217351042646
3958 -1339.586079703392
3959 -1340.729861052089
3960 -1341.818400536772
3961 -1342.757435386507
3962 -1343.607577763704
3963 -1344.250732688589
3964 -1344.812694076125
3965 -1345.251685611973
3966 -1345.492725891025
3967 -1345.720465679966
3968 -1345.933454842646
3969 -1345.974892977751
3970 -1345.998947737004
3971 -1345.9592418077
3972 -1345.90356774105
3973 -1345.808578759027
3974 -1345.660694417011
3975 -1345.510368507733
3976 -1345.279795532073
3977 -1345.079157754079
3978 -1344.846682740005
3979 -1344.645678931874
3980 -1344.505538318401
3981 -1344.214411001433
3982 -1344.064344252095
3983 -1343.748074831906
3984 -1343.591676528754
3985 -1343.350068478328
3986 -1343.2263313459
3987 -1343.04484409916
3988 -1342.980402771723
3989 -1342.791881026799
3990 -1342.726334818449
3991 -1342.606800690463
3992 -1342.606123460984
3993 -1342.512437232002
3994 -1342.52082207999
3995 -1342.535836705664
3996 -1342.611653759359
3997 -1342.654284154431
3998 -1342.714159322247
3999 -1342.763437764232
4000 -1342.814865809573
4001 -1342.80101460976
4002 -1342.847026394568
4003 -1342.757408406294
4004 -1342.707172889639
4005 -1342.55617497073
4006 -1342.431379734259
4007 -1342.274667634305
4008 -1342.02728769629
4009 -1341.74553155793
4010 -1341.40503595799
4011 -1340.785278668006
4012 -1340.283248636238
4013 -1339.71622851211
4014 -1338.791903103867
4015 -1338.027891502208
4016 -1337.263963540214
4017 -1335.918859101778
4018 -1334.94627775058
4019 -1333.909012487112
4020 -1332.210546117082
4021 -1331.015643696187
4022 -1329.141633436039
4023 -1327.81547480581
4024 -1325.778809608045
4025 -1324.354167175638
4026 -1322.227759998414
4027 -1320.045256020063
4028 -1318.574452599525
4029 -1316.311241263635
4030 -1314.07666363249
4031 -1311.896565352275
4032 -1309.749240135102
4033 -1307.690848354217
4034 -1305.760616316514
4035 -1303.901468859433
4036 -1302.200877853265
4037 -1300.622863666909
4038 -1299.148679058806
4039 -1297.764644114683
4040 -1296.567938275029
4041 -1295.459846759449
4042 -1294.497951677721
4043 -1293.634205115866
4044 -1292.935146385944
4045 -1292.316405182755
4046 -1291.875334744803
4047 -1291.530830845047
4048 -1291.326214438099
4049 -1291.270712365462
4050 -1291.304659042546
4051 -1291.534271267242
4052 -1291.861076740329
4053 -1292.224415106797
4054 -1292.706353901746
4055 -1293.233630681983
4056 -1293.89623264653
4057 -1294.646788286928
4058 -1295.459973387619
4059 -1296.070895625528
4060 -1297.070485991049
4061 -1298.066220966874
4062 -1298.797196177699
4063 -1299.942071924313
4064 -1300.783178275453
4065 -1302.029624236569
4066 -1302.909014859216
4067 -1304.195758380825
4068 -1305.547718914157
4069 -1306.444870838561
4070 -1307.82490564776
4071 -1309.076890631689
4072 -1310.396052690795
4073 -1311.672141325087
4074 -1312.993226219776
4075 -1314.175433581811
4076 -1315.3783261196
4077 -1316.464291923413
4078 -1317.530465496078
4079 -1318.541632363321
4080 -1319.454997823638
4081 -1320.312356469365
4082 -1321.123714895909
4083 -1321.838519750768
4084 -1322.582432292588
4085 -1323.2263924759
4086 -1323.798622390616
4087 -1324.175331928135
4088 -1324.666277138899
4089 -1325.122801422996
4090 -1325.387740200542
4091 -1325.713816781854
4092 -1326.064101956848
4093 -1326.212980968478
4094 -1326.459420651058
4095 -1326.550932177684
4096 -1326.654120439913
4097 -1326.694623122614
4098 -1326.669032061215
4099 -1326.592745506588
4100 -1326.433895628595
4101 -1326.274125912818
4102 -1326.110079857411
4103 -1325.683878600587
4104 -1325.42274399361
4105 -1324.900633351906
4106 -1324.51036510873
4107 -1323.857733538832
4108 -1323.37873812561
4109 -1322.519695398697
4110 -1321.901864326436
4111 -1320.819117321912
4112 -1320.133223066204
4113 -1319.039466901379
4114 -1318.238535388039
4115 -1316.929285281782
4116 -1315.635014083229
4117 -1314.72881437392
4118 -1313.357763728413
4119 -1311.992218587516
4120 -1310.612251840532
4121 -1309.242321542313
4122 -1307.924959312472
4123 -1306.601142064611
4124 -1305.283407887036
4125 -1303.968560502288
4126 -1302.669836966232
4127 -1301.386039144621
4128 -1300.149630967973
4129 -1298.922738111736
4130 -1297.834199453405
4131 -1296.732883669203
4132 -1295.74416010715
4133 -1294.685952237395
4134 -1293.709206463241
4135 -1292.819931691248
4136 -1292.05040031341
4137 -1291.317853740399
4138 -1290.660332871168
4139 -1290.024226087944
4140 -1289.447101535197
4141 -1288.964265849233
4142 -1288.572752649325
4143 -1288.197813603061
4144 -1287.930613798763
4145 -1287.663651138894
4146 -1287.500240883311
4147 -1287.333430989427
4148 -1287.202301963242
4149 -1287.05646971078
4150 -1287.011082583265
4151 -1286.912708789471
4152 -1286.854992932275
4153 -1286.759651174257
4154 -1286.718008954293
4155 -1286.657448367617
4156 -1286.60827623676
4157 -1286.515389263264
4158 -1286.408905550852
4159 -1286.233212387042
4160 -1286.083655040374
4161 -1285.726956856248
4162 -1285.3538137362
4163 -1284.939015228829
4164 -1284.514816015693
4165 -1284.108686089406
4166 -1283.559989706244
4167 -1282.804726082242
4168 -1282.039260228588
4169 -1281.20987439065
4170 -1280.434746773727
4171 -1279.786703099548
4172 -1278.817228950156
4173 -1277.77723968779
4174 -1276.763532385706
4175 -1275.717034496739
4176 -1275.075367600284
4177 -1274.024821615194
4178 -1273.089242033562
4179 -1272.143397250207
4180 -1271.538818683808
4181 -1270.618037833013
4182 -1269.762466861957
4183 -1269.178297022861
4184 -1268.387351612484
4185 -1267.731351361399
4186 -1267.200147811151
4187 -1266.912744368535
4188 -1266.597388624745
4189 -1266.349021535057
4190 -1266.228967835109
4191 -1266.219028110345
4192 -1266.379909281169
4193 -1266.639198700744
4194 -1267.035710926822
4195 -1267.559030832064
4196 -1268.171540577712
4197 -1268.949171179616
4198 -1269.792150210844
4199 -1270.756936723422
4200 -1271.783985291883
4201 -1272.865854635563
4202 -1273.998878718397
4203 -1275.187816027207
4204 -1276.4376000775
4205 -1277.639107260613
4206 -1278.950800050346
4207 -1280.223102020868
4208 -1281.482725477714
4209 -1282.690367232283
4210 -1283.924734654577
4211 -1285.08402766898
4212 -1286.217709526779
4213 -1287.279666363701
4214 -1288.311582041679
4215 -1289.247273453505
4216 -1290.157437357408
4217 -1290.904703742775
4218 -1291.605966706956
4219 -1292.153491117429
4220 -1292.566380383609
4221 -1292.83025034089
4222 -1293.056262920193
4223 -1293.13308114937
4224 -1293.078269721468
4225 -1292.926507748136
4226 -1292.627936074758
4227 -1292.238935718118
4228 -1291.826753118392
4229 -1291.268897319222
4230 -1290.593478368573
4231 -1289.854452072861
4232 -1289.090867285424
4233 -1288.233786096319
4234 -1287.35788641886
4235 -1286.730616346024
4236 -1285.753409419277
4237 -1284.712048502334
4238 -1284.061493685279
4239 -1282.993509284319
4240 -1281.990471831397
4241 -1281.335275153509
4242 -1280.364068840331
4243 -1279.463172616473
4244 -1278.941584628852
4245 -1278.16990013576
4246 -1277.460094227406
4247 -1276.839035825627
4248 -1276.3079467511
4249 -1275.824434581305
4250 -1275.394119478377
4251 -1275.070103553913
4252 -1274.821264623752
4253 -1274.61191086732
4254 -1274.550881034687
4255 -1274.452011569786
4256 -1274.39094858607
4257 -1274.388650886176
4258 -1274.49833013383
4259 -1274.614849556103
4260 -1274.810261189678
4261 -1275.015506334044
4262 -1275.257307461857
4263 -1275.541180189326
4264 -1275.808442542735
4265 -1276.012767706022
4266 -1276.212576370524
4267 -1276.392539020744
4268 -1276.59338325386
4269 -1276.751432839392
4270 -1276.886527474636
4271 -1276.945313345093
4272 -1276.96495276171
4273 -1276.865457446602
4274 -1276.720741404763
4275 -1276.586133917786
4276 -1276.408965093288
4277 -1276.194915847438
4278 -1275.940754577261
4279 -1275.594502067203
4280 -1275.328653850677
4281 -1274.972739140404
4282 -1274.618059010743
4283 -1274.180733552747
4284 -1273.77886993289
4285 -1273.305999315154
4286 -1272.924379670736
4287 -1272.428371870917
4288 -1271.984315611089
4289 -1271.652045905333
4290 -1271.261493343602
4291 -1270.959026412101
4292 -1270.675892342293
4293 -1270.456668432313
4294 -1270.352593696991
4295 -1270.208617711556
4296 -1270.257041364504
4297 -1270.391739504334
4298 -1270.67295966851
4299 -1270.945019263248
4300 -1271.282237316151
4301 -1271.660344939463
4302 -1272.238084074372
4303 -1272.903330683389
4304 -1273.709463687547
4305 -1274.634961638983
4306 -1275.66008751984
4307 -1276.806913563637
4308 -1278.072348477958
4309 -1279.342214984783
4310 -1280.657617458993
4311 -1282.042066030977
4312 -1283.593392873323
4313 -1285.226715624562
4314 -1287.015330648561
4315 -1288.798668479106
4316 -1290.497455676832
4317 -1292.182739265506
4318 -1293.974816535465
4319 -1295.756334247811
4320 -1297.492013603057
4321 -1299.064280636728
4322 -1300.68714831621
4323 -1302.192503482463
4324 -1303.571368449117
4325 -1304.863256426294
4326 -1306.169317051517
4327 -1307.326819944692
4328 -1308.489246462595
4329 -1309.630653695953
4330 -1310.592648761822
4331 -1311.414104144946
4332 -1312.273025291225
4333 -1313.038253421523
4334 -1313.884180300119
4335 -1314.689806962703
4336 -1315.490797969303
4337 -1316.185186134391
4338 -1317.080273573565
4339 -1317.874975591017
4340 -1318.721517870126
4341 -1319.492206132323
4342 -1320.283087083734
4343 -1321.128259687932
4344 -1322.024292671684
4345 -1322.990889566161
4346 -1323.988303369782
4347 -1324.996467605725
4348 -1326.126088079382
4349 -1327.315169156674
4350 -1328.609116076675
4351 -1329.897361338167
4352 -1330.815117140229
4353 -1332.20888753069
4354 -1333.687057864668
4355 -1334.734654887672
4356 -1336.435626834191
4357 -1338.207617179572
4358 -1339.543467196615
4359 -1341.566743553268
4360 -1343.028474111534
4361 -1345.302787497436
4362 -1346.868691338269
4363 -1349.316914553772
4364 -1351.855270236622
4365 -1353.605650409489
4366 -1356.256589605514
4367 -1357.980910362448
4368 -1360.69530582839
4369 -1362.406529082308
4370 -1365.06749542926
4371 -1367.524144880731
4372 -1369.191396303201
4373 -1371.652989801255
4374 -1373.258391040895
4375 -1375.528947661115
4376 -1377.752788918283
4377 -1379.064052170488
4378 -1380.977554361529
4379 -1382.142674338344
4380 -1383.809901287843
4381 -1385.313910303668
4382 -1386.238019069183
4383 -1387.391477184215
4384 -1388.090600073497
4385 -1388.928040010492
4386 -1389.371559400214
4387 -1389.870172919399
4388 -1390.109643836277
4389 -1390.275204342338
4390 -1390.348694568489
4391 -1390.242902574774
4392 -1390.084239713312
4393 -1389.683163450368
4394 -1389.364720256683
4395 -1388.7605716112
4396 -1388.305466141292
4397 -1387.496322642215
4398 -1386.893361445127
4399 -1386.210915220381
4400 -1385.1186886028
4401 -1384.333223324408
4402 -1383.550941154614
4403 -1382.236908099022
4404 -1381.403115595197
4405 -1380.014093089272
4406 -1379.138741704223
4407 -1377.822340395061
4408 -1376.96885209383
4409 -1375.690442460163
4410 -1374.906002620084
4411 -1373.776158039747
4412 -1373.085264187481
4413 -1372.055550194882
4414 -1371.1760001336
4415 -1370.619730100736
4416 -1369.993391733558
4417 -1369.355433381181
4418 -1368.998063801924
4419 -1368.548772182733
4420 -1368.197577288243
4421 -1368.008159717458
4422 -1367.834613376345
4423 -1367.707097311959
4424 -1367.661620974141
4425 -1367.702227351253
4426 -1367.874810973821
4427 -1368.002105435106
4428 -1368.27444487312
4429 -1368.49840285879
4430 -1368.953998380708
4431 -1369.248363247665
4432 -1369.830215221686
4433 -1370.217707595047
4434 -1370.91202741495
4435 -1371.333201712321
4436 -1371.806671932575
4437 -1372.535449125577
4438 -1373.066312745067
4439 -1373.579193700994
4440 -1374.403019482517
4441 -1374.900022702498
4442 -1375.796971860731
4443 -1376.391371731991
4444 -1377.286516781832
4445 -1377.806930047618
4446 -1378.618428111227
4447 -1379.204447976428
4448 -1380.004492659931
4449 -1380.571907993973
4450 -1381.417736698083
4451 -1382.234066997406
4452 -1382.774852941924
4453 -1383.539316612186
4454 -1384.281392551
4455 -1384.968195026458
4456 -1385.427160161681
4457 -1386.113426372895
4458 -1386.791693100884
4459 -1387.41590027823
4460 -1388.068272827596
4461 -1388.593062402417
4462 -1389.134282325654
4463 -1389.677587927248
4464 -1390.098531578868
4465 -1390.468678263707
4466 -1390.818339593167
4467 -1391.145723422405
4468 -1391.470182820452
4469 -1391.706803907828
4470 -1392.01652584695
4471 -1392.214512901382
4472 -1392.504042809231
4473 -1392.752764628464
4474 -1392.93797029254
4475 -1393.13084212915
4476 -1393.390618109401
4477 -1393.52268688285
4478 -1393.748021320346
4479 -1393.816952755115
4480 -1393.908653983631
4481 -1393.941802327201
4482 -1394.008499240089
4483 -1393.935762313376
4484 -1394.010963017951
4485 -1394.018108781468
4486 -1394.101999186422
4487 -1394.099472253213
4488 -1394.155361011007
4489 -1394.244115319051
4490 -1394.567295100033
4491 -1394.680067702372
4492 -1394.862720703231
4493 -1395.095192458004
4494 -1395.381216764055
4495 -1395.678485964598
4496 -1396.16115494662
4497 -1396.661711100842
4498 -1397.312770986783
4499 -1397.960124837543
4500 -1398.642131861831
4501 -1399.492783134247
4502 -1400.370717612113
4503 -1401.253014148785
4504 -1402.37837485239
4505 -1403.511905702935
4506 -1404.813893477524
4507 -1406.165494071913
4508 -1407.596436311395
4509 -1409.058144338625
4510 -1410.839739049837
4511 -1412.598366376553
4512 -1414.58730142925
4513 -1416.521276096714
4514 -1418.631330934431
4515 -1420.560710112779
4516 -1422.594436875112
4517 -1424.695794461738
4518 -1426.864253692874
4519 -1428.940167213455
4520 -1431.134909763698
4521 -1433.112221501698
4522 -1435.19431982256
4523 -1437.254150659418
4524 -1439.382335417142
4525 -1441.359452440593
4526 -1443.220117389151
4527 -1444.990246371139
4528 -1446.60568434251
4529 -1447.954909510904
4530 -1449.273563189156
4531 -1450.428731755567
4532 -1451.537961853363
4533 -1452.235662703514
4534 -1452.908314180299
4535 -1453.096246204342
4536 -1453.059293985682
4537 -1452.827180476854
4538 -1452.33783696852
4539 -1451.656159508433
4540 -1450.761376522537
4541 -1449.534435822063
4542 -1448.247957902758
4543 -1446.709699766685
4544 -1444.9965408275
4545 -1443.096535653619
4546 -1440.860140628057
4547 -1438.542304522348
4548 -1435.957751823429
4549 -1433.33943275036
4550 -1430.57293193667
4551 -1427.636334323111
4552 -1424.809069869026
4553 -1421.833266327047
4554 -1418.728477466049
4555 -1415.476337470441
4556 -1412.262931141049
4557 -1409.014536349048
4558 -1405.759076952992
4559 -1402.657623119313
4560 -1399.52517308465
4561 -1396.281789239106
4562 -1393.275389829461
4563 -1390.302770252218
4564 -1387.50699972964
4565 -1384.740366681129
4566 -1382.191125688648
4567 -1379.838097248685
4568 -1377.703320284793
4569 -1375.668234420921
4570 -1373.857125171956
4571 -1372.264426603002
4572 -1370.898237187751
4573 -1369.818918741289
4574 -1369.111347428385
4575 -1368.435579450169
4576 -1367.951745168635
4577 -1367.770796387768
4578 -1367.784901399096
4579 -1368.159775040996
4580 -1368.710518882008
4581 -1369.342218121292
4582 -1370.342283230323
4583 -1371.592367032397
4584 -1372.825696426602
4585 -1374.388625987906
4586 -1376.18799271898
4587 -1378.044500355452
4588 -1380.013015365004
4589 -1381.345359332127
4590 -1383.7246968374
4591 -1385.437878813759
4592 -1388.329991715371
4593 -1390.169438371024
4594 -1392.972180848794
4595 -1394.806841261318
4596 -1397.609549306531
4597 -1400.561990595361
4598 -1402.416609805528
4599 -1405.191676650292
4600 -1408.005566072987
4601 -1410.64874554775
4602 -1413.335213248273
4603 -1415.705083856495
4604 -1417.93054178407
4605 -1419.73128293778
4606 -1421.483655565876
4607 -1422.92231113453
4608 -1424.293603366145
4609 -1425.301352270566
4610 -1425.995827819256
4611 -1426.413438528769
4612 -1426.700232246701
4613 -1426.762146516066
4614 -1426.548194106081
4615 -1426.119701508015
4616 -1425.46400978378
4617 -1424.643583745117
4618 -1423.61030503371
4619 -1422.342185547037
4620 -1421.397393736756
4621 -1419.680787099036
4622 -1417.747321465929
4623 -1416.356482316383
4624 -1414.182140855121
4625 -1412.654994248295
4626 -1410.218384186929
4627 -1408.568119664222
4628 -1405.997322448736
4629 -1404.205198901284
4630 -1401.587435136083
4631 -1399.794764536311
4632 -1397.13608654091
4633 -1395.281378122344
4634 -1392.501991771584
4635 -1390.567747227259
4636 -1387.837265251412
4637 -1385.260505529137
4638 -1383.675572029258
4639 -1381.386941905847
4640 -1379.238535694664
4641 -1377.243443593956
4642 -1375.426142902551
4643 -1373.744422087678
4644 -1372.327535373373
4645 -1371.047116665614
4646 -1370.029223104719
4647 -1369.145071881355
4648 -1368.377666031747
4649 -1367.687519655518
4650 -1367.190366424238
4651 -1366.860061859908
4652 -1366.684566687101
4653 -1366.637565885152
4654 -1366.651605010036
4655 -1366.844129135384
4656 -1367.194024388853
4657 -1367.461687538776
4658 -1367.934207818706
4659 -1368.343360090745
4660 -1368.774616620249
4661 -1369.519547981547
4662 -1370.069407940023
4663 -1370.869308301841
4664 -1371.4596548044
4665 -1372.364705383593
4666 -1372.956536920268
4667 -1373.873588757378
4668 -1374.527568295783
4669 -1375.562747214292
4670 -1376.346687161833
4671 -1377.128404934632
4672 -1378.274300270036
4673 -1378.965191006033
4674 -1380.122299478836
4675 -1380.910559616822
4676 -1382.050204864973
4677 -1382.814511716407
4678 -1384.093836471306
4679 -1384.838177385641
4680 -1385.882656144326
4681 -1386.489977465947
4682 -1387.387718454249
4683 -1388.225683811805
4684 -1388.752466006893
4685 -1389.334510521934
4686 -1389.850291685152
4687 -1390.229481781977
4688 -1390.641876562134
4689 -1390.799141014019
4690 -1390.764768784478
4691 -1390.622232200093
4692 -1390.402428319252
4693 -1389.759047061895
4694 -1389.116096135541
4695 -1388.561315282324
4696 -1387.573673793038
4697 -1386.379656046241
4698 -1385.04194458146
4699 -1383.993346027533
4700 -1382.372523400617
4701 -1380.375545465427
4702 -1378.399104801575
4703 -1376.13000551576
4704 -1373.734101741918
4705 -1371.366327575617
4706 -1368.770471449521
4707 -1365.92489794152
4708 -1363.059157268193
4709 -1360.069353628193
4710 -1356.969210554022
4711 -1353.734641734281
4712 -1350.392099835346
4713 -1346.919823264961
4714 -1343.579462492706
4715 -1339.97158913101
4716 -1336.399015816247
4717 -1332.62732337424
4718 -1329.031635333592
4719 -1325.305282950588
4720 -1321.634121426627
4721 -1317.890068788082
4722 -1314.142786122484
4723 -1310.499801988488
4724 -1306.895222041949
4725 -1303.24775056681
4726 -1299.641528208547
4727 -1296.254773238761
4728 -1292.95433472238
4729 -1289.784383370931
4730 -1286.787763306971
4731 -1283.762474723435
4732 -1280.982571531544
4733 -1278.417017093278
4734 -1276.056792992192
4735 -1273.737293166855
4736 -1271.748654902026
4737 -1269.879016765236
4738 -1268.31215900561
4739 -1266.878189354244
4740 -1265.669346064125
4741 -1264.5968565257
4742 -1263.655254471893
4743 -1263.106525708723
4744 -1262.929454187583
4745 -1262.83700018311
4746 -1263.03825507655
4747 -1263.3166719085
4748 -1263.67077740799
4749 -1264.334898742268
4750 -1265.171583266385
4751 -1265.726576986572
4752 -1266.884653140849
4753 -1268.181896988315
4754 -1269.186401750164
4755 -1270.826984137896
4756 -1272.82315869615
4757 -1274.094726309868
4758 -1276.04757037457
4759 -1278.296927116632
4760 -1280.636449730274
4761 -1282.840944325125
4762 -1285.071383863329
4763 -1287.323558428849
4764 -1289.698493201427
4765 -1292.117614535599
4766 -1294.484673318866
4767 -1296.642164013233
4768 -1298.916506365583
4769 -1301.009443269334
4770 -1303.065049753763
4771 -1304.99230858793
4772 -1306.774454509402
4773 -1308.554142563342
4774 -1310.254807582802
4775 -1311.763782123454
4776 -1313.126075573568
4777 -1314.303075180635
4778 -1315.376570914747
4779 -1316.354852532573
4780 -1317.221171643936
4781 -1317.834982326147
4782 -1318.35805946135
4783 -1318.703272965928
4784 -1318.847336797647
4785 -1318.807232562619
4786 -1318.744712415093
4787 -1318.398065839866
4788 -1317.945074534487
4789 -1317.312742934947
4790 -1316.423181738566
4791 -1315.458209050107
4792 -1314.40797318762
4793 -1313.16376970073
4794 -1311.673187522918
4795 -1310.518547590634
4796 -1308.807512045562
4797 -1306.824210159536
4798 -1305.496363236082
4799 -1303.324331682388
4800 -1301.052759757632
4801 -1299.438753894404
4802 -1296.898069708051
4803 -1294.165907146965
4804 -1292.338718746804
4805 -1289.495560954088
4806 -1286.533200474024
4807 -1283.477987063329
4808 -1281.465409901837
4809 -1278.220800608314
4810 -1275.086482769625
4811 -1271.910166887079
4812 -1268.826012278837
4813 -1265.708623403583
4814 -1262.671447409079
4815 -1259.832959822203
4816 -1257.160856377247
4817 -1254.461689886539
4818 -1251.917967802285
4819 -1249.457159348208
4820 -1247.008065016716
4821 -1244.792090030959
4822 -1242.767005515292
4823 -1240.731811233624
4824 -1238.786029633699
4825 -1236.824405016713
4826 -1235.151348200504
4827 -1233.421230365306
4828 -1231.813546490343
4829 -1230.233925861195
4830 -1228.769006114519
4831 -1227.382869032136
4832 -1226.115953630953
4833 -1224.885003573451
4834 -1223.734428773349
4835 -1222.933076397635
4836 -1221.829786055017
4837 -1220.78114957915
4838 -1220.16595927335
4839 -1219.132373818841
4840 -1218.486637048954
4841 -1217.470591340621
4842 -1216.84646608003
4843 -1215.861430112451
4844 -1215.17270824432
4845 -1214.138127607654
4846 -1213.483384147605
4847 -1212.44865822104
4848 -1211.73301971967
4849 -1210.944817901596
4850 -1209.850685777184
4851 -1209.030966006429
4852 -1208.245005081564
4853 -1207.351616202032
4854 -1206.108611188564
4855 -1205.14871892079
4856 -1204.314578015187
4857 -1203.373743693865
4858 -1201.942632678482
4859 -1200.928915505007
4860 -1199.969628510535
4861 -1198.454590486071
4862 -1197.455389680963
4863 -1196.433111159181
4864 -1194.926940261288
4865 -1193.909771164014
4866 -1192.950221760958
4867 -1191.521713157281
4868 -1190.60024417588
4869 -1189.217069940134
4870 -1188.359881026521
4871 -1187.102738464466
4872 -1186.373283839447
4873 -1185.311534343629
4874 -1184.679108413047
4875 -1183.776011894082
4876 -1183.298899099525
4877 -1182.623072525242
4878 -1182.284886008966
4879 -1181.826118910252
4880 -1181.618809208554
4881 -1181.421827145288
4882 -1181.415433174074
4883 -1181.390570853661
4884 -1181.524485169397
4885 -1181.741655412118
4886 -1182.055626650102
4887 -1182.552397417833
4888 -1182.999902024505
4889 -1183.714977557942
4890 -1184.245968384112
4891 -1185.15285694232
4892 -1185.83880887528
4893 -1186.898865124321
4894 -1187.713990080703
4895 -1188.99569246859
4896 -1189.912114589741
4897 -1191.330229207712
4898 -1192.383311836176
4899 -1193.977837667665
4900 -1195.065730356641
4901 -1196.763835728345
4902 -1197.910323351633
4903 -1199.715856545211
4904 -1201.546884776203
4905 -1202.768576681693
4906 -1204.622755179617
4907 -1206.482694731549
4908 -1208.33430113756
4909 -1210.151373031098
4910 -1211.899458463832
4911 -1213.535456004116
4912 -1215.2213211166
4913 -1216.818743898323
4914 -1218.441766730208
4915 -1219.921562001135
4916 -1221.455838186214
4917 -1222.857215376421
4918 -1224.285297270781
4919 -1225.627909795762
4920 -1226.960869449096
4921 -1228.215690164563
4922 -1229.503052450813
4923 -1230.722189151239
4924 -1231.9254821169
4925 -1233.055041616046
4926 -1234.141631539901
4927 -1235.188070817771
4928 -1236.198826322901
4929 -1237.152727739154
4930 -1238.131230099663
4931 -1239.03192187505
4932 -1239.923819478323
4933 -1240.635180801102
4934 -1241.239007244395
4935 -1241.825429034354
4936 -1242.386322624812
4937 -1242.770648755377
4938 -1243.077766926225
4939 -1243.266476930294
4940 -1243.348156810876
4941 -1243.203372732539
4942 -1243.012388515886
4943 -1242.678801079207
4944 -1242.201327414665
4945 -1241.547761280532
4946 -1240.790427269992
4947 -1239.828550525129
4948 -1238.758504890664
4949 -1237.923770271014
4950 -1236.490802902401
4951 -1234.972376483935
4952 -1233.352047307292
4953 -1231.530692236124
4954 -1229.713473943415
4955 -1227.821008981904
4956 -1225.797992818723
4957 -1223.619279570139
4958 -1221.456744209057
4959 -1219.256703218175
4960 -1217.016875799309
4961 -1214.677719771113
4962 -1212.337077177262
4963 -1210.006637005355
4964 -1207.734551657446
4965 -1205.411620524714
4966 -1203.20144945523
4967 -1200.967683642692
4968 -1198.816362094907
4969 -1196.682607086778
4970 -1194.62595973835
4971 -1192.682408925606
4972 -1190.931858882779
4973 -1189.18914733167
4974 -1187.603009735129
4975 -1186.180280847794
4976 -1184.925190473346
4977 -1183.766906448007
4978 -1182.860342831598
4979 -1182.106584044808
4980 -1181.508515392295
4981 -1181.114338361668
4982 -1180.948764727589
4983 -1180.945382806402
4984 -1181.144683709856
4985 -1181.496455433265
4986 -1181.995621831211
4987 -1182.577131245221
4988 -1183.425308253157
4989 -1184.276909489313
4990 -1185.298661088863
4991 -1186.325353535248
4992 -1187.150434080612
4993 -1188.477235842738
4994 -1189.907022343522
4995 -1190.828760895473
4996 -1192.353683115091
4997 -1193.88803496745
4998 -1195.464711907204
4999 -1196.91499422226
5000 -1198.42383295746
5001 -1199.833689371791
5002 -1201.210257789278
5003 -1202.483093521162
5004 -1203.775058375668
5005 -1204.944143622928
5006 -1206.04522132011
5007 -1207.02562275183
5008 -1207.965932325279
5009 -1208.729387224115
5010 -1209.479013908204
5011 -1210.087599770943
5012 -1210.621472161295
5013 -1211.045530258206
5014 -1211.407583683882
5015 -1211.631434948807
5016 -1211.766555171356
5017 -1211.815098556121
5018 -1211.881435368423
5019 -1211.878270807859
5020 -1211.920257388461
5021 -1211.89801600773
5022 -1211.873374556528
5023 -1211.787526264632
5024 -1211.766730716801
5025 -1211.785936530968
5026 -1211.89348812346
5027 -1211.949166016918
5028 -1212.085111201279
5029 -1212.252342445237
5030 -1212.569873028002
5031 -1212.920381554543
5032 -1213.360127393319
5033 -1213.694174876361
5034 -1214.375230153663
5035 -1215.168190044536
5036 -1216.098760898537
5037 -1217.203160426757
5038 -1218.417531466333
5039 -1219.745718318136
5040 -1221.229490209568
5041 -1222.8127348668
5042 -1224.542287796217
5043 -1226.320888873411
5044 -1228.278284145971
5045 -1230.318159170002
5046 -1232.468886293987
5047 -1234.684781896258
5048 -1237.007328252199
5049 -1239.348673272873
5050 -1241.860503005763
5051 -1244.369659955218
5052 -1246.941389509479
5053 -1249.567769748474
5054 -1252.211874888369
5055 -1254.941634383546
5056 -1257.700761803457
5057 -1260.404840580157
5058 -1263.061524932926
5059 -1265.723901293215
5060 -1268.361016152247
5061 -1271.000501065161
5062 -1273.646617662946
5063 -1276.093602407326
5064 -1278.566148872195
5065 -1280.949248091445
5066 -1283.312338699659
5067 -1285.495961402867
5068 -1287.617973533781
5069 -1289.513877179252
5070 -1291.446324878909
5071 -1293.163530141077
5072 -1294.831913594565
5073 -1296.325378342278
5074 -1297.690374753801
5075 -1298.940052958787
5076 -1300.09781749253
5077 -1301.008164023019
5078 -1301.808199073625
5079 -1302.431063910447
5080 -1302.993069204882
5081 -1303.36393858067
5082 -1303.583339000987
5083 -1303.740295374327
5084 -1303.754493660411
5085 -1303.601282501302
5086 -1303.305920206718
5087 -1302.904775676638
5088 -1302.570662450001
5089 -1301.930334046288
5090 -1301.422482374047
5091 -1300.517888365661
5092 -1299.862044652209
5093 -1298.781033707582
5094 -1298.021296755741
5095 -1296.801198774489
5096 -1295.999961174046
5097 -1294.581742024828
5098 -1293.640351738657
5099 -1292.148824440167
5100 -1291.177105172389
5101 -1289.610038446664
5102 -1288.090922269119
5103 -1286.495019375046
5104 -1284.966966884016
5105 -1283.948850024075
5106 -1282.478350947134
5107 -1281.01022118445
5108 -1279.645399905278
5109 -1278.327111248627
5110 -1277.024101144293
5111 -1275.835318600835
5112 -1274.806947361006
5113 -1273.815722292578
5114 -1272.939398595382
5115 -1272.182740917966
5116 -1271.524993813568
5117 -1270.992822034218
5118 -1270.543093664888
5119 -1270.148588212965
5120 -1269.902735726739
5121 -1269.799720193328
5122 -1269.768324006078
5123 -1269.843063492679
5124 -1270.103570399527
5125 -1270.405031498618
5126 -1270.704731988179
5127 -1271.243708993715
5128 -1271.916966819026
5129 -1272.372462191443
5130 -1273.212307820291
5131 -1273.806999379595
5132 -1274.857132217752
5133 -1275.596277742241
5134 -1276.782033915545
5135 -1277.654271607568
5136 -1279.058594812911
5137 -1280.029158841547
5138 -1281.522301662074
5139 -1282.508714879459
5140 -1284.115081836274
5141 -1285.658337229822
5142 -1286.749128432186
5143 -1288.407113440149
5144 -1290.013976279224
5145 -1291.669095268123
5146 -1293.234219560213
5147 -1294.755943168232
5148 -1296.189934863877
5149 -1297.504157971981
5150 -1298.785724194842
5151 -1299.963834293397
5152 -1301.197679133026
5153 -1302.310439892967
5154 -1303.346828927835
5155 -1304.356035622467
5156 -1305.319561046621
5157 -1306.153123399412
5158 -1307.009386013493
5159 -1307.744387356106
5160 -1308.55307811765
5161 -1309.294427547801
5162 -1309.998886478594
5163 -1310.725338893909
5164 -1311.174593521176
5165 -1311.778977849722
5166 -1312.442491948194
5167 -1312.833929218506
5168 -1313.449523997996
5169 -1314.015167751912
5170 -1314.398235348081
5171 -1314.956497654063
5172 -1315.37127097623
5173 -1315.998002467241
5174 -1316.467205026849
5175 -1317.150063934302
5176 -1317.647742909732
5177 -1318.4486551824
5178 -1318.975969322994
5179 -1319.807363592219
5180 -1320.395542463046
5181 -1321.236096659781
5182 -1321.816055747347
5183 -1322.670319979661
5184 -1323.303664047387
5185 -1324.211402368911
5186 -1324.873122477016
5187 -1325.82717989946
5188 -1326.495688367707
5189 -1327.443191814273
5190 -1328.129304797463
5191 -1329.20307693407
5192 -1329.924706087691
5193 -1330.892998808118
5194 -1331.546748700556
5195 -1332.539998273311
5196 -1333.251975905858
5197 -1334.278122150383
5198 -1334.935180900124
5199 -1335.793489240293
5200 -1336.500036071639
5201 -1337.355230095172
5202 -1337.933182014585
5203 -1338.694979378283
5204 -1339.22453146916
5205 -1339.905442205633
5206 -1340.347427830764
5207 -1340.908013855323
5208 -1341.263498348316
5209 -1341.762131986619
5210 -1342.07714683663
5211 -1342.433843727907
5212 -1342.595917642919
5213 -1342.725721625851
5214 -1342.78636879123
5215 -1342.739247616061
5216 -1342.681747010728
5217 -1342.583950629046
5218 -1342.443485058067
5219 -1342.08186664273
5220 -1341.773007641706
5221 -1341.275621002043
5222 -1340.903126581712
5223 -1340.165824743079
5224 -1339.654487747008
5225 -1338.739783756916
5226 -1338.121911550652
5227 -1337.08390168179
5228 -1336.376502638175
5229 -1335.218211151498
5230 -1334.489901283659
5231 -1333.255350576989
5232 -1332.050212308441
5233 -1331.178130772796
5234 -1329.883925543149
5235 -1328.476788743551
5236 -1327.152800364466
5237 -1325.756081701839
5238 -1324.423901067663
5239 -1323.069512582368
5240 -1321.803487519886
5241 -1320.464729764494
5242 -1319.214101784965
5243 -1317.96841480957
5244 -1316.819909946988
5245 -1315.633685896323
5246 -1314.490769516707
5247 -1313.751663265167
5248 -1312.641942151065
5249 -1311.544279321806
5250 -1310.506152875847
5251 -1309.471512931262
5252 -1308.481749912792
5253 -1307.807084896104
5254 -1306.856599398514
5255 -1305.824231958495
5256 -1305.232864557943
5257 -1304.316087563556
5258 -1303.451223034176
5259 -1302.903566321753
5260 -1302.096642607709
5261 -1301.575268382122
5262 -1300.839159523182
5263 -1300.35121106316
5264 -1299.706342806637
5265 -1299.223195195923
5266 -1298.698030342626
5267 -1298.364797913631
5268 -1297.8826545847
5269 -1297.607693830442
5270 -1297.346004271747
5271 -1297.213185482544
5272 -1297.038860972812
5273 -1296.977280469616
5274 -1296.950790505266
5275 -1297.008177608201
5276 -1297.164388239542
5277 -1297.445914026172
5278 -1297.680046407213
5279 -1297.96658872551
5280 -1298.610681294063
5281 -1299.000933705721
5282 -1299.541843966964
5283 -1300.268116578296
5284 -1300.846226489089
5285 -1301.444697816454
5286 -1302.41644906134
5287 -1303.04676947439
5288 -1304.118398758172
5289 -1304.807680308058
5290 -1305.883277566146
5291 -1306.587793987471
5292 -1307.709411537672
5293 -1308.386966855794
5294 -1309.436446299068
5295 -1310.394023860546
5296 -1311.023342499344
5297 -1311.824907681954
5298 -1312.631410872746
5299 -1313.091958384687
5300 -1313.793845525471
5301 -1314.415450256346
5302 -1314.991792835425
5303 -1315.480613493404
5304 -1315.971147010827
5305 -1316.236839806433
5306 -1316.510612611111
5307 -1316.683532243563
5308 -1316.844701649056
5309 -1316.925042657869
5310 -1316.930587828288
5311 -1316.814750229251
5312 -1316.689752491666
5313 -1316.33250107495
5314 -1316.087617885608
5315 -1315.73780993593
5316 -1315.463225638276
5317 -1314.889935310868
5318 -1314.323254495491
5319 -1313.863747101097
5320 -1313.116455669754
5321 -1312.183815551484
5322 -1311.640708721691
5323 -1310.655588801155
5324 -1310.055751818461
5325 -1308.928973835672
5326 -1308.171115109064
5327 -1306.985465776529
5328 -1305.752580717228
5329 -1304.846562729989
5330 -1303.611374018326
5331 -1302.276915508647
5332 -1301.40618839942
5333 -1300.045826708169
5334 -1298.735315437395
5335 -1297.374452993774
5336 -1296.585305270154
5337 -1295.322621930045
5338 -1294.177315497318
5339 -1293.003545957626
5340 -1291.922967425039
5341 -1291.245918274105
5342 -1290.174011880128
5343 -1289.276438159889
5344 -1288.425247461712
5345 -1287.849054459899
5346 -1287.082031543407
5347 -1286.425872526235
5348 -1285.801086583244
5349 -1285.410721989333
5350 -1285.007150139113
5351 -1284.634587491451
5352 -1284.482200218771
5353 -1284.356845062519
5354 -1284.386117075214
5355 -1284.455290519019
5356 -1284.568365487783
5357 -1284.848581393473
5358 -1285.110576476671
5359 -1285.586870750319
5360 -1286.015411931267
5361 -1286.681901140189
5362 -1287.248888963186
5363 -1288.209395675991
5364 -1288.945830099197
5365 -1290.119952048686
5366 -1290.932616787815
5367 -1292.146915604861
5368 -1293.059622276057
5369 -1294.461709983388
5370 -1295.453899556966
5371 -1297.003811637221
5372 -1298.017585632142
5373 -1299.500931976093
5374 -1300.537015951928
5375 -1301.971243705356
5376 -1302.995072048646
5377 -1304.375837744177
5378 -1305.364301493842
5379 -1306.741233117452
5380 -1307.975827929049
5381 -1308.746233961545
5382 -1309.857180107569
5383 -1310.872615885301
5384 -1311.481937632945
5385 -1312.326021524239
5386 -1313.042660358606
5387 -1313.556053444177
5388 -1314.035342949205
5389 -1314.274923837777
5390 -1314.510741543001
5391 -1314.663715518193
5392 -1314.790916347476
5393 -1314.786145578036
5394 -1314.76663160784
5395 -1314.50736384627
5396 -1314.190503707424
5397 -1313.782551254623
5398 -1313.50297749356
5399 -1312.86007306871
5400 -1312.198157206211
5401 -1311.707743737248
5402 -1310.866833830164
5403 -1309.923788511149
5404 -1309.35153292547
5405 -1308.448095423528
5406 -1307.869996748816
5407 -1306.919984498343
5408 -1306.284079784888
5409 -1305.311251840614
5410 -1304.448376450572
5411 -1303.825811275451
5412 -1302.971234288693
5413 -1302.196538803151
5414 -1301.499544838749
5415 -1300.753367157611
5416 -1300.162223217482
5417 -1299.650480925489
5418 -1299.19480287554
5419 -1298.796422614045
5420 -1298.487248032432
5421 -1298.274759045517
5422 -1298.178255390518
5423 -1298.083033832593
5424 -1298.059468391472
5425 -1298.057733313215
5426 -1298.193301914456
5427 -1298.386983333226
5428 -1298.629703132433
5429 -1298.918120005803
5430 -1299.368874199705
5431 -1299.908829580278
5432 -1300.459863563588
5433 -1301.024676259374
5434 -1301.741035325049
5435 -1302.401987898321
5436 -1303.252939744961
5437 -1304.111747590349
5438 -1305.032636235184
5439 -1305.889946639045
5440 -1306.525569980191
5441 -1307.410276577075
5442 -1308.409454970725
5443 -1309.033912610253
5444 -1310.023783952302
5445 -1310.992280254801
5446 -1311.685590422104
5447 -1312.71808143678
5448 -1313.400581490971
5449 -1314.295904688382
5450 -1314.867881806349
5451 -1315.627172615575
5452 -1316.103702752894
5453 -1316.729315699423
5454 -1317.12400270753
5455 -1317.52565451751
5456 -1317.763893875776
5457 -1318.005781460433
5458 -1318.08979408511
5459 -1318.099477887211
5460 -1318.050445622135
5461 -1317.83531148001
5462 -1317.628074149203
5463 -1317.193545103575
5464 -1316.858453079958
5465 -1316.251021970036
5466 -1315.785496964325
5467 -1314.9628637823
5468 -1314.362340620333
5469 -1313.334687619732
5470 -1312.638390873226
5471 -1311.462783939575
5472 -1310.716066929386
5473 -1309.513097009249
5474 -1308.679180801201
5475 -1307.830475415681
5476 -1306.557030710748
5477 -1305.672782224268
5478 -1304.392195100854
5479 -1303.546147078172
5480 -1302.29345426711
5481 -1301.467603291291
5482 -1300.315817660585
5483 -1299.5733887573
5484 -1298.521895460343
5485 -1297.841742716931
5486 -1296.898653855768
5487 -1296.326793262195
5488 -1295.536271547045
5489 -1295.036427567518
5490 -1294.43025024963
5491 -1294.06203169026
5492 -1293.60407443638
5493 -1293.364328546764
5494 -1293.129640810315
5495 -1293.005933219778
5496 -1292.867999929734
5497 -1292.820108208812
5498 -1292.873745627908
5499 -1292.905158882165
5500 -1293.066235387844
5501 -1293.164738714722
5502 -1293.341552692927
5503 -1293.524081805905
5504 -1293.736117152527
5505 -1294.093964991114
5506 -1294.313727551403
5507 -1294.53148506726
5508 -1294.929002185577
5509 -1295.158990841238
5510 -1295.439230538247
5511 -1295.835613195257
5512 -1296.108706637224
5513 -1296.321844469372
5514 -1296.633017244971
5515 -1296.831734655569
5516 -1297.134838307874
5517 -1297.318023680642
5518 -1297.580543063338
5519 -1297.714013478136
5520 -1297.878975856634
5521 -1297.958940101642
5522 -1298.022781164656
5523 -1298.038986287477
5524 -1298.082072674517
5525 -1298.077123821608
5526 -1298.066689551958
5527 -1298.055494829867
5528 -1298.072334079123
5529 -1298.035821747819
5530 -1298.037152295158
5531 -1298.038106473071
5532 -1298.061186493883
5533 -1298.049730005551
5534 -1298.070333112938
5535 -1298.111316102547
5536 -1298.254399242179
5537 -1298.347276069503
5538 -1298.55629557175
5539 -1298.690356578977
5540 -1298.991919662328
5541 -1299.231968428817
5542 -1299.65023014356
5543 -1300.005762537459
5544 -1300.562077660813
5545 -1300.946327940718
5546 -1301.655360495126
5547 -1302.143220384741
5548 -1302.960345716097
5549 -1303.549706557766
5550 -1304.520419619347
5551 -1305.194866233074
5552 -1306.262164218707
5553 -1307.014695523006
5554 -1308.221432385382
5555 -1309.451524857979
5556 -1310.288386946357
5557 -1311.553036107026
5558 -1312.829039198394
5559 -1313.656005864375
5560 -1314.967382596905
5561 -1316.242760828098
5562 -1317.492009330132
5563 -1318.271651278017
5564 -1319.526810849156
5565 -1320.754369978527
5566 -1321.927961993934
5567 -1322.991197270764
5568 -1324.03487212322
5569 -1324.997776448257
5570 -1325.907519847929
5571 -1326.735837657661
5572 -1327.49846372508
5573 -1328.155376637378
5574 -1328.77892779883
5575 -1329.316914034795
5576 -1329.77463857869
5577 -1330.190510650394
5578 -1330.41696767148
5579 -1330.645778711365
5580 -1330.871074106031
5581 -1330.948381991458
5582 -1331.032599547797
5583 -1331.032056282156
5584 -1331.046845580444
5585 -1331.001124462939
5586 -1330.961441115978
5587 -1330.915963729578
5588 -1330.792274593853
5589 -1330.672807880572
5590 -1330.50679247615
5591 -1330.35661842755
5592 -1330.160713837646
5593 -1330.002882509209
5594 -1329.780085668662
5595 -1329.618151856213
5596 -1329.393525142377
5597 -1329.232138815242
5598 -1329.068892256443
5599 -1328.935172935523
5600 -1328.815701395398
5601 -1328.709244673568
5602 -1328.626137891936
5603 -1328.569818710649
5604 -1328.529714973969
5605 -1328.511261177652
5606 -1328.533729506785
5607 -1328.577235825694
5608 -1328.621195205943
5609 -1328.687275035374
5610 -1328.82358708073
5611 -1328.907716928405
5612 -1329.090448855176
5613 -1329.266309144412
5614 -1329.409044420544
5615 -1329.616703166043
5616 -1329.841000111712
5617 -1330.016769656536
5618 -1330.28659083905
5619 -1330.542871566657
5620 -1330.759769672411
5621 -1331.000642624798
5622 -1331.266475436462
5623 -1331.422055211138
5624 -1331.669843508133
5625 -1331.870864114763
5626 -1332.008092335288
5627 -1332.227765896398
5628 -1332.419225435708
5629 -1332.522437977183
5630 -1332.630730170939
5631 -1332.752353442414
5632 -1332.88487183986
5633 -1332.995274818034
5634 -1333.085131190535
5635 -1333.077988221928
5636 -1333.112937908195
5637 -1333.062296293699
5638 -1332.976117498738
5639 -1332.85234480651
5640 -1332.683074866718
5641 -1332.514120554856
5642 -1332.403737416161
5643 -1332.204014310733
5644 -1332.006620679188
5645 -1331.757097234218
5646 -1331.602717393668
5647 -1331.353874501269
5648 -1331.169452520935
5649 -1330.997119165959
5650 -1330.834471141982
5651 -1330.683562804637
5652 -1330.615995227876
5653 -1330.522706226493
5654 -1330.485728062543
5655 -1330.510836226058
5656 -1330.623232232939
5657 -1330.728566022415
5658 -1330.868832239287
5659 -1331.089866813369
5660 -1331.403638407545
5661 -1331.619425049178
5662 -1332.065812431066
5663 -1332.517567841182
5664 -1332.884762953681
5665 -1333.45809877782
5666 -1334.12382011939
5667 -1334.596407542403
5668 -1335.409327759834
5669 -1336.271118051369
5670 -1337.163894543146
5671 -1337.715137541672
5672 -1338.653254123656
5673 -1339.62388717485
5674 -1340.621013560121
5675 -1341.584618650656
5676 -1342.258441247649
5677 -1343.266976272643
5678 -1344.30011865347
5679 -1345.273056863897
5680 -1346.245664067672
5681 -1347.172965016116
5682 -1348.138143954136
5683 -1349.070606662892
5684 -1350.010914039109
5685 -1350.923704571458
5686 -1351.81139298609
5687 -1352.652755905253
5688 -1353.522124723026
5689 -1354.293344706468
5690 -1355.101279341141
5691 -1355.904538167933
5692 -1356.676928733698
5693 -1357.429743577881
5694 -1358.146058746939
5695 -1358.631463451431
5696 -1359.415299164187
5697 -1360.159727747694
5698 -1360.654198211203
5699 -1361.411092316305
5700 -1361.932180283962
5701 -1362.698165085727
5702 -1363.280909481988
5703 -1364.106482332266
5704 -1364.681174392891
5705 -1365.539177142029
5706 -1366.139292869938
5707 -1367.033871958139
5708 -1367.665408607467
5709 -1368.282577436082
5710 -1369.207848862862
5711 -1369.782847374732
5712 -1370.4312257055
5713 -1370.998784105453
5714 -1371.889241924375
5715 -1372.446677640747
5716 -1373.044114268593
5717 -1373.591945474747
5718 -1374.121633182026
5719 -1374.856604864328
5720 -1375.363387694783
5721 -1375.826957380636
5722 -1376.293320212322
5723 -1376.839725495187
5724 -1377.175749883913
5725 -1377.42644964735
5726 -1377.671005421816
5727 -1377.933442767319
5728 -1378.065033005001
5729 -1378.144858568963
5730 -1378.192524457402
5731 -1378.129439617652
5732 -1378.060280650205
5733 -1377.916018734129
5734 -1377.676102466214
5735 -1377.447900932232
5736 -1377.177682052408
5737 -1376.656474884918
5738 -1376.290071643501
5739 -1375.603411627675
5740 -1375.152894864195
5741 -1374.337854400944
5742 -1373.79262757091
5743 -1372.950169293788
5744 -1372.332823135877
5745 -1371.364292370977
5746 -1370.722168552433
5747 -1369.692487482316
5748 -1368.642258423139
5749 -1367.945030453456
5750 -1366.903382826183
5751 -1365.88985818448
5752 -1364.932225957013
5753 -1363.986157048245
5754 -1363.00805024773
5755 -1362.010093787582
5756 -1360.997530953481
5757 -1360.072017899526
5758 -1359.16401263498
5759 -1358.223645676927
5760 -1357.29608893991
5761 -1356.331091098203
5762 -1355.349675518365
5763 -1354.35244479519
5764 -1353.349468779872
5765 -1352.322467553774
5766 -1351.311519129557
5767 -1350.262418254848
5768 -1349.30238256503
5769 -1348.191938441325
5770 -1347.108927831378
5771 -1345.95355326138
5772 -1344.696894504993
5773 -1343.396625123911
5774 -1342.095432176433
5775 -1340.726341338765
5776 -1339.361147377395
5777 -1337.965653647146
5778 -1336.576589576091
5779 -1335.088769562542
5780 -1333.574714968214
5781 -1332.063078036272
5782 -1330.570258569066
5783 -1329.01485116761
5784 -1327.485799073238
5785 -1325.948215757467
5786 -1324.411736290061
5787 -1322.925490069877
5788 -1321.375096426719
5789 -1319.938121211537
5790 -1318.433672041116
5791 -1316.871934106433
5792 -1315.404286197616
5793 -1314.040165130774
5794 -1312.693914746234
5795 -1311.361096523327
5796 -1310.107997718063
5797 -1308.984519955864
5798 -1307.938675551978
5799 -1307.010400757438
5800 -1306.246380242133
5801 -1305.4564075659
5802 -1304.854969924627
5803 -1304.446233914498
5804 -1304.133192221063
5805 -1303.867427911466
5806 -1303.861005803324
5807 -1303.94688542827
5808 -1304.1640855156
5809 -1304.534026731147
5810 -1305.036058156822
5811 -1305.653522358747
5812 -1306.418719261406
5813 -1307.450899405262
5814 -1308.764423295386
5815 -1310.19027063853
5816 -1311.802745175658
5817 -1313.515382243766
5818 -1315.394738145227
5819 -1317.299958000879
5820 -1318.73848075795
5821 -1320.852775466906
5822 -1323.015940041207
5823 -1325.284274517795
5824 -1327.753838100806
5825 -1330.12851687171
5826 -1332.571060430321
5827 -1335.020645118547
5828 -1337.575507694364
5829 -1340.016253272946
5830 -1342.422954478299
5831 -1344.68825483531
5832 -1347.018465527052
5833 -1349.247515664409
5834 -1351.400484876765
5835 -1353.448515530913
5836 -1355.357345740076
5837 -1357.020888252356
5838 -1358.563507594145
5839 -1359.95449162525
5840 -1361.228319437546
5841 -1362.232427528087
5842 -1363.154647605332
5843 -1363.805416151926
5844 -1364.228823267992
5845 -1364.425552540846
5846 -1364.44738654265
5847 -1364.169725110313
5848 -1363.770883062787
5849 -1363.126421621299
5850 -1362.285745965684
5851 -1361.153310406756
5852 -1359.855250506774
5853 -1358.387095301905
5854 -1356.709325352572
5855 -1354.786288605239
5856 -1352.816959533678
5857 -1351.356590037788
5858 -1348.923295079582
5859 -1346.449283930719
5860 -1344.718026219213
5861 -1341.846219043355
5862 -1338.967352527972
5863 -1335.967302721205
5864 -1333.006927447154
5865 -1330.000019338673
5866 -1326.99529752217
5867 -1323.901225250921
5868 -1320.825384273996
5869 -1317.87838954087
5870 -1314.934281518448
5871 -1312.015238386972
5872 -1309.265184648656
5873 -1306.492844430901
5874 -1303.874877144496
5875 -1301.292111933994
5876 -1298.783730072077
5877 -1296.37828333932
5878 -1294.092920111515
5879 -1291.901423110487
5880 -1289.870772125752
5881 -1287.87296884551
5882 -1285.957417991681
5883 -1284.077403208043
5884 -1282.346112884469
5885 -1280.705326353682
5886 -1279.187851636575
5887 -1277.705160519013
5888 -1276.284633848769
5889 -1274.961284854369
5890 -1273.746857075185
5891 -1272.594911005744
5892 -1271.529594755105
5893 -1270.522794686092
5894 -1269.622211162642
5895 -1269.024483787086
5896 -1268.209122941199
5897 -1267.648215344389
5898 -1266.873503949394
5899 -1266.354089707922
5900 -1265.567317597359
5901 -1265.046331051297
5902 -1264.438973176963
5903 -1263.971129285326
5904 -1263.481264838724
5905 -1263.003393792238
5906 -1262.332430522518
5907 -1261.926246265127
5908 -1261.511245457784
5909 -1261.069203146971
5910 -1260.709154313517
5911 -1260.143583473116
5912 -1259.759680161297
5913 -1259.410044766885
5914 -1259.047815725924
5915 -1258.560672495164
5916 -1258.266841608828
5917 -1258.018069424419
5918 -1257.854809690684
5919 -1257.557967572248
5920 -1257.420847934835
5921 -1257.292001577742
5922 -1257.124639889538
5923 -1257.107196062013
5924 -1257.078972399155
5925 -1257.081185445959
5926 -1257.182332559207
5927 -1257.27323194006
5928 -1257.499911501203
5929 -1257.698554006224
5930 -1257.938530095881
5931 -1258.368444956534
5932 -1258.753986605168
5933 -1259.132019771616
5934 -1259.878681028978
5935 -1260.403409720935
5936 -1260.928837026742
5937 -1261.876440256634
5938 -1262.610514311622
5939 -1263.407708444274
5940 -1264.673852393526
5941 -1265.535199035945
5942 -1266.9060268713
5943 -1267.762170725418
5944 -1268.776831031073
5945 -1270.374523256592
5946 -1271.509099322567
5947 -1273.307509942853
5948 -1274.513212806869
5949 -1276.365595301512
5950 -1277.700132908304
5951 -1279.724031503235
5952 -1281.73299985324
5953 -1283.088087490731
5954 -1285.143797992219
5955 -1287.188910209366
5956 -1289.285635557689
5957 -1291.282326592951
5958 -1293.319130385872
5959 -1295.30424378748
5960 -1297.272298817929
5961 -1299.175199415607
5962 -1301.064418041429
5963 -1302.871509386023
5964 -1304.734888233255
5965 -1306.540072156781
5966 -1308.282200831379
5967 -1309.990193665999
5968 -1311.594929947127
5969 -1313.195960384371
5970 -1314.694656381568
5971 -1316.178981969518
5972 -1317.633747096457
5973 -1319.042697033647
5974 -1320.372227377656
5975 -1321.636399364978
5976 -1322.858149564403
5977 -1323.995851605908
5978 -1325.089235712032
5979 -1326.14201899426
5980 -1327.091936303156
5981 -1328.002528703128
5982 -1328.884909882945
5983 -1329.592559160518
5984 -1330.255983281807
5985 -1330.628163358369
5986 -1331.091071071821
5987 -1331.468104955208
5988 -1331.672676042798
5989 -1331.897778498955
5990 -1332.030472577523
5991 -1332.051492198069
5992 -1332.021392466001
5993 -1331.932776307274
5994 -1331.740785968158
5995 -1331.490197333957
5996 -1331.061136381066
5997 -1330.705893189467
5998 -1330.129359028648
5999 -1329.642166927179
6000 -1328.807390862323
6001 -1328.144666485211
6002 -1327.145434980627
6003 -1326.342146886398
6004 -1325.08099103368
6005 -1324.10748208685
6006 -1322.660124771834
6007 -1321.086050394235
6008 -1319.527772828224
6009 -1317.808897689179
6010 -1316.085877820535
6011 -1314.333437692007
6012 -1312.628348674164
6013 -1310.838617448281
6014 -1309.123317566228
6015 -1307.267182842503
6016 -1305.56922900552
6017 -1303.863549817246
6018 -1302.213433144602
6019 -1300.533786880316
6020 -1298.887807189722
6021 -1297.261296617571
6022 -1295.740315618369
6023 -1294.204153300566
6024 -1292.753977812676
6025 -1291.357087194382
6026 -1289.977979979748
6027 -1288.708091267849
6028 -1287.426273949718
6029 -1286.216478616533
6030 -1285.094928330735
6031 -1283.973646686136
6032 -1282.949045998964
6033 -1281.918080210355
6034 -1281.042751232493
6035 -1280.16475936056
6036 -1279.446189304259
6037 -1278.756480835569
6038 -1278.205508471019
6039 -1277.680324326942
6040 -1277.169424483326
6041 -1276.75984372709
6042 -1276.352767712171
6043 -1276.125353823277
6044 -1275.901576074975
6045 -1275.749271256791
6046 -1275.725037840126
6047 -1275.794921068274
6048 -1275.860503871093
6049 -1276.006432653003
6050 -1276.211226885977
6051 -1276.539677558115
6052 -1276.839588939212
6053 -1277.402839573508
6054 -1277.804641317089
6055 -1278.497689691961
6056 -1279.038269341386
6057 -1279.859168748054
6058 -1280.520322958248
6059 -1281.533057722539
6060 -1282.3117316218
6061 -1283.526089889252
6062 -1284.327847625797
6063 -1285.627197532672
6064 -1286.586628884185
6065 -1287.87509651874
6066 -1288.785346181557
6067 -1290.183431552529
6068 -1291.628936807601
6069 -1292.53559873263
6070 -1293.894558688787
6071 -1295.20290551751
6072 -1296.466250179345
6073 -1297.232952501188
6074 -1298.397505730616
6075 -1299.467850494407
6076 -1300.591726894326
6077 -1301.634519315739
6078 -1302.25385129429
6079 -1303.136638855714
6080 -1304.071632785392
6081 -1305.010175559213
6082 -1305.909350714044
6083 -1306.498348484286
6084 -1307.405843441422
6085 -1308.357391265323
6086 -1309.337927458004
6087 -1310.336339691369
6088 -1311.071425735177
6089 -1312.120150215507
6090 -1313.295599584377
6091 -1314.118197898096
6092 -1315.336145787084
6093 -1316.634041248853
6094 -1317.578585335335
6095 -1319.062382460496
6096 -1320.687472724937
6097 -1321.797642620287
6098 -1323.61183175221
6099 -1324.815363460384
6100 -1326.771957824777
6101 -1328.139417656336
6102 -1330.300527505211
6103 -1332.492593176458
6104 -1334.01319300551
6105 -1336.377502766627
6106 -1337.986630080928
6107 -1340.393471686728
6108 -1342.950188253825
6109 -1344.652250151982
6110 -1347.228067939234
6111 -1349.768383467014
6112 -1351.510467303709
6113 -1354.109916897135
6114 -1356.607590288334
6115 -1358.265439212477
6116 -1360.759938066403
6117 -1363.079170546001
6118 -1365.444602921152
6119 -1366.900632260111
6120 -1369.076446914978
6121 -1371.046500754551
6122 -1372.936489183641
6123 -1374.163401892847
6124 -1375.914651813904
6125 -1377.560840633403
6126 -1378.600752026075
6127 -1380.038759659196
6128 -1381.360473045711
6129 -1382.198174724543
6130 -1383.279307783522
6131 -1384.208020728014
6132 -1384.752467292152
6133 -1385.467058938042
6134 -1385.889481931764
6135 -1386.367784730561
6136 -1386.661969874263
6137 -1386.902936398633
6138 -1387.013048155173
6139 -1386.994428576502
6140 -1386.964699310706
6141 -1386.777727590919
6142 -1386.602500768658
6143 -1386.304535643411
6144 -1385.770039660898
6145 -1385.36256405966
6146 -1384.904124928055
6147 -1384.042693945281
6148 -1383.456195677161
6149 -1382.816229429912
6150 -1381.715679959068
6151 -1380.878176610146
6152 -1379.523880750586
6153 -1378.573918420758
6154 -1377.176894115667
6155 -1376.070360516469
6156 -1374.427575961745
6157 -1372.637851572041
6158 -1371.504387031958
6159 -1369.719258303682
6160 -1367.840518331645
6161 -1365.943041788753
6162 -1364.055428477231
6163 -1362.041586075129
6164 -1360.080155658617
6165 -1358.055439743563
6166 -1356.064018112663
6167 -1354.051740072166
6168 -1352.049900054029
6169 -1349.95283000693
6170 -1347.959502763218
6171 -1345.840383895394
6172 -1343.759238998514
6173 -1341.553056226168
6174 -1339.426666429009
6175 -1337.293758310957
6176 -1335.148980726509
6177 -1332.999733303822
6178 -1330.850534248493
6179 -1328.625677546991
6180 -1326.448443016578
6181 -1324.211269884949
6182 -1322.063766751205
6183 -1319.909167368795
6184 -1317.780087180466
6185 -1315.672961253686
6186 -1313.556668209674
6187 -1311.445661943955
6188 -1309.356450541901
6189 -1307.342090995559
6190 -1305.431626459557
6191 -1303.495159166227
6192 -1301.656908322509
6193 -1300.453866920731
6194 -1298.739515840294
6195 -1297.038512714778
6196 -1295.473434080252
6197 -1294.472241896768
6198 -1293.046685956565
6199 -1291.713438180623
6200 -1290.914468299509
6201 -1289.772182123118
6202 -1289.110237613344
6203 -1288.165733419858
6204 -1287.631600927607
6205 -1286.918143177582
6206 -1286.563556606498
6207 -1286.168506155946
6208 -1286.007686849529
6209 -1285.853180836139
6210 -1285.851426205485
6211 -1285.994514420556
6212 -1286.202710372396
6213 -1286.622000108303
6214 -1287.016097245476
6215 -1287.689277142117
6216 -1288.289729397198
6217 -1289.314191409738
6218 -1290.101338256082
6219 -1290.909955734124
6220 -1292.327194750352
6221 -1293.334882667281
6222 -1294.997137873685
6223 -1296.141888313703
6224 -1297.980531314644
6225 -1299.89404852352
6226 -1301.797275981211
6227 -1303.748262977413
6228 -1305.797548640008
6229 -1307.768240036684
6230 -1309.806596488363
6231 -1311.787668480629
6232 -1313.775478593098
6233 -1315.751188863014
6234 -1317.76911998115
6235 -1319.667101377981
6236 -1321.582820631989
6237 -1323.475489516246
6238 -1325.36519578141
6239 -1327.172181609913
6240 -1329.01525411078
6241 -1330.827764225332
6242 -1332.603971594494
6243 -1334.33432749996
6244 -1336.114817897
6245 -1337.769313109782
6246 -1339.432809798574
6247 -1341.065324231113
6248 -1342.612468502631
6249 -1344.135302573607
6250 -1345.632127344656
6251 -1347.054408961735
6252 -1348.46837189642
6253 -1349.7799283596
6254 -1351.032759940376
6255 -1352.138470868126
6256 -1353.187570549462
6257 -1354.160723346557
6258 -1355.07890061018
6259 -1355.858087132638
6260 -1356.611425104682
6261 -1357.198944881682
6262 -1357.751884764072
6263 -1358.121185230144
6264 -1358.459863617554
6265 -1358.695459773474
6266 -1358.820499600619
6267 -1358.782506124241
6268 -1358.664900706716
6269 -1358.399847647743
6270 -1358.188494115158
6271 -1357.684577384987
6272 -1357.135757089506
6273 -1356.664913868157
6274 -1355.845564758962
6275 -1355.185636497044
6276 -1354.120474390593
6277 -1352.945033691051
6278 -1352.134269373779
6279 -1350.795038363777
6280 -1349.381510206267
6281 -1347.868148805316
6282 -1346.322433384769
6283 -1344.665643801237
6284 -1342.977175364771
6285 -1341.201344890743
6286 -1339.467324928949
6287 -1337.670935716615
6288 -1335.897803890596
6289 -1334.008950734989
6290 -1332.136500950399
6291 -1330.241993964375
6292 -1328.333288121674
6293 -1326.381942079437
6294 -1324.489470294519
6295 -1322.518169050981
6296 -1320.663299670508
6297 -1318.710083230729
6298 -1316.774317269246
6299 -1314.80030394799
6300 -1312.867113764737
6301 -1311.049642697991
6302 -1309.249660119737
6303 -1307.426633362919
6304 -1305.674251095344
6305 -1303.924233674685
6306 -1302.265060808689
6307 -1300.590630861055
6308 -1298.96931311357
6309 -1297.371575333393
6310 -1295.828339178244
6311 -1294.305894030024
6312 -1292.827616522149
6313 -1291.333141716504
6314 -1289.872501462077
6315 -1288.400526017771
6316 -1287.002269641632
6317 -1285.621241383843
6318 -1284.221273977014
6319 -1282.849034483961
6320 -1281.524750646108
6321 -1280.207716252411
6322 -1278.914826099793
6323 -1277.62849016783
6324 -1276.416799993407
6325 -1275.204658627732
6326 -1274.491021659991
6327 -1273.304253968752
6328 -1272.19013706547
6329 -1271.056317136646
6330 -1270.351072381893
6331 -1269.282546558097
6332 -1268.214902530143
6333 -1267.51780306037
6334 -1266.524437254341
6335 -1265.575430553429
6336 -1264.992507838972
6337 -1264.143863547925
6338 -1263.373605545605
6339 -1262.927246513
6340 -1262.320823913446
6341 -1261.957477835537
6342 -1261.539054565229
6343 -1261.292268847386
6344 -1261.021057711297
6345 -1260.888470815733
6346 -1260.834115665117
6347 -1260.810573087763
6348 -1260.925533610958
6349 -1261.04255566309
6350 -1261.427472245301
6351 -1261.711002731816
6352 -1262.244635923185
6353 -1262.632119334963
6354 -1263.323646659949
6355 -1263.797624179384
6356 -1264.593597843531
6357 -1265.14436421953
6358 -1266.072410250769
6359 -1266.667944146531
6360 -1267.603275167272
6361 -1268.553452570372
6362 -1269.235872192101
6363 -1270.180555325222
6364 -1271.195432614287
6365 -1272.141491197157
6366 -1273.088581311049
6367 -1273.927034661988
6368 -1274.722386901474
6369 -1275.403877799588
6370 -1276.053792969617
6371 -1276.598117862984
6372 -1277.143144521749
6373 -1277.58150828483
6374 -1277.94428311905
6375 -1278.160366552573
6376 -1278.379047972709
6377 -1278.488573503866
6378 -1278.554809438236
6379 -1278.561458641456
6380 -1278.470876208564
6381 -1278.264410281771
6382 -1278.045824690107
6383 -1277.738973493574
6384 -1277.403417123248
6385 -1277.020566231506
6386 -1276.613110463394
6387 -1276.287250323837
6388 -1275.828987043268
6389 -1275.315544897106
6390 -1274.985376006124
6391 -1274.422214490002
6392 -1274.059921350065
6393 -1273.5020360939
6394 -1273.179311836866
6395 -1272.591452543162
6396 -1272.240785239926
6397 -1271.635441839353
6398 -1271.309698236
6399 -1270.787813018369
6400 -1270.515019555166
6401 -1270.022719208932
6402 -1269.773098986136
6403 -1269.309521721905
6404 -1269.067853359978
6405 -1268.624159957519
6406 -1268.41037569194
6407 -1268.044723992868
6408 -1267.727507473541
6409 -1267.521688001269
6410 -1267.249219091442
6411 -1266.918770043387
6412 -1266.757311273321
6413 -1266.556690999712
6414 -1266.300800183269
6415 -1266.100791616787
6416 -1265.84028985819
6417 -1265.532429001564
6418 -1265.301784145722
6419 -1264.903161725036
6420 -1264.65832612321
6421 -1264.179116372183
6422 -1263.66886922083
6423 -1263.273239507813
6424 -1262.67411525273
6425 -1262.198337669805
6426 -1261.473042201445
6427 -1260.930661055933
6428 -1260.089258383488
6429 -1259.469936596563
6430 -1258.529345070603
6431 -1257.861694526142
6432 -1256.786531446787
6433 -1256.052404223944
6434 -1254.925966622892
6435 -1254.12271738408
6436 -1252.885444923104
6437 -1252.02574631744
6438 -1250.792980252528
6439 -1249.54252569325
6440 -1248.72020191376
6441 -1247.41891523896
6442 -1246.247026161368
6443 -1245.426663293266
6444 -1244.35726366144
6445 -1243.266923647246
6446 -1242.597591452385
6447 -1241.607114395592
6448 -1240.73612650864
6449 -1240.18024637134
6450 -1239.440568064792
6451 -1238.781271472671
6452 -1238.418177409575
6453 -1237.88943680808
6454 -1237.435471861433
6455 -1237.071216260825
6456 -1236.836341164621
6457 -1236.66435322538
6458 -1236.563772085536
6459 -1236.545264913615
6460 -1236.64024169057
6461 -1236.78148928477
6462 -1237.031664323746
6463 -1237.345709981186
6464 -1237.750899008927
6465 -1238.225498406486
6466 -1238.769604756888
6467 -1239.331942239519
6468 -1239.934920338596
6469 -1240.574530761413
6470 -1241.260273042602
6471 -1241.914146975886
6472 -1242.630522068562
6473 -1243.293748880763
6474 -1244.054588250887
6475 -1244.763575026678
6476 -1245.538928595816
6477 -1246.307814934916
6478 -1247.10307844554
6479 -1247.893790544434
6480 -1248.730248307544
6481 -1249.592200559674
6482 -1250.427370897062
6483 -1251.216184915683
6484 -1252.021710840816
6485 -1252.817349471792
6486 -1253.699541867093
6487 -1254.524392795566
6488 -1255.415615596461
6489 -1256.32218635796
6490 -1257.202837786951
6491 -1258.033768500486
6492 -1259.000381959846
6493 -1259.917406435356
6494 -1260.850296748473
6495 -1261.76425977365
6496 -1262.750448499891
6497 -1263.683887828124
6498 -1264.719449727519
6499 -1265.734955055567
6500 -1266.812658526042
6501 -1267.815660960601
6502 -1268.857238324676
6503 -1269.882569406024
6504 -1270.940286019416
6505 -1271.963406440654
6506 -1273.002586694464
6507 -1273.987839562759
6508 -1274.918969250105
6509 -1275.790746585584
6510 -1276.660643958514
6511 -1277.444388083717
6512 -1278.195410209404
6513 -1278.828675743876
6514 -1279.42543947965
6515 -1279.886485493121
6516 -1280.319748779016
6517 -1280.472124208641
6518 -1280.723167241848
6519 -1280.794217911029
6520 -1280.832919924058
6521 -1280.661162886018
6522 -1280.458492508792
6523 -1280.209756613156
6524 -1279.752476332789
6525 -1279.050335129063
6526 -1278.565387156633
6527 -1277.685522995977
6528 -1276.699114579866
6529 -1275.877538601104
6530 -1274.627292624691
6531 -1273.197878976946
6532 -1272.199800206559
6533 -1270.525220489608
6534 -1268.851999597846
6535 -1267.044893315132
6536 -1265.246197690025
6537 -1263.266216359351
6538 -1261.322051141538
6539 -1259.312738346436
6540 -1257.346446225514
6541 -1255.361963823555
6542 -1253.466359951049
6543 -1251.531449251187
6544 -1249.698862727714
6545 -1247.908356237724
6546 -1246.119047512062
6547 -1244.464461677501
6548 -1242.98317932666
6549 -1241.504113238405
6550 -1240.254527382202
6551 -1239.088638166967
6552 -1238.043709822406
6553 -1237.156378578893
6554 -1236.405430317619
6555 -1235.682635027885
6556 -1235.234317903737
6557 -1234.839279438231
6558 -1234.555479717057
6559 -1234.404441067775
6560 -1234.353667567347
6561 -1234.337207559202
6562 -1234.398850035176
6563 -1234.527727696523
6564 -1234.741207491028
6565 -1234.952502786577
6566 -1235.26012373326
6567 -1235.591848605283
6568 -1235.952495482674
6569 -1236.292745853554
6570 -1236.638138852553
6571 -1236.899649498174
6572 -1237.170420613986
6573 -1237.363513486696
6574 -1237.515345249256
6575 -1237.60293426569
6576 -1237.665278035437
6577 -1237.568270912382
6578 -1237.559124316256
6579 -1237.383975924598
6580 -1237.103469124441
6581 -1236.916034326249
6582 -1236.665323186993
6583 -1236.413361435082
6584 -1236.239005309936
6585 -1236.080069077785
6586 -1235.945932779311
6587 -1235.756508250922
6588 -1235.733130255915
6589 -1235.708621872212
6590 -1235.806545290378
6591 -1235.959013339459
6592 -1236.285423611149
6593 -1236.60060293597
6594 -1237.196123996658
6595 -1237.926783633963
6596 -1238.699725738925
6597 -1239.550602532257
6598 -1240.645723358668
6599 -1241.922235477027
6600 -1243.326422219457
6601 -1244.803762165312
6602 -1246.356946696922
6603 -1248.060656082028
6604 -1249.844412354783
6605 -1251.723269888874
6606 -1253.668578368156
6607 -1255.652773446766
6608 -1257.683002078765
6609 -1259.716430015641
6610 -1261.894467646467
6611 -1264.276830797677
6612 -1266.525228835221
6613 -1268.798496700904
6614 -1271.149213147935
6615 -1273.381332045538
6616 -1275.721386804873
6617 -1277.996363594544
6618 -1280.155866685974
6619 -1282.237622494166
6620 -1284.298820894024
6621 -1286.186318355259
6622 -1287.996790203443
6623 -1289.833463674156
6624 -1291.533294782756
6625 -1293.049828091286
6626 -1294.411023263434
6627 -1295.682777678471
6628 -1296.822018937276
6629 -1297.967799479139
6630 -1298.95082785623
6631 -1299.733753796168
6632 -1300.491892057164
6633 -1301.155975537033
6634 -1301.693271638307
6635 -1302.193752661946
6636 -1302.77254523646
6637 -1303.165501002686
6638 -1303.492903467766
6639 -1303.661247655501
6640 -1303.928643030785
6641 -1304.055132927162
6642 -1304.122314732731
6643 -1304.194404114736
6644 -1304.164922580831
6645 -1304.092148273847
6646 -1304.04852934158
6647 -1303.98739627559
6648 -1303.954605451039
6649 -1303.84016468962
6650 -1303.837266048743
6651 -1303.783870080797
6652 -1303.708446410899
6653 -1303.707190341892
6654 -1303.73065759147
6655 -1303.82299689965
6656 -1303.684327249814
6657 -1303.487783385069
6658 -1303.316015447274
6659 -1303.183742291359
6660 -1302.981903616837
6661 -1302.714529816314
6662 -1302.748222094009
6663 -1302.511630627971
6664 -1302.178126197071
6665 -1301.941409817488
6666 -1301.598726337681
6667 -1301.197141669611
6668 -1300.558308959147
6669 -1300.013184811916
6670 -1299.323737377722
6671 -1298.317439468577
6672 -1297.25559105738
