"y-rfile"
"Iteration" "y"
("Iteration" "y")
2552 -3426.497808596165
2553 -3456.349109794579
2554 -3493.45600368671
2555 -3582.263803684939
2556 -3697.291504277475
2557 -3810.014966078565
2558 -3917.741918115477
2559 -4029.732315543399
2560 -4140.99336603207
2561 -4244.996279323824
2562 -4357.576262501599
2563 -4447.864794494513
2564 -4520.508435817965
2565 -4563.614353807819
2566 -4577.573969667027
2567 -4578.775358531495
2568 -4572.481016647998
2569 -4562.242252950683
2570 -4554.280038248937
2571 -4551.845767796901
2572 -4555.098357400211
2573 -4564.634705004628
2574 -4587.725276227099
2575 -4613.946295047346
2576 -4661.703209460109
2577 -4706.197089005014
2578 -4777.287620041898
2579 -4839.540343373164
2580 -4909.584953834345
2581 -4986.90691987337
2582 -5071.770348626737
2583 -5161.755003276761
2584 -5256.840909099314
2585 -5352.919081831461
2586 -5452.584575972
2587 -5551.745395078706
2588 -5648.687121524176
2589 -5743.212224637164
2590 -5833.957643151101
2591 -5919.952732708188
2592 -6025.985062145151
2593 -6095.450854726468
2594 -6160.073748906751
2595 -6217.501214534416
2596 -6267.676153820636
2597 -6310.045484081886
2598 -6346.757991621102
2599 -6375.904731020308
2600 -6399.789779695587
2601 -6418.711792961577
2602 -6432.642262728971
2603 -6441.459854520727
2604 -6446.601376597044
2605 -6448.432864452913
2606 -6447.165993724542
2607 -6443.276508329919
2608 -6437.382277282154
2609 -6429.303914327872
2610 -6420.044300749494
2611 -6408.70929849017
2612 -6395.921684071352
2613 -6381.989814246303
2614 -6368.2463102583
2615 -6353.377876529249
2616 -6338.959607020041
2617 -6323.738345141092
2618 -6308.491872477571
2619 -6293.331884409658
2620 -6278.873387708934
2621 -6268.845277888802
2622 -6255.501921602928
2623 -6241.680928113903
2624 -6230.13941191843
2625 -6222.387902505386
2626 -6211.889678388658
2627 -6202.56501801588
2628 -6194.365429017193
2629 -6188.897506105235
2630 -6181.856820089208
2631 -6176.820001406841
2632 -6173.119948079445
2633 -6170.629435661958
2634 -6168.130546853302
2635 -6166.175661632131
2636 -6165.748334632561
2637 -6165.396263179912
2638 -6165.668903706221
2639 -6166.494823095934
2640 -6168.529091333343
2641 -6170.015577311686
2642 -6171.913685252774
2643 -6172.299773122805
2644 -6174.281947102811
2645 -6175.097785741628
2646 -6176.462394867744
2647 -6178.121877293139
2648 -6179.239998724964
2649 -6179.517536683901
2650 -6180.467599063591
2651 -6180.615651450366
2652 -6180.982618147829
2653 -6180.401149374882
2654 -6181.113567538014
2655 -6180.4676858691
2656 -6180.056575127469
2657 -6179.099123284595
2658 -6178.809020614539
2659 -6177.902591661507
2660 -6176.469017868365
2661 -6175.248921904371
2662 -6175.338520200337
2663 -6173.931295398759
2664 -6173.341598539246
2665 -6173.548029168682
2666 -6174.302461849209
2667 -6174.838625244927
2668 -6175.311893834808
2669 -6175.880281298526
2670 -6176.849392485829
2671 -6178.521540481333
2672 -6181.210589720387
2673 -6183.134895275622
2674 -6185.594603504726
2675 -6188.893249066998
2676 -6190.483337209483
2677 -6192.307638714073
2678 -6194.676845805878
2679 -6198.367164356035
2680 -6201.54808834958
2681 -6205.137033382728
2682 -6208.486196120944
2683 -6213.044731727562
2684 -6216.464388443841
2685 -6219.503985158108
2686 -6223.266521444477
2687 -6227.110677017512
2688 -6232.321396449606
2689 -6238.662915000906
2690 -6244.051581199757
2691 -6248.922603482244
2692 -6253.934245156902
2693 -6259.517846413474
2694 -6264.825628168892
2695 -6269.905824653966
2696 -6275.085962699663
2697 -6280.928191248784
2698 -6286.908945350064
2699 -6293.239725453028
2700 -6300.418629464941
2701 -6307.041608691205
2702 -6313.940775322528
2703 -6320.379773815384
2704 -6327.068803409012
2705 -6333.789291205638
2706 -6340.546332001521
2707 -6348.193498010807
2708 -6355.616281912796
2709 -6363.640961674379
2710 -6370.624475769071
2711 -6378.531017866759
2712 -6386.366867130911
2713 -6394.475609010726
2714 -6403.642834692583
2715 -6412.292658278529
2716 -6421.461770392941
2717 -6431.070286605201
2718 -6442.025260065007
2719 -6452.997004862661
2720 -6464.532884122204
2721 -6476.925959109281
2722 -6489.203255730664
2723 -6502.199335122458
2724 -6515.680386561847
2725 -6528.180974039802
2726 -6541.362362698646
2727 -6555.216916979785
2728 -6569.556741104121
2729 -6583.415173947862
2730 -6598.231103071579
2731 -6612.6750118631
2732 -6626.87052913108
2733 -6642.339417197396
2734 -6656.973823795339
2735 -6671.665384194842
2736 -6688.304046009427
2737 -6704.816638861911
2738 -6720.955330363289
2739 -6738.428846871134
2740 -6754.77550811458
2741 -6771.198792656211
2742 -6787.964045640719
2743 -6805.008141088399
2744 -6821.656191342929
2745 -6838.64929722159
2746 -6855.551087085521
2747 -6872.577244233305
2748 -6889.204171933266
2749 -6906.167231426789
2750 -6923.242437793502
2751 -6940.053765642617
2752 -6956.941460278562
2753 -6973.876329554806
2754 -6991.382089427996
2755 -7008.044386252223
2756 -7024.948558737467
2757 -7041.873715181132
2758 -7057.942313229635
2759 -7074.858944272753
2760 -7090.852411412987
2761 -7106.392002588572
2762 -7121.459355146715
2763 -7136.341289095132
2764 -7151.153571248705
2765 -7165.70465903798
2766 -7179.572903699915
2767 -7190.128997144431
2768 -7204.374516062383
2769 -7217.38471401466
2770 -7230.354116066784
2771 -7239.88228880426
2772 -7252.223881113272
2773 -7264.200336418599
2774 -7273.378163600028
2775 -7285.041480764432
2776 -7293.420004240803
2777 -7304.005171991279
2778 -7312.143249196198
2779 -7322.235430228022
2780 -7329.861918529749
2781 -7338.971397383308
2782 -7345.880034558927
2783 -7354.279329816054
2784 -7360.059137066123
2785 -7365.810329957247
2786 -7373.104531962336
2787 -7378.177058849134
2788 -7382.924831770921
2789 -7386.707951155196
2790 -7390.165986482972
2791 -7393.281268726867
2792 -7396.267966948679
2793 -7398.392399962133
2794 -7400.402874646239
2795 -7401.181670978762
2796 -7402.035649301898
2797 -7402.174018761852
2798 -7402.388944103241
2799 -7401.322346285211
2800 -7399.730839736708
2801 -7397.754816116955
2802 -7395.161463688609
2803 -7391.768734082062
2804 -7387.962733532459
2805 -7383.263674636939
2806 -7378.706104542974
2807 -7373.127354160231
2808 -7367.294519902624
2809 -7360.10685538911
2810 -7352.72313389406
2811 -7344.663155448664
2812 -7337.155672273871
2813 -7328.652736268655
2814 -7319.614722072218
2815 -7309.597498052264
2816 -7299.650810167549
2817 -7289.081431777267
2818 -7278.379270454679
2819 -7267.568370155247
2820 -7256.354035677398
2821 -7244.304675297074
2822 -7232.160224371173
2823 -7219.66347647722
2824 -7206.732759437775
2825 -7193.013089990245
2826 -7179.463287048391
2827 -7164.887749355726
2828 -7151.36453875125
2829 -7136.357042873864
2830 -7121.861447479053
2831 -7106.686948261443
2832 -7091.264435958509
2833 -7075.727098091136
2834 -7059.973793426557
2835 -7043.401839297485
2836 -7026.875401464231
2837 -7010.232080234838
2838 -6993.194644318991
2839 -6975.630393892801
2840 -6952.152875523595
2841 -6934.713986208001
2842 -6917.52725799608
2843 -6899.640567675749
2844 -6876.007892802681
2845 -6858.091758159621
2846 -6840.021572521077
2847 -6816.516294156674
2848 -6798.979601435366
2849 -6780.769675181454
2850 -6757.126824957211
2851 -6739.591647602115
2852 -6715.662560949163
2853 -6698.11980912808
2854 -6675.129968858415
2855 -6657.92394008979
2856 -6635.062309948013
2857 -6618.121101572356
2858 -6600.751839212663
2859 -6577.176951993586
2860 -6559.688908676782
2861 -6535.490304221942
2862 -6518.299761941411
2863 -6494.848670303944
2864 -6477.777410797696
2865 -6454.870473076669
2866 -6438.096797155935
2867 -6421.117839696723
2868 -6398.474624882926
2869 -6381.836322999897
2870 -6364.944551469697
2871 -6342.586541390491
2872 -6325.913399671874
2873 -6308.916248718451
2874 -6292.071915454097
2875 -6275.402666019942
2876 -6258.379199604997
2877 -6241.097011748821
2878 -6224.10242375844
2879 -6206.905511957708
2880 -6189.753790978003
2881 -6172.247378297259
2882 -6155.557129157114
2883 -6138.407556987804
2884 -6121.812324359806
2885 -6105.132843911839
2886 -6087.875450764896
2887 -6070.378094281473
2888 -6053.561487376845
2889 -6036.373724824912
2890 -6019.548854035052
2891 -6002.442754972853
2892 -5985.264811616008
2893 -5968.369294267452
2894 -5952.000117107036
2895 -5935.165398466775
2896 -5917.993544279101
2897 -5901.34519817225
2898 -5883.972236136511
2899 -5866.667570721405
2900 -5849.628861330683
2901 -5831.663171863971
2902 -5813.385037988069
2903 -5795.340544467747
2904 -5776.764382358801
2905 -5757.632286481722
2906 -5738.079995727237
2907 -5718.36190669459
2908 -5697.924984108804
2909 -5677.718169100763
2910 -5657.053937254681
2911 -5636.045918930274
2912 -5608.469946852006
2913 -5587.838856578126
2914 -5567.342730524408
2915 -5539.263469842707
2916 -5518.612696190241
2917 -5497.963868904853
2918 -5470.728367186221
2919 -5450.415801360504
2920 -5424.151939281558
2921 -5404.310364078194
2922 -5378.473708515806
2923 -5359.263720447024
2924 -5333.164346888822
2925 -5314.031057117631
2926 -5288.799647558175
2927 -5269.821442054274
2928 -5244.598268443682
2929 -5225.734597344152
2930 -5200.64881118532
2931 -5182.014587301082
2932 -5157.428311219125
2933 -5139.291767332328
2934 -5120.674844543197
2935 -5095.324217323478
2936 -5076.527360355658
2937 -5057.249482634249
2938 -5031.785553362617
2939 -5012.52006920647
2940 -4993.159453703906
2941 -4973.586386737439
2942 -4954.189710327124
2943 -4934.296290411552
2944 -4914.440099282347
2945 -4893.784857664928
2946 -4873.802458705884
2947 -4854.03696923273
2948 -4833.49163913521
2949 -4813.190471687861
2950 -4792.923702946214
2951 -4772.986697790051
2952 -4752.665108803435
2953 -4733.072904774071
2954 -4713.905169873665
2955 -4694.441902784135
2956 -4675.454700484867
2957 -4657.041308948547
2958 -4639.202974177887
2959 -4621.707538766991
2960 -4604.872538635627
2961 -4587.882398111728
2962 -4571.119298697221
2963 -4554.787912942885
2964 -4538.886859968352
2965 -4523.36342323158
2966 -4507.746919284353
2967 -4497.572353241303
2968 -4482.241712468894
2969 -4467.106613223274
2970 -4451.916921503524
2971 -4441.909828356558
2972 -4426.828852220567
2973 -4412.073805023214
2974 -4397.428049614669
2975 -4387.824619640131
2976 -4373.058898896046
2977 -4358.876180951326
2978 -4349.471793329246
2979 -4335.402655807176
2980 -4321.752101486652
2981 -4312.833003899797
2982 -4299.665608228955
2983 -4290.992457642811
2984 -4278.231562700134
2985 -4270.032329016073
2986 -4257.926436048141
2987 -4250.313118562485
2988 -4239.260515095974
2989 -4232.137459266055
2990 -4221.677946871844
2991 -4215.320229444319
2992 -4209.120281245806
2993 -4200.306212344777
2994 -4194.614595537806
2995 -4189.554435111006
2996 -4184.320344126518
2997 -4179.677379784262
2998 -4173.134982942865
2999 -4168.989468658584
3000 -4165.049471402318
3001 -4161.573152491573
3002 -4158.175783229685
3003 -4155.208405456846
3004 -4152.272941057637
3005 -4149.653997190494
3006 -4147.31481034939
3007 -4145.136592056873
3008 -4143.05174997885
3009 -4141.351872283635
3010 -4139.638793178393
3011 -4138.26604448305
3012 -4136.960088696711
3013 -4135.961473582729
3014 -4134.925429398001
3015 -4134.207022068506
3016 -4133.429591434543
3017 -4132.622027499297
3018 -4132.022422184461
3019 -4131.542384046859
3020 -4130.867650777986
3021 -4130.499103711537
3022 -4130.06159021108
3023 -4129.832544655606
3024 -4129.597442137556
3025 -4129.508989144769
3026 -4129.143880551704
3027 -4128.755056219296
3028 -4128.181245177231
3029 -4127.424446420328
3030 -4126.873465645655
3031 -4126.46834300197
3032 -4125.732706723826
3033 -4125.413125279982
3034 -4125.001978866047
3035 -4124.692242811698
3036 -4123.951147781536
3037 -4123.529159401203
3038 -4123.061199256571
3039 -4122.803230043291
3040 -4122.584794450994
3041 -4122.479836635638
3042 -4122.368246084422
3043 -4122.676224712753
3044 -4123.182515223833
3045 -4123.653677432773
3046 -4124.207590800946
3047 -4124.934975081986
3048 -4126.45901273781
3049 -4127.673579479775
3050 -4129.057853409741
3051 -4131.24762346392
3052 -4132.868207158938
3053 -4134.839357449415
3054 -4137.76381962779
3055 -4140.039275240875
3056 -4143.692270075801
3057 -4146.291093112858
3058 -4150.310619930172
3059 -4153.110215841666
3060 -4157.284055849032
3061 -4160.352776378781
3062 -4164.678476192121
3063 -4167.940152584689
3064 -4172.75985386167
3065 -4176.124850975555
3066 -4181.325392345966
3067 -4184.837667469624
3068 -4190.018354510387
3069 -4195.211847321928
3070 -4198.471021915203
3071 -4203.597300211099
3072 -4208.36920006048
3073 -4213.00506014031
3074 -4216.0755817745
3075 -4220.765290311069
3076 -4225.298082890316
3077 -4229.708314617455
3078 -4233.74420794056
3079 -4237.892637422368
3080 -4240.356555953003
3081 -4244.386235799497
3082 -4248.094269940012
3083 -4251.829741055491
3084 -4254.080484588169
3085 -4257.74139910742
3086 -4261.303376671151
3087 -4264.909266737571
3088 -4267.326586678786
3089 -4271.026508371253
3090 -4274.731290409253
3091 -4277.352632465744
3092 -4280.987707467567
3093 -4285.023206833512
3094 -4287.704132977115
3095 -4292.009395146427
3096 -4296.200031774107
3097 -4299.257389712256
3098 -4303.843268903314
3099 -4308.569350324911
3100 -4311.655570628483
3101 -4316.956327553973
3102 -4321.810966059787
3103 -4325.372141537455
3104 -4330.585191767363
3105 -4336.086494754824
3106 -4339.77339560491
3107 -4345.485251636032
3108 -4351.317540799911
3109 -4355.261238601772
3110 -4361.149004561147
3111 -4367.341806007516
3112 -4371.418397705929
3113 -4377.759745459074
3114 -4384.188690284874
3115 -4388.568565279879
3116 -4395.02676329913
3117 -4401.593949086952
3118 -4408.007420409035
3119 -4412.53801312361
3120 -4419.360017707653
3121 -4425.965353313261
3122 -4432.56870843236
3123 -4437.202304342089
3124 -4444.009425502124
3125 -4450.881013843905
3126 -4455.344468796189
3127 -4462.277129807222
3128 -4469.081062377752
3129 -4473.706259840444
3130 -4480.797156168792
3131 -4488.000708932665
3132 -4495.032459536226
3133 -4499.951026378914
3134 -4506.830852789015
3135 -4513.815377536494
3136 -4520.907716763915
3137 -4525.559868942618
3138 -4532.680762230188
3139 -4540.005863347799
3140 -4547.111197860427
3141 -4551.950989026166
3142 -4559.102663863286
3143 -4566.676543839722
3144 -4573.87417850482
3145 -4578.803823166727
3146 -4586.417646192978
3147 -4594.004849665179
3148 -4598.984819149257
3149 -4607.105240670053
3150 -4614.965086612774
3151 -4623.009198099114
3152 -4628.464219910344
3153 -4636.83088099081
3154 -4645.163494690629
3155 -4653.452486682401
3156 -4661.737107826437
3157 -4667.344230323703
3158 -4675.566197749865
3159 -4684.248858018287
3160 -4692.771086202221
3161 -4701.313789831091
3162 -4709.927814655402
3163 -4718.724832572701
3164 -4727.197577605268
3165 -4735.736499609783
3166 -4744.251597841133
3167 -4752.842516594019
3168 -4761.383881098409
3169 -4769.892669461585
3170 -4778.261950720458
3171 -4786.613501738469
3172 -4794.835932371502
3173 -4803.184080539711
3174 -4811.342217145994
3175 -4819.502490174707
3176 -4827.417994024169
3177 -4835.34656586322
3178 -4842.947084837076
3179 -4850.770537796411
3180 -4858.140028000692
3181 -4865.524458499257
3182 -4872.537592437105
3183 -4879.693211786939
3184 -4886.442846207126
3185 -4893.277310780738
3186 -4899.801463832174
3187 -4906.459297835092
3188 -4910.545291601708
3189 -4916.675613813447
3190 -4922.637780586693
3191 -4926.588283013904
3192 -4932.306918183875
3193 -4937.923552551755
3194 -4941.474426412745
3195 -4946.539329958238
3196 -4949.821534214071
3197 -4954.659921322982
3198 -4957.704313695397
3199 -4961.970635513318
3200 -4964.713962329321
3201 -4968.519587279081
3202 -4970.931375222494
3203 -4973.329891943452
3204 -4975.367868957423
3205 -4978.287043772759
3206 -4979.860298338098
3207 -4981.312264626886
3208 -4982.570160324378
3209 -4983.667853529606
3210 -4984.451781178061
3211 -4985.27281209416
3212 -4985.817299980522
3213 -4986.447030226204
3214 -4986.611935866928
3215 -4986.722172674722
3216 -4986.581788747661
3217 -4986.182027722016
3218 -4985.648279548267
3219 -4984.969360278183
3220 -4983.532546374224
3221 -4982.573608252057
3222 -4980.884104925319
3223 -4979.552965154036
3224 -4977.451154116739
3225 -4976.066346272798
3226 -4973.730537108268
3227 -4972.203411480532
3228 -4969.589928003502
3229 -4967.912297047553
3230 -4965.305632903942
3231 -4962.949004427067
3232 -4961.199020660582
3233 -4958.728331626194
3234 -4956.253842420178
3235 -4954.817687221464
3236 -4952.33600505218
3237 -4950.230706561862
3238 -4948.847197315875
3239 -4946.951918294085
3240 -4944.948028588755
3241 -4943.845894877365
3242 -4942.126639736417
3243 -4940.424369005925
3244 -4939.333364476487
3245 -4937.957599711116
3246 -4936.602804529303
3247 -4935.754769126189
3248 -4934.389681534191
3249 -4933.60233445399
3250 -4932.388011849761
3251 -4931.661142762125
3252 -4930.299812072837
3253 -4929.614210296632
3254 -4928.188115904191
3255 -4927.360131783704
3256 -4926.046536964275
3257 -4925.271053734304
3258 -4924.301584287905
3259 -4922.934805221918
3260 -4921.964735900843
3261 -4920.924059782725
3262 -4919.45712813814
3263 -4918.513023520572
3264 -4917.476839443525
3265 -4916.016123905111
3266 -4915.029077319633
3267 -4913.640344602214
3268 -4912.652882797241
3269 -4911.380853888881
3270 -4910.340969493743
3271 -4909.020159301408
3272 -4907.97313946162
3273 -4906.636790157146
3274 -4905.712048999517
3275 -4904.416304136286
3276 -4903.334842590672
3277 -4902.070436063605
3278 -4901.201682438717
3279 -4899.878435378331
3280 -4898.848604815265
3281 -4897.497635869976
3282 -4896.168629953992
3283 -4895.232863445481
3284 -4893.597624692818
3285 -4892.207805632726
3286 -4891.140707687151
3287 -4889.702110207567
3288 -4888.014548934932
3289 -4886.450617982125
3290 -4884.832102940391
3291 -4883.340182240011
3292 -4881.831298657077
3293 -4880.155297139233
3294 -4878.226643287334
3295 -4876.389878161114
3296 -4874.5204917125
3297 -4872.708846389964
3298 -4870.624816039262
3299 -4868.497339921004
3300 -4865.965595901679
3301 -4863.503265076917
3302 -4860.701393150485
3303 -4858.085216447356
3304 -4855.031388513442
3305 -4852.138562502973
3306 -4848.680211924303
3307 -4845.35031446482
3308 -4841.608755642692
3309 -4838.006378213963
3310 -4833.794881835742
3311 -4829.551261922869
3312 -4824.956849965412
3313 -4820.36217002682
3314 -4815.362080810448
3315 -4810.442977274223
3316 -4805.212612236119
3317 -4799.996939786443
3318 -4794.12432864782
3319 -4788.34840082651
3320 -4782.151960120748
3321 -4776.008360615738
3322 -4769.270979766048
3323 -4762.535362794077
3324 -4755.645119352966
3325 -4748.500911823798
3326 -4741.270606229934
3327 -4734.101713967369
3328 -4726.507062380767
3329 -4718.783501417506
3330 -4710.84104460959
3331 -4699.903979402035
3332 -4691.689811420419
3333 -4683.46983973316
3334 -4674.887005954184
3335 -4663.611349100801
3336 -4655.071890561826
3337 -4646.684202451733
3338 -4638.040575826371
3339 -4626.591505464069
3340 -4617.860864544798
3341 -4608.968771965289
3342 -4596.931801114244
3343 -4588.214320414389
3344 -4576.083334606372
3345 -4567.267046607494
3346 -4555.004271513358
3347 -4546.019861099798
3348 -4533.843826724806
3349 -4524.965158460885
3350 -4512.768469891928
3351 -4503.782895787117
3352 -4491.036607776963
3353 -4481.752203469094
3354 -4469.237771632124
3355 -4459.825210797082
3356 -4447.063986563426
3357 -4437.500498340493
3358 -4424.463799703924
3359 -4414.805189246643
3360 -4401.541291546085
3361 -4391.653905719461
3362 -4378.113496618957
3363 -4367.995454271447
3364 -4354.17560441715
3365 -4344.064370547709
3366 -4330.365319899726
3367 -4320.038555826801
3368 -4309.473186812201
3369 -4295.590304606207
3370 -4284.711751678561
3371 -4274.153120137412
3372 -4259.777443742988
3373 -4249.366879271891
3374 -4238.522329867342
3375 -4227.693882542734
3376 -4216.714464370069
3377 -4205.745903410895
3378 -4194.782464985702
3379 -4183.715902294087
3380 -4172.474444129971
3381 -4161.317760864115
3382 -4150.111651197316
3383 -4139.065572011687
3384 -4127.736496311071
3385 -4116.776545313358
3386 -4105.779611450173
3387 -4095.148030558719
3388 -4085.02916188806
3389 -4074.681491486072
3390 -4064.957460535455
3391 -4055.454180374445
3392 -4046.520293288658
3393 -4037.851270275846
3394 -4029.492346423196
3395 -4021.5768546777
3396 -4013.880043276087
3397 -4006.641960102115
3398 -3999.954931425391
3399 -3993.347087253096
3400 -3987.291664219561
3401 -3981.574089179794
3402 -3976.016754185702
3403 -3972.744499854944
3404 -3968.027324515626
3405 -3963.821651816871
3406 -3961.133712819108
3407 -3957.529971056517
3408 -3955.394611016302
3409 -3952.520896042666
3410 -3950.729373407613
3411 -3948.297540871906
3412 -3946.976052193424
3413 -3945.379305584418
3414 -3944.52840443567
3415 -3943.67224282699
3416 -3943.276751548699
3417 -3943.082744685039
3418 -3943.053123034386
3419 -3943.416305546473
3420 -3944.027481010291
3421 -3945.25894703378
3422 -3946.319113893351
3423 -3947.490193751721
3424 -3949.616935899896
3425 -3951.309364555939
3426 -3954.045250735847
3427 -3956.108028316387
3428 -3959.58496323116
3429 -3961.860508371895
3430 -3965.492650472847
3431 -3967.886113128051
3432 -3971.575612639342
3433 -3974.109326896248
3434 -3977.77560587324
3435 -3981.507437139772
3436 -3983.870462242927
3437 -3987.458555806286
3438 -3990.811788195573
3439 -3993.013742772152
3440 -3996.250332924703
3441 -3999.2397997728
3442 -4000.98727759143
3443 -4003.518493721423
3444 -4005.00205125564
3445 -4007.060969000195
3446 -4008.301078995122
3447 -4009.985879715922
3448 -4010.879384415087
3449 -4012.078197903632
3450 -4012.747882106319
3451 -4013.538004274053
3452 -4013.749848998606
3453 -4014.064063954569
3454 -4014.019377135493
3455 -4013.955745333456
3456 -4013.72484896452
3457 -4013.426281096372
3458 -4012.960505244992
3459 -4012.039137842758
3460 -4011.228639711886
3461 -4010.488469678889
3462 -4009.551685749606
3463 -4008.267052014914
3464 -4007.139234786989
3465 -4006.042037236988
3466 -4004.261144587681
3467 -4003.084103315733
3468 -4001.157763940976
3469 -3999.918769127406
3470 -3997.86717081809
3471 -3996.469270700917
3472 -3994.238966287446
3473 -3992.056210163756
3474 -3989.80303496028
3475 -3987.667052556598
3476 -3985.494496136057
3477 -3983.527416799866
3478 -3981.331514493666
3479 -3979.300862806418
3480 -3977.503885414716
3481 -3975.7863036915
3482 -3974.164487519796
3483 -3972.690252510075
3484 -3971.309159516069
3485 -3970.329770574833
3486 -3969.35633016059
3487 -3968.447035225338
3488 -3967.470365237791
3489 -3966.696434135917
3490 -3965.80431445798
3491 -3965.217189433572
3492 -3964.617990312527
3493 -3964.208579948636
3494 -3963.849154925447
3495 -3963.514244197706
3496 -3963.13096609255
3497 -3962.932142888563
3498 -3962.571873459746
3499 -3962.315615545502
3500 -3962.278173060173
3501 -3962.170034730106
3502 -3962.249863387577
3503 -3962.271736650025
3504 -3962.446644724595
3505 -3962.81426984045
3506 -3963.24833037715
3507 -3963.674569641595
3508 -3963.978862741271
3509 -3964.378405869755
3510 -3965.119968969495
3511 -3965.634926007545
3512 -3966.268119627189
3513 -3967.024466645621
3514 -3968.154983250361
3515 -3969.381040492432
3516 -3970.623650778668
3517 -3971.890474278171
3518 -3973.18297516528
3519 -3974.662615484067
3520 -3976.186686602724
3521 -3977.632730831999
3522 -3979.466544156649
3523 -3981.352989006645
3524 -3983.362618523556
3525 -3985.790620367997
3526 -3989.132742229478
3527 -3991.80593275059
3528 -3994.53433818076
3529 -3997.513474724853
3530 -4001.395739347965
3531 -4004.728114796682
3532 -4008.433905603257
3533 -4013.070081846806
3534 -4016.841956686608
3535 -4020.720438459009
3536 -4025.793792928206
3537 -4029.821849864301
3538 -4033.882767340142
3539 -4039.393433550393
3540 -4043.354703288809
3541 -4049.314595322481
3542 -4053.547428974486
3543 -4057.927354574919
3544 -4063.511287824752
3545 -4067.684200798805
3546 -4073.474706600864
3547 -4077.892573942183
3548 -4083.564011567544
3549 -4087.760292105909
3550 -4093.075190760332
3551 -4097.146981995121
3552 -4101.267758716281
3553 -4106.704244420888
3554 -4110.859280176208
3555 -4116.322430753408
3556 -4120.282064687951
3557 -4124.32474644585
3558 -4129.519518888316
3559 -4133.396162102449
3560 -4137.033445940563
3561 -4142.479147979463
3562 -4145.967382416107
3563 -4149.719880266529
3564 -4153.568074934179
3565 -4157.153041744378
3566 -4160.808889456135
3567 -4164.694782844554
3568 -4168.347258639947
3569 -4171.906374724183
3570 -4175.592990154756
3571 -4179.441633703605
3572 -4183.084369386497
3573 -4186.72314788188
3574 -4190.391424573828
3575 -4194.203966451396
3576 -4197.819566150574
3577 -4201.794511191275
3578 -4205.760582890221
3579 -4209.843093816323
3580 -4213.731773945938
3581 -4217.871031837973
3582 -4222.065236347552
3583 -4226.445894302478
3584 -4230.811522655958
3585 -4235.14866362226
3586 -4239.710659489191
3587 -4243.821948152193
3588 -4247.889129222397
3589 -4250.765165242267
3590 -4255.281920801312
3591 -4259.832470873518
3592 -4262.928285155021
3593 -4267.596460284699
3594 -4272.337892699039
3595 -4275.48892797636
3596 -4280.487078118607
3597 -4284.026372810035
3598 -4289.570717721803
3599 -4293.188131811575
3600 -4298.800165982289
3601 -4302.518961695053
3602 -4308.388397808937
3603 -4312.187429520443
3604 -4317.914729588873
3605 -4321.761888638081
3606 -4327.680258085273
3607 -4333.234389407116
3608 -4337.050857732065
3609 -4342.726875192647
3610 -4346.542728833624
3611 -4352.007767136311
3612 -4357.307738827841
3613 -4360.800851065223
3614 -4366.140180165123
3615 -4371.354935848665
3616 -4374.71591423046
3617 -4379.643434706093
3618 -4384.1753206584
3619 -4387.23572558729
3620 -4391.924410991881
3621 -4396.338592880556
3622 -4399.299285340257
3623 -4403.483323573237
3624 -4407.704827275573
3625 -4410.424367011117
3626 -4414.275074213646
3627 -4417.995836462665
3628 -4420.414128655896
3629 -4424.146345528296
3630 -4427.60727348892
3631 -4429.862482120941
3632 -4433.101532712873
3633 -4436.213685052967
3634 -4438.24128080791
3635 -4441.231755233389
3636 -4444.250049873851
3637 -4446.032958106384
3638 -4448.720628675327
3639 -4451.125504110651
3640 -4452.625452671609
3641 -4454.803268887029
3642 -4456.017881651445
3643 -4457.821131766449
3644 -4458.974658665525
3645 -4460.371906022389
3646 -4461.390839972906
3647 -4462.881910676842
3648 -4463.750028128641
3649 -4465.090523422079
3650 -4465.860640141173
3651 -4466.967729553727
3652 -4467.663177336383
3653 -4468.65676462175
3654 -4469.261302515652
3655 -4470.23976060678
3656 -4470.853254515144
3657 -4471.473310662994
3658 -4471.965473105539
3659 -4472.563666477839
3660 -4473.053811172746
3661 -4473.575702988731
3662 -4473.96600175398
3663 -4474.542541694037
3664 -4474.874518299568
3665 -4475.356605293731
3666 -4475.854434195583
3667 -4476.609901358919
3668 -4477.109012178817
3669 -4477.858570299516
3670 -4478.205911721508
3671 -4478.95076870499
3672 -4479.340294720748
3673 -4480.006588966291
3674 -4480.605758999372
3675 -4481.527084520078
3676 -4482.17763550676
3677 -4483.142329978768
3678 -4483.935532840138
3679 -4485.051330867917
3680 -4485.804671795251
3681 -4486.92364563348
3682 -4487.798560372293
3683 -4489.283312844589
3684 -4490.232555350031
3685 -4491.293516527106
3686 -4492.801417863569
3687 -4493.927921584614
3688 -4495.542182291533
3689 -4496.682257123643
3690 -4497.789174600112
3691 -4499.44670605999
3692 -4500.66485026577
3693 -4502.056613754448
3694 -4504.04884133474
3695 -4505.329949630047
3696 -4506.619803975763
3697 -4508.524557201301
3698 -4509.700302558969
3699 -4510.763578671499
3700 -4512.306186806243
3701 -4513.319636751318
3702 -4514.258808513016
3703 -4515.712318129866
3704 -4516.440159657534
3705 -4517.573884762081
3706 -4518.245300164482
3707 -4519.14594172386
3708 -4519.525466120414
3709 -4519.958825809047
3710 -4520.143843169734
3711 -4520.162929713365
3712 -4520.12898180502
3713 -4519.966349811081
3714 -4519.752801197943
3715 -4519.157009002312
3716 -4518.745042450239
3717 -4518.048775993643
3718 -4517.413746022515
3719 -4516.440106861129
3720 -4515.691857693465
3721 -4514.453063158816
3722 -4513.549148240078
3723 -4511.975345210549
3724 -4510.846892463082
3725 -4509.006813659362
3726 -4507.73433428802
3727 -4505.820482220612
3728 -4504.472078332035
3729 -4502.313033675106
3730 -4500.880671735998
3731 -4498.599156565121
3732 -4496.385974848092
3733 -4494.877997002483
3734 -4492.63685430776
3735 -4490.459436450265
3736 -4488.184291214571
3737 -4485.878549114457
3738 -4483.82239524316
3739 -4481.861562125359
3740 -4479.757334780246
3741 -4477.989628940603
3742 -4476.219626505828
3743 -4474.617792063892
3744 -4473.047132125778
3745 -4471.623012360905
3746 -4470.437702843697
3747 -4469.231478923921
3748 -4467.995867993949
3749 -4467.02430361185
3750 -4466.066519730809
3751 -4465.28843560671
3752 -4464.531173730603
3753 -4463.71894552901
3754 -4463.004143537228
3755 -4462.420213776533
3756 -4461.758016257144
3757 -4461.287220286487
3758 -4460.784174979057
3759 -4460.084148254511
3760 -4459.444258076574
3761 -4458.798005289917
3762 -4458.095324795623
3763 -4457.524528279655
3764 -4456.854613117891
3765 -4456.024590986593
3766 -4455.119644749093
3767 -4454.231411864052
3768 -4453.163340061293
3769 -4452.06963715309
3770 -4450.723363030197
3771 -4449.368501991168
3772 -4447.867990555872
3773 -4446.126697217658
3774 -4444.439553994158
3775 -4442.55469752797
3776 -4440.336197996366
3777 -4438.222165031085
3778 -4435.775925956968
3779 -4433.128181818362
3780 -4430.353763935478
3781 -4427.546058492144
3782 -4424.543410535353
3783 -4421.519776041533
3784 -4418.276064230387
3785 -4415.008729886433
3786 -4411.634370088433
3787 -4408.493563564321
3788 -4405.258491618337
3789 -4401.940134780563
3790 -4398.578620171166
3791 -4395.303179311622
3792 -4392.107809929998
3793 -4389.253018037799
3794 -4386.464375719008
3795 -4384.023581848624
3796 -4381.571168642461
3797 -4379.378173210149
3798 -4377.346670697331
3799 -4375.743094314256
3800 -4374.238436260979
3801 -4373.094176062043
3802 -4372.223909246335
3803 -4371.514668055086
3804 -4371.002968448715
3805 -4370.882925984783
3806 -4371.134314537681
3807 -4371.70989413572
3808 -4372.322862447716
3809 -4373.430189585962
3810 -4374.731200771669
3811 -4376.337496446514
3812 -4378.315832902742
3813 -4380.344843390925
3814 -4382.53411668616
3815 -4384.999893710035
3816 -4386.722478527172
3817 -4389.463373439446
3818 -4392.166595952716
3819 -4394.988569879944
3820 -4397.668642499408
3821 -4400.346515291876
3822 -4403.049093084145
3823 -4405.797947063675
3824 -4408.327606668626
3825 -4411.050444516622
3826 -4413.443771951296
3827 -4415.77510448713
3828 -4417.821816586106
3829 -4419.66022961394
3830 -4421.355412261304
3831 -4422.913033436666
3832 -4424.11205091452
3833 -4425.180226149448
3834 -4425.975467236916
3835 -4426.585317356957
3836 -4426.853948547699
3837 -4426.877290552982
3838 -4426.62630493836
3839 -4426.108037164157
3840 -4425.639751050621
3841 -4424.616548824957
3842 -4423.767089952737
3843 -4422.322803300674
3844 -4421.151255544569
3845 -4419.292862267273
3846 -4417.954666741294
3847 -4416.513502655441
3848 -4414.140257079718
3849 -4412.480970915392
3850 -4410.76060198177
3851 -4408.989186798415
3852 -4407.092023183463
3853 -4404.043102048978
3854 -4402.021270042926
3855 -4399.894329663308
3856 -4396.72357398911
3857 -4394.700257232319
3858 -4391.648474704933
3859 -4389.695479488953
3860 -4386.582597190434
3861 -4383.773435569573
3862 -4381.936221237984
3863 -4379.375279348053
3864 -4376.811083247468
3865 -4374.620869945459
3866 -4373.165911164847
3867 -4371.094789057529
3868 -4369.306316669267
3869 -4367.566330955938
3870 -4366.470887056938
3871 -4364.895326944107
3872 -4363.363669233097
3873 -4362.389891700705
3874 -4361.014342395632
3875 -4360.134552380471
3876 -4358.859790149493
3877 -4358.070200507249
3878 -4356.722932090166
3879 -4355.869957695835
3880 -4354.635030960253
3881 -4353.761154363005
3882 -4352.248580656089
3883 -4351.273964590087
3884 -4350.282125263128
3885 -4348.72934236052
3886 -4347.624070192906
3887 -4346.538403509172
3888 -4345.321642123503
3889 -4343.399899205096
3890 -4342.10268628353
3891 -4340.753016076228
3892 -4339.260995517248
3893 -4336.87097876412
3894 -4335.225155441786
3895 -4333.53069423773
3896 -4330.89622715008
3897 -4329.18273601554
3898 -4327.269728791593
3899 -4324.296065298019
3900 -4322.210902595902
3901 -4319.226286984311
3902 -4317.276188820067
3903 -4314.294985825855
3904 -4312.20510370689
3905 -4309.111027727875
3906 -4307.071961205853
3907 -4304.019902416205
3908 -4301.009449092377
3909 -4299.10417515011
3910 -4296.207485742484
3911 -4293.504203432637
3912 -4290.881825862011
3913 -4288.460275649249
3914 -4286.066387792674
3915 -4283.746877242531
3916 -4281.60348976368
3917 -4279.593982298044
3918 -4277.780077908665
3919 -4276.17823032865
3920 -4274.760816933926
3921 -4273.597674315245
3922 -4272.450219565183
3923 -4271.685203568917
3924 -4271.080891768651
3925 -4270.79099187742
3926 -4270.721568991566
3927 -4270.856096136963
3928 -4271.089069885604
3929 -4271.654474518949
3930 -4272.317122204824
3931 -4272.926903070577
3932 -4273.923664774491
3933 -4275.15939439355
3934 -4276.169263805422
3935 -4277.898909377712
3936 -4279.141323346916
3937 -4281.247474122293
3938 -4282.829327453379
3939 -4285.390741189401
3940 -4287.137183582994
3941 -4289.97060396389
3942 -4292.920157554669
3943 -4295.074245541191
3944 -4298.225696920165
3945 -4301.577096111402
3946 -4304.933137016848
3947 -4308.33558932121
3948 -4311.586665157065
3949 -4314.835767111179
3950 -4318.056305722115
3951 -4321.216336517398
3952 -4324.287047777556
3953 -4327.393147937781
3954 -4330.307583047714
3955 -4333.095361738255
3956 -4335.623574899047
3957 -4338.046079843786
3958 -4340.283270313683
3959 -4342.304064402236
3960 -4344.181630637991
3961 -4345.969102190415
3962 -4347.548454511561
3963 -4348.888604296519
3964 -4350.044436823138
3965 -4351.127117902748
3966 -4351.704561653939
3967 -4352.509221928128
3968 -4353.21423818778
3969 -4353.580188197499
3970 -4353.963674103647
3971 -4354.207402943455
3972 -4354.479802397874
3973 -4354.625370882859
3974 -4354.726962093669
3975 -4354.771332519287
3976 -4354.676332622044
3977 -4354.571787209233
3978 -4354.419685323311
3979 -4354.287901881082
3980 -4354.171866447639
3981 -4353.894072228735
3982 -4353.683515155147
3983 -4353.268466459339
3984 -4352.970484467567
3985 -4352.576751623234
3986 -4352.272404379159
3987 -4351.909582491872
3988 -4351.664342573533
3989 -4351.202486715584
3990 -4350.889399961089
3991 -4350.515144437145
3992 -4350.288151416295
3993 -4349.927141530433
3994 -4349.700588382726
3995 -4349.546799263862
3996 -4349.429302225333
3997 -4349.285201055171
3998 -4349.146563833429
3999 -4349.020322131429
4000 -4348.802104656686
4001 -4348.526986998954
4002 -4348.390237281556
4003 -4348.059542622814
4004 -4347.754087481293
4005 -4347.368829978383
4006 -4346.975519810108
4007 -4346.714264179605
4008 -4346.138391678104
4009 -4345.702539658592
4010 -4345.068736231055
4011 -4344.129935258347
4012 -4343.302440387281
4013 -4342.504248488834
4014 -4341.088098209324
4015 -4340.038748850865
4016 -4338.908550242376
4017 -4337.092672748831
4018 -4335.677609521175
4019 -4334.326032063705
4020 -4331.894695020659
4021 -4330.347844835351
4022 -4327.72166962777
4023 -4326.007686771804
4024 -4323.167419529122
4025 -4321.302809324426
4026 -4318.351042112803
4027 -4315.4384560206
4028 -4313.338796996073
4029 -4310.30898157317
4030 -4307.143802600107
4031 -4304.162405186223
4032 -4301.029299481133
4033 -4298.183652645871
4034 -4295.293576268967
4035 -4292.665927853896
4036 -4290.063163852058
4037 -4287.778622917296
4038 -4285.429179133243
4039 -4283.36558706508
4040 -4281.383243435213
4041 -4279.67339089504
4042 -4277.950583215612
4043 -4276.515216878099
4044 -4275.139118566251
4045 -4274.053317437165
4046 -4273.030148102132
4047 -4272.326464292887
4048 -4271.62783572459
4049 -4271.368359826141
4050 -4271.009375561612
4051 -4271.129190018807
4052 -4271.217770615312
4053 -4271.546096208402
4054 -4271.852962354546
4055 -4272.406777394021
4056 -4272.983378449779
4057 -4273.894557388295
4058 -4274.752557581955
4059 -4275.54232545529
4060 -4276.708646482554
4061 -4278.043684785787
4062 -4278.907817424671
4063 -4280.456131141555
4064 -4281.497190184085
4065 -4283.25888527374
4066 -4284.370526815551
4067 -4286.209633713909
4068 -4287.96428919659
4069 -4289.289737607942
4070 -4291.149873853911
4071 -4292.989901682618
4072 -4294.813085612188
4073 -4296.793894334682
4074 -4298.709450865618
4075 -4300.620790989738
4076 -4302.429659623138
4077 -4304.246649196606
4078 -4305.897919231897
4079 -4307.666327196674
4080 -4309.128157775216
4081 -4310.732641078723
4082 -4312.115818725115
4083 -4313.485947182893
4084 -4314.783030624079
4085 -4316.091198597933
4086 -4317.153323179175
4087 -4318.024902184685
4088 -4318.995786279565
4089 -4320.101031106357
4090 -4320.626735287485
4091 -4321.525762647674
4092 -4322.328589044205
4093 -4322.814311679468
4094 -4323.480410389323
4095 -4323.912005895785
4096 -4324.331980831512
4097 -4324.701689284568
4098 -4324.976349724136
4099 -4325.164774449705
4100 -4325.271300289362
4101 -4325.363341544881
4102 -4325.356520839323
4103 -4325.228061499326
4104 -4325.048359862063
4105 -4324.728956184959
4106 -4324.336721290055
4107 -4323.86654669938
4108 -4323.385670439505
4109 -4322.582040304817
4110 -4321.845029109465
4111 -4320.736294508987
4112 -4319.906522355192
4113 -4318.783971984765
4114 -4317.756718052332
4115 -4316.293928208895
4116 -4314.671613456163
4117 -4313.64200840141
4118 -4311.850176963654
4119 -4310.228837986336
4120 -4308.379544463626
4121 -4306.676084727193
4122 -4304.868517041962
4123 -4303.163206702346
4124 -4301.234562464475
4125 -4299.434315666565
4126 -4297.458592141214
4127 -4295.63809918969
4128 -4293.680573907124
4129 -4291.886449815317
4130 -4290.124835170976
4131 -4288.447091575503
4132 -4286.734242045425
4133 -4285.047402788681
4134 -4283.317546562729
4135 -4281.876151873324
4136 -4280.428946447088
4137 -4279.199683638557
4138 -4277.870200901438
4139 -4276.75247895986
4140 -4275.533055044004
4141 -4274.614596046471
4142 -4273.613724020613
4143 -4272.848150782039
4144 -4272.061976045559
4145 -4271.442435753951
4146 -4270.771431913112
4147 -4270.269224738407
4148 -4269.591039205467
4149 -4269.119688625553
4150 -4268.648404439934
4151 -4268.238814949072
4152 -4267.731008719508
4153 -4267.346976953919
4154 -4266.904811936418
4155 -4266.647805151071
4156 -4266.230062660184
4157 -4265.962130263342
4158 -4265.548318554121
4159 -4265.192157243168
4160 -4264.79383940931
4161 -4264.282090353614
4162 -4263.563288118354
4163 -4263.014689574785
4164 -4262.354186081779
4165 -4261.842227027076
4166 -4261.089630686443
4167 -4260.130620958242
4168 -4259.011385450842
4169 -4257.995426973915
4170 -4256.932102014842
4171 -4256.178309185832
4172 -4254.907608961287
4173 -4253.70858445099
4174 -4252.36935474585
4175 -4251.160630029622
4176 -4250.325234605632
4177 -4249.139544278627
4178 -4247.965477793434
4179 -4246.971893864129
4180 -4246.182908023819
4181 -4245.262799992286
4182 -4244.22277226539
4183 -4243.622134380977
4184 -4242.655374948396
4185 -4242.042329871007
4186 -4241.362223636004
4187 -4241.204594595352
4188 -4240.853741260092
4189 -4240.731551456422
4190 -4240.586845543522
4191 -4240.70255119746
4192 -4240.971071304106
4193 -4241.507201228253
4194 -4242.059806573802
4195 -4242.978054702377
4196 -4243.790060234122
4197 -4245.0494975853
4198 -4246.186178045989
4199 -4247.740988806966
4200 -4249.230842068009
4201 -4250.979269666386
4202 -4252.638152954774
4203 -4254.548356075717
4204 -4256.389452659905
4205 -4258.377590770534
4206 -4260.355694099188
4207 -4262.466344245459
4208 -4264.445772966264
4209 -4266.541532295249
4210 -4268.539393797441
4211 -4270.639149854525
4212 -4272.601629614014
4213 -4274.632649103303
4214 -4276.516224936197
4215 -4278.463942976546
4216 -4280.26451613052
4217 -4282.035482257162
4218 -4283.615387500656
4219 -4285.146867251015
4220 -4286.309346206197
4221 -4287.42139482535
4222 -4288.361742268843
4223 -4289.21140083194
4224 -4289.678654048444
4225 -4290.206367150177
4226 -4290.278487039709
4227 -4290.466241647566
4228 -4290.408580978439
4229 -4290.265165122449
4230 -4289.785378857892
4231 -4289.345210080199
4232 -4288.702959446781
4233 -4288.09925943503
4234 -4287.247963628099
4235 -4286.739300710008
4236 -4285.750083742611
4237 -4284.726902678151
4238 -4284.003908141616
4239 -4282.92283176587
4240 -4281.787951977709
4241 -4281.173163545845
4242 -4280.117492500358
4243 -4279.280265367433
4244 -4278.686489960033
4245 -4277.989731817487
4246 -4277.171136240198
4247 -4276.604485435279
4248 -4276.002319462078
4249 -4275.648447439394
4250 -4275.180393202547
4251 -4274.989516453578
4252 -4274.758522973442
4253 -4274.738135579195
4254 -4274.745638981626
4255 -4274.864048474459
4256 -4274.82333483238
4257 -4275.072056520675
4258 -4275.373570472731
4259 -4275.788044418289
4260 -4276.192615261357
4261 -4276.796340862277
4262 -4277.30311139572
4263 -4278.065467877309
4264 -4278.625252395599
4265 -4279.347702938223
4266 -4279.88722048391
4267 -4280.585006595566
4268 -4281.238349571431
4269 -4281.993506810578
4270 -4282.603475919614
4271 -4283.307497762518
4272 -4283.78470743975
4273 -4284.223587464288
4274 -4284.514161729994
4275 -4285.008871745059
4276 -4285.278740678716
4277 -4285.693727183803
4278 -4285.99139694696
4279 -4286.202502387264
4280 -4286.585633821011
4281 -4286.896899195038
4282 -4287.058486438491
4283 -4287.193981403092
4284 -4287.156083677497
4285 -4287.12537781123
4286 -4287.147215089793
4287 -4287.07045630574
4288 -4286.961796801492
4289 -4287.19867288207
4290 -4287.102583793939
4291 -4287.325931906318
4292 -4287.367733997852
4293 -4287.545322739054
4294 -4287.765479632817
4295 -4287.993435809369
4296 -4288.326306970632
4297 -4288.979873106345
4298 -4289.732085527925
4299 -4290.560720230632
4300 -4291.304486887418
4301 -4292.204219799838
4302 -4293.284658999547
4303 -4294.640677748493
4304 -4296.110892791737
4305 -4297.92167797101
4306 -4299.681358260677
4307 -4301.814270249306
4308 -4303.998611579485
4309 -4306.3438176672
4310 -4308.565679389548
4311 -4311.054312789411
4312 -4313.722647106332
4313 -4316.661680784387
4314 -4319.702929157515
4315 -4322.924428236302
4316 -4325.868346464018
4317 -4328.967121388529
4318 -4332.160244213082
4319 -4335.48049332657
4320 -4338.658922026905
4321 -4341.746816503533
4322 -4344.867030658785
4323 -4347.987077058074
4324 -4350.780444404221
4325 -4353.609738600026
4326 -4356.39130368168
4327 -4359.109348613219
4328 -4361.791920339805
4329 -4364.564404534691
4330 -4366.990868021858
4331 -4369.328068855958
4332 -4371.619531660092
4333 -4373.919051579501
4334 -4376.239280128896
4335 -4378.608540971756
4336 -4380.878704509862
4337 -4383.081860812438
4338 -4385.504984222629
4339 -4387.842361483564
4340 -4390.117896312269
4341 -4392.372822288501
4342 -4394.529180617295
4343 -4396.820311759945
4344 -4399.070614220299
4345 -4401.483488307576
4346 -4403.747942691954
4347 -4406.085718967418
4348 -4408.518980268284
4349 -4411.061376222809
4350 -4413.631929787567
4351 -4416.245257044669
4352 -4417.993052048309
4353 -4420.734545664081
4354 -4423.430899189287
4355 -4425.391238946097
4356 -4428.383433907846
4357 -4431.580654173848
4358 -4433.845559061115
4359 -4437.337397275966
4360 -4439.730945616017
4361 -4443.571303101192
4362 -4446.128206609508
4363 -4450.144287180339
4364 -4454.241668219764
4365 -4457.115066647956
4366 -4461.303885328789
4367 -4464.08639020524
4368 -4468.281365046008
4369 -4470.993157614889
4370 -4475.151080099085
4371 -4479.083334386889
4372 -4481.675789590499
4373 -4485.63578201683
4374 -4488.148181200748
4375 -4491.841678075049
4376 -4495.376336250932
4377 -4497.565992736098
4378 -4500.685181885353
4379 -4502.693404288645
4380 -4505.508143623938
4381 -4508.191548868492
4382 -4509.798600556106
4383 -4511.944261939063
4384 -4513.221799895007
4385 -4514.94974511112
4386 -4515.870988337846
4387 -4517.145338615041
4388 -4517.814823532325
4389 -4518.64741317198
4390 -4519.077214154642
4391 -4519.472374277781
4392 -4519.603108039918
4393 -4519.622762991214
4394 -4519.499870368118
4395 -4519.230953734577
4396 -4518.885171265029
4397 -4518.253448496663
4398 -4517.691287133272
4399 -4517.044034139565
4400 -4515.880234404168
4401 -4515.075594262436
4402 -4514.210318580645
4403 -4512.69318957649
4404 -4511.698300717158
4405 -4509.994460331036
4406 -4508.870819850071
4407 -4507.185217719358
4408 -4506.018115154599
4409 -4504.315131001725
4410 -4503.188513670159
4411 -4501.590135440579
4412 -4500.537223983315
4413 -4499.047961176119
4414 -4497.708700655689
4415 -4496.843379021519
4416 -4495.788011555223
4417 -4494.668105220852
4418 -4493.956812909394
4419 -4493.121669644816
4420 -4492.328479688983
4421 -4491.859985972154
4422 -4491.242427407144
4423 -4490.817328049171
4424 -4490.313962083172
4425 -4490.119964105535
4426 -4489.939963807756
4427 -4489.843275537286
4428 -4489.696544309652
4429 -4489.717101992062
4430 -4489.89136515561
4431 -4490.014944277944
4432 -4490.37632295676
4433 -4490.650122963855
4434 -4491.13121155023
4435 -4491.407437328648
4436 -4491.717699831921
4437 -4492.2256484588
4438 -4492.605213077555
4439 -4492.998200183928
4440 -4493.644242857829
4441 -4494.005941254428
4442 -4494.764104107253
4443 -4495.32113351202
4444 -4496.099404590625
4445 -4496.534498984712
4446 -4497.273431967344
4447 -4497.910518497057
4448 -4498.633586933894
4449 -4499.284180674837
4450 -4500.181500542913
4451 -4501.080272974739
4452 -4501.651133348703
4453 -4502.565168391619
4454 -4503.37417839242
4455 -4504.234947082527
4456 -4504.77801823848
4457 -4505.61522142459
4458 -4506.416357492451
4459 -4507.192568446155
4460 -4508.042907452315
4461 -4508.731727434494
4462 -4509.418836092865
4463 -4510.22271161109
4464 -4510.742079731628
4465 -4511.266699104108
4466 -4511.747113201179
4467 -4512.255145628755
4468 -4512.746988791396
4469 -4513.11363501582
4470 -4513.504685765522
4471 -4513.765933122521
4472 -4514.084593679535
4473 -4514.404589749711
4474 -4514.609450792748
4475 -4514.880028164403
4476 -4515.184855339377
4477 -4515.324996936064
4478 -4515.506456742332
4479 -4515.521664924968
4480 -4515.523107738295
4481 -4515.426966594724
4482 -4515.311351792807
4483 -4515.014783842603
4484 -4514.88510414474
4485 -4514.756324422167
4486 -4514.626119380531
4487 -4514.414235470374
4488 -4514.207939963901
4489 -4514.17572023587
4490 -4514.38283556132
4491 -4514.216400691321
4492 -4514.114243058025
4493 -4514.150161996656
4494 -4514.144244523832
4495 -4514.203099439535
4496 -4514.391492395486
4497 -4514.700069037214
4498 -4515.197537836116
4499 -4515.650714877169
4500 -4516.018002157154
4501 -4516.7283339927
4502 -4517.349456247128
4503 -4517.95556292377
4504 -4518.862370568982
4505 -4519.868945151076
4506 -4520.982054311708
4507 -4522.187485387391
4508 -4523.428901429495
4509 -4524.66495059918
4510 -4526.322208991422
4511 -4528.045560344221
4512 -4530.071072378501
4513 -4532.063246922306
4514 -4534.235785741605
4515 -4536.179559488416
4516 -4538.220128073248
4517 -4540.433336418896
4518 -4542.707202925641
4519 -4544.951661773148
4520 -4547.310973366867
4521 -4549.4032795236
4522 -4551.715476602377
4523 -4554.016201923001
4524 -4556.430319597221
4525 -4558.687906054404
4526 -4560.749738637523
4527 -4562.793524700322
4528 -4564.600622588665
4529 -4566.09444659816
4530 -4567.568990729042
4531 -4568.87805772003
4532 -4570.207074686752
4533 -4570.954274061907
4534 -4571.743330397426
4535 -4571.831645567143
4536 -4571.669067795108
4537 -4571.311635826407
4538 -4570.534077480182
4539 -4569.606106781461
4540 -4568.312674347036
4541 -4566.672261174123
4542 -4564.974813161366
4543 -4562.979745194375
4544 -4560.627403155639
4545 -4558.15577960918
4546 -4555.041609883167
4547 -4551.880100057363
4548 -4548.202891325038
4549 -4544.583207585807
4550 -4540.61252459086
4551 -4536.490860124327
4552 -4532.39775076086
4553 -4528.045241566815
4554 -4523.457815719365
4555 -4518.619127685397
4556 -4513.644875442184
4557 -4508.577472377194
4558 -4503.460381539959
4559 -4498.51723808909
4560 -4493.424059430655
4561 -4488.086731584364
4562 -4482.912673498933
4563 -4477.794379104464
4564 -4472.799173470488
4565 -4467.783817332947
4566 -4463.020320695387
4567 -4458.440717526981
4568 -4454.124390433417
4569 -4449.911274974286
4570 -4445.92506866915
4571 -4442.273654502156
4572 -4438.800940377916
4573 -4435.706526759061
4574 -4433.114131917356
4575 -4430.513895305398
4576 -4428.090118996563
4577 -4426.086126374813
4578 -4424.301989820487
4579 -4423.113177726911
4580 -4422.068538091798
4581 -4421.128291499018
4582 -4420.769218748228
4583 -4420.831038935517
4584 -4420.732541425019
4585 -4421.243502667147
4586 -4421.978471629251
4587 -4422.892261575232
4588 -4423.988993780564
4589 -4424.782663916516
4590 -4426.420859837978
4591 -4427.758179104432
4592 -4430.180680368853
4593 -4431.710562010901
4594 -4433.912889291685
4595 -4435.441483648577
4596 -4437.756011674483
4597 -4440.42604182315
4598 -4441.994683725386
4599 -4444.567956351413
4600 -4447.191284163785
4601 -4449.776937375404
4602 -4452.491520416257
4603 -4454.992018390064
4604 -4457.340618714728
4605 -4459.191685539466
4606 -4461.047232065817
4607 -4462.658719634133
4608 -4464.201900565582
4609 -4465.381006872596
4610 -4466.064921482971
4611 -4466.454427251047
4612 -4466.697775628308
4613 -4466.686260412904
4614 -4466.174723230713
4615 -4465.489910460142
4616 -4464.410846800452
4617 -4463.189107138991
4618 -4461.520697952935
4619 -4459.510266568793
4620 -4458.009089339038
4621 -4455.301031166243
4622 -4452.167525204723
4623 -4450.0612412155
4624 -4446.536129297814
4625 -4444.120420770473
4626 -4440.109791133111
4627 -4437.507835736707
4628 -4433.286263199794
4629 -4430.40276697337
4630 -4426.008529093848
4631 -4423.006911711846
4632 -4418.404559455702
4633 -4415.286183992516
4634 -4410.359486193609
4635 -4407.004733222944
4636 -4401.970871798889
4637 -4397.240712010049
4638 -4394.151546680318
4639 -4389.730565366947
4640 -4385.360360394388
4641 -4381.237328124192
4642 -4377.240616090913
4643 -4373.409744169999
4644 -4369.861791782301
4645 -4366.541663329129
4646 -4363.507495681748
4647 -4360.757675102214
4648 -4358.045498129011
4649 -4355.546553369048
4650 -4353.192260855571
4651 -4351.156003390624
4652 -4349.241878306215
4653 -4347.584250968977
4654 -4345.92905587105
4655 -4344.652412205567
4656 -4343.517685250252
4657 -4342.905798950922
4658 -4341.911994210561
4659 -4340.855664384105
4660 -4340.338812228389
4661 -4339.798686520544
4662 -4339.417769136146
4663 -4338.892291695004
4664 -4338.505150803334
4665 -4338.042966131972
4666 -4337.628450587205
4667 -4337.157431483673
4668 -4336.849598737539
4669 -4336.539534154419
4670 -4336.440617019578
4671 -4336.407021312832
4672 -4336.240973413142
4673 -4336.085548158707
4674 -4335.899573836597
4675 -4335.907677788523
4676 -4335.77022188312
4677 -4335.791153329884
4678 -4336.032993001693
4679 -4336.103472744427
4680 -4335.995252490879
4681 -4335.896847987849
4682 -4335.655761678006
4683 -4335.555609718963
4684 -4335.432071883759
4685 -4334.965684192664
4686 -4334.385116784879
4687 -4334.235501606468
4688 -4333.69190386942
4689 -4332.896694806238
4690 -4331.730832274273
4691 -4330.948698726668
4692 -4329.661253056564
4693 -4327.888359064508
4694 -4326.123762444282
4695 -4324.847947119023
4696 -4322.629655025899
4697 -4320.177217311602
4698 -4317.518807481487
4699 -4315.567702185343
4700 -4312.444686759986
4701 -4308.906090608755
4702 -4305.408171393728
4703 -4301.552828350621
4704 -4297.401496742975
4705 -4293.502051841011
4706 -4289.160659569149
4707 -4284.496405583067
4708 -4279.688566025896
4709 -4274.789442771997
4710 -4269.676701000144
4711 -4264.45572899441
4712 -4259.000407680128
4713 -4253.380355202469
4714 -4247.939183607345
4715 -4242.140073472373
4716 -4236.241145616003
4717 -4230.153649243975
4718 -4224.139613551303
4719 -4218.05246321598
4720 -4211.908091023845
4721 -4205.677143803109
4722 -4199.382803583753
4723 -4193.314544979493
4724 -4187.185366097116
4725 -4181.05355663732
4726 -4174.887775659237
4727 -4169.014366603555
4728 -4163.113096088316
4729 -4157.496773736102
4730 -4151.98549159018
4731 -4146.450835801313
4732 -4141.17831252395
4733 -4136.274961926048
4734 -4131.538224570241
4735 -4126.907813288597
4736 -4122.644487626923
4737 -4118.590768698798
4738 -4114.895966820856
4739 -4111.467849298932
4740 -4108.164113187287
4741 -4105.189186711382
4742 -4102.105759896443
4743 -4099.701949224011
4744 -4097.760343942178
4745 -4096.064932071295
4746 -4094.782850209102
4747 -4093.704323047344
4748 -4092.613213430004
4749 -4092.173527094224
4750 -4091.87926571971
4751 -4091.715009744974
4752 -4091.79447954109
4753 -4092.249862270271
4754 -4092.706963244102
4755 -4093.59325011212
4756 -4095.089077237066
4757 -4096.037567557969
4758 -4097.347967649418
4759 -4099.456794928862
4760 -4101.609455990051
4761 -4103.650447795178
4762 -4105.725694444881
4763 -4107.907211049828
4764 -4110.372565985472
4765 -4113.114424959348
4766 -4115.680045128352
4767 -4118.061563768259
4768 -4120.685962865306
4769 -4123.174614842393
4770 -4125.619288799721
4771 -4127.994313550656
4772 -4130.105136145057
4773 -4132.431891745374
4774 -4134.618612088923
4775 -4136.595454740959
4776 -4138.343347634815
4777 -4139.97816287626
4778 -4141.490213819458
4779 -4142.935084598108
4780 -4144.171101825621
4781 -4145.129958912004
4782 -4145.949791876443
4783 -4146.584796010824
4784 -4146.795315931205
4785 -4146.892705202906
4786 -4146.925291852385
4787 -4146.678169894187
4788 -4146.238382143663
4789 -4145.626127910045
4790 -4144.435300810624
4791 -4143.328785339191
4792 -4142.083000008102
4793 -4140.649920643881
4794 -4138.772214198812
4795 -4137.375052858438
4796 -4135.302756920038
4797 -4132.804209276965
4798 -4131.127284642569
4799 -4128.509424094425
4800 -4125.574110889651
4801 -4123.590373780055
4802 -4120.183310206983
4803 -4116.589386547047
4804 -4114.169144050129
4805 -4110.463389104902
4806 -4106.443812004352
4807 -4102.346211999417
4808 -4099.564702576568
4809 -4095.118551678449
4810 -4090.714747966733
4811 -4086.198953433545
4812 -4081.838259881004
4813 -4077.270671425174
4814 -4072.811016499337
4815 -4068.636143007062
4816 -4064.61222949346
4817 -4060.566625319319
4818 -4056.68513861432
4819 -4052.929468895803
4820 -4049.011397088438
4821 -4045.492165111981
4822 -4042.150632329203
4823 -4038.854196141808
4824 -4035.591807046311
4825 -4032.315109041659
4826 -4029.493346189345
4827 -4026.609103371403
4828 -4023.866590464619
4829 -4021.192658702373
4830 -4018.562482470081
4831 -4016.118317473188
4832 -4013.84260071167
4833 -4011.721506607087
4834 -4009.585103523355
4835 -4008.160799806316
4836 -4006.031084178479
4837 -4004.098067511612
4838 -4002.920471358214
4839 -4001.032066500168
4840 -3999.794660033586
4841 -3997.990037870195
4842 -3996.892315749762
4843 -3995.218929081077
4844 -3993.981401483045
4845 -3992.341211351748
4846 -3991.276165696906
4847 -3989.68252561346
4848 -3988.521646959404
4849 -3987.328115191607
4850 -3985.604569610607
4851 -3984.482887350174
4852 -3983.292055105077
4853 -3982.079920964268
4854 -3980.290377006877
4855 -3978.997631506616
4856 -3977.866481615659
4857 -3976.615694277594
4858 -3974.682494437125
4859 -3973.317797403904
4860 -3972.001795634858
4861 -3970.071106015313
4862 -3968.748022102577
4863 -3967.48135212876
4864 -3965.512950530678
4865 -3964.288780933603
4866 -3963.113642863602
4867 -3961.423994062302
4868 -3960.262320588365
4869 -3958.632191901888
4870 -3957.581608313514
4871 -3956.202138192117
4872 -3955.331647284276
4873 -3954.198898678806
4874 -3953.487086195714
4875 -3952.568043422419
4876 -3952.097590298821
4877 -3951.547188574777
4878 -3951.258755176498
4879 -3951.011354888671
4880 -3950.914086739369
4881 -3951.094174678964
4882 -3951.349996849467
4883 -3951.813920377155
4884 -3952.290453377618
4885 -3953.108646267021
4886 -3953.844745106098
4887 -3955.084382034405
4888 -3956.008134513862
4889 -3957.544048165581
4890 -3958.559330523844
4891 -3960.40405973649
4892 -3961.663439566724
4893 -3963.748379305644
4894 -3965.204307116403
4895 -3967.618802813302
4896 -3969.295757423687
4897 -3971.93782630553
4898 -3973.768817961625
4899 -3976.736179145534
4900 -3978.63982559948
4901 -3981.807939034411
4902 -3983.85646811122
4903 -3987.226735857875
4904 -3990.606791393325
4905 -3992.97155482976
4906 -3996.367976743265
4907 -3999.935209278664
4908 -4003.366753560636
4909 -4006.881371363886
4910 -4010.212995263464
4911 -4013.419364191296
4912 -4016.65270452751
4913 -4019.8310389188
4914 -4022.979178431239
4915 -4025.927919401473
4916 -4028.921225993019
4917 -4031.761298754083
4918 -4034.572168209415
4919 -4037.343965367516
4920 -4040.042965829517
4921 -4042.684735667587
4922 -4045.310780584743
4923 -4047.877593850271
4924 -4050.387578407946
4925 -4052.819707965188
4926 -4055.141488265413
4927 -4057.427966996037
4928 -4059.597803004449
4929 -4061.761742438013
4930 -4063.863903797073
4931 -4066.026808150928
4932 -4068.13343390582
4933 -4069.978161582759
4934 -4071.599421261535
4935 -4073.354017469505
4936 -4075.019571564116
4937 -4076.499717740616
4938 -4077.757291698736
4939 -4078.955379817373
4940 -4079.878806535141
4941 -4080.607811070285
4942 -4081.316600493089
4943 -4081.898081987699
4944 -4082.100388152737
4945 -4082.249333539262
4946 -4082.120006808212
4947 -4081.793052853533
4948 -4081.250391500088
4949 -4080.813292540277
4950 -4079.794344361906
4951 -4078.791661888885
4952 -4077.524266222626
4953 -4076.022795338654
4954 -4074.474202355238
4955 -4072.916057670921
4956 -4071.01703942834
4957 -4068.999385624748
4958 -4066.837674038258
4959 -4064.718811679022
4960 -4062.410576216834
4961 -4060.008309341229
4962 -4057.488353988202
4963 -4055.101733862009
4964 -4052.657945319915
4965 -4050.141540839129
4966 -4047.689789585069
4967 -4045.25582312481
4968 -4042.738081950483
4969 -4040.328960320764
4970 -4037.824832827083
4971 -4035.591142086489
4972 -4033.522604398139
4973 -4031.466419776124
4974 -4029.50538577883
4975 -4027.868026800185
4976 -4026.306982908922
4977 -4025.000093871193
4978 -4023.900053029611
4979 -4023.051167660194
4980 -4022.286620707246
4981 -4021.900134319135
4982 -4021.784964984219
4983 -4021.923032995559
4984 -4022.31763008911
4985 -4023.011712815191
4986 -4023.834337073695
4987 -4024.841829431959
4988 -4026.19992791594
4989 -4027.633251443411
4990 -4029.233894277339
4991 -4030.951226415767
4992 -4032.2429232213
4993 -4034.512170492972
4994 -4036.840629707135
4995 -4038.436510768406
4996 -4040.951285843711
4997 -4043.668682608758
4998 -4046.365038765303
4999 -4049.031609356516
5000 -4051.783087207329
5001 -4054.51358537075
5002 -4057.141606246916
5003 -4059.736100820997
5004 -4062.358041569416
5005 -4064.966906613774
5006 -4067.435407690618
5007 -4069.840667146585
5008 -4072.176438865451
5009 -4074.351286744465
5010 -4076.444003252873
5011 -4078.509036301622
5012 -4080.40099200318
5013 -4082.191339137071
5014 -4083.839649713111
5015 -4085.447545710322
5016 -4086.836883516729
5017 -4088.189896938567
5018 -4089.525649221744
5019 -4090.889073143272
5020 -4092.134594240773
5021 -4093.440738421981
5022 -4094.623344463012
5023 -4095.814385682603
5024 -4096.891093265423
5025 -4098.168473645062
5026 -4099.478137581109
5027 -4100.800169050412
5028 -4102.059397574903
5029 -4103.466330191858
5030 -4104.994917380702
5031 -4106.631779016328
5032 -4108.244497538486
5033 -4109.465181585115
5034 -4111.416863706334
5035 -4113.605903111182
5036 -4115.817395311077
5037 -4118.372162251472
5038 -4120.916661837647
5039 -4123.735529616826
5040 -4126.634133475946
5041 -4129.727028483908
5042 -4132.882223303885
5043 -4136.182718365305
5044 -4139.597029663152
5045 -4143.239600805583
5046 -4146.898248267118
5047 -4150.734926563221
5048 -4154.599987346756
5049 -4158.605546404442
5050 -4162.751294318071
5051 -4166.953597234665
5052 -4171.111460316302
5053 -4175.480678825114
5054 -4179.796935748036
5055 -4184.40359198426
5056 -4188.931138731473
5057 -4193.500369150776
5058 -4197.881286522372
5059 -4202.406779907399
5060 -4206.744609609676
5061 -4211.240315128402
5062 -4215.677543673132
5063 -4219.924460637817
5064 -4224.082684028413
5065 -4228.319839854351
5066 -4232.451907772747
5067 -4236.395293649874
5068 -4240.179830526511
5069 -4243.737167568478
5070 -4247.249407067854
5071 -4250.590540769512
5072 -4253.800110123759
5073 -4256.843126178036
5074 -4259.611201189647
5075 -4262.336114477523
5076 -4264.815009608434
5077 -4267.012173952976
5078 -4268.924542277426
5079 -4270.67515760114
5080 -4272.290777780398
5081 -4273.794317222303
5082 -4274.936945860923
5083 -4276.098265548478
5084 -4276.963189454638
5085 -4277.631807728025
5086 -4278.002238446033
5087 -4278.34367902088
5088 -4278.374421409932
5089 -4278.416743769975
5090 -4278.230195589124
5091 -4277.919223503599
5092 -4277.514291599135
5093 -4276.895514139154
5094 -4276.349717003816
5095 -4275.575500903674
5096 -4274.947334753749
5097 -4273.789043801147
5098 -4272.891630090313
5099 -4271.658943168709
5100 -4270.76231949725
5101 -4269.30858293604
5102 -4267.77699875853
5103 -4266.122322561471
5104 -4264.396898212567
5105 -4263.355317989779
5106 -4261.63891323833
5107 -4259.988721617284
5108 -4258.28730126712
5109 -4256.756553020408
5110 -4255.036329796589
5111 -4253.541053556411
5112 -4252.093195326006
5113 -4250.836727267449
5114 -4249.555137416867
5115 -4248.485102289686
5116 -4247.369019706623
5117 -4246.591078738299
5118 -4245.737344964798
5119 -4245.053376808367
5120 -4244.394896008404
5121 -4244.113727657192
5122 -4243.833037282336
5123 -4243.730292030615
5124 -4243.708905121851
5125 -4243.84114821924
5126 -4243.927769595517
5127 -4244.333871677504
5128 -4244.792695657926
5129 -4245.174450713835
5130 -4245.832555513433
5131 -4246.390129263077
5132 -4247.339284283126
5133 -4248.099433727683
5134 -4249.20675336621
5135 -4250.170071269245
5136 -4251.628318123398
5137 -4252.747212795696
5138 -4254.345607226319
5139 -4255.527935293939
5140 -4257.370946246593
5141 -4259.247382460948
5142 -4260.4995193036
5143 -4262.591835232849
5144 -4264.512351068955
5145 -4266.661143804154
5146 -4268.614211546012
5147 -4270.669589311266
5148 -4272.478272140018
5149 -4274.307603582122
5150 -4276.012620495577
5151 -4277.671889132294
5152 -4279.366940281105
5153 -4280.936181938069
5154 -4282.318888325745
5155 -4283.815481215692
5156 -4285.119092377669
5157 -4286.348280250668
5158 -4287.538780217037
5159 -4288.599998265619
5160 -4289.703253452896
5161 -4290.805600580767
5162 -4291.709810784077
5163 -4292.80127654544
5164 -4293.309162140711
5165 -4294.11441182164
5166 -4294.89722904818
5167 -4295.414473298484
5168 -4296.137498750781
5169 -4296.849532484557
5170 -4297.224808535881
5171 -4297.890855893436
5172 -4298.299422988543
5173 -4299.066847382313
5174 -4299.52604669858
5175 -4300.332035664497
5176 -4300.778994161792
5177 -4301.72749689145
5178 -4302.22133982713
5179 -4303.167469644753
5180 -4303.733253307008
5181 -4304.605444234688
5182 -4305.147460931924
5183 -4306.040809231727
5184 -4306.641149883338
5185 -4307.638063354937
5186 -4308.238937218464
5187 -4309.2853548047
5188 -4309.922558132123
5189 -4310.931981998914
5190 -4311.588049039383
5191 -4312.754343196237
5192 -4313.445400844602
5193 -4314.478574580568
5194 -4315.12443355087
5195 -4316.229913166299
5196 -4316.94785245648
5197 -4318.132794398313
5198 -4318.774260938146
5199 -4319.724672042359
5200 -4320.48275418892
5201 -4321.439397635329
5202 -4322.016209803678
5203 -4322.879983284656
5204 -4323.393248454649
5205 -4324.183035683275
5206 -4324.625920409662
5207 -4325.273503109407
5208 -4325.546598108673
5209 -4326.174787522539
5210 -4326.43447009371
5211 -4326.86575738593
5212 -4326.899630582263
5213 -4326.995442916261
5214 -4326.897639053883
5215 -4326.713512133696
5216 -4326.438875769521
5217 -4326.197876920834
5218 -4325.809758112243
5219 -4325.133416244091
5220 -4324.502333733075
5221 -4323.634230639645
5222 -4322.878724368104
5223 -4321.642949613623
5224 -4320.662926244511
5225 -4319.13769306222
5226 -4317.9863244566
5227 -4316.273792536716
5228 -4315.005809293258
5229 -4313.066612366038
5230 -4311.753483886006
5231 -4309.752400625101
5232 -4307.663128649733
5233 -4306.267751558205
5234 -4304.024208214782
5235 -4301.684824511849
5236 -4299.37021864185
5237 -4297.067969743317
5238 -4294.687114622451
5239 -4292.40569041152
5240 -4290.131421973597
5241 -4287.884910646887
5242 -4285.565115044711
5243 -4283.394159627181
5244 -4281.24399472911
5245 -4279.174619926277
5246 -4277.017457190296
5247 -4275.746836018273
5248 -4273.650940026626
5249 -4271.710325313689
5250 -4269.700317025519
5251 -4267.847027820544
5252 -4265.91302058508
5253 -4264.726154807791
5254 -4262.81694335365
5255 -4260.889212022726
5256 -4259.656269687729
5257 -4257.911830861319
5258 -4256.108034697631
5259 -4255.074807533571
5260 -4253.361033912483
5261 -4252.368059336168
5262 -4250.743173036919
5263 -4249.768611130112
5264 -4248.312809836101
5265 -4247.328319552217
5266 -4246.017287065124
5267 -4245.265083067746
5268 -4243.921021349549
5269 -4243.216264630148
5270 -4242.246005962002
5271 -4241.759996181826
5272 -4240.836840808814
5273 -4240.469730376567
5274 -4239.80169202106
5275 -4239.596788901698
5276 -4239.361934724691
5277 -4239.260855482031
5278 -4239.120705946278
5279 -4239.215070143545
5280 -4239.534381867998
5281 -4239.776299066644
5282 -4240.116841211495
5283 -4240.596626070361
5284 -4240.986632611748
5285 -4241.552053450921
5286 -4242.29599215695
5287 -4242.901938886834
5288 -4243.87963484905
5289 -4244.589913062876
5290 -4245.630800780205
5291 -4246.445045835422
5292 -4247.658283269284
5293 -4248.423964213309
5294 -4249.543499182484
5295 -4250.706891530986
5296 -4251.374172071569
5297 -4252.36047116894
5298 -4253.282319478823
5299 -4253.934375137209
5300 -4254.765977768891
5301 -4255.691021665986
5302 -4256.399648598122
5303 -4257.127084764528
5304 -4257.80881636754
5305 -4258.319309915461
5306 -4258.707982862079
5307 -4259.177015091387
5308 -4259.491275013224
5309 -4259.863872782251
5310 -4260.016926595468
5311 -4260.146427174145
5312 -4260.033379382945
5313 -4259.842776156709
5314 -4259.678716951416
5315 -4259.513087851326
5316 -4259.189298153437
5317 -4258.720984735653
5318 -4258.144932430005
5319 -4257.742045281576
5320 -4256.906396908613
5321 -4255.924112037989
5322 -4255.275240243461
5323 -4254.28076576018
5324 -4253.560873573607
5325 -4252.301889638446
5326 -4251.369915113369
5327 -4250.099169224509
5328 -4248.62882751559
5329 -4247.653320880384
5330 -4246.166667706074
5331 -4244.708295214083
5332 -4243.661050194689
5333 -4242.148022913788
5334 -4240.536766346216
5335 -4238.987988983698
5336 -4237.988279826141
5337 -4236.578040124963
5338 -4235.142679938562
5339 -4233.824854529838
5340 -4232.471300922829
5341 -4231.719476604942
5342 -4230.322603994364
5343 -4229.312653092006
5344 -4228.166459858106
5345 -4227.47688248032
5346 -4226.364728792665
5347 -4225.559556817009
5348 -4224.631242643084
5349 -4224.148855206561
5350 -4223.488569413114
5351 -4222.998553881062
5352 -4222.698640661789
5353 -4222.580735276975
5354 -4222.541965209331
5355 -4222.616356902276
5356 -4222.64060860363
5357 -4222.993722867926
5358 -4223.194342659329
5359 -4223.730876934687
5360 -4224.140404281449
5361 -4224.937821918527
5362 -4225.550136521112
5363 -4226.801205493673
5364 -4227.630492569262
5365 -4229.166766626639
5366 -4230.132251734623
5367 -4231.732155974993
5368 -4232.85416964851
5369 -4234.747950145025
5370 -4235.995944509768
5371 -4238.13678274276
5372 -4239.444241628589
5373 -4241.591749431354
5374 -4242.988044565671
5375 -4245.069764504158
5376 -4246.516808945738
5377 -4248.631626011157
5378 -4250.065536322932
5379 -4252.291467081078
5380 -4254.219211305369
5381 -4255.511424893866
5382 -4257.349340877257
5383 -4259.186622765448
5384 -4260.248879769493
5385 -4261.940852320789
5386 -4263.35975408318
5387 -4264.654598695447
5388 -4265.807934039016
5389 -4266.563213126391
5390 -4267.384864446843
5391 -4268.226547121772
5392 -4268.906264938576
5393 -4269.497564141696
5394 -4269.801088556113
5395 -4270.0638762279
5396 -4270.141954582846
5397 -4270.138741649838
5398 -4270.01477680387
5399 -4269.640831984399
5400 -4269.142245161343
5401 -4268.853902346521
5402 -4268.104006777237
5403 -4267.31668598072
5404 -4266.75489283265
5405 -4265.99082846627
5406 -4265.425889593668
5407 -4264.607609242039
5408 -4263.949216977354
5409 -4263.095165143429
5410 -4262.245464835043
5411 -4261.663042522292
5412 -4260.749992754871
5413 -4260.08475516312
5414 -4259.318996324623
5415 -4258.542964725779
5416 -4257.818389897118
5417 -4257.31181282974
5418 -4256.76156135023
5419 -4256.320053235039
5420 -4255.878378370555
5421 -4255.699197626218
5422 -4255.495601214392
5423 -4255.376858637414
5424 -4255.214248038847
5425 -4255.154304754714
5426 -4255.175810831385
5427 -4255.391946840362
5428 -4255.534369962858
5429 -4255.830829665141
5430 -4256.277524814527
5431 -4256.944972731601
5432 -4257.413040568364
5433 -4258.041148478074
5434 -4258.722984563314
5435 -4259.484928866867
5436 -4260.377895758583
5437 -4261.39590280237
5438 -4262.395407086197
5439 -4263.385025689441
5440 -4264.024198173889
5441 -4265.079714035314
5442 -4266.19716168825
5443 -4267.001198285563
5444 -4268.071539950865
5445 -4269.299521856574
5446 -4270.022924728375
5447 -4271.285476304078
5448 -4271.989323145976
5449 -4273.044816868966
5450 -4273.547511064128
5451 -4274.38688415946
5452 -4274.790521002006
5453 -4275.524037013485
5454 -4275.84037683389
5455 -4276.284423065745
5456 -4276.427646131722
5457 -4276.668328760911
5458 -4276.635333460428
5459 -4276.635370858897
5460 -4276.466033513784
5461 -4276.151887551965
5462 -4275.740938761734
5463 -4275.183375168574
5464 -4274.609732729099
5465 -4273.835790742215
5466 -4273.118404981245
5467 -4272.038075890706
5468 -4271.099995313779
5469 -4269.701346408674
5470 -4268.61470060896
5471 -4267.00073791765
5472 -4265.818979398282
5473 -4264.095727068517
5474 -4262.783531874517
5475 -4261.586079159342
5476 -4259.543117577527
5477 -4258.241828723249
5478 -4256.170156485997
5479 -4254.881124553452
5480 -4252.737995250875
5481 -4251.402474073696
5482 -4249.33638306891
5483 -4248.09631897137
5484 -4246.147031065708
5485 -4244.980901360998
5486 -4243.124275227369
5487 -4242.061518779489
5488 -4240.350806766342
5489 -4239.341358572918
5490 -4237.895606723649
5491 -4237.071990455913
5492 -4235.769270727106
5493 -4235.132717757367
5494 -4234.221537644055
5495 -4233.762593652853
5496 -4232.979628663787
5497 -4232.636854559376
5498 -4232.154360927633
5499 -4231.957397473465
5500 -4231.652816153878
5501 -4231.56258273398
5502 -4231.272331656926
5503 -4231.340979135668
5504 -4231.304495978961
5505 -4231.515065175839
5506 -4231.531913412366
5507 -4231.685442342558
5508 -4231.883982676828
5509 -4232.074917723639
5510 -4232.182652001851
5511 -4232.548322315895
5512 -4232.732325452658
5513 -4232.964821211925
5514 -4233.131019428022
5515 -4233.393099225644
5516 -4233.657593255947
5517 -4233.927250899155
5518 -4234.200794460103
5519 -4234.448173636598
5520 -4234.557026773013
5521 -4234.70918896896
5522 -4234.693439731717
5523 -4234.794084144353
5524 -4234.744150395631
5525 -4234.782131715467
5526 -4234.664369867138
5527 -4234.695140061915
5528 -4234.66134186804
5529 -4234.642317440874
5530 -4234.555639332681
5531 -4234.599820789919
5532 -4234.53700954177
5533 -4234.48342450213
5534 -4234.333320506792
5535 -4234.376040747119
5536 -4234.408776775309
5537 -4234.512015592063
5538 -4234.597504392251
5539 -4234.738476485653
5540 -4234.945790906851
5541 -4235.248911744685
5542 -4235.590442582337
5543 -4236.044791699568
5544 -4236.553501345375
5545 -4237.014971595998
5546 -4237.771879954523
5547 -4238.426556532672
5548 -4239.355575708054
5549 -4240.154897147803
5550 -4241.315294697282
5551 -4242.236386473752
5552 -4243.574514697461
5553 -4244.637308907233
5554 -4246.262652569596
5555 -4248.042169596006
5556 -4249.16711554539
5557 -4251.03013135441
5558 -4252.851147384615
5559 -4254.124549188897
5560 -4256.036331965239
5561 -4258.088298004156
5562 -4259.983711597645
5563 -4261.301322030365
5564 -4263.266056559475
5565 -4265.410131034246
5566 -4267.346220790317
5567 -4269.245508563265
5568 -4271.019724517987
5569 -4272.844260119102
5570 -4274.475407656189
5571 -4276.149131022541
5572 -4277.578343830074
5573 -4279.026711260755
5574 -4280.280866428061
5575 -4281.577138773656
5576 -4282.561949031697
5577 -4283.653871194698
5578 -4284.200969595579
5579 -4285.010260567114
5580 -4285.671781518083
5581 -4286.173277798032
5582 -4286.488486202978
5583 -4286.894720662228
5584 -4287.185176973981
5585 -4287.382944950093
5586 -4287.577609123781
5587 -4287.778462802583
5588 -4287.856504630995
5589 -4287.946487560974
5590 -4287.892653168545
5591 -4287.87409515574
5592 -4287.755439379229
5593 -4287.73171162364
5594 -4287.526206437083
5595 -4287.487238828011
5596 -4287.30601014556
5597 -4287.237799368043
5598 -4287.101058961795
5599 -4287.057258261609
5600 -4286.955394000109
5601 -4286.910650628764
5602 -4286.863121375994
5603 -4286.897364862065
5604 -4286.883914059144
5605 -4286.972478592406
5606 -4287.035255039299
5607 -4287.181452844379
5608 -4287.194331679306
5609 -4287.389023952287
5610 -4287.564493254302
5611 -4287.72733591121
5612 -4287.918458689366
5613 -4288.209908045396
5614 -4288.335478154501
5615 -4288.630410660469
5616 -4288.860930186018
5617 -4289.142444049071
5618 -4289.450123856448
5619 -4289.840069918246
5620 -4290.114865860086
5621 -4290.514349724439
5622 -4290.883085650074
5623 -4291.175531590146
5624 -4291.501733640576
5625 -4291.884301595721
5626 -4292.054554656153
5627 -4292.475673483706
5628 -4292.767486431536
5629 -4293.022719824334
5630 -4293.257236778899
5631 -4293.629505415647
5632 -4293.945672755067
5633 -4294.320915838402
5634 -4294.584142653984
5635 -4294.732136174731
5636 -4294.925220925089
5637 -4295.090814270014
5638 -4295.123126363083
5639 -4295.213227136052
5640 -4295.108623239358
5641 -4295.114279567448
5642 -4295.037873796945
5643 -4294.952979967865
5644 -4294.756015303546
5645 -4294.567604148804
5646 -4294.367553913299
5647 -4294.143300175058
5648 -4293.955672253415
5649 -4293.803603676586
5650 -4293.579910857828
5651 -4293.447217920254
5652 -4293.350883016345
5653 -4293.307482530646
5654 -4293.239892656743
5655 -4293.367192872797
5656 -4293.550345329974
5657 -4293.797166877727
5658 -4294.010035185347
5659 -4294.391210479596
5660 -4294.876968251609
5661 -4295.26569218537
5662 -4295.932227261163
5663 -4296.682465853801
5664 -4297.201148554676
5665 -4298.171673300117
5666 -4299.1915045608
5667 -4300.001463936925
5668 -4301.236408015578
5669 -4302.670075640707
5670 -4304.069795994436
5671 -4304.990631408392
5672 -4306.416368497362
5673 -4307.999401433794
5674 -4309.558006494602
5675 -4311.183103161903
5676 -4312.213367623694
5677 -4313.878984632838
5678 -4315.542757306015
5679 -4317.189418420865
5680 -4318.782067013452
5681 -4320.419187501135
5682 -4322.02303382003
5683 -4323.663380526777
5684 -4325.231669840161
5685 -4326.879823618077
5686 -4328.394302920244
5687 -4329.922914568755
5688 -4331.436638585305
5689 -4332.848119982178
5690 -4334.238708482912
5691 -4335.712106888986
5692 -4337.065969281025
5693 -4338.433400448201
5694 -4339.672044004035
5695 -4340.579975083781
5696 -4341.919868317588
5697 -4343.250884543633
5698 -4344.057602486136
5699 -4345.394749999376
5700 -4346.213603840597
5701 -4347.469836493611
5702 -4348.376455538269
5703 -4349.708394407033
5704 -4350.580089955025
5705 -4351.902663078001
5706 -4352.777385232847
5707 -4354.155911644884
5708 -4355.05454285065
5709 -4356.007434680876
5710 -4357.343547826998
5711 -4358.224632674287
5712 -4359.158927009227
5713 -4360.039623387918
5714 -4361.262655262361
5715 -4362.107791238033
5716 -4362.942839606552
5717 -4363.76345280191
5718 -4364.456972915102
5719 -4365.51923112221
5720 -4366.16842118837
5721 -4366.859676292956
5722 -4367.475997615303
5723 -4368.248869255877
5724 -4368.603091210381
5725 -4368.92452535192
5726 -4369.120715571795
5727 -4369.436735605276
5728 -4369.484497509966
5729 -4369.587464375988
5730 -4369.522731316999
5731 -4369.420107067963
5732 -4369.231368180588
5733 -4369.018909003809
5734 -4368.529677664118
5735 -4368.201828149451
5736 -4367.730953613365
5737 -4366.955415872788
5738 -4366.28552924152
5739 -4365.178425320442
5740 -4364.373990563351
5741 -4363.022848211389
5742 -4362.041698972785
5743 -4360.644626048039
5744 -4359.476284953243
5745 -4357.791719426944
5746 -4356.629427537539
5747 -4354.843881170696
5748 -4352.946305526181
5749 -4351.765998617044
5750 -4349.807519617137
5751 -4347.99136497769
5752 -4346.138948826346
5753 -4344.391877545145
5754 -4342.535010955117
5755 -4340.672337200189
5756 -4338.678391105785
5757 -4336.940384291191
5758 -4335.173160241578
5759 -4333.412202383442
5760 -4331.543734687766
5761 -4329.719380504647
5762 -4327.754181863867
5763 -4325.863540066322
5764 -4323.877883610185
5765 -4321.952428521485
5766 -4319.951167159463
5767 -4318.008441220006
5768 -4316.145602439671
5769 -4314.139195008409
5770 -4312.14075903402
5771 -4310.123925757137
5772 -4307.815825135457
5773 -4305.569678198221
5774 -4303.211614167106
5775 -4300.916042833655
5776 -4298.543197332302
5777 -4296.189190692857
5778 -4293.749156080666
5779 -4291.303029301337
5780 -4288.69477275916
5781 -4286.202271457399
5782 -4283.641826026836
5783 -4281.096342420835
5784 -4278.505413399961
5785 -4275.942019454215
5786 -4273.284024387051
5787 -4270.809154936397
5788 -4268.064853404975
5789 -4265.576207327608
5790 -4262.849312179275
5791 -4260.077850142458
5792 -4257.295667612894
5793 -4254.731244585074
5794 -4252.092388034634
5795 -4249.502533371229
5796 -4246.910528082193
5797 -4244.615007301124
5798 -4242.234115886143
5799 -4240.127067220059
5800 -4238.148249213808
5801 -4236.083785811024
5802 -4234.228428411437
5803 -4232.683799163228
5804 -4231.136282652704
5805 -4229.739008249265
5806 -4228.578635500042
5807 -4227.621741496858
5808 -4226.740281049149
5809 -4226.149636199571
5810 -4225.672518034383
5811 -4225.343985281072
5812 -4225.162414225672
5813 -4225.441740295108
5814 -4226.054256536008
5815 -4226.875830788651
5816 -4227.892915556445
5817 -4229.177495952441
5818 -4230.652343111169
5819 -4232.254594899589
5820 -4233.501164898727
5821 -4235.373571952347
5822 -4237.233962840741
5823 -4239.435204022509
5824 -4241.85989747014
5825 -4244.24728699507
5826 -4246.681756196764
5827 -4249.287258555139
5828 -4252.00844986418
5829 -4254.70436345345
5830 -4257.320654689671
5831 -4259.880236910193
5832 -4262.508443821246
5833 -4265.185997153012
5834 -4267.725602615338
5835 -4270.276876419709
5836 -4272.599030603059
5837 -4274.697949027543
5838 -4276.6098351131
5839 -4278.448730354999
5840 -4280.095659933618
5841 -4281.49579563385
5842 -4282.741882506042
5843 -4283.765746686642
5844 -4284.358226760208
5845 -4284.761577371822
5846 -4284.906213476287
5847 -4284.737847245807
5848 -4284.279619590518
5849 -4283.601891058938
5850 -4282.525163736774
5851 -4281.152658248899
5852 -4279.449766112822
5853 -4277.576571216951
5854 -4275.313643839505
5855 -4272.79232728105
5856 -4270.129733915452
5857 -4268.22618407674
5858 -4264.938679059936
5859 -4261.640455406227
5860 -4259.233788387175
5861 -4255.30976374801
5862 -4251.269920533479
5863 -4247.06070183338
5864 -4242.821056704516
5865 -4238.574293115637
5866 -4234.170647809698
5867 -4229.675640183752
5868 -4225.068982029072
5869 -4220.727305730775
5870 -4216.173439617712
5871 -4211.760913595132
5872 -4207.422961339837
5873 -4203.109825096065
5874 -4198.864173765191
5875 -4194.71552592531
5876 -4190.528392898245
5877 -4186.536810928494
5878 -4182.578826938812
5879 -4178.886294166428
5880 -4175.303716308952
5881 -4171.820032596481
5882 -4168.308683494294
5883 -4164.962781086193
5884 -4161.675732093294
5885 -4158.632017777292
5886 -4155.607617402057
5887 -4152.760487543707
5888 -4149.866246062724
5889 -4147.243380923088
5890 -4144.685055020504
5891 -4142.326770909115
5892 -4139.939910363099
5893 -4137.781241747169
5894 -4135.679002600278
5895 -4134.354770909233
5896 -4132.361983489906
5897 -4131.104101428681
5898 -4129.141544601827
5899 -4127.946430760154
5900 -4125.993749093699
5901 -4124.795547828221
5902 -4123.205238312218
5903 -4122.09366621612
5904 -4120.82182584109
5905 -4119.677736317365
5906 -4117.876713658115
5907 -4116.886409958394
5908 -4115.781689911489
5909 -4114.710621099217
5910 -4113.698031090145
5911 -4112.259018776695
5912 -4111.200758213611
5913 -4110.327220778046
5914 -4109.360990673135
5915 -4108.155720352528
5916 -4107.365595411101
5917 -4106.732630521742
5918 -4106.152485416937
5919 -4105.325409296221
5920 -4104.818472373021
5921 -4104.414190576699
5922 -4103.722830331389
5923 -4103.50346202654
5924 -4103.208023368337
5925 -4102.949405852962
5926 -4102.866912967048
5927 -4102.894033533169
5928 -4102.899237251801
5929 -4103.057081486991
5930 -4103.161160414297
5931 -4103.589776107102
5932 -4103.906971660076
5933 -4104.341035004451
5934 -4105.15072978732
5935 -4105.857693474269
5936 -4106.432364974671
5937 -4107.657225054172
5938 -4108.530448007177
5939 -4109.648590077792
5940 -4111.23581954651
5941 -4112.443556478259
5942 -4114.211870478242
5943 -4115.387151400131
5944 -4116.721086310412
5945 -4118.994332079036
5946 -4120.530045049936
5947 -4123.12917368118
5948 -4124.79913417614
5949 -4127.52812303985
5950 -4129.437666790426
5951 -4132.495544267362
5952 -4135.441561496939
5953 -4137.523450404687
5954 -4140.554572924067
5955 -4143.690559122144
5956 -4146.853547595859
5957 -4149.990896833852
5958 -4153.128752518621
5959 -4156.299550045802
5960 -4159.359346568353
5961 -4162.423417746898
5962 -4165.419595711199
5963 -4168.387441171071
5964 -4171.345399370957
5965 -4174.36017424364
5966 -4177.182425139414
5967 -4180.09021754382
5968 -4182.725279305668
5969 -4185.489848283964
5970 -4187.954617895964
5971 -4190.542262720119
5972 -4192.967222699155
5973 -4195.417275809992
5974 -4197.690884267186
5975 -4199.979323945033
5976 -4202.088916195357
5977 -4204.212837913671
5978 -4206.190902257768
5979 -4208.220989394388
5980 -4209.99083482162
5981 -4211.800844503551
5982 -4213.534974286988
5983 -4215.10201379698
5984 -4216.51883333376
5985 -4217.472918388667
5986 -4218.648753510028
5987 -4219.822837882843
5988 -4220.447705177747
5989 -4221.444562771181
5990 -4222.131985829406
5991 -4222.581934235852
5992 -4223.104905022131
5993 -4223.413150987203
5994 -4223.73258743209
5995 -4223.814652511252
5996 -4223.78585595716
5997 -4223.735187382839
5998 -4223.52821747783
5999 -4223.289561943059
6000 -4222.730484057328
6001 -4222.192445985682
6002 -4221.393942006065
6003 -4220.694558704206
6004 -4219.446066684639
6005 -4218.468015837931
6006 -4216.944857889982
6007 -4215.259329675667
6008 -4213.507718015178
6009 -4211.549393025686
6010 -4209.432712499864
6011 -4207.386448028276
6012 -4205.279271153235
6013 -4203.102791887306
6014 -4200.846555698877
6015 -4198.486491033133
6016 -4196.225292579654
6017 -4194.007650620119
6018 -4191.746910526697
6019 -4189.523280209815
6020 -4187.230630956515
6021 -4185.02992254064
6022 -4182.892997926717
6023 -4180.785887451672
6024 -4178.699810888281
6025 -4176.778812930154
6026 -4174.800752934376
6027 -4173.059164247493
6028 -4171.162321384736
6029 -4169.435272787689
6030 -4167.755354011506
6031 -4166.120954555885
6032 -4164.510451277472
6033 -4162.950781178081
6034 -4161.546366774228
6035 -4160.205841759986
6036 -4158.988398577931
6037 -4157.928085297772
6038 -4156.978367885575
6039 -4156.121847181208
6040 -4155.169471352586
6041 -4154.492481178641
6042 -4153.678284543067
6043 -4153.230407536246
6044 -4152.643563654098
6045 -4152.264825656637
6046 -4152.081395234756
6047 -4152.042423192492
6048 -4151.98773976249
6049 -4152.022595939546
6050 -4152.212469130491
6051 -4152.540908348808
6052 -4152.806125633299
6053 -4153.456358818175
6054 -4153.905096435201
6055 -4154.830401295917
6056 -4155.467640629792
6057 -4156.528981817593
6058 -4157.366870909979
6059 -4158.747072666299
6060 -4159.77800957508
6061 -4161.569728406163
6062 -4162.689034613605
6063 -4164.674180511022
6064 -4166.102626141893
6065 -4168.067052470766
6066 -4169.442289056616
6067 -4171.659235773358
6068 -4173.921251282377
6069 -4175.473423680805
6070 -4177.678093073254
6071 -4179.928730253495
6072 -4182.069387124866
6073 -4183.445353368429
6074 -4185.471490889064
6075 -4187.437194950247
6076 -4189.461881442856
6077 -4191.460024922375
6078 -4192.556974949139
6079 -4194.296347119535
6080 -4195.989785788246
6081 -4197.810007711775
6082 -4199.430659023518
6083 -4200.578018945414
6084 -4202.221797023506
6085 -4204.002632204872
6086 -4205.693481609497
6087 -4207.480882117813
6088 -4208.686552951275
6089 -4210.536469487729
6090 -4212.408586720422
6091 -4213.766842445008
6092 -4215.658809077665
6093 -4217.711655597456
6094 -4219.101223357005
6095 -4221.357855586419
6096 -4223.759307854081
6097 -4225.424212970462
6098 -4228.060267023315
6099 -4229.86405562258
6100 -4232.670961041431
6101 -4234.667953298099
6102 -4237.734567358034
6103 -4240.900608593544
6104 -4243.003473442706
6105 -4246.406273355672
6106 -4248.655398258491
6107 -4252.134251300931
6108 -4255.776579174817
6109 -4258.251034971605
6110 -4261.902623971209
6111 -4265.570023077561
6112 -4268.003544267843
6113 -4271.770576191058
6114 -4275.309093263582
6115 -4277.76274051269
6116 -4281.32510862347
6117 -4284.716711931565
6118 -4288.152674260733
6119 -4290.338752925614
6120 -4293.527499698057
6121 -4296.513577478784
6122 -4299.26522176154
6123 -4301.182701353979
6124 -4303.820455126847
6125 -4306.44013606942
6126 -4307.993848954293
6127 -4310.363103904847
6128 -4312.506834505717
6129 -4313.973968078665
6130 -4315.772113520323
6131 -4317.431427976107
6132 -4318.335570166409
6133 -4319.680813975825
6134 -4320.404305791712
6135 -4321.388061034449
6136 -4321.905535779641
6137 -4322.509837315572
6138 -4322.767886535006
6139 -4322.911007007333
6140 -4322.922468181794
6141 -4322.864003743122
6142 -4322.632691604532
6143 -4322.315285847279
6144 -4321.550226471136
6145 -4321.073965708068
6146 -4320.402939377372
6147 -4319.246617441867
6148 -4318.362244334605
6149 -4317.479626079905
6150 -4315.833780613149
6151 -4314.626170327696
6152 -4312.514560220454
6153 -4311.147025804426
6154 -4308.965096009714
6155 -4307.281663642907
6156 -4304.751550376049
6157 -4301.98771547166
6158 -4300.154954614881
6159 -4297.398426569227
6160 -4294.402828323485
6161 -4291.452673429835
6162 -4288.398244412841
6163 -4285.206910564444
6164 -4282.003243074133
6165 -4278.812675480189
6166 -4275.547150404411
6167 -4272.377312585829
6168 -4269.124539321729
6169 -4265.781205938792
6170 -4262.573713004235
6171 -4259.209363997509
6172 -4255.829937769585
6173 -4252.343195826724
6174 -4248.915111819297
6175 -4245.590441017818
6176 -4242.153802226911
6177 -4238.800600507124
6178 -4235.36881370805
6179 -4231.893866600246
6180 -4228.432395913308
6181 -4224.964948926638
6182 -4221.511559219302
6183 -4218.141404327806
6184 -4214.720400655658
6185 -4211.423803904093
6186 -4207.968364004485
6187 -4204.581890437809
6188 -4201.093763116955
6189 -4197.846110519356
6190 -4194.624201218061
6191 -4191.441890790375
6192 -4188.275893664349
6193 -4186.243495143522
6194 -4183.204192462607
6195 -4180.26654324523
6196 -4177.417873635126
6197 -4175.620315678488
6198 -4172.876946412977
6199 -4170.350141447365
6200 -4168.720893055533
6201 -4166.389878987855
6202 -4164.937462120867
6203 -4162.877810271218
6204 -4161.57551654186
6205 -4159.840481599526
6206 -4158.784174599024
6207 -4157.555542550174
6208 -4156.79158555828
6209 -4155.931865263234
6210 -4155.393285334346
6211 -4154.932527374432
6212 -4154.759336597738
6213 -4154.698092585041
6214 -4154.766821969973
6215 -4155.099835516135
6216 -4155.506932412979
6217 -4156.44209268505
6218 -4157.177901507288
6219 -4158.023316185354
6220 -4159.532760472022
6221 -4160.738686167
6222 -4162.666941980388
6223 -4164.110070016132
6224 -4166.352134151198
6225 -4168.81984815723
6226 -4171.250910558128
6227 -4173.861065690339
6228 -4176.588180241096
6229 -4179.305399740201
6230 -4182.129228675453
6231 -4184.972802114995
6232 -4187.780782831841
6233 -4190.662328979682
6234 -4193.589662213793
6235 -4196.418822136841
6236 -4199.192817164463
6237 -4202.064334301954
6238 -4204.869389202737
6239 -4207.632064300033
6240 -4210.396587090948
6241 -4213.170665507988
6242 -4215.842822808858
6243 -4218.529712496778
6244 -4221.228985459663
6245 -4223.767226303331
6246 -4226.280630660067
6247 -4228.809530690574
6248 -4231.128978869099
6249 -4233.511063040434
6250 -4235.791254577605
6251 -4237.987991754139
6252 -4240.205451193292
6253 -4242.256730567279
6254 -4244.197247996693
6255 -4245.940532599727
6256 -4247.591935373471
6257 -4249.175321394088
6258 -4250.602503235081
6259 -4251.921526711207
6260 -4253.156124531027
6261 -4254.169689385481
6262 -4255.143948087116
6263 -4255.832355461932
6264 -4256.483279536559
6265 -4257.003875254934
6266 -4257.335676508551
6267 -4257.411550693058
6268 -4257.408198316246
6269 -4257.234463362673
6270 -4257.058875995833
6271 -4256.54465017691
6272 -4255.951118759868
6273 -4255.425905505589
6274 -4254.4273165232
6275 -4253.597966988069
6276 -4252.249125086374
6277 -4250.707154474616
6278 -4249.614962860237
6279 -4247.831085389043
6280 -4245.869758528032
6281 -4243.730772025871
6282 -4241.508657910173
6283 -4239.074469270836
6284 -4236.507473578127
6285 -4233.823405429569
6286 -4231.135021122385
6287 -4228.346860936281
6288 -4225.548028695253
6289 -4222.561099470755
6290 -4219.512935133437
6291 -4216.468989654152
6292 -4213.326867479409
6293 -4210.147490951552
6294 -4207.011869598226
6295 -4203.766380642266
6296 -4200.658256059222
6297 -4197.386801021403
6298 -4194.085901617536
6299 -4190.755180220714
6300 -4187.421121925096
6301 -4184.30465272162
6302 -4181.159324933062
6303 -4177.985610802561
6304 -4174.911674127529
6305 -4171.876805920459
6306 -4168.939816392135
6307 -4165.992237077038
6308 -4163.091075662484
6309 -4160.26254992452
6310 -4157.480532410178
6311 -4154.797424726235
6312 -4152.172659280357
6313 -4149.566547530394
6314 -4146.976432714219
6315 -4144.376930602938
6316 -4141.910757546705
6317 -4139.497276942202
6318 -4136.99609251907
6319 -4134.599563492348
6320 -4132.259748477185
6321 -4129.949280497601
6322 -4127.666272430024
6323 -4125.450559147574
6324 -4123.327140043303
6325 -4121.218647080234
6326 -4119.954098411882
6327 -4117.86732942209
6328 -4115.961181640324
6329 -4113.985860758921
6330 -4112.707901782564
6331 -4110.816487662679
6332 -4108.882977070075
6333 -4107.643533192775
6334 -4105.829737601423
6335 -4104.093049150956
6336 -4102.999803751445
6337 -4101.430255640259
6338 -4099.9294699144
6339 -4099.06040686137
6340 -4097.796752509435
6341 -4097.029708601618
6342 -4096.017100693069
6343 -4095.404493132203
6344 -4094.594449925371
6345 -4094.140300579721
6346 -4093.619131471235
6347 -4093.317291580404
6348 -4093.029923104983
6349 -4092.954151298192
6350 -4093.123565291015
6351 -4093.322120526386
6352 -4093.747052368242
6353 -4094.146961908024
6354 -4094.850024286167
6355 -4095.428479126195
6356 -4096.337215555217
6357 -4097.072695753025
6358 -4098.251067318165
6359 -4099.079671006327
6360 -4100.359671118102
6361 -4101.734831353785
6362 -4102.727601160324
6363 -4104.167089445375
6364 -4105.742019371857
6365 -4107.275198662094
6366 -4108.833631656596
6367 -4110.301393770234
6368 -4111.692347903335
6369 -4113.048309719192
6370 -4114.330712512378
6371 -4115.577425228924
6372 -4116.784425797112
6373 -4117.917742056183
6374 -4118.915598162436
6375 -4119.805143784156
6376 -4120.631916412019
6377 -4121.403539407422
6378 -4122.039789251719
6379 -4122.682732652875
6380 -4123.1042072837
6381 -4123.414387166778
6382 -4123.638571816697
6383 -4123.846658934975
6384 -4123.881275298852
6385 -4123.924979323074
6386 -4123.860992165613
6387 -4123.804007965127
6388 -4123.712317570447
6389 -4123.545947613535
6390 -4123.423106339475
6391 -4123.139865936251
6392 -4122.950259596134
6393 -4122.706054029427
6394 -4122.55012012946
6395 -4122.219302092929
6396 -4122.008893869562
6397 -4121.59652934018
6398 -4121.386060528733
6399 -4121.10648092284
6400 -4120.933962382072
6401 -4120.598252084222
6402 -4120.44647997389
6403 -4120.078155408015
6404 -4119.883239939089
6405 -4119.490339416236
6406 -4119.315617344913
6407 -4119.051881454153
6408 -4118.746046402763
6409 -4118.641378053951
6410 -4118.462144631289
6411 -4118.230899018122
6412 -4118.093533132551
6413 -4118.034914935067
6414 -4117.830121104983
6415 -4117.710723902171
6416 -4117.525357755888
6417 -4117.365605826696
6418 -4117.141573589289
6419 -4116.796646669261
6420 -4116.605573765956
6421 -4116.236488371686
6422 -4115.778216020862
6423 -4115.459715765101
6424 -4114.926044794612
6425 -4114.535020712626
6426 -4113.883815767413
6427 -4113.416709686375
6428 -4112.636670978975
6429 -4112.046976715393
6430 -4111.139528681591
6431 -4110.544695703552
6432 -4109.478340967389
6433 -4108.80545898456
6434 -4107.721675938826
6435 -4106.925617736711
6436 -4105.626310873937
6437 -4104.757326487608
6438 -4103.476959208961
6439 -4102.202564855508
6440 -4101.342464436521
6441 -4099.948731479349
6442 -4098.702857802115
6443 -4097.854722326992
6444 -4096.78764218947
6445 -4095.629815405804
6446 -4094.901491103395
6447 -4093.942343525398
6448 -4093.026942487817
6449 -4092.485363380578
6450 -4091.713700961403
6451 -4091.118991769985
6452 -4090.777918130409
6453 -4090.277604007905
6454 -4089.832241156395
6455 -4089.520765272056
6456 -4089.341650339632
6457 -4089.294354912009
6458 -4089.241535633215
6459 -4089.392299751117
6460 -4089.647700537264
6461 -4090.015186545164
6462 -4090.510990825595
6463 -4091.13273990398
6464 -4091.850753793698
6465 -4092.751925971209
6466 -4093.720241943129
6467 -4094.784497955665
6468 -4095.810357868872
6469 -4096.987831793508
6470 -4098.18900875501
6471 -4099.390078059932
6472 -4100.631318055929
6473 -4101.846553337086
6474 -4103.214598414565
6475 -4104.537893691064
6476 -4105.941069530709
6477 -4107.415528392333
6478 -4108.871684651809
6479 -4110.391189546617
6480 -4111.928160560707
6481 -4113.518123937602
6482 -4115.028950318931
6483 -4116.561852561111
6484 -4118.031245380715
6485 -4119.61277854367
6486 -4121.275520970226
6487 -4122.900627490614
6488 -4124.613252213876
6489 -4126.428605548563
6490 -4128.105571316318
6491 -4129.81681597093
6492 -4131.710653170863
6493 -4133.54637679609
6494 -4135.34246122995
6495 -4137.159556664569
6496 -4139.037884162847
6497 -4140.857804771619
6498 -4142.796433873594
6499 -4144.69479230115
6500 -4146.657907172934
6501 -4148.562582729669
6502 -4150.448748430339
6503 -4152.361065812604
6504 -4154.297403362937
6505 -4156.237645905555
6506 -4158.117225134522
6507 -4159.995464802269
6508 -4161.695092701227
6509 -4163.357438810186
6510 -4164.955102648943
6511 -4166.483483182442
6512 -4167.879414440373
6513 -4169.176696195373
6514 -4170.423258394416
6515 -4171.520540426473
6516 -4172.552859577747
6517 -4173.105116760256
6518 -4173.957524272053
6519 -4174.593898555033
6520 -4174.972478720676
6521 -4175.299608708873
6522 -4175.553489284652
6523 -4175.659500894831
6524 -4175.613393270288
6525 -4175.229963902283
6526 -4174.974677620497
6527 -4174.547930109747
6528 -4173.977974839629
6529 -4173.332464358899
6530 -4172.341397510263
6531 -4171.140011884178
6532 -4170.235166620138
6533 -4168.747776985886
6534 -4167.114507286252
6535 -4165.368839484555
6536 -4163.475765133976
6537 -4161.374988915602
6538 -4159.148520433995
6539 -4156.877745969817
6540 -4154.531881886545
6541 -4152.177251921603
6542 -4149.801229158441
6543 -4147.348635097128
6544 -4144.976883557673
6545 -4142.621121495136
6546 -4140.097496715917
6547 -4137.851563181234
6548 -4135.78873700561
6549 -4133.730498497289
6550 -4131.932090251102
6551 -4130.24188894227
6552 -4128.619997393884
6553 -4127.243979972235
6554 -4125.94169546499
6555 -4124.705208928141
6556 -4123.906593956081
6557 -4123.185450370985
6558 -4122.4807918834
6559 -4122.115450994894
6560 -4121.887799677182
6561 -4121.70534021906
6562 -4121.595910805695
6563 -4121.735984049761
6564 -4121.865917504357
6565 -4122.218681457993
6566 -4122.601446567987
6567 -4123.143912574359
6568 -4123.709880795785
6569 -4124.372436028223
6570 -4124.975596918468
6571 -4125.615485103898
6572 -4126.207875231757
6573 -4126.829390763754
6574 -4127.3725047676
6575 -4127.889283914022
6576 -4128.421584575273
6577 -4128.768138488846
6578 -4129.200400625388
6579 -4129.431280476608
6580 -4129.456638365335
6581 -4129.688484141262
6582 -4129.663660952829
6583 -4129.822603780201
6584 -4129.984162691124
6585 -4130.201879686647
6586 -4130.340732673113
6587 -4130.45815947657
6588 -4130.722657059466
6589 -4130.958457495604
6590 -4131.296910345125
6591 -4131.690619968256
6592 -4132.256624172395
6593 -4132.828800004377
6594 -4133.637147944678
6595 -4134.856258892912
6596 -4136.007994184809
6597 -4137.332118736515
6598 -4138.761728729609
6599 -4140.656769575069
6600 -4142.642105654545
6601 -4144.789598584542
6602 -4146.949276534443
6603 -4149.423889443286
6604 -4151.843907232074
6605 -4154.539585326371
6606 -4157.234305376063
6607 -4160.109618020853
6608 -4163.062350258989
6609 -4166.081415968927
6610 -4169.268307195076
6611 -4172.925962346615
6612 -4176.24362735036
6613 -4179.775462520039
6614 -4183.328070870828
6615 -4186.863155665772
6616 -4190.498679945101
6617 -4194.303343979554
6618 -4197.819763260692
6619 -4201.319844527608
6620 -4204.783981461972
6621 -4208.195722467979
6622 -4211.329077180239
6623 -4214.733666466111
6624 -4217.829441093339
6625 -4220.795601401774
6626 -4223.469379333178
6627 -4226.106792944516
6628 -4228.489617307297
6629 -4231.093042128467
6630 -4233.382837258465
6631 -4235.402597683321
6632 -4237.323506855936
6633 -4239.122419205823
6634 -4240.633454087694
6635 -4242.197870143582
6636 -4243.859420969609
6637 -4245.231663591037
6638 -4246.477781728682
6639 -4247.556845038642
6640 -4248.627311858176
6641 -4249.475884669953
6642 -4250.12747122264
6643 -4250.828183335713
6644 -4251.266975902752
6645 -4251.60261220503
6646 -4251.80554323821
6647 -4252.053204418388
6648 -4252.261761026138
6649 -4252.388184003492
6650 -4252.655037377507
6651 -4252.890180389256
6652 -4252.896514506214
6653 -4253.150968730452
6654 -4253.28048857717
6655 -4253.635567661034
6656 -4253.471012548659
6657 -4253.335671015217
6658 -4253.134643790322
6659 -4253.100192344578
6660 -4252.906439155707
6661 -4252.738725169586
6662 -4252.87025201208
6663 -4252.635100589425
6664 -4252.238346145553
6665 -4251.977940898309
6666 -4251.665922981428
6667 -4251.289147646169
6668 -4250.605589821453
6669 -4250.159786867003
6670 -4249.313893212744
6671 -4248.16992849602
6672 -4246.872423223011
