"x-rfile"
"Iteration" "x"
("Iteration" "x")
1 6208.440836195198
2 5532.267372049601
3 4084.92610575548
4 3301.271576506761
5 2412.434183975113
6 1865.488992093306
7 1405.00801434718
8 1077.198597275669
9 736.6566732117955
10 482.4415791648392
11 257.7378533140122
12 94.78497936062226
13 -20.93146173940195
14 -94.70803952189796
15 -136.0548867351793
16 -156.0740681522795
17 -163.0298541798601
18 -159.0008057879652
19 -151.1425896792264
20 -139.2092103140677
21 -129.5155760711349
22 -119.0135748036503
23 -110.7581018057874
24 -102.7063215829316
25 -96.47570648095422
26 -90.85940631204593
27 -87.8309554998106
28 -84.65399526123804
29 -83.98642424378869
30 -83.13131522218399
31 -84.04439886067038
32 -84.9244000760181
33 -87.11693991073422
34 -89.19661421998563
35 -92.32913928549898
36 -95.19282718108907
37 -98.71401887251166
38 -102.1172841644555
39 -105.9013495796961
40 -110.2023386033114
41 -115.0039068547161
42 -119.2229031398499
43 -124.7282661776423
44 -129.7571691000275
45 -135.010791205858
46 -139.296133627514
47 -144.1114198808324
48 -147.6365777298758
49 -152.3977389220281
50 -155.7742351426172
51 -159.9421405374262
52 -162.8952950944848
53 -166.7107503262994
54 -169.3687355293922
55 -172.9012428242506
56 -175.7520966251741
57 -178.7174618222527
58 -181.2362519124572
59 -184.4377048302933
60 -187.0389994899229
61 -190.8491586005993
62 -193.0986055630036
63 -196.5943575525429
64 -199.0872551503996
65 -202.0679708466178
66 -204.2137638740033
67 -206.91285899971
68 -208.820839777836
69 -211.3003367103908
70 -213.027881720288
71 -215.3512463963125
72 -216.6409747356718
73 -218.9754430935089
74 -220.2168021875891
75 -222.1816240865787
76 -223.5029793025412
77 -225.4730673635219
78 -226.7454504864517
79 -228.2728037214137
80 -229.6803778182025
81 -231.1987107127252
82 -232.1908163083451
83 -234.2286930337107
84 -235.0966467881274
85 -237.0215740113263
86 -237.7933296534676
87 -239.6142402438379
88 -240.2997419152017
89 -242.031859614877
90 -242.9395367969602
91 -244.4308053375659
92 -244.9401529317709
93 -246.4143385307584
94 -247.1292541079894
95 -248.4350948058648
96 -248.8306537767751
97 -250.1488233805958
98 -250.5179975678326
99 -251.7896047419755
100 -252.1282284328973
101 -253.372403435518
102 -253.6678966344253
103 -254.6287825160117
104 -254.9640579938223
105 -255.9346547850807
106 -256.2564673408588
107 -257.203281926105
108 -257.5068239203441
109 -258.4073694777223
110 -258.6845757582152
111 -259.5539503612728
112 -259.8025872794404
113 -260.6213804096916
114 -260.841494132755
115 -261.6226956858684
116 -261.8072735396452
117 -262.5476269593852
118 -262.6896695464346
119 -263.4012040372294
120 -263.5063516032514
121 -264.1930222397245
122 -264.2674885798081
123 -264.9239025068794
124 -264.9637171023303
125 -265.6048737481227
126 -265.6129234158809
127 -266.2191725461138
128 -266.2053678328666
129 -266.7898971977408
130 -266.7343638643839
131 -267.307801576512
132 -267.2303516025115
133 -267.7753688900174
134 -267.6847844965062
135 -268.2001421740538
136 -268.102595531024
137 -268.5898500179166
138 -268.4782482383816
139 -268.9563847507629
140 -268.8336275819923
141 -269.2871383744128
142 -269.1465760620492
143 -269.5867704469811
144 -269.4366355223351
145 -269.8624391590274
146 -269.7037858784105
147 -270.1066781892442
148 -269.9386200270806
149 -270.3350381387204
150 -270.1497584471885
151 -270.5407640833181
152 -270.339279811754
153 -270.7214860916191
154 -270.5094667555171
155 -270.8984651398958
156 -270.6637367646821
157 -271.0429629902641
158 -270.799895941915
159 -271.1760422435333
160 -270.9150631423329
161 -271.2888992976766
162 -271.030240387022
163 -271.3803850148003
164 -271.1253535915952
165 -271.480144612846
166 -271.2153769174123
167 -271.5628039929191
168 -271.2952348199855
169 -271.6330444559302
170 -271.3707936926487
171 -271.7061331802181
172 -271.4462798496982
173 -271.7778469990088
174 -271.5148578444467
175 -271.8441981062189
176 -271.5875098316881
177 -271.9188393171723
178 -271.6583761106853
179 -271.9985554497549
180 -271.7349204777682
181 -272.0711849386497
182 -271.8112821134084
183 -272.1505420256419
184 -271.8839614526174
185 -272.2289113102072
186 -271.9766451890321
187 -272.3090338946166
188 -272.0621940924021
189 -272.4059315736466
190 -272.1581066520093
191 -272.5038504888673
192 -272.256227642077
193 -272.6004227461364
194 -272.3610263893232
195 -272.7037906570572
196 -272.457713315209
197 -272.8051790594125
198 -272.5686715437178
199 -272.9123495929725
200 -272.6816740950483
201 -273.0395144720582
202 -272.7986963118119
203 -273.1621449616949
204 -272.9238749993202
205 -273.2794310267917
206 -273.0432655423985
207 -273.4030421965923
208 -273.162280066868
209 -273.5331924953895
210 -273.2963394222046
211 -273.6622894319114
212 -273.4287242509766
213 -273.7963341358401
214 -273.5673491268253
215 -273.9381408838705
216 -273.7144521108274
217 -274.0756903927237
218 -273.8595458310875
219 -274.2127562713962
220 -274.002058778079
221 -274.3541059234159
222 -274.147683755076
223 -274.5009807358366
224 -274.2997785290315
225 -274.6569230789839
226 -274.4443698474758
227 -274.8061842688242
228 -274.593858028737
229 -274.9573853327756
230 -274.7408559051409
231 -275.111841065321
232 -274.8847759166326
233 -275.2599517137306
234 -275.0333223640966
235 -275.4111228985993
236 -275.1832968363225
237 -275.5640157468027
238 -275.336244642702
239 -275.7220938067586
240 -275.497945836299
241 -275.8688605303296
242 -275.6459953335951
243 -276.0190289876105
244 -275.7978556019073
245 -276.1684504314957
246 -275.9474804378971
247 -276.3137678536028
248 -276.1036547879632
249 -276.4665709927459
250 -276.2508599201608
251 -276.6200153777348
252 -276.4072490741718
253 -276.7678353773945
254 -276.5501308987224
255 -276.9198181226598
256 -276.6951892096051
257 -277.061514763358
258 -276.8407684443898
259 -277.2029614044209
260 -276.9800633767678
261 -277.3483419549157
262 -277.1168195638986
263 -277.4889051274942
264 -277.2548025998444
265 -277.620063551774
266 -277.3948060123213
267 -277.7490240895341
268 -277.5270420343026
269 -277.8737011048838
270 -277.6475634632907
271 -277.9942263707434
272 -277.7720004468588
273 -278.1231387407116
274 -277.8995427582359
275 -278.244073267531
276 -278.0225629234961
277 -278.3582692788123
278 -278.1376420502377
279 -278.4744809707574
280 -278.2419739531302
281 -278.590164992298
282 -278.3606128667855
283 -278.7002757381096
284 -278.4583975058662
285 -278.8164936187673
286 -278.5664729066413
287 -278.9235090431283
288 -278.6745751914112
289 -279.0271208350844
290 -278.7781640670504
291 -279.1303384049156
292 -278.8792452715953
293 -279.2301639500963
294 -278.984019295364
295 -279.3368403703844
296 -279.0862532583232
297 -279.4467925884541
298 -279.1996413437801
299 -279.5531660542246
300 -279.3032420296888
301 -279.6633787021331
302 -279.4190416783752
303 -279.7733632034218
304 -279.5324300918738
305 -279.8933476717374
306 -279.6574837027877
307 -280.0178700994733
308 -279.7823963526497
309 -280.1464358271067
310 -279.9225376573557
311 -280.2840336996833
312 -280.0604997786814
313 -280.4240989137111
314 -280.2074606149048
315 -280.5687393880172
316 -280.3606136074165
317 -280.7130317236177
318 -280.5124988576291
319 -280.8624665052296
320 -280.6774630414002
321 -281.0301558076536
322 -280.841485418119
323 -281.2052196498281
324 -281.0167515298966
325 -281.3845686092931
326 -281.2010856252213
327 -281.5650935927706
328 -281.3835800657903
329 -281.7437719311816
330 -281.5673987963474
331 -281.9395183132358
332 -281.7553526226796
333 -282.1306897532752
334 -281.9399447906858
335 -282.3293344573828
336 -282.1385205121521
337 -282.5327518998398
338 -282.343731471796
339 -282.7466064405621
340 -282.5473178423326
341 -282.943025413995
342 -282.7507456583785
343 -283.1520203044798
344 -282.9649526190194
345 -283.363215783291
346 -283.1804811703026
347 -283.5763039885787
348 -283.3976996077524
349 -283.7891203019641
350 -283.6249888858561
351 -284.0145066098713
352 -283.8500109306141
353 -284.2278144358393
354 -284.0749492676696
355 -284.4543961359146
356 -284.3032483649528
357 -284.6834431487038
358 -284.5257461361097
359 -284.9158738351437
360 -284.7467921922896
361 -285.1363705493209
362 -284.9748842206749
363 -285.3723170542723
364 -285.2015961534945
365 -285.5975568998306
366 -285.4245034985311
367 -285.8270633111962
368 -285.6480226046149
369 -286.0530333161633
370 -285.8790861408134
371 -286.2855160409027
372 -286.1045374808116
373 -286.5112564640929
374 -286.3348462467742
375 -286.7488270623462
376 -286.5613364726745
377 -286.9735510059697
378 -286.7807961385307
379 -287.1973949059204
380 -287.0091666250459
381 -287.4252495531549
382 -287.236225005289
383 -287.6600653081923
384 -287.4625611881369
385 -287.8861095767851
386 -287.6916812825197
387 -288.1115144850048
388 -287.9216944383871
389 -288.3326635101997
390 -288.1370807322833
391 -288.5533762798854
392 -288.3669947833774
393 -288.7811127699256
394 -288.5918804061909
395 -288.9993322442181
396 -288.8213876839861
397 -289.2160368242309
398 -289.0373526134259
399 -289.439753590597
400 -289.2619371742906
401 -289.6539432202266
402 -289.4688553723961
403 -289.8665337706241
404 -289.685753660759
405 -290.0774803606653
406 -289.8948593553873
407 -290.2858657059874
408 -290.0953084594777
409 -290.4922296585561
410 -290.2958003490365
411 -290.7087881081665
412 -290.5066982907713
413 -290.9132419763311
414 -290.7102699616083
415 -291.110004787721
416 -290.9105900079692
417 -291.313915751825
418 -291.1134289087911
419 -291.513893769063
420 -291.3131406864265
421 -291.7045049748808
422 -291.5066544618091
423 -291.9059891602695
424 -291.7096128194122
425 -292.0946829509622
426 -291.8984659157713
427 -292.2826713288632
428 -292.0875307420278
429 -292.4722539100949
430 -292.270838223856
431 -292.6577255360183
432 -292.4539278600543
433 -292.8447150489869
434 -292.6386427124171
435 -293.0278241554942
436 -292.8215504263541
437 -293.211603634026
438 -292.9996537516326
439 -293.3873675652393
440 -293.1657095599124
441 -293.5552991546195
442 -293.3254976877465
443 -293.7260450008021
444 -293.4926553790256
445 -293.8956716996836
446 -293.6678349133618
447 -294.0706334092592
448 -293.8443172608651
449 -294.2437872277429
450 -294.0161734726178
451 -294.4039946901348
452 -294.1803669074704
453 -294.5664198496985
454 -294.3429367082318
455 -294.7291323502742
456 -294.4997872805129
457 -294.8753403131805
458 -294.6592653994494
459 -295.0394577703706
460 -294.8204600532836
461 -295.1983133608624
462 -294.9781976720237
463 -295.3466860896816
464 -295.1295634430491
465 -295.4974099320837
466 -295.2789982247582
467 -295.6399561777849
468 -295.4281117499831
469 -295.7894683161758
470 -295.5735313106414
471 -295.9303279379509
472 -295.7195087297334
473 -296.0731173109397
474 -295.8637066293091
475 -296.2088378507736
476 -296.0030296459258
477 -296.3452455016515
478 -296.1368937525016
479 -296.4917065241685
480 -296.2705677450438
481 -296.6236648113366
482 -296.401030474438
483 -296.7709674878915
484 -296.5338883135957
485 -296.8981386213241
486 -296.6669870537889
487 -297.0364496673044
488 -296.797667529888
489 -297.1697124009083
490 -296.926791990816
491 -297.2922276340327
492 -297.05245488413
493 -297.4244114851175
494 -297.1832750315774
495 -297.5481840510654
496 -297.2983943753924
497 -297.67162470898
498 -297.4310601645918
499 -297.7884011496753
500 -297.5495595593098
501 -297.9027547269092
502 -297.6762870719681
503 -298.0174379698313
504 -297.7884948044327
505 -298.12872666738
506 -297.9025719479894
507 -298.2488129431773
508 -298.0120912043404
509 -298.3590573733846
510 -298.1284036190266
511 -298.4704163985708
512 -298.2363702909598
513 -298.5837294782415
514 -298.3411696070498
515 -298.7008839311319
516 -298.451267876841
517 -298.8082004597293
518 -298.5542477222388
519 -298.9219666160225
520 -298.6613179552346
521 -299.0329308574795
522 -298.7744371047937
523 -299.1393578190383
524 -298.8711864475063
525 -299.2342102992136
526 -298.9762912249867
527 -299.336454910934
528 -299.0747002618945
529 -299.4243977155838
530 -299.179840345269
531 -299.5284447939115
532 -299.2728943574404
533 -299.6187694367621
534 -299.3652243313723
535 -299.719230916252
536 -299.4571968846166
537 -299.8030264349057
538 -299.5480906755308
539 -299.8906908202025
540 -299.6306620367998
541 -299.9694572471552
542 -299.7118820097006
543 -300.069759263879
544 -299.8022594772488
545 -300.1583033382486
546 -299.8954177978787
547 -300.2475984691604
548 -299.9744575284088
549 -300.3252059125434
550 -300.0626764497588
551 -300.4091861717713
552 -300.1409198479701
553 -300.4828938364513
554 -300.233716230732
555 -300.5718171958534
556 -300.301758153888
557 -300.6508792813909
558 -300.3860006467028
559 -300.7360508370097
560 -300.4646878796605
561 -300.8130042454183
562 -300.5400148356966
563 -300.8938376700972
564 -300.6165358016227
565 -300.9655884211392
566 -300.6964991648274
567 -301.0480987730494
568 -300.7711017124996
569 -301.1175242301484
570 -300.8432743183483
571 -301.1887949294059
572 -300.9124651724925
573 -301.2588751901067
574 -300.9779080623401
575 -301.3236104397819
576 -301.0418125602243
577 -301.3799908795599
578 -301.1092441418799
579 -301.4490718352296
580 -301.1768673356697
581 -301.5118414215465
582 -301.2463674274787
583 -301.5780087204337
584 -301.3198972188086
585 -301.6417848104959
586 -301.3778120948671
587 -301.7048794934263
588 -301.4411028785951
589 -301.7612818554189
590 -301.5046768569364
591 -301.8342911087408
592 -301.5590872382493
593 -301.897789687723
594 -301.6170590660889
595 -301.9616456597391
596 -301.6765865836194
597 -302.0142790758093
598 -301.7255001236325
599 -302.0779923935206
600 -301.7776701947332
601 -302.1283680938656
602 -301.8376540011811
603 -302.1880043105019
604 -301.8899487570244
605 -302.2509587537401
606 -301.957470179146
607 -302.3016046431705
608 -302.0098972651842
609 -302.3536880509197
610 -302.0626852069027
611 -302.4067743454541
612 -302.1135161466771
613 -302.4508699695117
614 -302.1610389034122
615 -302.5101997172995
616 -302.2108307634437
617 -302.5549130030749
618 -302.2641409095904
619 -302.6097230795024
620 -302.3164225528674
621 -302.6502480783572
622 -302.3574900198075
623 -302.7009664781096
624 -302.4020300876863
625 -302.7377451173031
626 -302.4437342116616
627 -302.7842389936112
628 -302.4904049997131
629 -302.8225450492797
630 -302.5419180784734
631 -302.8727899303135
632 -302.5937454568448
633 -302.9187641139778
634 -302.6438105138615
635 -302.9652710735336
636 -302.6935651185252
637 -303.0041360324673
638 -302.7464415364296
639 -303.0577899200478
640 -302.7889027886181
641 -303.1056317757941
642 -302.8282660939331
643 -303.1528972829794
644 -302.8746340600374
645 -303.196431888935
646 -302.9159986867197
647 -303.2428821819556
648 -302.9427878518276
649 -303.2711661800113
650 -302.981965759907
651 -303.321144408558
652 -303.0242289265139
653 -303.3564756648555
654 -303.0694556725735
655 -303.4004149898569
656 -303.113352185075
657 -303.4391687186454
658 -303.154462152372
659 -303.4777943294334
660 -303.1916391367412
661 -303.5135815532938
662 -303.2290230372104
663 -303.5512230946596
664 -303.2647569522027
665 -303.5917061073898
666 -303.3051152428149
667 -303.6274816194821
668 -303.3383573323343
669 -303.6644031780423
670 -303.3755571144196
671 -303.7006620344193
672 -303.4021511191959
673 -303.7252581441937
674 -303.433710271744
675 -303.7651760279495
676 -303.4673920314406
677 -303.7971163217945
678 -303.5000718901709
679 -303.8309729860084
680 -303.5426858509049
681 -303.8662486954273
682 -303.5822113108697
683 -303.9001316321503
684 -303.6090367843307
685 -303.9229539437052
686 -303.652125938186
687 -303.9558519996432
688 -303.6794535273135
689 -303.988262737236
690 -303.7064123780621
691 -304.0161120838395
692 -303.7301482644588
693 -304.0568342957313
694 -303.7638627476087
695 -304.0899094993924
696 -303.8005512609296
697 -304.1228346573928
698 -303.8342462912238
699 -304.146200466212
700 -303.8551996127335
701 -304.1761933794569
702 -303.8766276106442
703 -304.2118313183436
704 -303.9116092125797
705 -304.2407832594019
706 -303.9445576154629
707 -304.2677669892189
708 -303.9660739101586
709 -304.2890553695302
710 -304.0022765774681
711 -304.31643040518
712 -304.0202097386698
713 -304.3408431331772
714 -304.0505174398822
715 -304.3669321396835
716 -304.0787607650765
717 -304.3962412036444
718 -304.1106236740358
719 -304.4280334696892
720 -304.1358961374196
721 -304.449526973127
722 -304.1705077764491
723 -304.4769576293567
724 -304.1859817912971
725 -304.5019593911434
726 -304.2090286972862
727 -304.5329698431688
728 -304.2306592776534
729 -304.5544274971001
730 -304.2613179849046
731 -304.5795819741658
732 -304.2795929294938
733 -304.6080325284645
734 -304.3080300661152
735 -304.6318029737747
736 -304.3344611492204
737 -304.6544919078945
738 -304.3541583118153
739 -304.6749118003144
740 -304.375736957059
741 -304.7035868021904
742 -304.4028014207921
743 -304.7359426213806
744 -304.4193316370881
745 -304.7500988071686
746 -304.4459374750656
747 -304.7765443139482
748 -304.4658961583465
749 -304.7934175836728
750 -304.4918446085076
751 -304.8172666085357
752 -304.512276764531
753 -304.8439427434344
754 -304.5403953089156
755 -304.8707257756495
756 -304.5691483223234
757 -304.8839494469502
758 -304.5873241890847
759 -304.9019861998187
760 -304.6040673172587
761 -304.9175013634234
762 -304.6236572522065
763 -304.9385682144757
764 -304.6429977091864
765 -304.9627155508315
766 -304.6682949969086
767 -304.9735219417706
768 -304.6806952237819
769 -304.9920523700569
770 -304.692442903431
771 -305.0199389578967
772 -304.7060143052097
773 -305.0332590386416
774 -304.7266790311801
775 -305.0567781735502
776 -304.7488270080291
777 -305.0723648823512
778 -304.7668283650796
779 -305.0965167971689
780 -304.7809749506789
781 -305.1066902038754
782 -304.8026626440438
783 -305.1351868613999
784 -304.8301736579206
785 -305.1472759791581
786 -304.8417209324704
787 -305.1674889479501
788 -304.86741445974
789 -305.1903221966941
790 -304.896899359116
791 -305.2139000252029
792 -304.914221262535
793 -305.2205680576827
794 -304.9264855849553
795 -305.2465981939577
796 -304.9374346044
797 -305.2601328106716
798 -304.9533229245349
799 -305.2764542882927
800 -304.9705827393158
801 -305.2993999570057
802 -304.9935467472538
803 -305.3142976580608
804 -305.0055725971502
805 -305.3246713786567
806 -305.0253586717006
807 -305.3492162325547
808 -305.0436705612685
809 -305.3565126686243
810 -305.0617053053693
811 -305.3732985902442
812 -305.0741728520021
813 -305.3824979965443
814 -305.0927274453483
815 -305.4010652248812
816 -305.1033956398202
817 -305.4080706901941
818 -305.1305233734736
819 -305.4263454815314
820 -305.1450420008701
821 -305.4374335569458
822 -305.1595894777197
823 -305.4504368256214
824 -305.1642599098357
825 -305.4712868686935
826 -305.1812653783037
827 -305.4860162839336
828 -305.1895307626597
829 -305.4986967957635
830 -305.2006694446897
831 -305.510569858268
832 -305.2111571590249
833 -305.5247308265959
834 -305.2196564979479
835 -305.5360240806981
836 -305.2267418329229
837 -305.5493446131175
838 -305.2407866151015
839 -305.5763489426543
840 -305.2590882034858
841 -305.5824573384692
842 -305.2843069713881
843 -305.5992550615736
844 -305.2956312407055
845 -305.6137321718204
846 -305.3100008484973
847 -305.6243318544377
848 -305.3132554410766
849 -305.6365899384667
850 -305.3339413137319
851 -305.6485002065323
852 -305.3531103808344
853 -305.6543184625281
854 -305.3623506724646
855 -305.6726761493906
856 -305.3764281288449
857 -305.6874863320554
858 -305.3927941219483
859 -305.6972009120216
860 -305.3982773716581
861 -305.7083060173231
862 -305.4083587620735
863 -305.7288718072676
864 -305.415714234293
865 -305.7313445009759
866 -305.432408970873
867 -305.7460616348221
868 -305.4358530518583
869 -305.7542255041064
870 -305.4501735580656
871 -305.761862866098
872 -305.4551742034483
873 -305.7753480495605
874 -305.4708105883217
875 -305.7907491574505
876 -305.4823021245883
877 -305.7979257981239
878 -305.4956609501151
879 -305.8147118903799
880 -305.5015998137337
881 -305.8254107817039
882 -305.5157623895867
883 -305.8268591268656
884 -305.5200988105688
885 -305.8311018151572
886 -305.5327506291646
887 -305.8424057856132
888 -305.536681091176
889 -305.8487571546404
890 -305.551332481843
891 -305.8633493679479
892 -305.5596402525338
893 -305.8755716169044
894 -305.571122803934
895 -305.8848488000093
896 -305.5739944840808
897 -305.889027318156
898 -305.582274327283
899 -305.9102777348717
900 -305.5977391062088
901 -305.9158851898216
902 -305.604772255893
903 -305.9311586840606
904 -305.6148615941782
905 -305.9355302041852
906 -305.6282095023249
907 -305.9462489381603
908 -305.6329896946154
909 -305.951704317071
910 -305.6381880634789
911 -305.9601854714838
912 -305.6501517590513
913 -305.9645574738099
914 -305.6640108629483
915 -305.9765703499486
916 -305.66603600013
917 -305.9816739027475
918 -305.6778455185623
919 -305.9860981984561
920 -305.6778161802621
921 -305.9988070175049
922 -305.690172852137
923 -306.0058928811558
924 -305.696744814008
925 -306.0158564031245
926 -305.7203830794434
927 -306.0254593805304
928 -305.7164185836005
929 -306.0299214455462
930 -305.7178963677911
931 -306.0380059699731
932 -305.7200218081711
933 -306.0464000865112
934 -305.7415055008976
935 -306.0575272167324
936 -305.742622245886
937 -306.0705516860849
938 -305.7509335520125
939 -306.0751865618226
940 -305.7572722901405
941 -306.0838916031901
942 -305.7684574978236
943 -306.0832989098762
944 -305.772831307901
945 -306.0872797748335
946 -305.7739096252723
947 -306.0939416871021
948 -305.7806254258344
949 -306.0934057923009
950 -305.7928240834348
951 -306.1059442018395
952 -305.8045708942759
953 -306.106666934743
954 -305.8103379875985
955 -306.1201887331067
956 -305.8195831045762
957 -306.1252664282484
958 -305.8240968283174
959 -306.1377994307312
960 -305.826872620217
961 -306.1387712258259
962 -305.8351750819207
963 -306.1518817161672
964 -305.8413480544201
965 -306.1516735647937
966 -305.8485123260162
967 -306.1623902380785
968 -305.857193975937
969 -306.1614210220022
970 -305.862099059143
971 -306.1771169701541
972 -305.8714105150738
973 -306.1738049360562
974 -305.8783312461538
975 -306.1867263212131
976 -305.8828979643506
977 -306.1914616660301
978 -305.8840750725163
979 -306.1949825573474
980 -305.893069322301
981 -306.200369898511
982 -305.8984204787612
983 -306.2043755694134
984 -305.8954702393008
985 -306.2071385399726
986 -305.9029318189926
987 -306.2146483713149
988 -305.9026765582484
989 -306.2223608705042
990 -305.9179898700132
991 -306.2318064681731
992 -305.922878998726
993 -306.2362715308251
994 -305.9244388556642
995 -306.2358156380262
996 -305.9235365972003
997 -306.2428601939045
998 -305.9334746128026
999 -306.2510762735068
1000 -305.9399529782821
1001 -306.2612262570113
1002 -305.9490482152381
1003 -306.2583249397608
1004 -305.9569598498971
1005 -306.2646940290217
1006 -305.9631209656993
1007 -306.2735654466586
1008 -305.9738766548223
1009 -306.2731027696845
1010 -305.9764282094916
1011 -306.2779062718323
1012 -305.9851362237945
1013 -306.2774206352321
1014 -305.9828765071443
1015 -306.2844849047868
1016 -305.9906826244022
1017 -306.2884370525996
1018 -305.9867973081639
1019 -306.2899554914402
1020 -305.9909613441504
1021 -306.2934650270976
1022 -306.0043039436573
1023 -306.3086408529878
1024 -306.0053333438901
1025 -306.3159806498651
1026 -306.0131007189689
1027 -306.3121594858113
1028 -306.0098741182017
1029 -306.3198268997018
1030 -306.013290230747
1031 -306.3266035373571
1032 -306.0131579451228
1033 -306.329099109793
1034 -306.0227420766765
1035 -306.3402107664228
1036 -306.0284077597628
1037 -306.3473321000396
1038 -306.0298910372873
1039 -306.3441224247094
1040 -306.0265894867537
1041 -306.3463205775697
1042 -306.0319165433879
1043 -306.3442918483297
1044 -306.0377439439713
1045 -306.3445045617737
1046 -306.0448864447487
1047 -306.3505638124397
1048 -306.0507145072773
1049 -306.3561843217504
1050 -306.0545157200006
1051 -306.3555671090961
1052 -306.0586337870959
1053 -306.3527062168359
1054 -306.0598572358468
1055 -306.3628335347206
1056 -306.0629188046582
1057 -306.3629572754564
1058 -306.0699473883153
1059 -306.3718491226606
1060 -306.0783550940361
1061 -306.3812233221731
1062 -306.0842385051965
1063 -306.382735419928
1064 -306.0795924483713
1065 -306.3837469152904
1066 -306.0808606626659
1067 -306.3848152710028
1068 -306.0740248041012
1069 -306.390248701537
1070 -306.0834293191999
1071 -306.3968934514734
1072 -306.082113850212
1073 -306.3969916476231
1074 -306.0814840185448
1075 -306.4025694889414
1076 -306.0892662208198
1077 -306.3965611365094
1078 -306.0906378397713
1079 -306.4016021696675
1080 -306.0880701133328
1081 -306.397021442781
1082 -306.096220123237
1083 -306.4089769389439
1084 -306.0987429779845
1085 -306.4151031168711
1086 -306.1101058790245
1087 -306.4138090805607
1088 -306.1138431564501
1089 -306.4184451168725
1090 -306.1149287342794
1091 -306.4226297279677
1092 -306.1174937884481
1093 -306.4244759278653
1094 -306.1261693315919
1095 -306.4217780843725
1096 -306.1274349256719
1097 -306.4256251197675
1098 -306.1287893092091
1099 -306.430131337424
1100 -306.1302741616084
1101 -306.4341902317913
1102 -306.1333027453423
1103 -306.4327555078548
1104 -306.1334718509486
1105 -306.428265916973
1106 -306.1414517088177
1107 -306.442568718332
1108 -306.1385284207238
1109 -306.4445774905097
1110 -306.137590327386
1111 -306.4427347652986
1112 -306.1504653680433
1113 -306.44685285905
1114 -306.1549771829759
1115 -306.451909892587
1116 -306.1556833678385
1117 -306.450745676353
1118 -306.1641466504148
1119 -306.4579502061169
1120 -306.1681731981773
1121 -306.455828896934
1122 -306.1700491156149
1123 -306.4634560210337
1124 -306.1765419555903
1125 -306.4637581860008
1126 -306.1799677114589
1127 -306.4663423023582
1128 -306.1729720830925
1129 -306.4597398068868
1130 -306.1748564507634
1131 -306.464644341977
1132 -306.1696561275257
1133 -306.4667016801513
1134 -306.170643638051
1135 -306.4755412664903
1136 -306.1770905738176
1137 -306.4734578425312
1138 -306.1757674596864
1139 -306.4802609842564
1140 -306.1700027823641
1141 -306.4857905770419
1142 -306.1819467984937
1143 -306.4926139835012
1144 -306.1798511652788
1145 -306.4911563256147
1146 -306.1810321511264
1147 -306.4918941761033
1148 -306.1870327180696
1149 -306.4946040372895
1150 -306.1800534952218
1151 -306.4972657899775
1152 -306.1863274439231
1153 -306.4992617825561
1154 -306.1945854837315
1155 -306.4988410754845
1156 -306.1936578512995
1157 -306.49960200164
1158 -306.1964525145375
1159 -306.4983000704586
1160 -306.1988930573699
1161 -306.4950571962996
1162 -306.1985892400293
1163 -306.494590030686
1164 -306.1885900104571
1165 -306.4956244400558
1166 -306.1978412911015
1167 -306.5067098796461
1168 -306.2060229793256
1169 -306.4984582411448
1170 -306.2028495353771
1171 -306.5097731790719
1172 -306.2065915063271
1173 -306.5058157807641
1174 -306.2119245540403
1175 -306.5093855318102
1176 -306.2117413424873
1177 -306.5081267668694
1178 -306.2175149355602
1179 -306.5150117344123
1180 -306.2229174273048
1181 -306.5161525937303
1182 -306.2230280543821
1183 -306.5182990099954
1184 -306.2250924122123
1185 -306.5247712996534
1186 -306.2243832988202
1187 -306.5248220157953
1188 -306.2210507963856
1189 -306.5229462298418
1190 -306.2246503857426
1191 -306.5322410532597
1192 -306.2256133660903
1193 -306.533186606812
1194 -306.2231942663136
1195 -306.5269395086251
1196 -306.2247184424681
1197 -306.5265238612569
1198 -306.224794091263
1199 -306.538014747449
1200 -306.2223024079387
1201 -306.5348089766796
1202 -306.2285337712066
1203 -306.539685805399
1204 -306.2277625387664
1205 -306.5422485835072
1206 -306.239973326201
1207 -306.5381105567435
1208 -306.2388423776711
1209 -306.5388014303081
1210 -306.240462708607
1211 -306.5396667250415
1212 -306.2343192197145
1213 -306.5360636812024
1214 -306.2459229656504
1215 -306.5444573446533
1216 -306.2385371074374
1217 -306.5416558455799
1218 -306.2399894698618
1219 -306.558654240732
1220 -306.2430988630364
1221 -306.5547873443033
1222 -306.2458197372737
1223 -306.5565317537349
1224 -306.2443787672657
1225 -306.5551808531278
1226 -306.243466191483
1227 -306.5603021802137
1228 -306.2433491210732
1229 -306.5543925523444
1230 -306.23976117974
1231 -306.5592016042496
1232 -306.2537953494494
1233 -306.5551518485688
1234 -306.2509218400276
1235 -306.5643871405814
1236 -306.2499488115332
1237 -306.5598018761889
1238 -306.2534160433185
1239 -306.5658348461228
1240 -306.2537343537826
1241 -306.564434461506
1242 -306.2496235370055
1243 -306.5624898262261
1244 -306.2576151814701
1245 -306.5637371543268
1246 -306.2562332169761
1247 -306.5626701649704
1248 -306.2509722620065
1249 -306.5645054219526
1250 -306.2588838435985
1251 -306.5703779452662
1252 -306.2576026597529
1253 -306.5609534080811
1254 -306.2581200938469
1255 -306.5604780175092
1256 -306.265880127202
1257 -306.5675700845155
1258 -306.2692004548972
1259 -306.5697625723209
1260 -306.2682605650569
1261 -306.5675642711547
1262 -306.269874455281
1263 -306.5754289211756
1264 -306.2704291413749
1265 -306.5704528601278
1266 -306.2647997220921
1267 -306.5697016618709
1268 -306.2679484046794
1269 -306.582441140131
1270 -306.2751731147891
1271 -306.5798064605458
1272 -306.2717147002551
1273 -306.5816833493704
1274 -306.2763017333405
1275 -306.5793347950452
1276 -306.2795084700691
1277 -306.5806934163779
1278 -306.2878603797562
1279 -306.5768334146671
1280 -306.2903223468257
1281 -306.582034406512
1282 -306.3009549965024
1283 -306.5830536299287
1284 -306.3015884285251
1285 -306.5779928966321
1286 -306.30151530987
1287 -306.585373272046
1288 -306.3030971407821
1289 -306.5864019300411
1290 -306.2937460637736
1291 -306.585524487149
1292 -306.2930741636897
1293 -306.5882895541909
1294 -306.2860808444517
1295 -306.5946348042962
1296 -306.2889468552164
1297 -306.5865747315071
1298 -306.280716105481
1299 -306.6003355070847
1300 -306.2793920398033
1301 -306.5978374159701
1302 -306.2784026993685
1303 -306.5985182499037
1304 -306.2796358285523
1305 -306.5930963568947
1306 -306.2804439038169
1307 -306.5915643394296
1308 -306.2826599199871
1309 -306.5939204851143
1310 -306.2818467150128
1311 -306.5929608237687
1312 -306.2843142430368
1313 -306.5948328396518
1314 -306.288591719317
1315 -306.5923825163757
1316 -306.2856931042652
1317 -306.5943440749331
1318 -306.2946676860471
1319 -306.5955509401675
1320 -306.2951920044787
1321 -306.5907009166792
1322 -306.2972887700821
1323 -306.5976015914046
1324 -306.2987664264409
1325 -306.597126849746
1326 -306.2979750291098
1327 -306.6029654088073
1328 -306.3002068448848
1329 -306.6003040754791
1330 -306.2995414432074
1331 -306.6035463561926
1332 -306.3087929971641
1333 -306.5926629024552
1334 -306.3081643339362
1335 -306.6011599944221
1336 -306.3009163812401
1337 -306.6042345596326
1338 -306.2933123353781
1339 -306.6027654780348
1340 -306.2900646971153
1341 -306.609769048616
1342 -306.2897405032328
1343 -306.6170728391543
1344 -306.297574466214
1345 -306.6125207676591
1346 -306.2946655619714
1347 -306.6167476198751
1348 -306.2885435360623
1349 -306.6140913215916
1350 -306.2955915409479
1351 -306.6206397204829
1352 -306.2988466594657
1353 -306.6156278904908
1354 -306.301003845653
1355 -306.6197900488798
1356 -306.3094855263667
1357 -306.6163086862883
1358 -306.316707855832
1359 -306.6195251796245
1360 -306.3166535246755
1361 -306.6172100018945
1362 -306.3134503869714
1363 -306.6181296650439
1364 -306.3115770590754
1365 -306.6115824996165
1366 -306.3080974953867
1367 -306.6183682531009
1368 -306.3081507225108
1369 -306.6106248195459
1370 -306.3032718748697
1371 -306.6194676961731
1372 -306.3013939377871
1373 -306.6192341137476
1374 -306.3029715822063
1375 -306.6201764660722
1376 -306.3016524423184
1377 -306.6243816325125
1378 -306.2985551308354
1379 -306.6243455220456
1380 -306.3020871605672
1381 -306.6231008131762
1382 -306.3104958693779
1383 -306.6193220642315
1384 -306.3102051013867
1385 -306.6145649618406
1386 -306.3149938537458
1387 -306.6108105695207
1388 -306.3064048206289
1389 -306.6052362907425
1390 -306.3079380274351
1391 -306.6098216051256
1392 -306.3117900157596
1393 -306.6055127391152
1394 -306.3203076299529
1395 -306.6149364951299
1396 -306.3172748640727
1397 -306.6151363095198
1398 -306.3113737605262
1399 -306.6171127892458
1400 -306.3100182497151
1401 -306.6172171054595
1402 -306.3110133064903
1403 -306.6238976759002
1404 -306.3118859858794
1405 -306.6250475654027
1406 -306.3137862310872
1407 -306.6224086756584
1408 -306.3170897094674
1409 -306.618047808339
1410 -306.3239016533302
1411 -306.6170612243623
1412 -306.328937372527
1413 -306.6213857708482
1414 -306.3343833383877
1415 -306.6204809669026
1416 -306.334080521007
1417 -306.621029963422
1418 -306.3440665597917
1419 -306.6212665710845
1420 -306.3334952783309
1421 -306.6186371223657
1422 -306.3344128360908
1423 -306.6231052534897
1424 -306.3301015881609
1425 -306.6292423643397
1426 -306.3287506460402
1427 -306.6392579030085
1428 -306.3303802003128
1429 -306.630435460701
1430 -306.3274555269221
1431 -306.629289409522
1432 -306.3223709458678
1433 -306.6286060246078
1434 -306.318266624688
1435 -306.6277791077528
1436 -306.3245221885859
1437 -306.6279756211832
1438 -306.3252500718853
1439 -306.6282520375013
1440 -306.3217936769606
1441 -306.6264921568545
1442 -306.3273625268027
1443 -306.6265810367179
1444 -306.3275338060363
1445 -306.622335855255
1446 -306.3283434137605
1447 -306.6220416573933
1448 -306.3203433754484
1449 -306.6218879070418
1450 -306.3131164107044
1451 -306.6290003673797
1452 -306.3113171410486
1453 -306.6247685950445
1454 -306.3177112587193
1455 -306.6345543212971
1456 -306.3145901547796
1457 -306.6410483443594
1458 -306.3174526992395
1459 -306.6376246776468
1460 -306.3183975798691
1461 -306.6358841778038
1462 -306.3207722605583
1463 -306.6395045658714
1464 -306.3246057436812
1465 -306.6331175732935
1466 -306.3274313220344
1467 -306.6418202776308
1468 -306.3388150511428
1469 -306.6342741851054
1470 -306.3288585357843
1471 -306.634404633574
1472 -306.3280383626233
1473 -306.6327336804765
1474 -306.3250893355984
1475 -306.6346716152769
1476 -306.3303098733992
1477 -306.6371673973293
1478 -306.3331150722937
1479 -306.6422941636597
1480 -306.3350427195736
1481 -306.6398293267554
1482 -306.3331253640965
1483 -306.6297194851053
1484 -306.3264073314386
1485 -306.6282057363171
1486 -306.3330779427299
1487 -306.628847768101
1488 -306.3255037548582
1489 -306.629654175689
1490 -306.3366708961602
1491 -306.6433840862417
1492 -306.3384740761325
1493 -306.6396615706854
1494 -306.3364742810028
1495 -306.6408745498995
1496 -306.3338296901493
1497 -306.6437294051918
1498 -306.3321054050083
1499 -306.6482322376194
1500 -306.3342286842877
1501 -306.6382940818781
1502 -306.3346254631658
1503 -306.647326550168
1504 -306.340570499626
1505 -306.6472376586509
1506 -306.3315265488641
1507 -306.6468387454211
1508 -306.3227160028389
1509 -306.6374445305283
1510 -306.3236343679297
1511 -306.6372436727106
1512 -306.3256089716542
1513 -306.6281203494204
1514 -306.3337568232484
1515 -306.627324701616
1516 -306.3360366221947
1517 -306.6294513465681
1518 -306.340076144784
1519 -306.6260316454839
1520 -306.3317059856233
1521 -306.6276017935542
1522 -306.3358865967936
1523 -306.6264167248544
1524 -306.3319855115937
1525 -306.6284141514636
1526 -306.335610093112
1527 -306.6427555853289
1528 -306.3431777441297
1529 -306.6437183349802
1530 -306.3422124968736
1531 -306.6450859220089
1532 -306.3435692169651
1533 -306.6427658869246
1534 -306.3386311871623
1535 -306.6474872829637
1536 -306.3348685024527
1537 -306.6442160456789
1538 -306.3399581390275
1539 -306.6494385481562
1540 -306.3437743666555
1541 -306.6439167263169
1542 -306.3517319482585
1543 -306.6345372011315
1544 -306.3473690796607
1545 -306.6335816794294
1546 -306.3399650219928
1547 -306.6357288168617
1548 -306.3398971451861
1549 -306.6330482377169
1550 -306.3451221057049
1551 -306.6333457465112
1552 -306.348794410587
1553 -306.6328551347257
1554 -306.346964804151
1555 -306.6322134439424
1556 -306.3411191200244
1557 -306.6370482468359
1558 -306.3425559463032
1559 -306.6395596786728
1560 -306.3405391719602
1561 -306.6333035411108
1562 -306.3452709831876
1563 -306.6329530767059
1564 -306.3464469203166
1565 -306.6310011034661
1566 -306.3480007340662
1567 -306.6295444032185
1568 -306.3451913628411
1569 -306.6293175700841
1570 -306.33996575624
1571 -306.632438378572
1572 -306.335022921843
1573 -306.6278153153401
1574 -306.3382901570531
1575 -306.6389961781845
1576 -306.3363701883097
1577 -306.6422294593157
1578 -306.3387851116848
1579 -306.6350508606123
1580 -306.3374751725141
1581 -306.6399480238093
1582 -306.3328868039667
1583 -306.6543576785922
1584 -306.33668907393
1585 -306.64521522877
1586 -306.3325442344355
1587 -306.6474436358359
1588 -306.3271025121666
1589 -306.6426258081089
1590 -306.3306652618032
1591 -306.6429448049591
1592 -306.334754547848
1593 -306.6434278550435
1594 -306.3369382782898
1595 -306.6431282218004
1596 -306.3400738909958
1597 -306.6367889167794
1598 -306.3436114739014
1599 -306.6450573373804
1600 -306.3453866735167
1601 -306.637205366227
1602 -306.3394285507494
1603 -306.6475288506385
1604 -306.3399110108757
1605 -306.6449131505599
1606 -306.3342344840212
1607 -306.6516758035733
1608 -306.3280835533859
1609 -306.6444186390686
1610 -306.3382321930991
1611 -306.6497998042157
1612 -306.3396352020247
1613 -306.654677907819
1614 -306.3405446406699
1615 -306.6541491586681
1616 -306.3443868841879
1617 -306.6507085614225
1618 -306.3467844940265
1619 -306.6516525261318
1620 -306.3464372696971
1621 -306.6441578853533
1622 -306.3511056137841
1623 -306.6457512656031
1624 -306.34841860879
1625 -306.6421991747125
1626 -306.350903163067
1627 -306.6494883072655
1628 -306.3602615867148
1629 -306.6427974128978
1630 -306.3526865738083
1631 -306.6465507183036
1632 -306.3439031933402
1633 -306.6423038846561
1634 -306.3417447536159
1635 -306.6524738389266
1636 -306.3458539836705
1637 -306.6481053696309
1638 -306.3529673020117
1639 -306.6561567680113
1640 -306.347000489503
1641 -306.6460619509262
1642 -306.339252117124
1643 -306.6478728735549
1644 -306.3337284673113
1645 -306.6363379823926
1646 -306.343797579966
1647 -306.6471451780089
1648 -306.3480124284497
1649 -306.6480285591135
1650 -306.3438588910904
1651 -306.6464335934742
1652 -306.3471602546125
1653 -306.6479990445188
1654 -306.3458954865046
1655 -306.6500750531878
1656 -306.3384855511992
1657 -306.6453978243504
1658 -306.3402340557745
1659 -306.6486441277378
1660 -306.3307640289719
1661 -306.6493724029772
1662 -306.3430616512073
1663 -306.6494448448058
1664 -306.3437295016117
1665 -306.6508077633724
1666 -306.3448323384707
1667 -306.6471272548169
1668 -306.3381849882782
1669 -306.6378688728537
1670 -306.333052294834
1671 -306.6460528283081
1672 -306.3376283671661
1673 -306.6417222391351
1674 -306.3409687508287
1675 -306.6471059719633
1676 -306.3432574413746
1677 -306.6492899633738
1678 -306.3532596335949
1679 -306.6492838720885
1680 -306.3460320629537
1681 -306.6431885940084
1682 -306.3423840627595
1683 -306.6561235389993
1684 -306.3480532295658
1685 -306.6512870123566
1686 -306.352796471382
1687 -306.6474675155525
1688 -306.3465985215973
1689 -306.6477074406501
1690 -306.3528755614947
1691 -306.6485530567682
1692 -306.3468122318757
1693 -306.6423941307986
1694 -306.3481380756332
1695 -306.650496927882
1696 -306.3524590683554
1697 -306.6442013052747
1698 -306.3567256828375
1699 -306.6439006040607
1700 -306.3525856630065
1701 -306.6380434555032
1702 -306.3515832765675
1703 -306.6393483483313
1704 -306.3507379590203
1705 -306.6338073452102
1706 -306.344517434065
1707 -306.6464040831775
1708 -306.3471578697818
1709 -306.6383209520416
1710 -306.3418233487602
1711 -306.6453730212331
1712 -306.3404479094438
1713 -306.6420097893036
1714 -306.339372547038
1715 -306.650600959085
1716 -306.3448513432429
1717 -306.6439127042884
1718 -306.3357466491614
1719 -306.6482731749991
1720 -306.346000407722
1721 -306.6474052443464
1722 -306.348832042452
1723 -306.6424513770892
1724 -306.3474283659125
1725 -306.6432859118212
1726 -306.3590942368182
1727 -306.6440994973863
1728 -306.3586380583222
1729 -306.6378660280237
1730 -306.3539879668538
1731 -306.6404510625118
1732 -306.3558560752745
1733 -306.6333421865738
1734 -306.3545842285448
1735 -306.6393320056906
1736 -306.3588415764786
1737 -306.6403669194023
1738 -306.3533808737315
1739 -306.6440112252876
1740 -306.3466148627497
1741 -306.6370109737505
1742 -306.3435963442169
1743 -306.6420903598578
1744 -306.3328357330089
1745 -306.6471119621997
1746 -306.3482514547038
1747 -306.6488646698558
1748 -306.3483964453043
1749 -306.6500913485582
1750 -306.3434760181211
1751 -306.6571102952819
1752 -306.3430229290324
1753 -306.6467816835477
1754 -306.3394160473421
1755 -306.6558893789854
1756 -306.3417187586733
1757 -306.6513275425584
1758 -306.3458864774435
1759 -306.6526877703412
1760 -306.3425609621986
1761 -306.6521053684419
1762 -306.3472022198308
1763 -306.6598139010672
1764 -306.3512365272263
1765 -306.6505006765289
1766 -306.3440832496204
1767 -306.654237500376
1768 -306.3457613121521
1769 -306.6532627766272
1770 -306.3457730536948
1771 -306.6531617589445
1772 -306.3457474849477
1773 -306.6529150699847
1774 -306.3554204143038
1775 -306.6591507397833
1776 -306.3563171933258
1777 -306.6510502970799
1778 -306.3513508034852
1779 -306.6550302951462
1780 -306.3441535387537
1781 -306.6564283609272
1782 -306.3563325777121
1783 -306.6597125204075
1784 -306.3597692310653
1785 -306.6576103534962
1786 -306.3574869984985
1787 -306.6541964642937
1788 -306.3519362010409
1789 -306.6447910287636
1790 -306.3463677106677
1791 -306.6449593546371
1792 -306.3409304417853
1793 -306.6500378373057
1794 -306.3451393352794
1795 -306.6454081509323
1796 -306.3468723530886
1797 -306.6479200548363
1798 -306.3455618950008
1799 -306.6500092373965
1800 -306.3507697783115
1801 -306.6415146321706
1802 -306.3491061399644
1803 -306.6444380791964
1804 -306.3545467274726
1805 -306.6434551092072
1806 -306.3481548220494
1807 -306.6429696591625
1808 -306.3467025539563
1809 -306.6469464043561
1810 -306.3453934783083
1811 -306.6490491680547
1812 -306.341998476639
1813 -306.6547988362171
1814 -306.3491109481521
1815 -306.6444541428046
1816 -306.3381458575794
1817 -306.6513258172218
1818 -306.3443354138855
1819 -306.6558372876868
1820 -306.3419904261025
1821 -306.6571244941895
1822 -306.3459229952132
1823 -306.6560661774398
1824 -306.3433539401535
1825 -306.6511408459641
1826 -306.3534240339171
1827 -306.654482081331
1828 -306.3456526968458
1829 -306.6499336595443
1830 -306.349516405453
1831 -306.6538081734172
1832 -306.353015619425
1833 -306.6531692405572
1834 -306.3513673345568
1835 -306.6575808149445
1836 -306.3527230212857
1837 -306.6544418855764
1838 -306.3454887995813
1839 -306.6614840413465
1840 -306.3442964053779
1841 -306.6574348838096
1842 -306.3434494523391
1843 -306.6656105903592
1844 -306.3461145997985
1845 -306.66132604363
1846 -306.3434483581738
1847 -306.6672136756225
1848 -306.3381346793076
1849 -306.6570794149182
1850 -306.3402558415178
1851 -306.6613188153558
1852 -306.3436740348235
1853 -306.6551135175099
1854 -306.3500888238751
1855 -306.6540510250006
1856 -306.3521149886051
1857 -306.6467505824358
1858 -306.3507715719965
1859 -306.6463411344386
1860 -306.3443756942413
1861 -306.6459303160814
1862 -306.3564323835969
1863 -306.6523206860143
1864 -306.3563807795361
1865 -306.6424932122361
1866 -306.3525571699494
1867 -306.6413733888706
1868 -306.3478911063313
1869 -306.6430486761532
1870 -306.3515788947299
1871 -306.6467403729287
1872 -306.3481191664243
1873 -306.6487998061703
1874 -306.3539811742892
1875 -306.6487889361426
1876 -306.3508648698528
1877 -306.6398931111345
1878 -306.351362200539
1879 -306.639404706246
1880 -306.34745915868
1881 -306.6481848625414
1882 -306.3555968647103
1883 -306.6477419782664
1884 -306.3597974545345
1885 -306.6462610149835
1886 -306.360128906031
1887 -306.6443287321838
1888 -306.3592341489492
1889 -306.6374809870029
1890 -306.3558678541872
1891 -306.6421732815049
1892 -306.3547954605139
1893 -306.6469474044722
1894 -306.3571378279285
1895 -306.6548211506841
1896 -306.3517362372775
1897 -306.6526519435886
1898 -306.363441249585
1899 -306.6583248507905
1900 -306.3558539322388
1901 -306.65464744022
1902 -306.3534598157389
1903 -306.6592756482872
1904 -306.3561636629516
1905 -306.6608245016832
1906 -306.3581983971738
1907 -306.6631845985045
1908 -306.3559313455684
1909 -306.6547346196645
1910 -306.354089174206
1911 -306.6650554072001
1912 -306.3525894613733
1913 -306.6490203065626
1914 -306.34587889216
1915 -306.648557595914
1916 -306.3417712677576
1917 -306.6481522780194
1918 -306.3427472778989
1919 -306.6546095237326
1920 -306.3447294967601
1921 -306.6492663334957
1922 -306.3427948937152
1923 -306.6488825236401
1924 -306.3419915165718
1925 -306.6428592105615
1926 -306.3443313260747
1927 -306.6471885229691
1928 -306.3441203303713
1929 -306.6486458001295
1930 -306.3457045545387
1931 -306.6492669128653
1932 -306.3566508853154
1933 -306.6404761294322
1934 -306.3597242669043
1935 -306.6458749659041
1936 -306.361756920569
1937 -306.6429033434736
1938 -306.3589143326872
1939 -306.6433903219789
1940 -306.3497909696049
1941 -306.64191846332
1942 -306.3573378689793
1943 -306.6448713896585
1944 -306.3502686871966
1945 -306.647348095485
1946 -306.3509823024038
1947 -306.6478665869574
1948 -306.3405244704324
1949 -306.6511159643766
1950 -306.3475855358332
1951 -306.6558285611178
1952 -306.3506566250274
1953 -306.6578426522595
1954 -306.3466973466254
1955 -306.6574920881427
1956 -306.3481144974609
1957 -306.6508427454975
1958 -306.3548517003617
1959 -306.6509048908825
1960 -306.3507825734412
1961 -306.6486637621635
1962 -306.361522065167
1963 -306.6439259093849
1964 -306.3522831276727
1965 -306.6474158916918
1966 -306.357478202699
1967 -306.6545636486093
1968 -306.3586017813207
1969 -306.6494992602338
1970 -306.3552596835148
1971 -306.6529170887706
1972 -306.3548288972922
1973 -306.6533697703574
1974 -306.3518208122679
1975 -306.65746174515
1976 -306.3486544988946
1977 -306.6562108405953
1978 -306.3447169091083
1979 -306.6646080137157
1980 -306.3437604589625
1981 -306.6565477816242
1982 -306.3511273196721
1983 -306.6579376431356
1984 -306.3440449432262
1985 -306.656356301478
1986 -306.3532557940462
1987 -306.657860794165
1988 -306.3533011516461
1989 -306.6535065434063
1990 -306.3513015839559
1991 -306.6544909184527
1992 -306.3494201583512
1993 -306.6440200435813
1994 -306.3455105253346
1995 -306.6568329723081
1996 -306.3392902249965
1997 -306.6505798565274
1998 -306.3439931664544
1999 -306.6554409920718
2000 -306.3376403111258
2001 -306.6510496936137
2002 -306.3406991155442
2003 -306.6616518706042
2004 -306.3449922447541
2005 -306.6521873048588
2006 -306.3526289675613
2007 -306.6614035286693
2008 -306.3530562683254
2009 -306.6564873617592
2010 -306.3557591097289
2011 -306.6559942248844
2012 -306.3514955029899
2013 -306.6559727176343
2014 -306.3520042318281
2015 -306.6557497548084
2016 -306.345258104164
2017 -306.6533894711616
2018 -306.3527195110936
2019 -306.6562616802597
2020 -306.3452303793482
2021 -306.6522475514255
2022 -306.3495755367446
2023 -306.6555305601963
2024 -306.3505228051059
2025 -306.6568006354327
2026 -306.3475821857504
2027 -306.6591341362956
2028 -306.3396702526974
2029 -306.6616379886685
2030 -306.348592032711
2031 -306.6598422096147
2032 -306.3472120467516
2033 -306.6526208894352
2034 -306.3476368977054
2035 -306.6523921540849
2036 -306.3483133234582
2037 -306.6496600475149
2038 -306.3547502042363
2039 -306.6549725289885
2040 -306.3524909490128
2041 -306.6487232981241
2042 -306.3573004559452
2043 -306.651128061124
2044 -306.3584852397661
2045 -306.6501727531371
2046 -306.3585255586864
2047 -306.6582327767418
2048 -306.3701479757911
2049 -306.6520659745916
2050 -306.3592669986722
2051 -306.6597854112518
2052 -306.3557931661095
2053 -306.6530086835213
2054 -306.3595220827099
2055 -306.6625907936235
2056 -306.3570426573355
2057 -306.6623635231117
2058 -306.3611609292674
2059 -306.6522656896195
2060 -306.3658552472507
2061 -306.6526934308226
2062 -306.3597512505624
2063 -306.6584980412607
2064 -306.352344169
2065 -306.6479871065643
2066 -306.3508774625532
2067 -306.6530165130417
2068 -306.3551960706182
2069 -306.6458767095584
2070 -306.3530221763232
2071 -306.6465310175669
2072 -306.3522984844274
2073 -306.650598137092
2074 -306.3535276691564
2075 -306.6515163505464
2076 -306.3537610340364
2077 -306.6485673149083
2078 -306.3505661593522
2079 -306.6630544481132
2080 -306.3473965421498
2081 -306.6587033230183
2082 -306.3522086745177
2083 -306.6586414649585
2084 -306.3481472857252
2085 -306.6621878180208
2086 -306.3529582476402
2087 -306.6607315665101
2088 -306.3568369272737
2089 -306.6552827451782
2090 -306.3593141316032
2091 -306.6561226028742
2092 -306.3572363006227
2093 -306.6512732099391
2094 -306.3564798306668
2095 -306.6470030991132
2096 -306.3511310221755
2097 -306.6464155156171
2098 -306.3516391119723
2099 -306.6484648999794
2100 -306.3455489578197
2101 -306.6370526593718
2102 -306.3471948975351
2103 -306.6447177965306
2104 -306.347147805004
2105 -306.6494843259541
2106 -306.3532189015746
2107 -306.6544618117126
2108 -306.35664498852
2109 -306.6566814535681
2110 -306.359244757977
2111 -306.6530748484584
2112 -306.3539799490621
2113 -306.6497619623693
2114 -306.3498537894386
2115 -306.6596732825576
2116 -306.35169916397
2117 -306.6493326507756
2118 -306.3503863085355
2119 -306.6538890048533
2120 -306.3559479632763
2121 -306.6491301544099
2122 -306.3564558913631
2123 -306.6508065553534
2124 -306.3565647994931
2125 -306.6486944100939
2126 -306.3536057522239
2127 -306.6576455082607
2128 -306.3514528992954
2129 -306.6561506834162
2130 -306.3478660628504
2131 -306.6545960406961
2132 -306.3478137481004
2133 -306.6552392327405
2134 -306.3443768641555
2135 -306.6566617142938
2136 -306.3440724028798
2137 -306.6536602908176
2138 -306.3414886545352
2139 -306.6607179238608
2140 -306.3522483903104
2141 -306.6643119932281
2142 -306.3562323501873
2143 -306.6608086510022
2144 -306.3568714624831
2145 -306.6514489438024
2146 -306.3501375405095
2147 -306.6555565347275
2148 -306.3503800332142
2149 -306.6467944358053
2150 -306.3452137098238
2151 -306.6544305925849
2152 -306.33828629963
2153 -306.6635168733395
2154 -306.3451041544128
2155 -306.6559378758606
2156 -306.3425551341143
2157 -306.6543202265732
2158 -306.3378906028178
2159 -306.6571970125959
2160 -306.3401613735562
2161 -306.6514351579661
2162 -306.3413834221438
2163 -306.6577524827434
2164 -306.3379462512381
2165 -306.6559276178735
2166 -306.3507568879963
2167 -306.6490265703893
2168 -306.3519355564015
2169 -306.6543947331429
2170 -306.3614219840648
2171 -306.6578063608075
2172 -306.3605496855
2173 -306.6451970473467
2174 -306.3566946467793
2175 -306.6520720945148
2176 -306.3565082392066
2177 -306.6535975077859
2178 -306.3606257849705
2179 -306.6492650430701
2180 -306.3530730236649
2181 -306.6446904665742
2182 -306.3459798122125
2183 -306.6526291376642
2184 -306.3458102010578
2185 -306.6478406625212
2186 -306.3392952228878
2187 -306.6561937960274
2188 -306.3456289902428
2189 -306.6519971072615
2190 -306.34911377271
2191 -306.6481034894286
2192 -306.351065817821
2193 -306.6536522604605
2194 -306.3479204411389
2195 -306.6529356687969
2196 -306.3494500765612
2197 -306.648535118662
2198 -306.3498949777874
2199 -306.6452932818646
2200 -306.3495312724191
2201 -306.6431212004747
2202 -306.3606151580407
2203 -306.6457981194158
2204 -306.3616034318596
2205 -306.6502483002264
2206 -306.3582842649799
2207 -306.6487184271543
2208 -306.3597399298348
2209 -306.6397408980133
2210 -306.3543546525602
2211 -306.6474236389651
2212 -306.3520530151624
2213 -306.6421704802265
2214 -306.3518147270703
2215 -306.6478238688226
2216 -306.3546146637725
2217 -306.6443967502362
2218 -306.3508084811599
2219 -306.6495659876741
2220 -306.3425344889541
2221 -306.6471433745697
2222 -306.3484941000295
2223 -306.6491457314283
2224 -306.346645484279
2225 -306.6542346812703
2226 -306.3469507571109
2227 -306.6529921820824
2228 -306.35515744646
2229 -306.6547971577223
2230 -306.3533514563404
2231 -306.6582763409007
2232 -306.3515302020127
2233 -306.6505289659916
2234 -306.352362848422
2235 -306.6549140755245
2236 -306.349997814318
2237 -306.6505454139411
2238 -306.354713229647
2239 -306.6579949643341
2240 -306.3549066816325
2241 -306.6605050953028
2242 -306.3618599752554
2243 -306.6611729428567
2244 -306.363658668804
2245 -306.6505840642924
2246 -306.3616087523312
2247 -306.6542381521969
2248 -306.3537344240108
2249 -306.6490620736364
2250 -306.3530767020156
2251 -306.6520430638081
2252 -306.3509285698307
2253 -306.6514955465312
2254 -306.3522084563838
2255 -306.6552170722
2256 -306.344809041338
2257 -306.6477808281452
2258 -306.3467606316364
2259 -306.6543582673263
2260 -306.340757467298
2261 -306.6503582280115
2262 -306.3376759231534
2263 -306.6529213136172
2264 -306.3450983364859
2265 -306.6507338358501
2266 -306.3476533729151
2267 -306.6573004720195
2268 -306.3453052480784
2269 -306.6500128548736
2270 -306.3502591520424
2271 -306.6501154050684
2272 -306.3508537507871
2273 -306.6498084668253
2274 -306.3531435156999
2275 -306.6543087487363
2276 -306.3662585161408
2277 -306.6645110529931
2278 -306.3731039087233
2279 -306.6661084914548
2280 -306.3674626610838
2281 -306.6551450300123
2282 -306.3626739430658
2283 -306.6550304882781
2284 -306.3574244798007
2285 -306.6548794443491
2286 -306.3647696327217
2287 -306.6534900846997
2288 -306.3568408501922
2289 -306.6591252050691
2290 -306.3583478357651
2291 -306.658896618687
2292 -306.3516118512559
2293 -306.6521248207238
2294 -306.3527166626217
2295 -306.6523240478726
2296 -306.3485387014243
2297 -306.6516485449064
2298 -306.3522839488231
2299 -306.6439273482767
2300 -306.349331226969
2301 -306.644059020647
2302 -306.3629317812025
2303 -306.6430172488684
2304 -306.3516860167175
2305 -306.6395991267862
2306 -306.351868921166
2307 -306.6487681698645
2308 -306.3482546595702
2309 -306.6448825923532
2310 -306.3467079839157
2311 -306.6498194000412
2312 -306.3468569804355
2313 -306.6588203471049
2314 -306.3467799868689
2315 -306.6606512735135
2316 -306.3417683319362
2317 -306.6588723844253
2318 -306.3390368533488
2319 -306.6627430429331
2320 -306.3371849028978
2321 -306.6623499762125
2322 -306.3406607206953
2323 -306.6656619675352
2324 -306.3433350026437
2325 -306.6676801117592
2326 -306.3543950090112
2327 -306.6675268177779
2328 -306.3537382802395
2329 -306.6536321977861
2330 -306.3481976520972
2331 -306.6559985759777
2332 -306.3478499253084
2333 -306.6519590474304
2334 -306.3472046927332
2335 -306.6481895585306
2336 -306.3430055334875
2337 -306.6452608247029
2338 -306.3550391688449
2339 -306.6472087088932
2340 -306.3481699517559
2341 -306.6428858097463
2342 -306.3468175432675
2343 -306.6443637708779
2344 -306.3445257262818
2345 -306.6399087900193
2346 -306.3525398357444
2347 -306.6422860172572
2348 -306.3569333010227
2349 -306.6483849399327
2350 -306.3577663472122
2351 -306.6555179363409
2352 -306.3531825272438
2353 -306.6466906903291
2354 -306.3499185074278
2355 -306.6456871790919
2356 -306.3468224968872
2357 -306.6487480286995
2358 -306.3571306830379
2359 -306.6512677424405
2360 -306.3665469731397
2361 -306.6515375698378
2362 -306.3605849169064
2363 -306.6594608577291
2364 -306.3558195430636
2365 -306.649136593967
2366 -306.3550733325914
2367 -306.6547325150826
2368 -306.3512064975665
2369 -306.6480956945048
2370 -306.3534013732908
2371 -306.6503423524667
2372 -306.3531201611743
2373 -306.6504036257691
2374 -306.3622467763226
2375 -306.6594553158241
2376 -306.3600693380802
2377 -306.6539714754082
2378 -306.3662287859286
2379 -306.6542509135627
2380 -306.3579889923178
2381 -306.6562333473786
2382 -306.357235985502
2383 -306.653594448314
2384 -306.3614691412299
2385 -306.6565166875833
2386 -306.3543715165852
2387 -306.6695717168599
2388 -306.3586275419943
2389 -306.6583296932372
2390 -306.3514065864929
2391 -306.6626955633957
2392 -306.3471855978365
2393 -306.6569341492866
2394 -306.3476413444776
2395 -306.6583881063953
2396 -306.3524346042601
2397 -306.6617945119164
2398 -306.3530774573038
2399 -306.6619761501826
2400 -306.3537948952822
2401 -306.650804376488
2402 -306.3527874222061
2403 -306.6544949096544
2404 -306.3469716873647
2405 -306.6453932068494
2406 -306.3530995863213
2407 -306.6447887284217
2408 -306.3561177843619
2409 -306.6464739619317
2410 -306.3561111685049
2411 -306.6529486697419
2412 -306.3534209040232
2413 -306.6486482405523
2414 -306.3528657461943
2415 -306.6522734691982
2416 -306.347457628664
2417 -306.6519758699619
2418 -306.3428844604221
2419 -306.6484563694735
2420 -306.3411592394673
2421 -306.6496342274131
2422 -306.3456222388265
2423 -306.6579833319001
2424 -306.3449560019034
2425 -306.655277678261
2426 -306.3494652300128
2427 -306.6587251264471
2428 -306.3498348390843
2429 -306.6610716138849
2430 -306.3496162788934
2431 -306.6615946494171
2432 -306.3573387223922
2433 -306.6558789484193
2434 -306.3554866169379
2435 -306.6619592147208
2436 -306.3528577261426
2437 -306.654265153345
2438 -306.3597942599646
2439 -306.6599821296588
2440 -306.3543666850515
2441 -306.657581408259
2442 -306.3538628022043
2443 -306.6640773984284
2444 -306.3582963191508
2445 -306.6596902260814
2446 -306.357163269661
2447 -306.6632322525247
2448 -306.3566028527284
2449 -306.6561519095505
2450 -306.3533966756595
2451 -306.6602191757282
2452 -306.3477297446235
2453 -306.6515738544408
2454 -306.3420423270487
2455 -306.6544887075698
2456 -306.3439813741932
2457 -306.6504969611548
2458 -306.3481919417677
2459 -306.6541221679715
2460 -306.3482089683194
2461 -306.6514734834538
2462 -306.3618340373038
2463 -306.6518638056841
2464 -306.3567609001034
2465 -306.6507370260492
2466 -306.352010671055
2467 -306.6498674121942
2468 -306.3517153481421
2469 -306.64961216545
2470 -306.3583555522706
2471 -306.6564333107646
2472 -306.3516710846477
2473 -306.6487926683536
2474 -306.3623295486812
2475 -306.6554868283555
2476 -306.3589483251125
2477 -306.6535027306736
2478 -306.3638853705854
2479 -306.6434978494893
2480 -306.3555094417211
2481 -306.6430364408905
2482 -306.3555172004075
2483 -306.6480762750252
2484 -306.3517987234437
2485 -306.6414302796321
2486 -306.3553714789575
2487 -306.6481372016325
2488 -306.3532162805672
2489 -306.6518184795409
2490 -306.3511075691185
2491 -306.6458380713537
2492 -306.3551198444035
2493 -306.6502582299252
2494 -306.352258454049
2495 -306.6511421463314
2496 -306.3481167475738
2497 -306.6549597738651
2498 -306.3544173063936
2499 -306.6629043234781
2500 -306.3641392372649
2501 -306.6513517685191
2502 -306.3605080297742
2503 -306.6538011044907
2504 -306.3567080721772
2505 -306.6515667434374
2506 -306.3616242926113
2507 -306.6598413661704
2508 -306.3558027591781
2509 -306.6493502879286
2510 -306.3612395149693
2511 -306.6595123552453
2512 -306.3653715773197
2513 -306.651528436216
2514 -306.3577833965802
2515 -306.6512322194082
2516 -306.3531700755229
2517 -306.6534487507817
2518 -306.3561743938435
2519 -306.6599594872895
2520 -306.3489235437729
2521 -306.6518158431285
2522 -306.3508994865076
2523 -306.6586556009436
2524 -306.3518028639544
2525 -306.6562318566497
2526 -306.3519587253957
2527 -306.6676521970892
2528 -306.3603311636701
2529 -306.6611952702368
2530 -306.3626685913384
2531 -306.6651664124377
2532 -306.3593333058656
2533 -306.6588578902272
2534 -306.3568936005274
2535 -306.6618112383559
2536 -306.356542793297
2537 -306.6594905082757
2538 -306.3571171316882
2539 -306.6597193401931
2540 -306.3581695453387
2541 -306.6539016067492
2542 -306.359467676586
2543 -306.6614497339696
2544 -306.348334940852
2545 -306.6547445920825
2546 -306.3493235762867
2547 -306.6634239577772
2548 -306.3461689223093
2549 -306.6541001604519
2550 -306.3451219916237
2551 -306.6545384468576
2552 -306.3452246971278
2553 -306.6567569976125
2554 -306.3401170085075
2555 -306.6576247520054
2556 -306.3415952408762
2557 -306.6533872641315
2558 -306.3510771598811
2559 -306.662043384266
2560 -306.3500094254096
2561 -306.6560585564795
2562 -306.3470622537618
2563 -306.6534953546967
2564 -306.346994589154
2565 -306.6536693253774
2566 -306.3518439062499
2567 -306.6658714332923
2568 -306.3588066290661
2569 -306.6509149974034
2570 -306.3574998976424
2571 -306.6541102239272
2572 -306.3523887500461
2573 -306.6516715042855
2574 -306.3540114898433
2575 -306.6501862298144
2576 -306.3584966327816
2577 -306.6455612778803
2578 -306.3564593293657
2579 -306.655771054087
2580 -306.3578851446622
2581 -306.6471976414367
2582 -306.3629898205858
2583 -306.6532580578428
2584 -306.3632976993173
2585 -306.6546977549925
2586 -306.3602796705754
2587 -306.6479308225395
2588 -306.3533692940781
2589 -306.6503412440744
2590 -306.3563849098965
2591 -306.6515258326248
2592 -306.3528881093869
2593 -306.649673717091
2594 -306.3495643166148
2595 -306.6573058925649
2596 -306.3528018222677
2597 -306.658494739635
2598 -306.3577282973313
2599 -306.6576487959964
2600 -306.3503748235829
2601 -306.6614196157972
2602 -306.3493278492405
2603 -306.6598281767631
2604 -306.3390058269293
2605 -306.651906301273
2606 -306.3411818572354
2607 -306.6569126544385
2608 -306.3447499728438
2609 -306.6496178237245
2610 -306.3453031672935
2611 -306.654876322049
2612 -306.3514740598147
2613 -306.6519759551731
2614 -306.353193849805
2615 -306.6499702003794
2616 -306.3496037592998
2617 -306.6468746539861
2618 -306.3576487206071
2619 -306.6540399345284
2620 -306.3572160954881
2621 -306.6540656589082
2622 -306.3589667744283
2623 -306.6524863837294
2624 -306.3531275221163
2625 -306.6440589268499
2626 -306.3475233270738
2627 -306.6432003454514
2628 -306.3370412798024
2629 -306.6445627822334
2630 -306.3437185427244
2631 -306.6487357938725
2632 -306.3443344025188
2633 -306.6550025008784
2634 -306.3537836714538
2635 -306.6501747695256
2636 -306.3548151332088
2637 -306.6462684148066
2638 -306.3553480541095
2639 -306.6514446664977
2640 -306.3491264899226
2641 -306.6479838284222
2642 -306.351718304359
2643 -306.6506860852653
2644 -306.3474863565783
2645 -306.6487212311948
2646 -306.3579181836913
2647 -306.6621845152836
2648 -306.3602795502413
2649 -306.6567434488717
2650 -306.3585126889334
2651 -306.6608684336388
2652 -306.3552863461724
2653 -306.651523542435
2654 -306.3550258478821
2655 -306.6504256952094
2656 -306.3513380962768
2657 -306.6528254207243
2658 -306.3547818350161
2659 -306.6523328677904
2660 -306.3541230061537
2661 -306.6467121151814
2662 -306.3512798415053
2663 -306.6523387565841
2664 -306.3497159865006
2665 -306.6463232958081
2666 -306.349479220481
2667 -306.6556206056351
2668 -306.357956171651
2669 -306.656201158174
2670 -306.3564710758128
2671 -306.6547707433712
2672 -306.3576824412396
2673 -306.6586375562018
2674 -306.3571251491335
2675 -306.6630123055202
2676 -306.3567122159051
2677 -306.6575775916182
2678 -306.35557421162
2679 -306.6612614683389
2680 -306.352803890214
2681 -306.656888566544
2682 -306.3583935414981
2683 -306.6632359176385
2684 -306.3643202160698
2685 -306.6586158003249
2686 -306.3554097172972
2687 -306.6617336740053
2688 -306.3527654941468
2689 -306.6522666014214
2690 -306.348468988822
2691 -306.6618475444964
2692 -306.3487256960703
2693 -306.6466153541962
2694 -306.3495943579521
2695 -306.6556960955792
2696 -306.3480083887921
2697 -306.6575876733977
2698 -306.3493635168758
2699 -306.654023591726
2700 -306.3503612030689
2701 -306.6529227030993
2702 -306.3486376036531
2703 -306.6552062678474
2704 -306.3516406353489
2705 -306.6536279439299
2706 -306.3501366236963
2707 -306.6492400362894
2708 -306.3558304484333
2709 -306.6445249852687
2710 -306.3627838938699
2711 -306.6422610854882
2712 -306.3589618424587
2713 -306.6386741371622
2714 -306.3572941971517
2715 -306.642200311758
2716 -306.3571648020873
2717 -306.6435122428783
2718 -306.3672743849725
2719 -306.6416078401109
2720 -306.363016505098
2721 -306.6379918952314
2722 -306.3514805601607
2723 -306.6411468172229
2724 -306.3487602884496
2725 -306.6352719582019
2726 -306.3473814543714
2727 -306.6526953832609
2728 -306.3474832485539
2729 -306.6441975682785
2730 -306.3444485146963
2731 -306.6540046648764
2732 -306.342227084174
2733 -306.6517969287549
2734 -306.3479775003747
2735 -306.6536175871641
2736 -306.3431136602154
2737 -306.6510572781804
2738 -306.3415215806154
2739 -306.653832736802
2740 -306.3471045829909
2741 -306.6466459782927
2742 -306.3425995348857
2743 -306.6488705300826
2744 -306.3479647762623
2745 -306.6436478793246
2746 -306.3516075838326
2747 -306.6467195723225
2748 -306.3520016522534
2749 -306.6414995126469
2750 -306.3575578621906
2751 -306.652478337772
2752 -306.3601347658031
2753 -306.6554183829616
2754 -306.3584709007599
2755 -306.6582792789471
2756 -306.3594167290439
2757 -306.6524510982941
2758 -306.3532989803717
2759 -306.6607855705214
2760 -306.3590017972253
2761 -306.6506183772107
2762 -306.3530054313318
2763 -306.6537013448438
2764 -306.3450956287358
2765 -306.6623358850387
2766 -306.3411965513627
2767 -306.6634313254293
2768 -306.3504433298571
2769 -306.6641261984445
2770 -306.3514935993913
2771 -306.6614615066741
2772 -306.3528654259185
2773 -306.6508913996856
2774 -306.3483843614512
2775 -306.6584332288551
2776 -306.3436220656527
2777 -306.6546284080079
2778 -306.3495690659544
2779 -306.6581229224691
2780 -306.3513876733679
2781 -306.6531125373398
2782 -306.3589334524491
2783 -306.6580081406068
2784 -306.355468845835
2785 -306.6512317746202
2786 -306.3519706486825
2787 -306.6610233623315
2788 -306.3520614550098
2789 -306.6581914277097
2790 -306.3483689243794
2791 -306.6560247262436
2792 -306.3489370602828
2793 -306.6540349765482
2794 -306.3496807929921
2795 -306.6577870531414
2796 -306.3455374538971
2797 -306.6540610775373
2798 -306.3474837639711
2799 -306.6624048958678
2800 -306.3453352290157
2801 -306.6598196015473
2802 -306.3517487633871
2803 -306.6552653287378
2804 -306.3494518380913
2805 -306.6572255756112
2806 -306.3508942417899
2807 -306.658772344628
2808 -306.3540093756978
2809 -306.6517392951168
2810 -306.3469345291708
2811 -306.6481851419525
2812 -306.3477449672027
2813 -306.6402593167397
2814 -306.3459388221037
2815 -306.6448051312139
2816 -306.3531140348076
2817 -306.6470251156192
2818 -306.3592661068592
2819 -306.6481279653197
2820 -306.3564154888995
2821 -306.6397757082081
2822 -306.3615781530369
2823 -306.6499798748143
2824 -306.3615360460461
2825 -306.6454442752283
2826 -306.3543578778015
2827 -306.6498471671491
2828 -306.3569212579846
2829 -306.6535032745825
2830 -306.3551858872254
2831 -306.6585954007526
2832 -306.35475640864
2833 -306.6598697765666
2834 -306.3533065512278
2835 -306.6606652107922
2836 -306.3440650245377
2837 -306.6614554600122
2838 -306.3490905831201
2839 -306.6574045266748
2840 -306.3494764369282
2841 -306.6586001390281
2842 -306.3480270720296
2843 -306.66067552793
2844 -306.3446692460844
2845 -306.6588560432143
2846 -306.35333553599
2847 -306.6515610104934
2848 -306.3440229781555
2849 -306.6541612706542
2850 -306.3518730815026
2851 -306.6532054128062
2852 -306.3574051405225
2853 -306.6521497330829
2854 -306.3642500730107
2855 -306.6557494184817
2856 -306.3602009701383
2857 -306.6548974502038
2858 -306.3556974724448
2859 -306.6496045643894
2860 -306.3428633733476
2861 -306.64811074494
2862 -306.3455665196815
2863 -306.6550645827202
2864 -306.3563697208092
2865 -306.6477538331126
2866 -306.353646250951
2867 -306.650672202268
2868 -306.3537907633437
2869 -306.6443647661656
2870 -306.353318207057
2871 -306.6467922923276
2872 -306.3516865142491
2873 -306.641981430695
2874 -306.3446359092358
2875 -306.6423694633975
2876 -306.352034363028
2877 -306.6456273120517
2878 -306.3564853611845
2879 -306.6497285241865
2880 -306.3578069122963
2881 -306.6487624784305
2882 -306.3526378406305
2883 -306.6533786419213
2884 -306.3462585916504
2885 -306.6481537270276
2886 -306.3521189559106
2887 -306.6572538079603
2888 -306.3599286074369
2889 -306.6554318184395
2890 -306.3519828914006
2891 -306.661062996342
2892 -306.3553691265776
2893 -306.6516368107776
2894 -306.3619342661054
2895 -306.6555747110061
2896 -306.3488401806223
2897 -306.651182347171
2898 -306.349827688694
2899 -306.6564106503229
2900 -306.3507234526618
2901 -306.6552216631117
2902 -306.3613234164724
2903 -306.6600681966151
2904 -306.365120873622
2905 -306.6565105608535
2906 -306.3641138149167
2907 -306.6583641108077
2908 -306.3529748143274
2909 -306.6570245866375
2910 -306.3529582438783
2911 -306.6591768114265
2912 -306.3536882608026
2913 -306.6486429042939
2914 -306.3552139786264
2915 -306.6520094019305
2916 -306.3525439464281
2917 -306.6497711960332
2918 -306.355142359695
2919 -306.6553518739634
2920 -306.3494059931569
2921 -306.6555534562232
2922 -306.3472259485146
2923 -306.6554748374864
2924 -306.3439216919489
2925 -306.6572423012711
2926 -306.3449609335812
2927 -306.6571165529573
2928 -306.3463315357587
2929 -306.6543819417645
2930 -306.3441013190193
2931 -306.657719505887
2932 -306.3405116673453
2933 -306.6542975914833
2934 -306.3429020067163
2935 -306.6597392936475
2936 -306.3428606250431
2937 -306.6563017740996
2938 -306.3459155316069
2939 -306.6576487399717
2940 -306.351189203972
2941 -306.6524655243389
2942 -306.3503051175877
2943 -306.6620110384913
2944 -306.3493749075846
2945 -306.6554658572562
2946 -306.353145516687
2947 -306.6551219778104
2948 -306.3461288918554
2949 -306.650248788481
2950 -306.349834869433
2951 -306.6614833728036
2952 -306.3537870179496
2953 -306.6548883479529
2954 -306.3549730379203
2955 -306.6613254186121
2956 -306.3457741215651
2957 -306.6554412423528
2958 -306.3479730746485
2959 -306.6511192638486
2960 -306.351324562384
2961 -306.6505220865499
2962 -306.3539865519111
2963 -306.6561267894549
2964 -306.3494618867427
2965 -306.6513582176909
2966 -306.3537647967182
2967 -306.6521890231993
2968 -306.3470886831136
2969 -306.6532503975031
2970 -306.3497915203242
2971 -306.6482748458487
2972 -306.3505748748556
2973 -306.6488642923309
2974 -306.3491606747588
2975 -306.6523176945748
2976 -306.3565107845786
2977 -306.6463725556832
2978 -306.3629766614562
2979 -306.6464525109324
2980 -306.3581986209995
2981 -306.641737287511
2982 -306.3652598918371
2983 -306.6423336743146
2984 -306.3607029243648
2985 -306.6433524679109
2986 -306.3582357590564
2987 -306.646514727869
2988 -306.363787448025
2989 -306.6480355065765
2990 -306.3618787752247
2991 -306.6520699125492
2992 -306.354270888946
2993 -306.648114935594
2994 -306.3475253820293
2995 -306.6487769026404
2996 -306.3454611042205
2997 -306.6529411451175
2998 -306.3453210100134
2999 -306.6622708885462
3000 -306.3454322151157
3001 -306.659569279333
3002 -306.3518221337845
3003 -306.6680260039733
3004 -306.3480678919767
3005 -306.6633263707485
3006 -306.3538924020892
3007 -306.663777832151
3008 -306.3556665026039
3009 -306.6623362162005
3010 -306.3457144738003
3011 -306.6664085339723
3012 -306.354466031933
3013 -306.6615623616295
3014 -306.3621689330989
3015 -306.660963004851
3016 -306.3491546650129
3017 -306.658173342511
3018 -306.3522730644057
3019 -306.6569314852638
3020 -306.3461252494681
3021 -306.6567768392039
3022 -306.3514006234892
3023 -306.6559912674359
3024 -306.3568282292011
3025 -306.6517316703161
3026 -306.3560465525441
3027 -306.6541731124396
3028 -306.348581725633
3029 -306.6529074031475
3030 -306.3521767791233
3031 -306.6493515467561
3032 -306.3500788562206
3033 -306.6468580499777
3034 -306.3556157250646
3035 -306.646779969878
3036 -306.3503568743601
3037 -306.6470364591904
3038 -306.3589771862128
3039 -306.6525373219675
3040 -306.3530964927434
3041 -306.6573596352444
3042 -306.3558418029644
3043 -306.6565382598405
3044 -306.3494905437329
3045 -306.6487604596435
3046 -306.3454229406897
3047 -306.6534488183228
3048 -306.3421362880763
3049 -306.650967873483
3050 -306.3546567613324
3051 -306.663431296312
3052 -306.3517159928284
3053 -306.6586337013442
3054 -306.3562209085146
3055 -306.6593374092202
3056 -306.3618275930941
3057 -306.6581345823873
3058 -306.3559831016864
3059 -306.6611677630357
3060 -306.3512926438733
3061 -306.660237686977
3062 -306.357942998769
3063 -306.6660405905196
3064 -306.3545801663134
3065 -306.6669828127603
3066 -306.3523800422735
3067 -306.6685927118143
3068 -306.3515131618316
3069 -306.6609064070702
3070 -306.3487549139637
3071 -306.6640868851819
3072 -306.3492979371943
3073 -306.6592359174755
3074 -306.3564784440506
3075 -306.6699774648858
3076 -306.3553412361699
3077 -306.6629935160777
3078 -306.3551679159838
3079 -306.6708710258336
3080 -306.3550707183739
3081 -306.6632766999654
3082 -306.3549534283616
3083 -306.6572958218762
3084 -306.3487102221509
3085 -306.6547926321206
3086 -306.3655578814971
3087 -306.6656679205407
3088 -306.3571913424889
3089 -306.660122358526
3090 -306.3556940798396
3091 -306.6536048205575
3092 -306.3531221540466
3093 -306.6420179490208
3094 -306.3580608631163
3095 -306.6394042832788
3096 -306.3496843374415
3097 -306.6377758187169
3098 -306.3566991112058
3099 -306.6440337851426
3100 -306.3542266871909
3101 -306.6401951061433
3102 -306.3543364352451
3103 -306.6411060013743
3104 -306.3536619945498
3105 -306.6475534604867
3106 -306.3511220353302
3107 -306.6475241979293
3108 -306.3496349089143
3109 -306.6415545903299
3110 -306.3568111706755
3111 -306.6535110626387
3112 -306.3580326226019
3113 -306.6516181226731
3114 -306.3524171405918
3115 -306.6572181451415
3116 -306.3526045016417
3117 -306.6514279992148
3118 -306.3605115104127
3119 -306.6550001739776
3120 -306.3535637376666
3121 -306.6516804391869
3122 -306.3593059843577
3123 -306.664611295154
3124 -306.3627637276521
3125 -306.6520829606694
3126 -306.3633910659834
3127 -306.6514311069951
3128 -306.3590436746529
3129 -306.645705131931
3130 -306.3540331902443
3131 -306.649612129671
3132 -306.3478557061222
3133 -306.6425458668596
3134 -306.3561745555763
3135 -306.6595454975801
3136 -306.3633612599044
3137 -306.6491518026396
3138 -306.3620844490196
3139 -306.64657941605
3140 -306.3534873694285
3141 -306.6450330092446
3142 -306.3516139474637
3143 -306.6488248304694
3144 -306.3458829101751
3145 -306.6506964867454
3146 -306.3492229688658
3147 -306.6568003296813
3148 -306.3466057226852
3149 -306.6564360380939
3150 -306.3466553040861
3151 -306.6567582770721
3152 -306.351218687485
3153 -306.6553902542154
3154 -306.3537626652623
3155 -306.6659564206519
3156 -306.3482141084503
3157 -306.6598476890119
3158 -306.352788792167
3159 -306.6652001606476
3160 -306.3538665838055
3161 -306.6596103633577
3162 -306.3530848146572
3163 -306.6580347681988
3164 -306.3524367127756
3165 -306.6576821665566
3166 -306.3486664627234
3167 -306.6542157684336
3168 -306.3508243289715
3169 -306.6460262918036
3170 -306.3472265142847
3171 -306.6551348280718
3172 -306.3456369185404
3173 -306.6539153531621
3174 -306.3507961994364
3175 -306.656668377285
3176 -306.3555839152342
3177 -306.6527539384865
3178 -306.3462257347928
3179 -306.6577103287603
3180 -306.3410302696039
3181 -306.6527683777374
3182 -306.3449578564629
3183 -306.6581449620444
3184 -306.3399320351661
3185 -306.66023193917
3186 -306.3555185272974
3187 -306.6568207574815
3188 -306.35106978903
3189 -306.6591529976516
3190 -306.3535072217971
3191 -306.6680190135139
3192 -306.3577626666705
3193 -306.6555241497969
3194 -306.360338041875
3195 -306.6625583327518
3196 -306.3563297424052
3197 -306.6569621174516
3198 -306.3589157710527
3199 -306.6530424312525
3200 -306.3538966688705
3201 -306.6508802851031
3202 -306.3509452486584
3203 -306.6551018944945
3204 -306.3518528667547
3205 -306.6412789257116
3206 -306.3576598436933
3207 -306.65476160969
3208 -306.3606753327433
3209 -306.6557464885585
3210 -306.3623677083237
3211 -306.6551046512789
3212 -306.3632510249851
3213 -306.6571128405704
3214 -306.361871629168
3215 -306.6583535159471
3216 -306.353039075486
3217 -306.6512255546108
3218 -306.3521654010361
3219 -306.656672468251
3220 -306.3490857731818
3221 -306.653571979057
3222 -306.3608295010536
3223 -306.6523197512603
3224 -306.3475631665038
3225 -306.6566264938194
3226 -306.3542279878066
3227 -306.6533123059621
3228 -306.3487571671661
3229 -306.6458471368053
3230 -306.3525342954126
3231 -306.6497701434571
3232 -306.3481531395881
3233 -306.6468284558324
3234 -306.3498841290474
3235 -306.6485233364827
3236 -306.3452612557198
3237 -306.646014885137
3238 -306.3451871057546
3239 -306.654247277783
3240 -306.3418553498481
3241 -306.6591380077374
3242 -306.3509060364792
3243 -306.6617794077784
3244 -306.3475892920643
3245 -306.6635235870203
3246 -306.3546993523774
3247 -306.6625738334805
3248 -306.3484261804995
3249 -306.6596997917103
3250 -306.3488399725902
3251 -306.6502000778456
3252 -306.3391967361824
3253 -306.6419345929875
3254 -306.3519113586366
3255 -306.6484566082973
3256 -306.3519150316296
3257 -306.6474514267225
3258 -306.3577541658782
3259 -306.6457533824307
3260 -306.3577349602522
3261 -306.6469114520406
3262 -306.3592297364258
3263 -306.643126597398
3264 -306.345135950796
3265 -306.6382815088486
3266 -306.3392951824483
3267 -306.6492932912907
3268 -306.3421711672928
3269 -306.645463366523
3270 -306.3431441154535
3271 -306.6547824391208
3272 -306.3483046888063
3273 -306.6563109360475
3274 -306.3504819494222
3275 -306.6582181099238
3276 -306.3457079888899
3277 -306.6582556986049
3278 -306.3544966486544
3279 -306.6620917536479
3280 -306.347823498085
3281 -306.6631266696185
3282 -306.3555548277064
3283 -306.6580793978703
3284 -306.3614066158254
3285 -306.6511950830593
3286 -306.3652595993034
3287 -306.6513333381204
3288 -306.3537926179249
3289 -306.6440859164193
3290 -306.3599430633646
3291 -306.6499998710988
3292 -306.3567446709952
3293 -306.6459665049031
3294 -306.3610637944072
3295 -306.6510594571779
3296 -306.363497415519
3297 -306.6485424001974
3298 -306.3613885847143
3299 -306.6534891568556
3300 -306.3521601044714
3301 -306.645329643104
3302 -306.3521738747179
3303 -306.6556738935018
3304 -306.3496728864018
3305 -306.6537002205407
3306 -306.3537495527615
3307 -306.656709687884
3308 -306.3540921854732
3309 -306.6570364683583
3310 -306.3526031747851
3311 -306.6580204035652
3312 -306.3547775803572
3313 -306.6578455213129
3314 -306.34991713786
3315 -306.6642274030384
3316 -306.3396162925401
3317 -306.6551180438668
3318 -306.3443774133855
3319 -306.6596197545493
3320 -306.344089676015
3321 -306.6623368280171
3322 -306.3567680915704
3323 -306.6657071633113
3324 -306.3459503451419
3325 -306.6627371371247
3326 -306.3479384435233
3327 -306.6674199185558
3328 -306.351604381249
3329 -306.6634905879678
3330 -306.3517907587857
3331 -306.6563520362777
3332 -306.3485196749032
3333 -306.6573170636418
3334 -306.3502827375493
3335 -306.6584402930729
3336 -306.3490592382788
3337 -306.6539650604514
3338 -306.3560505985886
3339 -306.6590554964658
3340 -306.3488015155866
3341 -306.6548106398021
3342 -306.3482995123935
3343 -306.6543176320074
3344 -306.3445251615491
3345 -306.6527913467689
3346 -306.3505711819313
3347 -306.6529939212319
3348 -306.3521038880386
3349 -306.6461200770031
3350 -306.3435763900112
3351 -306.6536493337022
3352 -306.3466758682597
3353 -306.6438195560269
3354 -306.345785118333
3355 -306.6466404547349
3356 -306.3469404195284
3357 -306.6467995304802
3358 -306.3528979573991
3359 -306.649153311187
3360 -306.3537409833652
3361 -306.6405745859024
3362 -306.3588348099296
3363 -306.6507049744091
3364 -306.3583439482212
3365 -306.6544409725211
3366 -306.3580327675372
3367 -306.654461917659
3368 -306.3515268605817
3369 -306.6552979091798
3370 -306.3570139872117
3371 -306.6560273876282
3372 -306.3472494050685
3373 -306.6504297706227
3374 -306.3456090999697
3375 -306.6565727713153
3376 -306.343256389181
3377 -306.6644055518757
3378 -306.3487398483992
3379 -306.6586283644131
3380 -306.3423629688963
3381 -306.6636883178805
3382 -306.3521227260906
3383 -306.6608876356955
3384 -306.35562296656
3385 -306.6492656363774
3386 -306.3528765488635
3387 -306.6496985136919
3388 -306.3482731906547
3389 -306.6510894251772
3390 -306.3505054511263
3391 -306.6536252913259
3392 -306.3498107969166
3393 -306.6561745812301
3394 -306.3579952353907
3395 -306.6583481793031
3396 -306.3569028250057
3397 -306.6522999543209
3398 -306.3530152932719
3399 -306.659906933118
3400 -306.3493368527662
3401 -306.6565278054847
3402 -306.3464029756611
3403 -306.6563255649633
3404 -306.3448533388686
3405 -306.6537162583613
3406 -306.3451256657229
3407 -306.6636671084109
3408 -306.3558949558542
3409 -306.6533280657173
3410 -306.3524553755173
3411 -306.661409879029
3412 -306.3510435868447
3413 -306.6534040150991
3414 -306.3500674019478
3415 -306.6535155421562
3416 -306.3507510658687
3417 -306.6567019619679
3418 -306.3523843905616
3419 -306.6581850567246
3420 -306.3540849018301
3421 -306.6521344724729
3422 -306.3587319246682
3423 -306.6569918200238
3424 -306.353017934576
3425 -306.6535645898744
3426 -306.3552197230896
3427 -306.6545092724069
3428 -306.3472307611304
3429 -306.6580510718761
3430 -306.3534377261672
3431 -306.6658508685471
3432 -306.3522866833209
3433 -306.6548933930862
3434 -306.3555585623478
3435 -306.6552481282095
3436 -306.3486859584451
3437 -306.6530493866157
3438 -306.3453831811385
3439 -306.6536477681521
3440 -306.344486387331
3441 -306.6439521787481
3442 -306.3446906653085
3443 -306.651463924782
3444 -306.3409521531879
3445 -306.6496549931609
3446 -306.3506468760879
3447 -306.6559187675995
3448 -306.3503872779423
3449 -306.6480817257235
3450 -306.3487519042679
3451 -306.64905147115
3452 -306.3431162237858
3453 -306.6453356917067
3454 -306.3471152020895
3455 -306.6578298481283
3456 -306.3507449412803
3457 -306.6551982563704
3458 -306.3593684750127
3459 -306.6586700007335
3460 -306.3596898917664
3461 -306.6476112539206
3462 -306.3607466322281
3463 -306.6544379245706
3464 -306.362928848949
3465 -306.6521154821873
3466 -306.3590659721571
3467 -306.658892295814
3468 -306.3561193032312
3469 -306.6561475345658
3470 -306.36041359117
3471 -306.6557721666272
3472 -306.3523447578509
3473 -306.6561293808858
3474 -306.3456481872972
3475 -306.6573514646075
3476 -306.3437204199398
3477 -306.6531345192858
3478 -306.3471681903854
3479 -306.6625537671252
3480 -306.3446133035487
3481 -306.6564294328016
3482 -306.3489418937449
3483 -306.6633772922698
3484 -306.3473312484418
3485 -306.6549146650262
3486 -306.3421596704134
3487 -306.655101208784
3488 -306.3463620522984
3489 -306.6468010986625
3490 -306.3435865310792
3491 -306.6539925245129
3492 -306.3471743515386
3493 -306.6453468370129
3494 -306.3540640381315
3495 -306.6428451737899
3496 -306.3533568085508
3497 -306.6421362888332
3498 -306.3538517189813
3499 -306.6442834425911
3500 -306.3523416174573
3501 -306.6561118246394
3502 -306.3596469672142
3503 -306.6543085085722
3504 -306.3575345904013
3505 -306.6494439945555
3506 -306.361148823935
3507 -306.6455770687853
3508 -306.352969540391
3509 -306.6456315132922
3510 -306.3506408363062
3511 -306.6426023626149
3512 -306.3447919432304
3513 -306.6491319482305
3514 -306.3478392099714
3515 -306.6442684946581
3516 -306.3447674718866
3517 -306.6481552752784
3518 -306.353203799221
3519 -306.6520381354438
3520 -306.3519160423404
3521 -306.64652321581
3522 -306.3554308639692
3523 -306.6420340272373
3524 -306.3500058552616
3525 -306.6478931589803
3526 -306.3536173351921
3527 -306.6521329804496
3528 -306.350210028712
3529 -306.6481342285574
3530 -306.3528310824749
3531 -306.6514681044728
3532 -306.3536231161387
3533 -306.648779227064
3534 -306.3459428793975
3535 -306.6444369443935
3536 -306.3424514094969
3537 -306.6560547681563
3538 -306.3450496861816
3539 -306.6560336500754
3540 -306.3483133752063
3541 -306.6533023889871
3542 -306.3520499976217
3543 -306.6628182544031
3544 -306.3515161699126
3545 -306.6518833161342
3546 -306.3505798262364
3547 -306.6554909070603
3548 -306.3427038973004
3549 -306.6549839514225
3550 -306.3443311559254
3551 -306.6638423041385
3552 -306.3417717436055
3553 -306.6620098186255
3554 -306.3511377175845
3555 -306.6620310382244
3556 -306.3440499735113
3557 -306.654657878739
3558 -306.3425775050459
3559 -306.6586875177917
3560 -306.3353479822333
3561 -306.6530903200341
3562 -306.3342363078566
3563 -306.6608216542662
3564 -306.3424316709142
3565 -306.6578817099816
3566 -306.3467783915167
3567 -306.6658354949921
3568 -306.3473357080884
3569 -306.657707007729
3570 -306.347473335276
3571 -306.6514580440069
3572 -306.3505772987348
3573 -306.6474892371172
3574 -306.3490010161451
3575 -306.6579192830464
3576 -306.3463985144706
3577 -306.6471801829549
3578 -306.3496919430218
3579 -306.6541671180818
3580 -306.3540927317104
3581 -306.6522046735205
3582 -306.3596540436693
3583 -306.6507568120521
3584 -306.354458184496
3585 -306.6455228446105
3586 -306.3503897667713
3587 -306.6540753478487
3588 -306.3514165738731
3589 -306.6510152369125
3590 -306.3577169071988
3591 -306.6561551293268
3592 -306.3555750002988
3593 -306.6538283690447
3594 -306.3619530497289
3595 -306.6469675077499
3596 -306.3600737338949
3597 -306.6483061562927
3598 -306.3581292861642
3599 -306.6579126156754
3600 -306.3633671623427
3601 -306.6550328734266
3602 -306.3660772800797
3603 -306.6594720478283
3604 -306.3599489555953
3605 -306.6590398617115
3606 -306.3578868347919
3607 -306.652787476863
3608 -306.3574376952462
3609 -306.6524407203706
3610 -306.3494473260566
3611 -306.6559950444163
3612 -306.3466592206503
3613 -306.6569353774057
3614 -306.3491097638764
3615 -306.6622491393698
3616 -306.3507054174531
3617 -306.6619722005394
3618 -306.3518401499991
3619 -306.6560615078714
3620 -306.3467016900927
3621 -306.6501764282795
3622 -306.3453804098319
3623 -306.6579906497651
3624 -306.3445642557433
3625 -306.6496008707948
3626 -306.3448602902545
3627 -306.6550590776725
3628 -306.3482815638011
3629 -306.6534474902488
3630 -306.3499559332502
3631 -306.6455124754245
3632 -306.3507339617968
3633 -306.6476566599995
3634 -306.3519358474327
3635 -306.6498656602366
3636 -306.3488396126641
3637 -306.6429466698426
3638 -306.3525655926329
3639 -306.6485649536316
3640 -306.3519711168484
3641 -306.6439057801969
3642 -306.347411599803
3643 -306.6397097932324
3644 -306.351417334944
3645 -306.6360664700773
3646 -306.3530250239907
3647 -306.6393954376633
3648 -306.3469602853349
3649 -306.6429515583915
3650 -306.3496301515171
3651 -306.6456789085742
3652 -306.350633897877
3653 -306.655988653348
3654 -306.3581037800427
3655 -306.6519087114833
3656 -306.3549601615871
3657 -306.6503662783256
3658 -306.3487334676015
3659 -306.649299494651
3660 -306.3452820134237
3661 -306.6504372388554
3662 -306.3557903778627
3663 -306.6495327613964
3664 -306.3489273276083
3665 -306.6538207928691
3666 -306.3584714376734
3667 -306.6541267309994
3668 -306.3569356900807
3669 -306.6509031671803
3670 -306.3575197471694
3671 -306.6545916746955
3672 -306.3564346702285
3673 -306.6507975818859
3674 -306.357050652574
3675 -306.6534945950903
3676 -306.3584128551788
3677 -306.6521329759472
3678 -306.3573679566932
3679 -306.6509867152401
3680 -306.3579623942239
3681 -306.6546211836983
3682 -306.3550194999272
3683 -306.6561915669636
3684 -306.3496355367498
3685 -306.6537949397098
3686 -306.3483969611287
3687 -306.6573460270098
3688 -306.3483216114768
3689 -306.6568888971647
3690 -306.3452457834307
3691 -306.6562741281846
3692 -306.3389960830413
3693 -306.6500244857657
3694 -306.3427821696065
3695 -306.6533894320382
3696 -306.3429765204782
3697 -306.6460318066664
3698 -306.3544433244322
3699 -306.6572743703499
3700 -306.3508958931468
3701 -306.6539779268732
3702 -306.3527590782722
3703 -306.6581093529354
3704 -306.3469397437821
3705 -306.6505887090647
3706 -306.3445935085448
3707 -306.6546795817555
3708 -306.3464520234364
3709 -306.647748088621
3710 -306.3520401253464
3711 -306.6554947279363
3712 -306.3475786085676
3713 -306.6568493167077
3714 -306.347276996221
3715 -306.6561418003133
3716 -306.3437761258424
3717 -306.6557909619656
3718 -306.3467497834605
3719 -306.6505761916063
3720 -306.3413793361045
3721 -306.6512662363789
3722 -306.3442427838223
3723 -306.6503645558016
3724 -306.3493513480603
3725 -306.6489892964088
3726 -306.3563829225525
3727 -306.6501218207022
3728 -306.3512087662845
3729 -306.6558494162842
3730 -306.3523342289565
3731 -306.6535222033446
3732 -306.3497759473008
3733 -306.6520108368692
3734 -306.3579596783763
3735 -306.6571436960282
3736 -306.3495876240194
3737 -306.6534869397554
3738 -306.3459378307659
3739 -306.6557235540919
3740 -306.3429791754897
3741 -306.657018631679
3742 -306.3465951619039
3743 -306.6567442322129
3744 -306.3459991173671
3745 -306.6477694170113
3746 -306.3433890799796
3747 -306.659709983966
3748 -306.3440361217982
3749 -306.6552623469278
3750 -306.3440992347819
3751 -306.6579476413148
3752 -306.3455655258278
3753 -306.6529034254243
3754 -306.3436899763243
3755 -306.6521832381777
3756 -306.3425253237804
3757 -306.6417075981637
3758 -306.3442347929033
3759 -306.648534423043
3760 -306.3462909919824
3761 -306.6510713795918
3762 -306.3470308450616
3763 -306.6548564450572
3764 -306.3485738017073
3765 -306.6509246561291
3766 -306.3568590473997
3767 -306.6553871177121
3768 -306.356787680071
3769 -306.6462168692206
3770 -306.3534355141206
3771 -306.6586274863409
3772 -306.3502573988391
3773 -306.6554270689914
3774 -306.3582003932721
3775 -306.6544142759516
3776 -306.3517989987863
3777 -306.6544794510543
3778 -306.3531413806208
3779 -306.6590525084929
3780 -306.3489622289119
3781 -306.6495430089037
3782 -306.3501457536337
3783 -306.6484389514068
3784 -306.3471733921332
3785 -306.6485265734642
3786 -306.3447095199282
3787 -306.6492173189012
3788 -306.3446323314831
3789 -306.6540623250648
3790 -306.3446015438133
3791 -306.6589812934204
3792 -306.3503293477951
3793 -306.6439771659593
3794 -306.345510129236
3795 -306.6461049224533
3796 -306.344906712328
3797 -306.64633652588
3798 -306.3521225858311
3799 -306.6475034852012
3800 -306.3498332456109
3801 -306.6491958027859
3802 -306.3591263791019
3803 -306.6559439707844
3804 -306.3559881536238
3805 -306.6453230908903
3806 -306.3567321550037
3807 -306.6423823338267
3808 -306.3527210568834
3809 -306.6504877499689
3810 -306.3569078056526
3811 -306.6501620230757
3812 -306.3529383804812
3813 -306.6502026818678
3814 -306.3509382912274
3815 -306.6570401016896
3816 -306.3470016240655
3817 -306.6495175939854
3818 -306.3494235178567
3819 -306.6537292091322
3820 -306.3467685704999
3821 -306.6533638524584
3822 -306.3532635154415
3823 -306.6556728426854
3824 -306.3537031990539
3825 -306.6557815409932
3826 -306.3497619422533
3827 -306.656505654762
3828 -306.3574623667458
3829 -306.6487745011025
3830 -306.3604236865881
3831 -306.6484386236111
3832 -306.3537929891238
3833 -306.6432607624002
3834 -306.3607576175763
3835 -306.6450600517102
3836 -306.3580588391865
3837 -306.6478820423261
3838 -306.3579877676421
3839 -306.6522457436313
3840 -306.3523389190352
3841 -306.6437668235271
3842 -306.3516615922283
3843 -306.6523418130456
3844 -306.35187913467
3845 -306.6451781210159
3846 -306.3451004772994
3847 -306.6542465361788
3848 -306.3395251805932
3849 -306.6587041201377
3850 -306.3462951815648
3851 -306.6676899670708
3852 -306.344319146504
3853 -306.6596127927442
3854 -306.3456210398774
3855 -306.6580678969482
3856 -306.3410879019009
3857 -306.6554991505254
3858 -306.3474865020023
3859 -306.6624094731734
3860 -306.3480858861758
3861 -306.6621146558545
3862 -306.3514862507906
3863 -306.6618620061569
3864 -306.3482119676024
3865 -306.6528518829111
3866 -306.3517285565944
3867 -306.6548060530511
3868 -306.3438508445678
3869 -306.6500694941109
3870 -306.3444209051291
3871 -306.6535060375699
3872 -306.3403686312665
3873 -306.6519211486944
3874 -306.3424724691491
3875 -306.6532205049664
3876 -306.3417351978156
3877 -306.6430143283513
3878 -306.3413404388359
3879 -306.651584190553
3880 -306.34300532943
3881 -306.6418982592119
3882 -306.3452454993402
3883 -306.645575077424
3884 -306.3450036792806
3885 -306.6464169167253
3886 -306.3452947118885
3887 -306.6583763733428
3888 -306.3520652963421
3889 -306.6509558924856
3890 -306.3529636785943
3891 -306.6518992530883
3892 -306.3523535246636
3893 -306.6467453830082
3894 -306.3500395839687
3895 -306.646900423911
3896 -306.3538729081441
3897 -306.6502758658104
3898 -306.3574900366492
3899 -306.6515524458904
3900 -306.3514461461443
3901 -306.6495320670457
3902 -306.3609279356967
3903 -306.6532628095193
3904 -306.3603434110743
3905 -306.6533447680891
3906 -306.3603268516536
3907 -306.6513136143181
3908 -306.358140952994
3909 -306.6463633021834
3910 -306.3497700942746
3911 -306.6514723345704
3912 -306.3525121899723
3913 -306.6416214031208
3914 -306.3524771101933
3915 -306.6453105457581
3916 -306.348048363645
3917 -306.6433329378017
3918 -306.3467912670445
3919 -306.6492417574176
3920 -306.3466410154059
3921 -306.6480943043173
3922 -306.3455282170024
3923 -306.6491284764267
3924 -306.3392246366285
3925 -306.6476803633828
3926 -306.3422523461209
3927 -306.653714573639
3928 -306.3425018508142
3929 -306.6526728091652
3930 -306.356469235875
3931 -306.6539630408313
3932 -306.3626102119327
3933 -306.6519255605691
3934 -306.3638238371877
3935 -306.6569811183831
3936 -306.3574852946331
3937 -306.6510543512246
3938 -306.3609921635219
3939 -306.6561933951227
3940 -306.3623153625081
3941 -306.6501368124314
3942 -306.3645290128944
3943 -306.6507956094363
3944 -306.3568827655909
3945 -306.6480024613114
3946 -306.3471184461483
3947 -306.6506774437768
3948 -306.3418739687792
3949 -306.6467223992004
3950 -306.3433322394169
3951 -306.6516858346932
3952 -306.3455265613908
3953 -306.6391814839108
3954 -306.3410419420112
3955 -306.6459245641772
3956 -306.3398541002487
3957 -306.6420100907581
3958 -306.3437807806179
3959 -306.6439871576349
3960 -306.3412050017759
3961 -306.6444211985561
3962 -306.3469566996977
3963 -306.6492848629897
3964 -306.348677777961
3965 -306.6414028314157
3966 -306.3487082335502
3967 -306.643342031435
3968 -306.3436218424018
3969 -306.6493761609016
3970 -306.344936961897
3971 -306.6583976832339
3972 -306.3453617813984
3973 -306.6550680392859
3974 -306.3507808782829
3975 -306.6670719357435
3976 -306.3513582878379
3977 -306.6606900446641
3978 -306.3547018367838
3979 -306.660127345472
3980 -306.351820939776
3981 -306.653901535944
3982 -306.3569520278495
3983 -306.6612633721596
3984 -306.3559020425981
3985 -306.6508725923695
3986 -306.358026221906
3987 -306.6572640334372
3988 -306.3520456145885
3989 -306.6517004379045
3990 -306.3571644382696
3991 -306.6492010419104
3992 -306.3566891500794
3993 -306.6477544668508
3994 -306.350421994829
3995 -306.6532726124377
3996 -306.3490261541728
3997 -306.6507992096692
3998 -306.3500810549167
3999 -306.6617483141168
4000 -306.3488454745342
4001 -306.6606992106087
4002 -306.3528597708312
4003 -306.6540080455738
4004 -306.3510151549361
4005 -306.6495417259787
4006 -306.3484859047336
4007 -306.6592656473202
4008 -306.344221868297
4009 -306.6487043825672
4010 -306.3427834582797
4011 -306.6552140182557
4012 -306.3493016474432
4013 -306.65264899601
4014 -306.3505414832305
4015 -306.6557795053808
4016 -306.3424458564309
4017 -306.6491679434033
4018 -306.3439580462528
4019 -306.6551997374754
4020 -306.3495220230029
4021 -306.6412241478267
4022 -306.3458526029076
4023 -306.6620897527391
4024 -306.3414847448365
4025 -306.6611854881013
4026 -306.3461356093983
4027 -306.6598515026499
4028 -306.3428828649519
4029 -306.6518706949598
4030 -306.3365903544534
4031 -306.6506906482257
4032 -306.3402771364146
4033 -306.6482262861873
4034 -306.3424987429175
4035 -306.6463166907891
4036 -306.3376665116701
4037 -306.6456948124399
4038 -306.3481275122351
4039 -306.6477812991962
4040 -306.3538174578437
4041 -306.6481351184595
4042 -306.3550649664555
4043 -306.6483963347193
4044 -306.3556528356645
4045 -306.640289033885
4046 -306.3556196629443
4047 -306.6480723116446
4048 -306.3607724105115
4049 -306.6515142325537
4050 -306.3591433477843
4051 -306.6520029322796
4052 -306.3519562194904
4053 -306.6503489912507
4054 -306.3558358169332
4055 -306.6539287707942
4056 -306.3510012551244
4057 -306.650537745248
4058 -306.3525170358207
4059 -306.6485781533405
4060 -306.3450874282292
4061 -306.6529105294819
4062 -306.3499355665317
4063 -306.6485050435818
4064 -306.3561074685051
4065 -306.6446696381693
4066 -306.3479736634021
4067 -306.6493801038519
4068 -306.3461440830336
4069 -306.6445010362661
4070 -306.3539471351116
4071 -306.6495537404346
4072 -306.3495383333787
4073 -306.6463936278365
4074 -306.3503366564844
4075 -306.653326219209
4076 -306.3518016120534
4077 -306.6586254152724
4078 -306.3515187654851
4079 -306.661552531963
4080 -306.3463940674358
4081 -306.6573688255141
4082 -306.3539704633718
4083 -306.6622876488689
4084 -306.3489872330422
4085 -306.6609870500238
4086 -306.3535465893617
4087 -306.6676866264132
4088 -306.3563695960736
4089 -306.6595555631019
4090 -306.3571313230565
4091 -306.6622152658795
4092 -306.3537738118462
4093 -306.6601876948822
4094 -306.3632582179361
4095 -306.6586219531557
4096 -306.3542266792057
4097 -306.654509157133
4098 -306.3556668041636
4099 -306.6589968707509
4100 -306.3501165118283
4101 -306.6551772034543
4102 -306.3502872854201
4103 -306.6559062053192
4104 -306.3412230129015
4105 -306.6498552365293
4106 -306.3500339446821
4107 -306.6533013157555
4108 -306.3479801131602
4109 -306.6463054140592
4110 -306.3408237466621
4111 -306.6503506155121
4112 -306.3525068749889
4113 -306.6513047660868
4114 -306.3512098339081
4115 -306.6510777876111
4116 -306.3570290137357
4117 -306.6412714867882
4118 -306.3569210946083
4119 -306.6545826138541
4120 -306.3583782976087
4121 -306.6474604230152
4122 -306.3599642373568
4123 -306.6520859800075
4124 -306.3701728739966
4125 -306.6573101069533
4126 -306.3664025407628
4127 -306.6482051144632
4128 -306.3516860622372
4129 -306.6493384836721
4130 -306.3484889524901
4131 -306.6530981220344
4132 -306.3456001340724
4133 -306.6527807315023
4134 -306.3472376116034
4135 -306.6538188486268
4136 -306.3500663721786
4137 -306.651035048791
4138 -306.3504153438647
4139 -306.6522303873554
4140 -306.3464969216878
4141 -306.6414556734829
4142 -306.3497399079462
4143 -306.6496934549345
4144 -306.3516543486327
4145 -306.6481482079715
4146 -306.3489601832711
4147 -306.6505877195438
4148 -306.3501114996315
4149 -306.6542507160424
4150 -306.3495355623498
4151 -306.658201513783
4152 -306.3494077288998
4153 -306.6514050278266
4154 -306.3482900981933
4155 -306.6572807250184
4156 -306.3378121980687
4157 -306.6538761197282
4158 -306.3387989093584
4159 -306.6639471008057
4160 -306.3461650482407
4161 -306.6674072478868
4162 -306.3445939291444
4163 -306.6602240691789
4164 -306.3428053254647
4165 -306.6493768810685
4166 -306.3407850577109
4167 -306.6538412916449
4168 -306.3498847580234
4169 -306.6472085206615
4170 -306.3449253094072
4171 -306.6513666119333
4172 -306.3528137772495
4173 -306.6517497815194
4174 -306.352755595643
4175 -306.655450354228
4176 -306.3498347950192
4177 -306.6474745097969
4178 -306.3462819263977
4179 -306.6580500593302
4180 -306.3464872835792
4181 -306.6587983053389
4182 -306.3525647645662
4183 -306.6612511088563
4184 -306.3535479787226
4185 -306.6645821555725
4186 -306.3462759797351
4187 -306.6662521257288
4188 -306.3434370701149
4189 -306.6604254512806
4190 -306.3416959251689
4191 -306.6641035835289
4192 -306.3429140019106
4193 -306.666528858379
4194 -306.3493366831939
4195 -306.6590252004042
4196 -306.3454051911021
4197 -306.6625493366585
4198 -306.3489193966104
4199 -306.6563795350697
4200 -306.3521834450606
4201 -306.6487661699252
4202 -306.357212159403
4203 -306.6463739627061
4204 -306.3561088728961
4205 -306.6484145132525
4206 -306.3630057499724
4207 -306.6519564668865
4208 -306.3652812309696
4209 -306.6515407910276
4210 -306.3592622520176
4211 -306.6613489399252
4212 -306.3608031343975
4213 -306.6473242261262
4214 -306.3491843545801
4215 -306.6450673206027
4216 -306.3409969663851
4217 -306.6469851302356
4218 -306.3441522325607
4219 -306.6453975467491
4220 -306.3495404026628
4221 -306.6467913441048
4222 -306.3493928450922
4223 -306.6494359919007
4224 -306.349326508769
4225 -306.6428869039399
4226 -306.3455317962778
4227 -306.64943147153
4228 -306.3447487918096
4229 -306.6512321499104
4230 -306.3488349278132
4231 -306.6500314648919
4232 -306.3474688893179
4233 -306.652595104421
4234 -306.3522154030153
4235 -306.6647899505619
4236 -306.3575030586836
4237 -306.6573819894909
4238 -306.3560391092292
4239 -306.6561613473048
4240 -306.3447293633807
4241 -306.6543480476934
4242 -306.3528567915395
4243 -306.6551555114102
4244 -306.3543608951815
4245 -306.6530940272203
4246 -306.3596412626075
4247 -306.6581533332062
4248 -306.3587936872555
4249 -306.6487094354163
4250 -306.3558865176297
4251 -306.6589913706914
4252 -306.3568801878615
4253 -306.6537287228728
4254 -306.3524172127362
4255 -306.655063540399
4256 -306.3552649241534
4257 -306.6565345096344
4258 -306.3506621670008
4259 -306.6678980958069
4260 -306.3399619971942
4261 -306.6599279410379
4262 -306.3420854082514
4263 -306.6594782463203
4264 -306.3366522697197
4265 -306.651773582174
4266 -306.3421538038914
4267 -306.6529393355192
4268 -306.3480391962914
4269 -306.6471587948108
4270 -306.3550681143465
4271 -306.6489708444915
4272 -306.3517526125829
4273 -306.6392981326065
4274 -306.3590418865405
4275 -306.6389352022933
4276 -306.3565198894996
4277 -306.630382389976
4278 -306.3602126573263
4279 -306.6381699147956
4280 -306.3621639833287
4281 -306.6334525250472
4282 -306.3664087103965
4283 -306.64088265791
4284 -306.3567926015603
4285 -306.6449336250081
4286 -306.3533853394051
4287 -306.6559350807152
4288 -306.348755889489
4289 -306.6532324929398
4290 -306.341322876239
4291 -306.6624723131649
4292 -306.3450917632602
4293 -306.6597112655501
4294 -306.3477018151142
4295 -306.6660752998957
4296 -306.3420432661858
4297 -306.6608046845027
4298 -306.3442138571388
4299 -306.6598894056053
4300 -306.3407631446954
4301 -306.656977205771
4302 -306.3513167748534
4303 -306.6549068685995
4304 -306.3507023035182
4305 -306.6512488216684
4306 -306.357610362562
4307 -306.6476166703846
4308 -306.3486618456055
4309 -306.6412250484688
4310 -306.3518405308491
4311 -306.6522900213452
4312 -306.3472354944715
4313 -306.6500569030496
4314 -306.3458899772513
4315 -306.6557498175708
4316 -306.3508210385006
4317 -306.6558715372337
4318 -306.3587381126918
4319 -306.6583406687313
4320 -306.3489012463971
4321 -306.6535578529717
4322 -306.3497208921027
4323 -306.6598486408821
4324 -306.3465169569154
4325 -306.6489823193475
4326 -306.3464953211783
4327 -306.6583344559047
4328 -306.3464564193731
4329 -306.6591119766263
4330 -306.3497099354548
4331 -306.6622767832524
4332 -306.3425141533519
4333 -306.6555526176858
4334 -306.3440700626485
4335 -306.6617868151802
4336 -306.3478229379048
4337 -306.6560735670597
4338 -306.3416300213293
4339 -306.6609120936541
4340 -306.3361417433378
4341 -306.6648719002104
4342 -306.3459697127944
4343 -306.6633856092395
4344 -306.3455323003078
4345 -306.6564799082894
4346 -306.3534700815587
4347 -306.6640183542366
4348 -306.3510581308556
4349 -306.6596743817701
4350 -306.3558821676867
4351 -306.6576087696141
4352 -306.3602626393393
4353 -306.654670731011
4354 -306.3590440674471
4355 -306.6543532496044
4356 -306.3528810348981
4357 -306.6430973898239
4358 -306.3525144946513
4359 -306.6591361360304
4360 -306.3540418346074
4361 -306.63974900535
4362 -306.3451999519705
4363 -306.6432588384977
4364 -306.345974290415
4365 -306.6440581251862
4366 -306.3485676962879
4367 -306.6579907002419
4368 -306.346290739096
4369 -306.6501312949759
4370 -306.3474870710443
4371 -306.6572338067547
4372 -306.3544401438866
4373 -306.6443914085456
4374 -306.3512911628651
4375 -306.6485431050787
4376 -306.3457589204635
4377 -306.6472931137834
4378 -306.3553757732022
4379 -306.6508310834383
4380 -306.3560755210052
4381 -306.6463647844471
4382 -306.361235288531
4383 -306.6500226203863
4384 -306.3542470072124
4385 -306.6399794208177
4386 -306.35345354628
4387 -306.6472436854519
4388 -306.3503640720962
4389 -306.643303784398
4390 -306.3494478335002
4391 -306.6603137168823
4392 -306.3477952581127
4393 -306.6508064840651
4394 -306.3513005181164
4395 -306.6627573028125
4396 -306.3400970069963
4397 -306.6611989104175
4398 -306.3480596258262
4399 -306.6578121523914
4400 -306.3452930563329
4401 -306.6557552273168
4402 -306.3572151756874
4403 -306.6625659629971
4404 -306.3532995017562
4405 -306.6509787445221
4406 -306.3531585902111
4407 -306.6559794155268
4408 -306.3519742059587
4409 -306.6549429450582
4410 -306.354760721176
4411 -306.6497885346212
4412 -306.3512065599531
4413 -306.6435303198575
4414 -306.352269292763
4415 -306.6532534016021
4416 -306.34719871358
4417 -306.6565503645327
4418 -306.3516319941442
4419 -306.6529637869021
4420 -306.3419711611109
4421 -306.6486122035349
4422 -306.3414538324858
4423 -306.6458909852166
4424 -306.34241471332
4425 -306.6501908697885
4426 -306.3451511725023
4427 -306.6600024705249
4428 -306.3515487677232
4429 -306.6498503569029
4430 -306.3601783833919
4431 -306.6578705899233
4432 -306.3557941567392
4433 -306.6478693189607
4434 -306.3506728730718
4435 -306.6499252229481
4436 -306.3483770793653
4437 -306.6503861458892
4438 -306.3472514489561
4439 -306.6576604608917
4440 -306.3494205719571
4441 -306.651783960737
4442 -306.3500393265877
4443 -306.6565539650543
4444 -306.3500967099536
4445 -306.6563772333799
4446 -306.3481931551245
4447 -306.6620530624547
4448 -306.3445365952269
4449 -306.6587075335713
4450 -306.3467989602314
4451 -306.6624862263441
4452 -306.3485064474799
4453 -306.6504090684619
4454 -306.3582953597734
4455 -306.6547069713762
4456 -306.3577601639722
4457 -306.6502938984743
4458 -306.3587073524989
4459 -306.6478041369639
4460 -306.356601193621
4461 -306.648415546256
4462 -306.359853136848
4463 -306.6513380968751
4464 -306.3507864289379
4465 -306.6530303517721
4466 -306.3542854032368
4467 -306.6523563987178
4468 -306.3538050439037
4469 -306.6456769115192
4470 -306.34760568915
4471 -306.6566912017179
4472 -306.3496341653344
4473 -306.6520966504521
4474 -306.3492023489191
4475 -306.6521198760105
4476 -306.3424277268562
4477 -306.6504047151434
4478 -306.3558586751857
4479 -306.6525325444319
4480 -306.3473724847248
4481 -306.6499499118352
4482 -306.3520570878956
4483 -306.6572717223692
4484 -306.3490120676812
4485 -306.6551936930802
4486 -306.3516763810148
4487 -306.660382408265
4488 -306.3481147039148
4489 -306.6560242388069
4490 -306.3454614756708
4491 -306.6662790411054
4492 -306.3447915364148
4493 -306.6625810999434
4494 -306.3443776811845
4495 -306.6666569771659
4496 -306.3414871130125
4497 -306.6634006921881
4498 -306.3444913422529
4499 -306.6661807506704
4500 -306.3376233555046
4501 -306.6628546177667
4502 -306.3479234951563
4503 -306.667758005667
4504 -306.3549926759467
4505 -306.6581021782726
4506 -306.3501727593181
4507 -306.6550322829941
4508 -306.3508525618273
4509 -306.6486613213936
4510 -306.3532840181942
4511 -306.6481486091747
4512 -306.3479047907443
4513 -306.635242314049
4514 -306.3536330742451
4515 -306.6447861539924
4516 -306.3483317591856
4517 -306.6468175577847
4518 -306.3534840018872
4519 -306.6492205406832
4520 -306.3516663301039
4521 -306.640314065897
4522 -306.3505723846957
4523 -306.6450888358088
4524 -306.3494419263956
4525 -306.6478293300974
4526 -306.3554532492441
4527 -306.6623329309497
4528 -306.3579244863441
4529 -306.6480004575027
4530 -306.3569618325216
4531 -306.6466792405654
4532 -306.3499123082824
4533 -306.6444297356856
4534 -306.3545169955654
4535 -306.6462417742541
4536 -306.3476963414145
4537 -306.6401756442701
4538 -306.353531445794
4539 -306.6480109928119
4540 -306.3480514315486
4541 -306.6403874108515
4542 -306.3478545215537
4543 -306.6392909249012
4544 -306.347211333254
4545 -306.6409283031681
4546 -306.3518009595113
4547 -306.6511836933759
4548 -306.3459721615066
4549 -306.6450851156374
4550 -306.3494782214144
4551 -306.6649868449435
4552 -306.3554592806456
4553 -306.662247329986
4554 -306.3605500588516
4555 -306.6569440913324
4556 -306.3534280691609
4557 -306.6598041170301
4558 -306.3638054152571
4559 -306.6606171586736
4560 -306.3566770081508
4561 -306.6563211870745
4562 -306.3591262239567
4563 -306.6642310331351
4564 -306.3617980125572
4565 -306.65195129451
4566 -306.3500033829994
4567 -306.6543345547615
4568 -306.3517260985906
4569 -306.6528933404846
4570 -306.3454381763163
4571 -306.6562910257222
4572 -306.3413053075611
4573 -306.649658379483
4574 -306.3388611186944
4575 -306.6605282630988
4576 -306.3377496053307
4577 -306.6573333247179
4578 -306.3365796402396
4579 -306.65368337887
4580 -306.3379092874086
4581 -306.6518064040478
4582 -306.3445412595734
4583 -306.6557887045497
4584 -306.3419390462947
4585 -306.6537301163775
4586 -306.3429238144993
4587 -306.6627929809919
4588 -306.3496258573156
4589 -306.657087668797
4590 -306.3561187663951
4591 -306.6516879992037
4592 -306.3541391583127
4593 -306.651979110557
4594 -306.3556098024104
4595 -306.6525621541169
4596 -306.3441110364776
4597 -306.6504912375914
4598 -306.350675677748
4599 -306.6534244925241
4600 -306.3470779909032
4601 -306.6586841158759
4602 -306.3519702071644
4603 -306.6570320814363
4604 -306.3532226085839
4605 -306.6549588945478
4606 -306.3533147503944
4607 -306.6606655075234
4608 -306.3527182377483
4609 -306.6533760504399
4610 -306.3541652645391
4611 -306.6494755221187
4612 -306.3461151823527
4613 -306.6459110506335
4614 -306.3559715164973
4615 -306.6489319389657
4616 -306.3530208401594
4617 -306.6472451729123
4618 -306.3545501476357
4619 -306.6480683373391
4620 -306.3545743316385
4621 -306.640781406846
4622 -306.348455660094
4623 -306.652503577045
4624 -306.3463275429453
4625 -306.6563245163446
4626 -306.349649089078
4627 -306.654379365885
4628 -306.3430637788748
4629 -306.6544599149444
4630 -306.3386893883048
4631 -306.6605818479328
4632 -306.34316105266
4633 -306.6509838722455
4634 -306.3426077920014
4635 -306.657589353938
4636 -306.3448681295833
4637 -306.6630017516596
4638 -306.3582408774459
4639 -306.6563143460121
4640 -306.3601489521324
4641 -306.6612685052681
4642 -306.3555711836633
4643 -306.6623304345367
4644 -306.3506493186474
4645 -306.6566442786832
4646 -306.3538780217191
4647 -306.6587405698143
4648 -306.3448430445135
4649 -306.6576693642641
4650 -306.3489112611389
4651 -306.6629718952944
4652 -306.3470157204187
4653 -306.6615722169337
4654 -306.3470696218149
4655 -306.6608242778257
4656 -306.3511760848623
4657 -306.649970729978
4658 -306.3520165749391
4659 -306.6560654566349
4660 -306.3482435913882
4661 -306.6501618543121
4662 -306.3548510433581
4663 -306.6480203390199
4664 -306.3536538407594
4665 -306.6419397588341
4666 -306.3487708475595
4667 -306.6444455077751
4668 -306.3423809321907
4669 -306.6460831898846
4670 -306.3483320383277
4671 -306.650787119554
4672 -306.3443169710532
4673 -306.6552605663401
4674 -306.3482156401086
4675 -306.6499869347475
4676 -306.3521553033419
4677 -306.6509682216017
4678 -306.3542785704222
4679 -306.6566780909981
4680 -306.3559892607649
4681 -306.6535810671116
4682 -306.3640327141138
4683 -306.6510791384576
4684 -306.3569204582129
4685 -306.6453938919952
4686 -306.35417998151
4687 -306.6481515074382
4688 -306.3569293647469
4689 -306.6408551806431
4690 -306.3541785025439
4691 -306.6400184811951
4692 -306.3607371647236
4693 -306.6385222082108
4694 -306.3560404993635
4695 -306.6402174122034
4696 -306.3484421750582
4697 -306.6422236158386
4698 -306.3480098721732
4699 -306.6499607218241
4700 -306.3460638439344
4701 -306.653430739928
4702 -306.3459221008858
4703 -306.6594551098161
4704 -306.3425652411361
4705 -306.6612825462341
4706 -306.3412091621461
4707 -306.6688249577983
4708 -306.3496896354678
4709 -306.6645931921179
4710 -306.3451648261747
4711 -306.6635351823113
4712 -306.3527622531136
4713 -306.6545769119731
4714 -306.3513148493113
4715 -306.6539690294873
4716 -306.3485929672918
4717 -306.6532746407138
4718 -306.356909474267
4719 -306.656924846876
4720 -306.3544450930913
4721 -306.6510702698947
4722 -306.3563180325114
4723 -306.6475511491405
4724 -306.3514609662893
4725 -306.649182477725
4726 -306.3508699789247
4727 -306.6540587313592
4728 -306.3514781459695
4729 -306.6527532624935
4730 -306.3506256101255
4731 -306.6603226329821
4732 -306.3504822034858
4733 -306.6542756042546
4734 -306.347769122072
4735 -306.6560811748636
4736 -306.3401184502861
4737 -306.6587926920054
4738 -306.3421607705895
4739 -306.6508976958069
4740 -306.3425848718747
4741 -306.6460661021087
4742 -306.3443301211126
4743 -306.6558108532558
4744 -306.3507097437427
4745 -306.6504757007131
4746 -306.3430988074942
4747 -306.6467475575285
4748 -306.3429173776021
4749 -306.6499573366851
4750 -306.352065130326
4751 -306.6608388275184
4752 -306.3578443825227
4753 -306.6534859594958
4754 -306.3534052981834
4755 -306.6584471081279
4756 -306.3514347641898
4757 -306.6586219869772
4758 -306.3554911523396
4759 -306.6616309403012
4760 -306.355617814919
4761 -306.6675468125586
4762 -306.3594561834494
4763 -306.666246314487
4764 -306.3581154560707
4765 -306.6612440396169
4766 -306.3583712355322
4767 -306.6660139732853
4768 -306.3564293606618
4769 -306.6497833291144
4770 -306.3500730777098
4771 -306.6560629122356
4772 -306.3500499448697
4773 -306.6525437297456
4774 -306.3528013555356
4775 -306.6558149982404
4776 -306.3499765138505
4777 -306.647299371849
4778 -306.3511030431156
4779 -306.6501261135043
4780 -306.3501382163938
4781 -306.6442536490349
4782 -306.344037128057
4783 -306.6453231654955
4784 -306.3416445588159
4785 -306.6447764612429
4786 -306.3397840941309
4787 -306.6508790937369
4788 -306.3458300518684
4789 -306.6426256220946
4790 -306.3437765071359
4791 -306.6489542881474
4792 -306.3573178045916
4793 -306.6420867900941
4794 -306.350367903448
4795 -306.6436012074811
4796 -306.3485372619344
4797 -306.6398939998878
4798 -306.3454684547571
4799 -306.6472487419129
4800 -306.3462643649834
4801 -306.6394665694352
4802 -306.3428549976543
4803 -306.6498532427455
4804 -306.3344693325824
4805 -306.6504377608007
4806 -306.3361301741664
4807 -306.645101389914
4808 -306.3328494029992
4809 -306.652872923475
4810 -306.3380232190823
4811 -306.6558183579836
4812 -306.3507293352991
4813 -306.6496306998535
4814 -306.3516468912455
4815 -306.6513214582622
4816 -306.3531791114578
4817 -306.645991719959
4818 -306.3516029201672
4819 -306.6381651549751
4820 -306.3454731702076
4821 -306.6425928351036
4822 -306.3527019051656
4823 -306.6540000732767
4824 -306.3630402005006
4825 -306.6453105300084
4826 -306.3603305391949
4827 -306.6484937832701
4828 -306.3501248542822
4829 -306.6492665945567
4830 -306.3474128099056
4831 -306.6431781776622
4832 -306.3491243274755
4833 -306.6432975991303
4834 -306.342709974511
4835 -306.6560987437232
4836 -306.3453655617752
4837 -306.6480667400397
4838 -306.345331711944
4839 -306.6522625182536
4840 -306.3450425760597
4841 -306.6481069531708
4842 -306.3440538884173
4843 -306.6473181296699
4844 -306.3419014409486
4845 -306.649869326512
4846 -306.3492849570277
4847 -306.6507374173619
4848 -306.3525568857992
4849 -306.6527311318345
4850 -306.3548177868621
4851 -306.6554112756735
4852 -306.3541871301314
4853 -306.6532995913574
4854 -306.357596173793
4855 -306.6503959632897
4856 -306.3532540639159
4857 -306.6506971578604
4858 -306.3508274146865
4859 -306.6534111676626
4860 -306.3535662638043
4861 -306.6548281518143
4862 -306.3603228531302
4863 -306.6630244705105
4864 -306.3536878918303
4865 -306.6605955858694
4866 -306.3494961794478
4867 -306.6600574298257
4868 -306.3504359479721
4869 -306.6562249527644
4870 -306.3456870458383
4871 -306.66451015426
4872 -306.3488044948497
4873 -306.6657427441192
4874 -306.3558742030134
4875 -306.666565101864
4876 -306.3516002828595
4877 -306.6613417073931
4878 -306.3521164504965
4879 -306.6578964907808
4880 -306.3473604384873
4881 -306.6532402887071
4882 -306.347201464506
4883 -306.6538887484435
4884 -306.3457489096671
4885 -306.6564658093259
4886 -306.3521411028097
4887 -306.6536394417892
4888 -306.3397070545404
4889 -306.6536519762027
4890 -306.3402822820453
4891 -306.6551132772057
4892 -306.3407745547859
4893 -306.6433370695714
4894 -306.3443917798132
4895 -306.6532844827975
4896 -306.3453790867113
4897 -306.649960927958
4898 -306.3449215549572
4899 -306.6546189698923
4900 -306.3447587858887
4901 -306.647954765373
4902 -306.346656142406
4903 -306.6487880473151
4904 -306.3494929675733
4905 -306.6433272926712
4906 -306.3468635344182
4907 -306.6515393780995
4908 -306.342022895232
4909 -306.6488486489965
4910 -306.3534763789725
4911 -306.6530795362241
4912 -306.3567900956165
4913 -306.6485491203798
4914 -306.3486604665268
4915 -306.6473571400477
4916 -306.3481546272178
4917 -306.642207248569
4918 -306.3426274171228
4919 -306.6449871051124
4920 -306.3418445154069
4921 -306.6379321379323
4922 -306.3528658140987
4923 -306.6476902994227
4924 -306.3487985207812
4925 -306.6445164607267
4926 -306.3457945419019
4927 -306.6468875937435
4928 -306.3562951223613
4929 -306.6453004105945
4930 -306.3510477963983
4931 -306.6472840782363
4932 -306.3480494031503
4933 -306.6460745759658
4934 -306.3483881723981
4935 -306.653157338496
4936 -306.3465449160504
4937 -306.6531591572921
4938 -306.3480314169165
4939 -306.6531814977409
4940 -306.342905338992
4941 -306.6518941127112
4942 -306.3464496197677
4943 -306.6534243265236
4944 -306.3487381417416
4945 -306.6556030542404
4946 -306.3554197792143
4947 -306.6568590521999
4948 -306.3471190344031
4949 -306.6559537925886
4950 -306.3511103544436
4951 -306.652880185408
4952 -306.3501690504494
4953 -306.6488739912326
4954 -306.3506285748094
4955 -306.6468571061021
4956 -306.3492744029812
4957 -306.6421494406984
4958 -306.3500311068954
4959 -306.649689114869
4960 -306.3457210221604
4961 -306.6478529746655
4962 -306.3450836260552
4963 -306.648155694593
4964 -306.350395577249
4965 -306.6474378208617
4966 -306.3506382650456
4967 -306.6511883796937
4968 -306.3472384777975
4969 -306.6428408579499
4970 -306.3496830245465
4971 -306.6512703463978
4972 -306.3418273010096
4973 -306.6523519827783
4974 -306.3482631312241
4975 -306.6465807090856
4976 -306.3491935644287
4977 -306.6447333259454
4978 -306.3481546355528
4979 -306.6429136086129
4980 -306.3539672847539
4981 -306.6415501870479
4982 -306.3523451804991
4983 -306.6493308802981
4984 -306.3468835085801
4985 -306.6476090823029
4986 -306.346396787771
4987 -306.648861376469
4988 -306.3410296260569
4989 -306.6516741346836
4990 -306.3502295275387
4991 -306.6562965443478
4992 -306.3443197620471
4993 -306.6443353215529
4994 -306.3486253170057
4995 -306.6599120548196
4996 -306.3462228209219
4997 -306.6643115725789
4998 -306.3490670871302
4999 -306.6536023545247
5000 -306.3446073662139
5001 -306.6511848523605
5002 -306.3494952066697
5003 -306.6510564557016
5004 -306.347282868868
5005 -306.6432043424396
5006 -306.3479984049501
5007 -306.652755655706
5008 -306.34783464508
5009 -306.64987534237
5010 -306.3470583037831
5011 -306.6480286020837
5012 -306.3476005724303
5013 -306.6437403527699
5014 -306.3490957300583
5015 -306.6516513142379
5016 -306.3499488640529
5017 -306.6517801236726
5018 -306.3493856004217
5019 -306.6580014153445
5020 -306.3457639894792
5021 -306.6527857555707
5022 -306.3478846526747
5023 -306.6540621685829
5024 -306.3450745098328
5025 -306.6498292958099
5026 -306.3473003316276
5027 -306.6611602315828
5028 -306.3544885037178
5029 -306.6433508235037
5030 -306.3594405592385
5031 -306.6526783745545
5032 -306.3540383403548
5033 -306.6459777078213
5034 -306.3529725769928
5035 -306.6450442988294
5036 -306.3450419954042
5037 -306.6415153665347
5038 -306.3487085282678
5039 -306.6486728819254
5040 -306.3438576634206
5041 -306.6479142252404
5042 -306.351695690367
5043 -306.6493210251508
5044 -306.3446784892624
5045 -306.644562714057
5046 -306.3404047729904
5047 -306.647922926088
5048 -306.3420477672499
5049 -306.6519199375258
5050 -306.3485625759204
5051 -306.6591846766747
5052 -306.3499896118195
5053 -306.651548224742
5054 -306.3569272599391
5055 -306.6587412887046
5056 -306.3488962849531
5057 -306.6504862708841
5058 -306.3477867323737
5059 -306.6557453051881
5060 -306.3493187251861
5061 -306.6521096785056
5062 -306.3533237881985
5063 -306.6532210710764
5064 -306.3474014626019
5065 -306.6425912793921
5066 -306.3488538422787
5067 -306.6541145406479
5068 -306.3442075148051
