"moment_x-rfile"
"Iteration" "moment_x"
("Iteration" "moment_x")
1 -12060.50346813033
2 -11567.28181266558
3 -9968.724948729456
4 -8707.957862497398
5 -7216.441656717032
6 -5785.141722143208
7 -4657.415707799815
8 -3625.520587499776
9 -2611.772782365365
10 -1690.973479569481
11 -936.3084202986842
12 -404.8865200082544
13 -60.23308282026329
14 98.3397091466416
15 133.2107194917318
16 76.30859453212516
17 -45.63553929993579
18 -190.2315465853839
19 -396.2532859488908
20 -583.8072142459608
21 -775.8871173441948
22 -987.8026665185546
23 -1170.651238490159
24 -1343.288260396583
25 -1482.845258070905
26 -1586.026858929695
27 -1661.74929877666
28 -1708.304980024334
29 -1741.254344024104
30 -1754.722386368021
31 -1761.987860026484
32 -1762.304435953208
33 -1759.408735658404
34 -1754.861359939709
35 -1749.121557348165
36 -1743.485153535771
37 -1737.705926059567
38 -1730.762830300301
39 -1726.168809732447
40 -1723.006559691422
41 -1721.664227602296
42 -1721.48907711865
43 -1722.640215191518
44 -1725.006037269381
45 -1728.480870795569
46 -1732.214896745176
47 -1736.082336685214
48 -1740.197527802746
49 -1744.86386494462
50 -1750.004182625169
51 -1755.199491995254
52 -1760.860905599721
53 -1766.324782274025
54 -1772.934261832543
55 -1778.517411098169
56 -1783.580686430199
57 -1788.055156858428
58 -1791.953762220392
59 -1795.285516580366
60 -1797.391679884599
61 -1799.5975795455
62 -1800.872945834708
63 -1802.389318635701
64 -1803.390945039442
65 -1804.357663185103
66 -1805.23009669254
67 -1806.068570172145
68 -1806.619625597148
69 -1807.312274335614
70 -1807.756698167483
71 -1808.310132102289
72 -1808.606456367033
73 -1808.965352076353
74 -1809.011047933497
75 -1808.915249993493
76 -1808.560370544632
77 -1808.106467022788
78 -1807.47547459357
79 -1806.783369713533
80 -1805.992650291779
81 -1805.523869170441
82 -1804.713207755133
83 -1804.188617888857
84 -1803.310760895769
85 -1802.739416818562
86 -1802.146833686975
87 -1801.524617733059
88 -1800.889573131709
89 -1800.272842183866
90 -1799.62335726985
91 -1798.954558413285
92 -1798.218775197355
93 -1797.4510589611
94 -1796.67069909106
95 -1795.819777376327
96 -1794.910916819211
97 -1794.002335832831
98 -1793.023717806773
99 -1792.031350850889
100 -1790.94566859308
101 -1789.878170089632
102 -1788.703652185677
103 -1787.534881611437
104 -1786.272502338167
105 -1785.021821463871
106 -1783.623554049934
107 -1782.32410250434
108 -1780.925003241381
109 -1779.557156164614
110 -1778.108757495569
111 -1776.676805464736
112 -1775.16312052236
113 -1773.72715488947
114 -1772.207976877397
115 -1770.69376114002
116 -1769.150858867568
117 -1767.641317560003
118 -1766.075522562509
119 -1764.51954606098
120 -1762.95801200828
121 -1761.455572538814
122 -1759.923435437856
123 -1758.4230087557
124 -1756.918205394758
125 -1755.433242602942
126 -1753.946227240713
127 -1752.454212783949
128 -1750.948144037397
129 -1749.456388125978
130 -1747.959479430279
131 -1746.433539356832
132 -1744.947924006696
133 -1743.449271780597
134 -1741.960566215698
135 -1740.438845758307
136 -1738.969175696578
137 -1737.486159993514
138 -1735.979740349918
139 -1734.502568401733
140 -1733.032635599317
141 -1731.560350083582
142 -1730.096284403701
143 -1728.642483327085
144 -1727.181149248781
145 -1725.76002306288
146 -1724.268851431625
147 -1722.837762405184
148 -1721.361656201614
149 -1719.977924604659
150 -1718.52253076709
151 -1717.123725269485
152 -1715.67131364451
153 -1714.302977280259
154 -1712.884859905766
155 -1711.542574133633
156 -1710.181474780594
157 -1708.891556332844
158 -1707.574969527246
159 -1706.350220756457
160 -1705.065748756625
161 -1703.889166462911
162 -1702.677148070323
163 -1701.56373171806
164 -1700.415454836043
165 -1699.359460375546
166 -1698.27212330062
167 -1697.268841966293
168 -1696.263052205611
169 -1695.322843600373
170 -1694.386618197211
171 -1693.525381552657
172 -1692.679985195022
173 -1691.890668597844
174 -1691.146163272994
175 -1690.429384349175
176 -1689.750770419047
177 -1689.121847174219
178 -1688.517421843243
179 -1687.969887650226
180 -1687.477613586893
181 -1687.028634344707
182 -1686.637783137038
183 -1686.287808392933
184 -1686.012492510824
185 -1685.752815464848
186 -1685.575274983193
187 -1685.43631029729
188 -1685.3571765027
189 -1685.295442469434
190 -1685.325541067069
191 -1685.382270976132
192 -1685.504894613468
193 -1685.650634613815
194 -1685.874033064668
195 -1686.140605947625
196 -1686.469974072028
197 -1686.822939635849
198 -1687.233834153227
199 -1687.679414644356
200 -1688.175093356964
201 -1688.734538542643
202 -1689.313241148736
203 -1689.94562764961
204 -1690.586782532223
205 -1691.296605154726
206 -1692.010084247109
207 -1692.805254447819
208 -1693.608271871157
209 -1694.456576203233
210 -1695.302653869426
211 -1696.221271462968
212 -1697.12964016915
213 -1698.108145209582
214 -1699.056379324072
215 -1700.087806871022
216 -1701.082088486874
217 -1702.131743175313
218 -1703.165635336873
219 -1704.235375654651
220 -1705.292636284541
221 -1706.382589881345
222 -1707.46025046399
223 -1708.553031506574
224 -1709.623558650206
225 -1710.702825232676
226 -1711.778319555606
227 -1712.861510505859
228 -1713.922754826546
229 -1714.972720839899
230 -1716.024035513737
231 -1717.049200432986
232 -1718.076250442356
233 -1719.088999087142
234 -1720.070658153572
235 -1721.040538965685
236 -1721.983214632916
237 -1722.925002745042
238 -1723.832894031513
239 -1724.744058125216
240 -1725.623483194326
241 -1726.503593401882
242 -1727.33615617107
243 -1728.170493267567
244 -1728.965127618495
245 -1729.776394105296
246 -1730.548620070333
247 -1731.311874176244
248 -1732.050951329156
249 -1732.774711658186
250 -1733.486896375672
251 -1734.17756279813
252 -1734.87128317128
253 -1735.535357949092
254 -1736.194373787661
255 -1736.840673692782
256 -1737.485288066585
257 -1738.098009435665
258 -1738.722866122089
259 -1739.332444886017
260 -1739.929843441269
261 -1740.514756761122
262 -1741.11104820589
263 -1741.683548078801
264 -1742.267265886851
265 -1742.837751383209
266 -1743.417694104183
267 -1743.987149627914
268 -1744.554223679767
269 -1745.121121773123
270 -1745.689693659337
271 -1746.262366351027
272 -1746.820264264573
273 -1747.390342221927
274 -1747.949929036139
275 -1748.515120336021
276 -1749.075853856094
277 -1749.634435550098
278 -1750.210896937982
279 -1750.77346668978
280 -1751.336304555869
281 -1751.890279745993
282 -1752.456986982395
283 -1753.013479968225
284 -1753.594203307212
285 -1754.146157787852
286 -1754.738221440969
287 -1755.292133221687
288 -1755.866030098142
289 -1756.433737466161
290 -1757.003313431337
291 -1757.574361193944
292 -1758.148193230079
293 -1758.720047248062
294 -1759.298298447347
295 -1759.87051105876
296 -1760.445856746817
297 -1761.023850224794
298 -1761.594062034617
299 -1762.173129768465
300 -1762.736923167351
301 -1763.3238167086
302 -1763.887836181869
303 -1764.479015916609
304 -1765.058170257511
305 -1765.628113778168
306 -1766.21012263427
307 -1766.774441763773
308 -1767.352396229956
309 -1767.911061131515
310 -1768.494737496544
311 -1769.04788583124
312 -1769.639831662687
313 -1770.191267293042
314 -1770.785876028271
315 -1771.330505061281
316 -1771.927433056746
317 -1772.465579933413
318 -1773.067997902773
319 -1773.616038636573
320 -1774.199669148394
321 -1774.736843631892
322 -1775.318909516779
323 -1775.850082347383
324 -1776.434295279112
325 -1776.965180861244
326 -1777.533538012313
327 -1778.063620316792
328 -1778.620224467846
329 -1779.147316266509
330 -1779.693881722033
331 -1780.233075922664
332 -1780.772988949128
333 -1781.313616414156
334 -1781.857286554553
335 -1782.398641056541
336 -1782.932790057299
337 -1783.467665877233
338 -1784.008310986018
339 -1784.55736835878
340 -1785.077664618728
341 -1785.618310602397
342 -1786.161491748657
343 -1786.701457390903
344 -1787.253679598408
345 -1787.782619315227
346 -1788.324608232531
347 -1788.858127413136
348 -1789.400643644284
349 -1789.932722711505
350 -1790.478939211891
351 -1791.01037259272
352 -1791.563522132502
353 -1792.077141071231
354 -1792.614091527074
355 -1793.142509832971
356 -1793.661078729227
357 -1794.170738277936
358 -1794.687904355073
359 -1795.198924305737
360 -1795.713172905578
361 -1796.20871493576
362 -1796.713231330988
363 -1797.203317439053
364 -1797.696826172633
365 -1798.186906489698
366 -1798.69291972668
367 -1799.176607242781
368 -1799.681730452116
369 -1800.17321895343
370 -1800.642019498393
371 -1801.137937598894
372 -1801.625055615986
373 -1802.123164992257
374 -1802.602770558369
375 -1803.089655878307
376 -1803.564490597068
377 -1804.048244626441
378 -1804.510814724713
379 -1805.002725305138
380 -1805.450499020804
381 -1805.939335242324
382 -1806.389704839647
383 -1806.85688237093
384 -1807.301720166257
385 -1807.777278525552
386 -1808.22150729878
387 -1808.673840939467
388 -1809.120645828361
389 -1809.568216469264
390 -1810.020623517971
391 -1810.462748774723
392 -1810.910537808612
393 -1811.344841181917
394 -1811.797257322594
395 -1812.21771627009
396 -1812.658207395284
397 -1813.062118850655
398 -1813.503567626297
399 -1813.899290607873
400 -1814.329350203893
401 -1814.723501326072
402 -1815.153479885363
403 -1815.547363454754
404 -1815.971242088153
405 -1816.339464921102
406 -1816.744492480019
407 -1817.108615155519
408 -1817.52254252255
409 -1817.87864177546
410 -1818.286653990191
411 -1818.62658098052
412 -1819.040407324317
413 -1819.385933737874
414 -1819.789739769183
415 -1820.134506031209
416 -1820.516155387218
417 -1820.852091037642
418 -1821.242601605708
419 -1821.578382782765
420 -1821.95795015334
421 -1822.301103243058
422 -1822.678370468527
423 -1823.020866749617
424 -1823.370050956041
425 -1823.72304491036
426 -1824.062998116483
427 -1824.421916839304
428 -1824.750363669868
429 -1825.091514354935
430 -1825.421827125646
431 -1825.750331672199
432 -1826.07066567015
433 -1826.403440484649
434 -1826.716712391333
435 -1827.046647867973
436 -1827.36384915647
437 -1827.682205293924
438 -1827.992727279627
439 -1828.298487000927
440 -1828.613742517301
441 -1828.902926234728
442 -1829.204305487219
443 -1829.493656623039
444 -1829.792350059301
445 -1830.060766472694
446 -1830.363107648412
447 -1830.62768881259
448 -1830.929415594139
449 -1831.186702024842
450 -1831.474536544228
451 -1831.727688084837
452 -1832.013649733279
453 -1832.271813030786
454 -1832.559146418513
455 -1832.815735556469
456 -1833.090804509722
457 -1833.349094410152
458 -1833.616669040233
459 -1833.878237881961
460 -1834.13926142405
461 -1834.395594721517
462 -1834.654660809431
463 -1834.912982692678
464 -1835.174771224044
465 -1835.430988447306
466 -1835.682862777707
467 -1835.942168656782
468 -1836.18479896591
469 -1836.429299589457
470 -1836.681148857843
471 -1836.923829162222
472 -1837.162724373063
473 -1837.393391066285
474 -1837.638259645118
475 -1837.864051780659
476 -1838.099505965802
477 -1838.31752708217
478 -1838.555924598671
479 -1838.767257022355
480 -1838.98924936943
481 -1839.202073022693
482 -1839.444353597085
483 -1839.636531383622
484 -1839.870966070835
485 -1840.059747660303
486 -1840.299834259311
487 -1840.480612516362
488 -1840.709366923226
489 -1840.888718596545
490 -1841.113867881329
491 -1841.287408032641
492 -1841.513758990788
493 -1841.678558322657
494 -1841.908593885835
495 -1842.072634520598
496 -1842.295025221488
497 -1842.460897275569
498 -1842.680638692796
499 -1842.840325433685
500 -1843.057808524272
501 -1843.212252547015
502 -1843.436480903198
503 -1843.583824612679
504 -1843.803910123595
505 -1843.947391214771
506 -1844.161153380181
507 -1844.317160825861
508 -1844.527611384491
509 -1844.685723398445
510 -1844.893809898073
511 -1845.064269078011
512 -1845.264436144156
513 -1845.420515604356
514 -1845.621424750769
515 -1845.784193661808
516 -1845.971963434269
517 -1846.134816357084
518 -1846.315931632598
519 -1846.486569073654
520 -1846.658244202774
521 -1846.817650832044
522 -1846.976169322685
523 -1847.143315961784
524 -1847.29685819512
525 -1847.448222911676
526 -1847.609174698846
527 -1847.763597795927
528 -1847.914095833935
529 -1848.066505349363
530 -1848.219841921802
531 -1848.362524211313
532 -1848.504796843038
533 -1848.639703167151
534 -1848.802429461138
535 -1848.930110975505
536 -1849.086213925908
537 -1849.211865307871
538 -1849.361610278419
539 -1849.475947425219
540 -1849.629240912508
541 -1849.738947123167
542 -1849.908493492015
543 -1850.015909963554
544 -1850.171964958348
545 -1850.276446814971
546 -1850.438785806316
547 -1850.542901780958
548 -1850.690403417457
549 -1850.794221348904
550 -1850.95432889047
551 -1851.06569830476
552 -1851.211111165554
553 -1851.333954376666
554 -1851.467170541467
555 -1851.597811267687
556 -1851.731503869947
557 -1851.870669389181
558 -1851.996106354368
559 -1852.135855738672
560 -1852.2654451089
561 -1852.401992450351
562 -1852.524642678726
563 -1852.65486224064
564 -1852.763119041317
565 -1852.880969740579
566 -1852.998142807733
567 -1853.101669050241
568 -1853.22201707322
569 -1853.318531132271
570 -1853.441268169342
571 -1853.533088685038
572 -1853.656515679148
573 -1853.739752381183
574 -1853.864851947807
575 -1853.953999688787
576 -1854.096487086489
577 -1854.17477883916
578 -1854.306024992028
579 -1854.374150978869
580 -1854.515935894547
581 -1854.583731648737
582 -1854.725899039242
583 -1854.805946187002
584 -1854.93621293841
585 -1855.013686812413
586 -1855.161291913512
587 -1855.243372741763
588 -1855.370637175889
589 -1855.446092804366
590 -1855.581377546532
591 -1855.659775218671
592 -1855.792028568961
593 -1855.861034879671
594 -1855.991353879674
595 -1856.061881677206
596 -1856.179785089044
597 -1856.245469677777
598 -1856.362604662078
599 -1856.429267383729
600 -1856.534155326204
601 -1856.596161107797
602 -1856.697864117577
603 -1856.755367157349
604 -1856.861898637781
605 -1856.918917012942
606 -1857.008749077901
607 -1857.083739385855
608 -1857.171927522211
609 -1857.253327055202
610 -1857.337539470976
611 -1857.419226422873
612 -1857.502432971365
613 -1857.58630143259
614 -1857.667221129595
615 -1857.761249190117
616 -1857.841026638215
617 -1857.933383696479
618 -1858.018583523084
619 -1858.107773563444
620 -1858.182891999904
621 -1858.273255422255
622 -1858.35578838796
623 -1858.447707689038
624 -1858.520614376477
625 -1858.609526137521
626 -1858.690940218059
627 -1858.772303607821
628 -1858.85066269464
629 -1858.929798217483
630 -1859.011393260106
631 -1859.085553382136
632 -1859.157140715621
633 -1859.224033713019
634 -1859.298921987825
635 -1859.360216682991
636 -1859.432464158366
637 -1859.484190074788
638 -1859.559426213813
639 -1859.607393985969
640 -1859.690112403302
641 -1859.747939736975
642 -1859.835042208258
643 -1859.894136547119
644 -1859.979998804368
645 -1860.026059072341
646 -1860.094472989116
647 -1860.154081928746
648 -1860.230925402211
649 -1860.288081283828
650 -1860.364667847273
651 -1860.421149200617
652 -1860.486851166813
653 -1860.537614637261
654 -1860.62409090147
655 -1860.672179501833
656 -1860.75632491812
657 -1860.799566690598
658 -1860.885676069991
659 -1860.936516260834
660 -1861.021090002182
661 -1861.066345788558
662 -1861.159915547354
663 -1861.200484539469
664 -1861.298682633095
665 -1861.331452720061
666 -1861.422569677198
667 -1861.458102467258
668 -1861.549342224336
669 -1861.56413873266
670 -1861.655108185541
671 -1861.662509333697
672 -1861.742263655207
673 -1861.763635932877
674 -1861.858117658162
675 -1861.870346860234
676 -1861.961569293029
677 -1861.968287747244
678 -1862.061381703962
679 -1862.074136728355
680 -1862.148308248523
681 -1862.166501211771
682 -1862.246174467194
683 -1862.266995661884
684 -1862.339756939743
685 -1862.367969700294
686 -1862.429416874036
687 -1862.473590468152
688 -1862.530441950788
689 -1862.584508276143
690 -1862.645502067331
691 -1862.699778331578
692 -1862.753250292536
693 -1862.803628718117
694 -1862.849286358628
695 -1862.904888074595
696 -1862.956645333063
697 -1863.005317509759
698 -1863.048955156688
699 -1863.103782346616
700 -1863.14512430309
701 -1863.200386183211
702 -1863.247002370034
703 -1863.30321094243
704 -1863.338509309118
705 -1863.393418558514
706 -1863.439804545898
707 -1863.484139167812
708 -1863.519342143717
709 -1863.569544498162
710 -1863.612111580722
711 -1863.66870725348
712 -1863.703081130889
713 -1863.762313596597
714 -1863.794133508787
715 -1863.848773620093
716 -1863.889160951092
717 -1863.937046346615
718 -1863.980027536506
719 -1864.020629283589
720 -1864.063280822402
721 -1864.088659326446
722 -1864.144330633604
723 -1864.166377905033
724 -1864.23074632846
725 -1864.238792129321
726 -1864.311581399968
727 -1864.321982085394
728 -1864.388873005189
729 -1864.38870077177
730 -1864.463752213604
731 -1864.470607716457
732 -1864.534210076861
733 -1864.551353154915
734 -1864.612300127802
735 -1864.63721399922
736 -1864.686645802073
737 -1864.712255434387
738 -1864.766638389708
739 -1864.799029044854
740 -1864.836750254208
741 -1864.869817130454
742 -1864.907026108101
743 -1864.939085690238
744 -1864.96733882273
745 -1864.997057069766
746 -1865.018958851343
747 -1865.051839408177
748 -1865.07342461853
749 -1865.106103199489
750 -1865.139260125997
751 -1865.158545133661
752 -1865.195850103934
753 -1865.21120495133
754 -1865.2614562593
755 -1865.270525689472
756 -1865.315884887611
757 -1865.319589986781
758 -1865.379769253694
759 -1865.386994942465
760 -1865.449379457704
761 -1865.438084224633
762 -1865.512463961322
763 -1865.506762883553
764 -1865.565520669701
765 -1865.566810864738
766 -1865.6351599489
767 -1865.648249407119
768 -1865.697168453599
769 -1865.708181541948
770 -1865.754494970706
771 -1865.774667978101
772 -1865.818454205924
773 -1865.830413344652
774 -1865.878052567311
775 -1865.903217145119
776 -1865.94541112753
777 -1865.971067422538
778 -1866.003231223156
779 -1866.042748552914
780 -1866.082354756496
781 -1866.113251283819
782 -1866.139315396375
783 -1866.17524643031
784 -1866.197355737693
785 -1866.237168366858
786 -1866.251457953418
787 -1866.298371105569
788 -1866.316249004051
789 -1866.353187441507
790 -1866.354320006527
791 -1866.38825815666
792 -1866.394643112886
793 -1866.410500642509
794 -1866.417681826389
795 -1866.436158564239
796 -1866.435325212787
797 -1866.455582802533
798 -1866.462616906864
799 -1866.487260209075
800 -1866.495294662114
801 -1866.515916178208
802 -1866.532648381954
803 -1866.559333015321
804 -1866.578892288331
805 -1866.602471534434
806 -1866.634817615472
807 -1866.658840107302
808 -1866.700024918764
809 -1866.71292410723
810 -1866.758280984972
811 -1866.775652054119
812 -1866.818281879969
813 -1866.830674611613
814 -1866.886919376048
815 -1866.895781259569
816 -1866.941071877688
817 -1866.944807357322
818 -1866.994851051906
819 -1867.002007830951
820 -1867.039870254315
821 -1867.046944072412
822 -1867.088764345744
823 -1867.098431258028
824 -1867.129118197558
825 -1867.131316747695
826 -1867.158898750992
827 -1867.167076667995
828 -1867.195253700608
829 -1867.201734892677
830 -1867.219777402127
831 -1867.22966367664
832 -1867.243490666641
833 -1867.248530970318
834 -1867.270337308216
835 -1867.281339059794
836 -1867.312958172166
837 -1867.315997610669
838 -1867.342425924111
839 -1867.338300280693
840 -1867.36667872336
841 -1867.353861657862
842 -1867.39132296038
843 -1867.39354793364
844 -1867.426899903204
845 -1867.417905939164
846 -1867.459429353923
847 -1867.449744776806
848 -1867.492222615049
849 -1867.479416977743
850 -1867.529434479992
851 -1867.523152116062
852 -1867.569346133662
853 -1867.56389669977
854 -1867.611328647967
855 -1867.60601139407
856 -1867.653488637484
857 -1867.643665318546
858 -1867.696636955952
859 -1867.697220785064
860 -1867.739164161654
861 -1867.741697437922
862 -1867.783800996305
863 -1867.78752936713
864 -1867.830363935694
865 -1867.835039154784
866 -1867.873420164269
867 -1867.874305089293
868 -1867.907255019134
869 -1867.912521999171
870 -1867.948085618789
871 -1867.940334344706
872 -1867.962906695586
873 -1867.96420205609
874 -1867.98564236232
875 -1867.979096670552
876 -1867.99306787566
877 -1867.9865908406
878 -1868.009333747327
879 -1868.003086993345
880 -1868.025449972404
881 -1868.013720093362
882 -1868.059313665804
883 -1868.032385791381
884 -1868.080000420773
885 -1868.051887518695
886 -1868.09022989603
887 -1868.062777495034
888 -1868.094653152303
889 -1868.067649142976
890 -1868.105905379895
891 -1868.081658879868
892 -1868.119530539046
893 -1868.101935389343
894 -1868.140625753351
895 -1868.131342104248
896 -1868.169038365861
897 -1868.16632035466
898 -1868.197133533511
899 -1868.201388566014
900 -1868.228299989321
901 -1868.239656599765
902 -1868.265717560191
903 -1868.28157007212
904 -1868.301316110601
905 -1868.325521561194
906 -1868.350923512671
907 -1868.370237985097
908 -1868.384863297077
909 -1868.396266096914
910 -1868.415418586426
911 -1868.420234055167
912 -1868.439303052351
913 -1868.432492915432
914 -1868.454734453634
915 -1868.445413857797
916 -1868.46566023536
917 -1868.452760315349
918 -1868.470793164552
919 -1868.458466269148
920 -1868.472564682076
921 -1868.459373296565
922 -1868.478615236558
923 -1868.471478005147
924 -1868.497595374635
925 -1868.490988308561
926 -1868.533424341355
927 -1868.525161179139
928 -1868.55095018701
929 -1868.535429117333
930 -1868.578266785816
931 -1868.574233808132
932 -1868.605948821407
933 -1868.602336611186
934 -1868.653071745998
935 -1868.644870684288
936 -1868.676548901223
937 -1868.672476459594
938 -1868.707055208008
939 -1868.703916315153
940 -1868.726383593335
941 -1868.717902685875
942 -1868.739823572098
943 -1868.737804774839
944 -1868.745464401323
945 -1868.744535425883
946 -1868.754705314663
947 -1868.759734835131
948 -1868.761560651115
949 -1868.764032469814
950 -1868.769021107474
951 -1868.772166093187
952 -1868.774357700768
953 -1868.781653410231
954 -1868.784044425511
955 -1868.792504240085
956 -1868.788510378329
957 -1868.800363438158
958 -1868.808046991999
959 -1868.816263219154
960 -1868.814310749048
961 -1868.825616307567
962 -1868.847021814975
963 -1868.858024771873
964 -1868.853553076238
965 -1868.876720677903
966 -1868.906663265525
967 -1868.920445519125
968 -1868.935128566489
969 -1868.940953497296
970 -1868.973158328063
971 -1868.982520177035
972 -1869.007903357725
973 -1868.994417174614
974 -1869.024507558712
975 -1869.00255954468
976 -1869.043596886197
977 -1869.013023261166
978 -1869.053400466157
979 -1869.026277716996
980 -1869.069627816572
981 -1869.022095161112
982 -1869.058457289465
983 -1869.020653972685
984 -1869.056350111761
985 -1869.006078448705
986 -1869.047430203329
987 -1869.018692673029
988 -1869.055137355662
989 -1869.021343105386
990 -1869.065869355029
991 -1869.036821310538
992 -1869.074640702379
993 -1869.054804751128
994 -1869.084609525544
995 -1869.072739452185
996 -1869.090496294028
997 -1869.08183439333
998 -1869.106208630972
999 -1869.115539048877
1000 -1869.140879182996
1001 -1869.136005834984
1002 -1869.153625697511
1003 -1869.172762142084
1004 -1869.191446093985
1005 -1869.20075725552
1006 -1869.196377999382
1007 -1869.21268181866
1008 -1869.217550777558
1009 -1869.229386848426
1010 -1869.23170312169
1011 -1869.254315617328
1012 -1869.259018072036
1013 -1869.260931533556
1014 -1869.27358621605
1015 -1869.268850681124
1016 -1869.27212327838
1017 -1869.265312582379
1018 -1869.279732413611
1019 -1869.263096087956
1020 -1869.268685256232
1021 -1869.252757271805
1022 -1869.261871738816
1023 -1869.24845120267
1024 -1869.253882493236
1025 -1869.235425300552
1026 -1869.259151216799
1027 -1869.246909515497
1028 -1869.262972745503
1029 -1869.256387624804
1030 -1869.268819338485
1031 -1869.261550587627
1032 -1869.274617376509
1033 -1869.262535131065
1034 -1869.285751348626
1035 -1869.287373373224
1036 -1869.29262751649
1037 -1869.294251015226
1038 -1869.310446140911
1039 -1869.311578216255
1040 -1869.33775306
1041 -1869.323308730204
1042 -1869.341850198906
1043 -1869.338408851519
1044 -1869.366090438368
1045 -1869.349910446329
1046 -1869.381266577589
1047 -1869.350852345939
1048 -1869.380469541755
1049 -1869.355566462851
1050 -1869.402989430733
1051 -1869.386710824756
1052 -1869.422885337376
1053 -1869.403247136311
1054 -1869.443766078174
1055 -1869.404090483966
1056 -1869.438515739896
1057 -1869.406134689703
1058 -1869.458342457965
1059 -1869.413159147683
1060 -1869.460191484826
1061 -1869.431339403774
1062 -1869.471071417384
1063 -1869.438429236377
1064 -1869.477431681373
1065 -1869.447150091746
1066 -1869.47612925862
1067 -1869.453235965514
1068 -1869.475422371558
1069 -1869.456800268268
1070 -1869.480803150645
1071 -1869.463379625809
1072 -1869.479143001209
1073 -1869.459059357316
1074 -1869.484073582114
1075 -1869.479011715211
1076 -1869.490784792547
1077 -1869.479382636322
1078 -1869.498948113113
1079 -1869.493024975515
1080 -1869.506326831651
1081 -1869.503232870896
1082 -1869.527015984693
1083 -1869.528449808266
1084 -1869.537143786005
1085 -1869.53242306956
1086 -1869.542579835071
1087 -1869.546529028839
1088 -1869.554548872451
1089 -1869.545937982219
1090 -1869.567236644591
1091 -1869.568148391137
1092 -1869.570906584828
1093 -1869.569629636999
1094 -1869.570711065829
1095 -1869.5767699054
1096 -1869.5685389441
1097 -1869.572010685296
1098 -1869.569309448693
1099 -1869.573372775615
1100 -1869.567531297503
1101 -1869.564708189409
1102 -1869.565762629916
1103 -1869.56255151047
1104 -1869.576956829517
1105 -1869.56180880332
1106 -1869.580208955355
1107 -1869.564876129142
1108 -1869.587227986108
1109 -1869.556010236344
1110 -1869.591517792107
1111 -1869.555334932212
1112 -1869.580849845294
1113 -1869.549430232443
1114 -1869.583160981822
1115 -1869.562101262468
1116 -1869.588117588749
1117 -1869.57317591708
1118 -1869.594643639375
1119 -1869.582929166265
1120 -1869.605475477934
1121 -1869.600177433541
1122 -1869.627459408151
1123 -1869.6222926359
1124 -1869.647088914793
1125 -1869.638987189195
1126 -1869.653238115582
1127 -1869.650864199511
1128 -1869.666973212253
1129 -1869.662974451546
1130 -1869.682518439018
1131 -1869.675327492264
1132 -1869.701025801951
1133 -1869.689096304369
1134 -1869.705766107739
1135 -1869.690219746301
1136 -1869.708483579474
1137 -1869.671318745177
1138 -1869.699889781993
1139 -1869.657408676008
1140 -1869.672211367956
1141 -1869.634224340553
1142 -1869.665115035607
1143 -1869.610916906011
1144 -1869.643340792323
1145 -1869.584540650832
1146 -1869.623536341665
1147 -1869.57471951672
1148 -1869.608229518544
1149 -1869.564471803019
1150 -1869.598005841375
1151 -1869.571743648647
1152 -1869.603049185064
1153 -1869.575312174543
1154 -1869.624092863687
1155 -1869.605460516295
1156 -1869.644048717942
1157 -1869.632443035088
1158 -1869.681182820409
1159 -1869.670217814895
1160 -1869.713130156313
1161 -1869.70068360153
1162 -1869.745705643088
1163 -1869.738397099452
1164 -1869.774241641925
1165 -1869.773060722198
1166 -1869.807813565813
1167 -1869.80051528297
1168 -1869.817970233438
1169 -1869.810384054862
1170 -1869.83357960614
1171 -1869.823623581201
1172 -1869.835178215988
1173 -1869.811803609395
1174 -1869.816924573767
1175 -1869.786846312251
1176 -1869.789083271769
1177 -1869.74533012551
1178 -1869.755870707029
1179 -1869.72612362674
1180 -1869.72000709012
1181 -1869.696591468799
1182 -1869.699861884794
1183 -1869.681056509465
1184 -1869.687979872674
1185 -1869.669549565638
1186 -1869.675655281442
1187 -1869.663947973281
1188 -1869.666793469421
1189 -1869.659012551645
1190 -1869.672918103008
1191 -1869.671927735627
1192 -1869.686165979469
1193 -1869.68400256796
1194 -1869.701850787802
1195 -1869.700191498342
1196 -1869.710966676968
1197 -1869.707829097612
1198 -1869.732742214334
1199 -1869.731118839664
1200 -1869.753545688135
1201 -1869.741478893025
1202 -1869.769508323533
1203 -1869.760515097798
1204 -1869.787500701091
1205 -1869.771911389716
1206 -1869.798780121139
1207 -1869.785419126057
1208 -1869.817262692126
1209 -1869.80424216016
1210 -1869.82207976792
1211 -1869.816310226331
1212 -1869.826316974002
1213 -1869.819831491543
1214 -1869.821992690457
1215 -1869.814570390803
1216 -1869.810904426797
1217 -1869.808646240346
1218 -1869.805453205039
1219 -1869.807614076778
1220 -1869.811884823845
1221 -1869.818975912782
1222 -1869.805965598116
1223 -1869.813718328708
1224 -1869.801918895118
1225 -1869.797971318566
1226 -1869.799238749524
1227 -1869.795389844345
1228 -1869.799644207753
1229 -1869.797126479036
1230 -1869.825266560175
1231 -1869.808923457058
1232 -1869.828180093973
1233 -1869.811295788715
1234 -1869.839451257161
1235 -1869.82593548929
1236 -1869.853752267442
1237 -1869.834862426177
1238 -1869.870430776786
1239 -1869.851177674366
1240 -1869.877044023294
1241 -1869.847148089016
1242 -1869.8832996433
1243 -1869.847523179323
1244 -1869.877146149837
1245 -1869.84878295529
1246 -1869.878497046146
1247 -1869.849950660571
1248 -1869.879272859261
1249 -1869.845271904601
1250 -1869.874446513136
1251 -1869.84009329521
1252 -1869.859584991531
1253 -1869.842266275572
1254 -1869.858927117546
1255 -1869.847033158738
1256 -1869.855858686177
1257 -1869.841955569961
1258 -1869.8503936113
1259 -1869.837925414587
1260 -1869.844368921292
1261 -1869.829168507111
1262 -1869.843528932453
1263 -1869.817887965216
1264 -1869.848526212484
1265 -1869.813973804736
1266 -1869.842260455
1267 -1869.814703734092
1268 -1869.853695081869
1269 -1869.822923341181
1270 -1869.855207278289
1271 -1869.823890789971
1272 -1869.855769890285
1273 -1869.828099453178
1274 -1869.861457648798
1275 -1869.840896097311
1276 -1869.868677207047
1277 -1869.852963553654
1278 -1869.880376566126
1279 -1869.85865707998
1280 -1869.874484345029
1281 -1869.862209503615
1282 -1869.873359929034
1283 -1869.862151653782
1284 -1869.879177081654
1285 -1869.871071952777
1286 -1869.876057305301
1287 -1869.878031383146
1288 -1869.880194617126
1289 -1869.88444099462
1290 -1869.885362139315
1291 -1869.888621864359
1292 -1869.883198897359
1293 -1869.875233769884
1294 -1869.871083369274
1295 -1869.868279648154
1296 -1869.852832330264
1297 -1869.842225870396
1298 -1869.845435884783
1299 -1869.83712126586
1300 -1869.832045474714
1301 -1869.822029689567
1302 -1869.835734441838
1303 -1869.824465850695
1304 -1869.842941386273
1305 -1869.828246895969
1306 -1869.857273590541
1307 -1869.852966264877
1308 -1869.878242202341
1309 -1869.861189241663
1310 -1869.877998983975
1311 -1869.872363754723
1312 -1869.889258016333
1313 -1869.877484317643
1314 -1869.890361423977
1315 -1869.876300760349
1316 -1869.887169532904
1317 -1869.873160859082
1318 -1869.891196724982
1319 -1869.876770480281
1320 -1869.898210773842
1321 -1869.87143194854
1322 -1869.888365794081
1323 -1869.872705403514
1324 -1869.891295083548
1325 -1869.868817813498
1326 -1869.885992474315
1327 -1869.874400652207
1328 -1869.892780196453
1329 -1869.871404632435
1330 -1869.888656395932
1331 -1869.864937607113
1332 -1869.885196864209
1333 -1869.85358757887
1334 -1869.87601187743
1335 -1869.839064152053
1336 -1869.865581987204
1337 -1869.825806851055
1338 -1869.852128531818
1339 -1869.819106096002
1340 -1869.8484020258
1341 -1869.808879025013
1342 -1869.841768569125
1343 -1869.81128707003
1344 -1869.836523159906
1345 -1869.803146402866
1346 -1869.823332071692
1347 -1869.799181295406
1348 -1869.828523784837
1349 -1869.803054922753
1350 -1869.848452092107
1351 -1869.83267721558
1352 -1869.862405475266
1353 -1869.844065262108
1354 -1869.876689958975
1355 -1869.865634803334
1356 -1869.887016519651
1357 -1869.878797071446
1358 -1869.899246281952
1359 -1869.894576120758
1360 -1869.908059537657
1361 -1869.898849195487
1362 -1869.90746800108
1363 -1869.902440034781
1364 -1869.923359292828
1365 -1869.910586173751
1366 -1869.919622481979
1367 -1869.907841089258
1368 -1869.910925461944
1369 -1869.909459450008
1370 -1869.899028183985
1371 -1869.894824218398
1372 -1869.888080455218
1373 -1869.880684968606
1374 -1869.877334315688
1375 -1869.875241815384
1376 -1869.876609111067
1377 -1869.855307266316
1378 -1869.865335714729
1379 -1869.856258842541
1380 -1869.853186560876
1381 -1869.843793681095
1382 -1869.855588616734
1383 -1869.840432051976
1384 -1869.847088563388
1385 -1869.839542622362
1386 -1869.846402717717
1387 -1869.848718459454
1388 -1869.853909262985
1389 -1869.855364542489
1390 -1869.865870500194
1391 -1869.867506590961
1392 -1869.878392397254
1393 -1869.874200335437
1394 -1869.866438812823
1395 -1869.870306898463
1396 -1869.869599747757
1397 -1869.861089879775
1398 -1869.870853763553
1399 -1869.860673560264
1400 -1869.872953579434
1401 -1869.851217512331
1402 -1869.863402214404
1403 -1869.846578263023
1404 -1869.862398771132
1405 -1869.834282574432
1406 -1869.865249140999
1407 -1869.834454202039
1408 -1869.858262518575
1409 -1869.823562389947
1410 -1869.853118496108
1411 -1869.833342670616
1412 -1869.862183799833
1413 -1869.840254050102
1414 -1869.873821047341
1415 -1869.857855951812
1416 -1869.899788912642
1417 -1869.88102146725
1418 -1869.911530865116
1419 -1869.892891790646
1420 -1869.916025747567
1421 -1869.895234621632
1422 -1869.937780927818
1423 -1869.911465826735
1424 -1869.939706400754
1425 -1869.918038559959
1426 -1869.942438411709
1427 -1869.924553964701
1428 -1869.953271199408
1429 -1869.920120932568
1430 -1869.94591696877
1431 -1869.90684670465
1432 -1869.923808285041
1433 -1869.888153916626
1434 -1869.92548081791
1435 -1869.90147373205
1436 -1869.916523918812
1437 -1869.88331201791
1438 -1869.898348691102
1439 -1869.866429563094
1440 -1869.882942264736
1441 -1869.842540482595
1442 -1869.844066446726
1443 -1869.824044229374
1444 -1869.839497522811
1445 -1869.812748980615
1446 -1869.835899384782
1447 -1869.809534199426
1448 -1869.835828206668
1449 -1869.808335824006
1450 -1869.832016399438
1451 -1869.814641604114
1452 -1869.845004205036
1453 -1869.827649269934
1454 -1869.858720349485
1455 -1869.850682257295
1456 -1869.879739921184
1457 -1869.866702496001
1458 -1869.898728958393
1459 -1869.896082998056
1460 -1869.920774358601
1461 -1869.909204297313
1462 -1869.936927847981
1463 -1869.916601358314
1464 -1869.931347590182
1465 -1869.918069529315
1466 -1869.926472324422
1467 -1869.920189348557
1468 -1869.943287978462
1469 -1869.93669505498
1470 -1869.953536928724
1471 -1869.945711460753
1472 -1869.940418544011
1473 -1869.932584963237
1474 -1869.932313327867
1475 -1869.920425954793
1476 -1869.919014472135
1477 -1869.90765710895
1478 -1869.905784392492
1479 -1869.887957254969
1480 -1869.898920558508
1481 -1869.87570192014
1482 -1869.880804175919
1483 -1869.859646288093
1484 -1869.870535971127
1485 -1869.850830251341
1486 -1869.865054618109
1487 -1869.8427202397
1488 -1869.854946755647
1489 -1869.824475532111
1490 -1869.845372219284
1491 -1869.815802576613
1492 -1869.848714971859
1493 -1869.805325718743
1494 -1869.848760569662
1495 -1869.806435036573
1496 -1869.845981719812
1497 -1869.809646544957
1498 -1869.847837709997
1499 -1869.824892530118
1500 -1869.856154865277
1501 -1869.834221619269
1502 -1869.868845176302
1503 -1869.846415585607
1504 -1869.871166161241
1505 -1869.862885465204
1506 -1869.885185406925
1507 -1869.887898339111
1508 -1869.913692452996
1509 -1869.909312191036
1510 -1869.931425733814
1511 -1869.933238715572
1512 -1869.944545994668
1513 -1869.943226703003
1514 -1869.960321357894
1515 -1869.95468777675
1516 -1869.962090899358
1517 -1869.953001624061
1518 -1869.964493242513
1519 -1869.953038129223
1520 -1869.954396005052
1521 -1869.943242371216
1522 -1869.942968697405
1523 -1869.936062804751
1524 -1869.931097063666
1525 -1869.912257963132
1526 -1869.904776911647
1527 -1869.882801503059
1528 -1869.885011588044
1529 -1869.860892867265
1530 -1869.858301261188
1531 -1869.840728446613
1532 -1869.846915133346
1533 -1869.82542414898
1534 -1869.841115472072
1535 -1869.81564959256
1536 -1869.832642259939
1537 -1869.812697413012
1538 -1869.844362858319
1539 -1869.829762650241
1540 -1869.858922316769
1541 -1869.84392087102
1542 -1869.889396586623
1543 -1869.858875785195
1544 -1869.899051254653
1545 -1869.882252780144
1546 -1869.923133551456
1547 -1869.905242603158
1548 -1869.942595682798
1549 -1869.921898835577
1550 -1869.962004233412
1551 -1869.940051444668
1552 -1869.977754968222
1553 -1869.949086455431
1554 -1869.992945761421
1555 -1869.971238004003
1556 -1869.999280868459
1557 -1869.968028575
1558 -1869.993731409447
1559 -1869.956352058637
1560 -1869.974419496146
1561 -1869.937042042322
1562 -1869.93838246755
1563 -1869.914791662933
1564 -1869.917965775393
1565 -1869.897498869229
1566 -1869.90735978135
1567 -1869.883443045704
1568 -1869.880072417102
1569 -1869.865230906984
1570 -1869.858287639961
1571 -1869.852297955876
1572 -1869.846204890757
1573 -1869.835379025784
1574 -1869.839061040969
1575 -1869.820358916389
1576 -1869.819814869958
1577 -1869.809948530145
1578 -1869.827650836063
1579 -1869.818109852349
1580 -1869.832458458387
1581 -1869.823335263151
1582 -1869.849259617434
1583 -1869.840491903341
1584 -1869.864058965928
1585 -1869.851114399971
1586 -1869.878309699686
1587 -1869.876293104032
1588 -1869.912147696272
1589 -1869.900216102549
1590 -1869.929048167018
1591 -1869.918083383818
1592 -1869.953016906327
1593 -1869.941385856101
1594 -1869.969418177898
1595 -1869.966791952839
1596 -1869.98102647898
1597 -1869.972344479835
1598 -1869.985700377667
1599 -1869.971201715286
1600 -1869.990195579451
1601 -1869.96906273419
1602 -1869.977862176115
1603 -1869.954172006944
1604 -1869.961400859373
1605 -1869.931148280996
1606 -1869.939579109972
1607 -1869.911412590336
1608 -1869.91799303881
1609 -1869.873667352036
1610 -1869.888700571414
1611 -1869.862875008344
1612 -1869.884380161565
1613 -1869.848520828564
1614 -1869.871930850932
1615 -1869.838472266995
1616 -1869.865054115866
1617 -1869.829494236604
1618 -1869.856243527848
1619 -1869.832724486531
1620 -1869.868229599971
1621 -1869.838023360419
1622 -1869.876474694867
1623 -1869.858342555893
1624 -1869.892871685374
1625 -1869.875612214674
1626 -1869.905845088923
1627 -1869.887095793441
1628 -1869.921894638584
1629 -1869.898958377022
1630 -1869.934060772612
1631 -1869.920077449631
1632 -1869.938527032548
1633 -1869.925226306413
1634 -1869.949264194581
1635 -1869.939495411336
1636 -1869.95627426037
1637 -1869.955485553472
1638 -1869.961742979477
1639 -1869.955858471689
1640 -1869.961829897141
1641 -1869.94950381868
1642 -1869.946060734829
1643 -1869.941935532366
1644 -1869.929143207193
1645 -1869.92381861324
1646 -1869.914021157492
1647 -1869.903894524187
1648 -1869.898565796714
1649 -1869.886789889385
1650 -1869.895113340349
1651 -1869.894289214257
1652 -1869.894875067014
1653 -1869.890630839239
1654 -1869.909075492681
1655 -1869.895301813133
1656 -1869.896689464172
1657 -1869.895083965221
1658 -1869.913525845061
1659 -1869.912229873074
1660 -1869.926027430884
1661 -1869.91726229249
1662 -1869.931716928997
1663 -1869.918459186674
1664 -1869.935668220905
1665 -1869.921535530566
1666 -1869.938445323011
1667 -1869.932711804167
1668 -1869.941354489218
1669 -1869.937808133226
1670 -1869.957542134951
1671 -1869.948414344531
1672 -1869.945952308488
1673 -1869.923704200776
1674 -1869.938567776215
1675 -1869.936519474184
1676 -1869.944191787564
1677 -1869.927152358913
1678 -1869.941911158658
1679 -1869.920941812551
1680 -1869.92627159075
1681 -1869.900503979228
1682 -1869.911325641686
1683 -1869.888270108161
1684 -1869.904403242041
1685 -1869.883747193555
1686 -1869.909076371737
1687 -1869.892545764095
1688 -1869.896019364314
1689 -1869.888642040347
1690 -1869.903258972472
1691 -1869.896239629313
1692 -1869.907943758169
1693 -1869.889411094011
1694 -1869.905206967103
1695 -1869.888883826789
1696 -1869.908209247056
1697 -1869.898815795358
1698 -1869.917340607352
1699 -1869.918853574812
1700 -1869.932076977829
1701 -1869.923178434641
1702 -1869.939523747428
1703 -1869.932730364773
1704 -1869.950679411233
1705 -1869.936495068928
1706 -1869.956424577184
1707 -1869.943709394091
1708 -1869.966743880718
1709 -1869.940320638213
1710 -1869.972597416713
1711 -1869.94581891226
1712 -1869.981925543563
1713 -1869.944903876936
1714 -1869.985605832321
1715 -1869.946206144525
1716 -1869.97846315075
1717 -1869.934794663183
1718 -1869.97726411081
1719 -1869.930359966292
1720 -1869.958979224168
1721 -1869.916326510847
1722 -1869.940688318956
1723 -1869.907382304841
1724 -1869.933803437383
1725 -1869.894732540163
1726 -1869.918446453534
1727 -1869.880365377773
1728 -1869.903527773056
1729 -1869.884317378838
1730 -1869.903897752835
1731 -1869.894625047454
1732 -1869.902933529273
1733 -1869.905215108306
1734 -1869.921421463546
1735 -1869.937641570338
1736 -1869.935215069283
1737 -1869.947138729703
1738 -1869.941285410904
1739 -1869.955274520255
1740 -1869.947905828911
1741 -1869.964699588326
1742 -1869.964752509066
1743 -1869.967858809013
1744 -1869.955213268296
1745 -1869.95305765218
1746 -1869.947900880871
1747 -1869.94610320454
1748 -1869.94714642242
1749 -1869.93259447368
1750 -1869.944836336839
1751 -1869.93099035463
1752 -1869.929532081279
1753 -1869.912486927634
1754 -1869.921039924561
1755 -1869.905788202193
1756 -1869.909275380847
1757 -1869.900416025056
1758 -1869.901969588002
1759 -1869.885371718043
1760 -1869.895631151713
1761 -1869.874479968673
1762 -1869.893023957336
1763 -1869.872857829572
1764 -1869.884570563871
1765 -1869.86682335123
1766 -1869.892598846398
1767 -1869.868647205214
1768 -1869.897168299087
1769 -1869.864199348626
1770 -1869.905643137746
1771 -1869.888586990827
1772 -1869.921463742208
1773 -1869.902060799374
1774 -1869.941042318645
1775 -1869.920580950369
1776 -1869.954131045954
1777 -1869.926475259958
1778 -1869.955419510859
1779 -1869.94654073944
1780 -1869.979644919999
1781 -1869.961507294353
1782 -1869.981663432835
1783 -1869.965278253967
1784 -1869.982421960523
1785 -1869.967422134568
1786 -1869.988829196455
1787 -1869.973516006137
1788 -1869.976122704879
1789 -1869.964136874827
1790 -1869.960473883168
1791 -1869.944925896066
1792 -1869.931669280898
1793 -1869.912517575809
1794 -1869.922354963266
1795 -1869.910187369837
1796 -1869.900567533027
1797 -1869.888254325539
1798 -1869.896292317122
1799 -1869.885830127757
1800 -1869.877029437563
1801 -1869.862680733296
1802 -1869.872875054447
1803 -1869.870114037647
1804 -1869.883223248529
1805 -1869.874676544219
1806 -1869.900647616269
1807 -1869.889999890786
1808 -1869.91344285914
1809 -1869.904022008197
1810 -1869.937196908594
1811 -1869.923384727806
1812 -1869.95551110288
1813 -1869.933717828676
1814 -1869.965201660571
1815 -1869.941704452842
1816 -1869.971657482571
1817 -1869.939344054186
1818 -1869.96400020522
1819 -1869.934884928167
1820 -1869.970116752218
1821 -1869.944718549971
1822 -1869.968920867494
1823 -1869.941507781506
1824 -1869.951247390364
1825 -1869.930018502303
1826 -1869.934216374443
1827 -1869.915815263344
1828 -1869.911939693411
1829 -1869.899169962886
1830 -1869.89815522327
1831 -1869.884934615298
1832 -1869.884755950726
1833 -1869.874385530894
1834 -1869.873006337556
1835 -1869.874069370243
1836 -1869.883844059858
1837 -1869.871149189134
1838 -1869.882427146149
1839 -1869.870954400742
1840 -1869.898247474523
1841 -1869.875626340482
1842 -1869.907371766113
1843 -1869.88687226839
1844 -1869.93195589027
1845 -1869.907550481955
1846 -1869.948867903821
1847 -1869.927345139606
1848 -1869.966732054437
1849 -1869.94184084501
1850 -1869.992191841099
1851 -1869.962970371345
1852 -1870.009473462474
1853 -1869.977881443538
1854 -1870.015865608035
1855 -1869.99174696859
1856 -1870.012207722065
1857 -1869.994974940094
1858 -1870.014317665155
1859 -1869.992425431031
1860 -1870.005336744921
1861 -1869.984830844925
1862 -1869.991500184135
1863 -1869.979590227956
1864 -1869.965746681207
1865 -1869.952791999971
1866 -1869.932465850881
1867 -1869.925990339775
1868 -1869.908928596777
1869 -1869.896839318331
1870 -1869.876768147904
1871 -1869.873754977671
1872 -1869.851789752419
1873 -1869.846419233429
1874 -1869.838587286976
1875 -1869.829848587926
1876 -1869.822309790925
1877 -1869.825833963972
1878 -1869.827675289675
1879 -1869.828814361852
1880 -1869.834797436746
1881 -1869.833916962161
1882 -1869.851366507558
1883 -1869.848617535246
1884 -1869.865894068295
1885 -1869.862075161986
1886 -1869.888542570056
1887 -1869.878001140662
1888 -1869.904729460837
1889 -1869.896859017425
1890 -1869.933710162972
1891 -1869.926280464221
1892 -1869.961118921298
1893 -1869.951084307301
1894 -1869.990426414842
1895 -1869.975851467979
1896 -1870.002904642545
1897 -1869.97845521932
1898 -1870.009838174649
1899 -1869.988726568568
1900 -1870.014073880561
1901 -1869.981067464953
1902 -1870.003577509469
1903 -1869.971400109636
1904 -1869.990111898575
1905 -1869.966595666391
1906 -1869.97702141162
1907 -1869.955979399517
1908 -1869.972550342741
1909 -1869.940944271213
1910 -1869.95779840499
1911 -1869.928320195401
1912 -1869.928381162004
1913 -1869.901374980556
1914 -1869.915681837464
1915 -1869.884135478158
1916 -1869.902566296409
1917 -1869.873247691653
1918 -1869.888444476588
1919 -1869.861013816293
1920 -1869.888718957926
1921 -1869.848514226701
1922 -1869.874258003954
1923 -1869.852878257091
1924 -1869.884168182892
1925 -1869.857284032878
1926 -1869.890190922865
1927 -1869.869718033637
1928 -1869.906628405871
1929 -1869.88487222955
1930 -1869.921313089988
1931 -1869.907456986074
1932 -1869.929487958658
1933 -1869.916720554807
1934 -1869.938051013739
1935 -1869.934370004429
1936 -1869.951053689226
1937 -1869.943030876248
1938 -1869.966968864564
1939 -1869.958916841139
1940 -1869.969157732029
1941 -1869.97029126662
1942 -1869.980954508823
1943 -1869.970402536429
1944 -1869.976610764644
1945 -1869.969062614969
1946 -1869.969540970551
1947 -1869.960544708125
1948 -1869.957735520772
1949 -1869.946565959493
1950 -1869.953502893058
1951 -1869.935296320552
1952 -1869.934067314593
1953 -1869.91662123228
1954 -1869.917184712395
1955 -1869.896995007505
1956 -1869.902693669688
1957 -1869.895890940665
1958 -1869.887352349597
1959 -1869.890494951443
1960 -1869.882967436763
1961 -1869.880065708715
1962 -1869.879400441117
1963 -1869.87627566129
1964 -1869.875571341939
1965 -1869.877831364752
1966 -1869.888458531544
1967 -1869.884121530834
1968 -1869.894654274851
1969 -1869.884760073288
1970 -1869.911381506234
1971 -1869.896912241334
1972 -1869.926133249415
1973 -1869.90035980086
1974 -1869.942999414908
1975 -1869.915570642105
1976 -1869.949960755983
1977 -1869.912293511988
1978 -1869.966287893454
1979 -1869.925187003677
1980 -1869.963594281118
1981 -1869.916711598178
1982 -1869.964066520888
1983 -1869.926335412084
1984 -1869.960082821598
1985 -1869.91603153077
1986 -1869.961492166483
1987 -1869.919652601193
1988 -1869.957813661681
1989 -1869.926202219818
1990 -1869.941534432979
1991 -1869.921768855115
1992 -1869.935299261929
1993 -1869.91534789662
1994 -1869.930765449502
1995 -1869.917604229693
1996 -1869.929397025558
1997 -1869.917257998847
1998 -1869.932795128916
1999 -1869.92703726799
2000 -1869.94239544833
2001 -1869.934778582582
2002 -1869.942513089048
2003 -1869.940946097533
2004 -1869.948747191337
2005 -1869.941096131214
2006 -1869.947474107196
2007 -1869.941664025861
2008 -1869.938271038567
2009 -1869.917502802144
2010 -1869.933237265628
2011 -1869.918557414049
2012 -1869.934061500903
2013 -1869.902818883442
2014 -1869.920447814417
2015 -1869.88721197615
2016 -1869.912207331244
2017 -1869.879305629106
2018 -1869.902890790291
2019 -1869.871722080904
2020 -1869.894068052996
2021 -1869.870748787366
2022 -1869.895684339185
2023 -1869.87287801813
2024 -1869.898136278941
2025 -1869.87061450652
2026 -1869.898522581484
2027 -1869.886174471018
2028 -1869.898710432524
2029 -1869.886969877584
2030 -1869.903924677349
2031 -1869.890547395422
2032 -1869.915612042133
2033 -1869.912591886072
2034 -1869.931443636423
2035 -1869.928764572114
2036 -1869.953582548875
2037 -1869.940348174929
2038 -1869.957751044645
2039 -1869.949846719055
2040 -1869.965269241014
2041 -1869.959682315139
2042 -1869.964494829366
2043 -1869.965800851892
2044 -1869.977205677427
2045 -1869.963573123636
2046 -1869.963871272364
2047 -1869.950586951789
2048 -1869.953709939992
2049 -1869.940086690442
2050 -1869.944413025928
2051 -1869.937572247974
2052 -1869.928774293332
2053 -1869.919061061238
2054 -1869.930044408364
2055 -1869.913981802927
2056 -1869.920592017404
2057 -1869.900360151135
2058 -1869.920164066435
2059 -1869.891442766607
2060 -1869.917947950773
2061 -1869.881234149371
2062 -1869.910026062388
2063 -1869.880526708756
2064 -1869.914243952751
2065 -1869.872602053448
2066 -1869.903908364469
2067 -1869.867865932255
2068 -1869.900988181712
2069 -1869.879544580813
2070 -1869.916153157825
2071 -1869.89007509781
2072 -1869.915006296168
2073 -1869.891979959816
2074 -1869.925261765447
2075 -1869.902987822819
2076 -1869.927785965695
2077 -1869.917632993451
2078 -1869.9330434146
2079 -1869.917945333256
2080 -1869.934292376193
2081 -1869.930630543218
2082 -1869.944262191344
2083 -1869.940228201915
2084 -1869.953125321097
2085 -1869.952274727097
2086 -1869.970595608808
2087 -1869.967413106955
2088 -1869.979412804725
2089 -1869.967550226955
2090 -1869.973554356447
2091 -1869.96010237767
2092 -1869.956593384239
2093 -1869.948257719118
2094 -1869.955569203455
2095 -1869.933617481618
2096 -1869.954678401701
2097 -1869.921959880295
2098 -1869.944139072526
2099 -1869.913034439798
2100 -1869.94168651434
2101 -1869.899837274407
2102 -1869.934238431217
2103 -1869.888659328865
2104 -1869.919263599117
2105 -1869.872354803234
2106 -1869.914486529547
2107 -1869.871548660883
2108 -1869.903490824973
2109 -1869.855526257245
2110 -1869.898396137058
2111 -1869.852205749076
2112 -1869.893440907562
2113 -1869.845661963102
2114 -1869.888510065851
2115 -1869.860016444257
2116 -1869.892888407944
2117 -1869.865108735135
2118 -1869.908978658837
2119 -1869.889457091414
2120 -1869.929733481838
2121 -1869.91679258719
2122 -1869.936665346072
2123 -1869.935014527903
2124 -1869.967087173517
2125 -1869.956528062945
2126 -1869.982516343329
2127 -1869.970155398596
2128 -1869.992039722724
2129 -1869.978964863457
2130 -1870.014195856919
2131 -1869.996110877929
2132 -1870.016930512063
2133 -1870.001387170517
2134 -1870.012231237934
2135 -1869.999952437372
2136 -1870.003100506244
2137 -1870.001563026525
2138 -1869.996835328091
2139 -1869.997056194806
2140 -1869.981477054042
2141 -1869.973003683641
2142 -1869.966969753279
2143 -1869.947453395166
2144 -1869.943259854181
2145 -1869.922756079163
2146 -1869.921111446745
2147 -1869.908399639946
2148 -1869.910986343554
2149 -1869.897343795617
2150 -1869.896667733985
2151 -1869.878576746314
2152 -1869.888456256336
2153 -1869.878302756603
2154 -1869.888728107758
2155 -1869.885285717883
2156 -1869.898684292186
2157 -1869.891189600873
2158 -1869.89874034927
2159 -1869.898826752392
2160 -1869.917023330245
2161 -1869.905421348302
2162 -1869.931187469384
2163 -1869.925766752845
2164 -1869.944052439398
2165 -1869.934423553684
2166 -1869.95088654326
2167 -1869.946992686066
2168 -1869.969016592115
2169 -1869.960374211435
2170 -1869.977471106575
2171 -1869.967135586711
2172 -1869.974438590963
2173 -1869.957833010886
2174 -1869.974222845702
2175 -1869.955807292829
2176 -1869.963465379737
2177 -1869.948206881505
2178 -1869.954466923951
2179 -1869.951517783425
2180 -1869.947542222665
2181 -1869.937494398568
2182 -1869.932681269632
2183 -1869.926966549282
2184 -1869.933530788062
2185 -1869.913966049551
2186 -1869.923795424795
2187 -1869.906643566642
2188 -1869.930547767473
2189 -1869.9001958632
2190 -1869.93420216964
2191 -1869.905836840154
2192 -1869.931837835933
2193 -1869.900317863191
2194 -1869.943258184743
2195 -1869.915906736863
2196 -1869.953629909209
2197 -1869.918203643725
2198 -1869.96061852028
2199 -1869.923082639939
2200 -1869.969687575247
2201 -1869.933180376152
2202 -1869.973457687644
2203 -1869.934585018211
2204 -1869.974003227754
2205 -1869.931424578979
2206 -1869.959922895612
2207 -1869.928692567536
2208 -1869.943604053771
2209 -1869.916848204909
2210 -1869.930297557586
2211 -1869.914274136292
2212 -1869.920895564978
2213 -1869.906773449016
2214 -1869.91774809369
2215 -1869.903871027383
2216 -1869.912334027197
2217 -1869.903620584049
2218 -1869.926990852073
2219 -1869.915287623809
2220 -1869.916149615162
2221 -1869.914845223404
2222 -1869.921128381234
2223 -1869.921354431407
2224 -1869.927568738077
2225 -1869.922717882315
2226 -1869.941329832633
2227 -1869.939184737261
2228 -1869.956378023145
2229 -1869.939298061141
2230 -1869.952287203673
2231 -1869.9432647857
2232 -1869.965110061024
2233 -1869.944573900456
2234 -1869.962510772158
2235 -1869.959666883547
2236 -1869.978013932548
2237 -1869.951297600444
2238 -1869.976113399744
2239 -1869.958969434824
2240 -1869.978502953801
2241 -1869.956762671954
2242 -1869.96345606531
2243 -1869.956549220626
2244 -1869.964800521187
2245 -1869.941448372799
2246 -1869.947497407099
2247 -1869.928545585957
2248 -1869.941863946101
2249 -1869.924646261778
2250 -1869.934199367038
2251 -1869.917147765582
2252 -1869.930680250957
2253 -1869.905670083397
2254 -1869.92700090983
2255 -1869.892262723888
2256 -1869.912178405002
2257 -1869.881154836038
2258 -1869.902249263694
2259 -1869.870617985343
2260 -1869.909452607697
2261 -1869.87178203512
2262 -1869.899770292589
2263 -1869.871804052355
2264 -1869.90745356839
2265 -1869.876843189493
2266 -1869.920667501797
2267 -1869.896644493067
2268 -1869.930286486989
2269 -1869.912397702944
2270 -1869.958917298883
2271 -1869.947806964392
2272 -1869.983753299635
2273 -1869.967509963944
2274 -1869.987536388212
2275 -1869.98100369813
2276 -1870.005290337602
2277 -1870.002833165522
2278 -1870.019122510213
2279 -1870.010193199087
2280 -1870.021165817564
2281 -1870.002053265428
2282 -1870.021247303056
2283 -1870.002674627789
2284 -1870.020363183901
2285 -1869.994029691492
2286 -1870.02130402823
2287 -1869.986146005494
2288 -1870.002320120765
2289 -1869.957255356649
2290 -1869.975627833521
2291 -1869.935618067406
2292 -1869.938953862228
2293 -1869.898511631455
2294 -1869.900607682803
2295 -1869.869607193318
2296 -1869.875389385771
2297 -1869.846577736143
2298 -1869.847802514942
2299 -1869.840216559828
2300 -1869.846842145208
2301 -1869.83892616289
2302 -1869.845401303498
2303 -1869.847786520925
2304 -1869.854466126546
2305 -1869.867883214605
2306 -1869.871375135468
2307 -1869.894117906376
2308 -1869.896193383083
2309 -1869.916962467568
2310 -1869.930579884839
2311 -1869.942605042138
2312 -1869.960485555089
2313 -1869.960198766015
2314 -1869.981172040386
2315 -1869.981949444963
2316 -1869.994621034783
2317 -1869.981880677033
2318 -1870.00122213736
2319 -1869.982256887168
2320 -1869.995701669384
2321 -1869.971982949886
2322 -1869.992385452177
2323 -1869.974708592207
2324 -1870.004971564135
2325 -1869.963999770402
2326 -1869.988195163944
2327 -1869.955687645631
2328 -1869.982972118304
2329 -1869.947768057352
2330 -1869.961223150335
2331 -1869.934897576107
2332 -1869.951209990504
2333 -1869.9209343265
2334 -1869.937178947932
2335 -1869.91162185899
2336 -1869.926441687198
2337 -1869.914851947377
2338 -1869.931316407932
2339 -1869.920857438763
2340 -1869.929635442984
2341 -1869.914222491736
2342 -1869.925486380198
2343 -1869.919439658252
2344 -1869.927429049628
2345 -1869.912857111136
2346 -1869.928149466067
2347 -1869.920060538204
2348 -1869.930152423206
2349 -1869.9211955398
2350 -1869.936026226397
2351 -1869.923244211952
2352 -1869.949593292977
2353 -1869.929495618158
2354 -1869.951031090548
2355 -1869.931786286521
2356 -1869.964438061808
2357 -1869.941971012149
2358 -1869.974921559148
2359 -1869.949120996989
2360 -1869.978456669779
2361 -1869.947572507223
2362 -1869.979892124136
2363 -1869.951577491694
2364 -1869.972918242198
2365 -1869.950910365123
2366 -1869.978657560356
2367 -1869.951699111574
2368 -1869.954926658233
2369 -1869.927872623261
2370 -1869.944000880542
2371 -1869.929166465734
2372 -1869.928063786673
2373 -1869.910040133349
2374 -1869.918227190455
2375 -1869.90143747327
