"y-rfile"
"Iteration" "y"
("Iteration" "y")
7000 -5578.996849407307
7001 -5607.602878548756
7002 -5647.381235825101
7003 -5747.784322935166
7004 -5879.07506211818
7005 -5989.350382593317
7006 -6085.83420066903
7007 -6208.355136680846
7008 -6327.346733335527
7009 -6421.290166267429
7010 -6509.009051681583
7011 -6612.211011661858
7012 -6687.234840248815
7013 -6737.821696932219
7014 -6760.999985967092
7015 -6767.841114087405
7016 -6764.410616231212
7017 -6754.122401960623
7018 -6744.335389464306
7019 -6738.367164274538
7020 -6736.418853976817
7021 -6744.163373455599
7022 -6757.291078298095
7023 -6778.074864484992
7024 -6807.296711350184
7025 -6845.445249805998
7026 -6891.258642501148
7027 -6931.859315800759
7028 -6992.805268647543
7029 -7042.865936022505
7030 -7097.976357107769
7031 -7158.120039471401
7032 -7221.276737085152
7033 -7287.021745663294
7034 -7353.195781958812
7035 -7419.899807582562
7036 -7485.467349496766
7037 -7548.91053830576
7038 -7608.908866429823
7039 -7665.767871926035
7040 -7719.090159377333
7041 -7767.99913103709
7042 -7812.441000394155
7043 -7852.256972744393
7044 -7887.505776914568
7045 -7918.6195205764
7046 -7936.923478212431
7047 -7961.843944692684
7048 -7976.099129954158
7049 -7989.685131742397
7050 -8007.721677331406
7051 -8018.213289913428
7052 -8032.259223043176
7053 -8040.395942794693
7054 -8050.749120305408
7055 -8056.601406272125
7056 -8064.140700021479
7057 -8068.095957389082
7058 -8072.723276265156
7059 -8074.753164804208
7060 -8077.171911816232
7061 -8077.487730085187
7062 -8076.949560737232
7063 -8075.586137157136
7064 -8072.846009980905
7065 -8070.192119145318
7066 -8066.898276457749
7067 -8063.245781938433
7068 -8059.031493012465
7069 -8054.104125203701
7070 -8048.69394803758
7071 -8042.697891755492
7072 -8036.415083445526
7073 -8029.690297089905
7074 -8022.363251347278
7075 -8014.797632993548
7076 -8006.971415871458
7077 -7998.860330960028
7078 -7990.733157509066
7079 -7982.770948847023
7080 -7974.847209744995
7081 -7967.074315078393
7082 -7959.425461795875
7083 -7952.136689720262
7084 -7945.228234817012
7085 -7938.668295306136
7086 -7932.550387744467
7087 -7926.844762251339
7088 -7921.653766434499
7089 -7917.152051116856
7090 -7913.25743147144
7091 -7909.871558471397
7092 -7907.109546800298
7093 -7904.742751379474
7094 -7902.930001681852
7095 -7901.570995368555
7096 -7900.622349480393
7097 -7899.934894988719
7098 -7899.651860483184
7099 -7899.611542844471
7100 -7899.95105330713
7101 -7900.446138174138
7102 -7901.069285603398
7103 -7901.793304303039
7104 -7902.575690649829
7105 -7903.473384116571
7106 -7904.419351540886
7107 -7905.267012497182
7108 -7906.203730724626
7109 -7906.956252566425
7110 -7907.790095913349
7111 -7908.61077750734
7112 -7909.335874382999
7113 -7910.070485189703
7114 -7910.614248014841
7115 -7911.17459804282
7116 -7911.614556648073
7117 -7912.083436619189
7118 -7912.506439512415
7119 -7913.034191007278
7120 -7913.488673032374
7121 -7914.000923874725
7122 -7914.553887275283
7123 -7915.249223889305
7124 -7915.798580093978
7125 -7916.505539510494
7126 -7917.285131554077
7127 -7918.174684333182
7128 -7919.082479341479
7129 -7920.233946066221
7130 -7921.456476422652
7131 -7922.851220466354
7132 -7924.425248080648
7133 -7926.194033898546
7134 -7927.96790104514
7135 -7930.015079967921
7136 -7932.127255132463
7137 -7934.317493422333
7138 -7936.700493048613
7139 -7939.23846961975
7140 -7941.829141269478
7141 -7944.410653697114
7142 -7947.004991173048
7143 -7950.09258814944
7144 -7954.229376886913
7145 -7957.22162835328
7146 -7960.270601815032
7147 -7965.093385919956
7148 -7968.390031822919
7149 -7973.46273325213
7150 -7976.797552017176
7151 -7981.711203537971
7152 -7984.948435156057
7153 -7990.117717610705
7154 -7995.010935615537
7155 -7998.437928890479
7156 -8003.115232670129
7157 -8007.966482823675
7158 -8012.467118179482
7159 -8017.020676597285
7160 -8021.426071086954
7161 -8025.793575453381
7162 -8029.89096167626
7163 -8033.943956888134
7164 -8038.066903167816
7165 -8042.105590520475
7166 -8046.237389457102
7167 -8049.961682890509
7168 -8053.837337406022
7169 -8057.88045673601
7170 -8061.689654364232
7171 -8065.764604895625
7172 -8069.676868846955
7173 -8073.909129499574
7174 -8078.03224447819
7175 -8082.297371511672
7176 -8086.550320695521
7177 -8091.166388274884
7178 -8096.128225260341
7179 -8100.828697979136
7180 -8105.754305435073
7181 -8111.125544056803
7182 -8116.329137613367
7183 -8121.901509637675
7184 -8129.551993236681
7185 -8135.099127565587
7186 -8141.096433883533
7187 -8149.038046263728
7188 -8155.086800483534
7189 -8161.275597776214
7190 -8169.223495918092
7191 -8175.581907657071
7192 -8184.249262992177
7193 -8190.891035852372
7194 -8199.633960108875
7195 -8206.220531904097
7196 -8215.457895613878
7197 -8224.61303446511
7198 -8231.572891061431
7199 -8240.802013621711
7200 -8250.151688597647
7201 -8256.737844569916
7202 -8265.992570064709
7203 -8274.929235683781
7204 -8281.598945085518
7205 -8290.70234506417
7206 -8299.392451353524
7207 -8307.736968884075
7208 -8313.804502624076
7209 -8322.279948491989
7210 -8330.214062927762
7211 -8336.163475825899
7212 -8343.786789697682
7213 -8351.269461750464
7214 -8356.547965498259
7215 -8363.323567857193
7216 -8368.239397237541
7217 -8374.224576981051
7218 -8378.750012752553
7219 -8384.306008292459
7220 -8388.405244852442
7221 -8393.200671693643
7222 -8396.691048664901
7223 -8401.007293319497
7224 -8404.082027254301
7225 -8406.7366928054
7226 -8410.080311946327
7227 -8412.340485745272
7228 -8414.208961329317
7229 -8415.945667678989
7230 -8417.300541463728
7231 -8418.396407951772
7232 -8419.314970373227
7233 -8420.250092792374
7234 -8420.873956980846
7235 -8421.315369973672
7236 -8421.289501488332
7237 -8421.125998052657
7238 -8420.818127705223
7239 -8420.617161506696
7240 -8420.118155164804
7241 -8419.515185098628
7242 -8418.874185148763
7243 -8418.217088219248
7244 -8417.242560104403
7245 -8416.429777491227
7246 -8415.708676371203
7247 -8414.968757915753
7248 -8414.132535186009
7249 -8413.775491843031
7250 -8413.496236742889
7251 -8413.504977859886
7252 -8413.486999600422
7253 -8413.744432479696
7254 -8414.357082681903
7255 -8415.077172604588
7256 -8415.744781305188
7257 -8417.109371491115
7258 -8418.495038817839
7259 -8420.030651728181
7260 -8421.32046609753
7261 -8423.140266843537
7262 -8425.299339274583
7263 -8427.940238825655
7264 -8430.507709863057
7265 -8433.800424866935
7266 -8436.925628710778
7267 -8440.114828017991
7268 -8443.450352180176
7269 -8447.224365309055
7270 -8451.012705443485
7271 -8454.560789165505
7272 -8458.632100312692
7273 -8464.037568936443
7274 -8468.099100667714
7275 -8472.322306336424
7276 -8476.187024964824
7277 -8481.352126155867
7278 -8485.117004597714
7279 -8490.527144220308
7280 -8494.074013191866
7281 -8497.318189893276
7282 -8501.444787330356
7283 -8504.13733739569
7284 -8507.610924589821
7285 -8509.836012083904
7286 -8512.179846889101
7287 -8513.905819023295
7288 -8515.284461751007
7289 -8516.227773702927
7290 -8516.126146849103
7291 -8515.747614849832
7292 -8514.600576022422
7293 -8513.391908518095
7294 -8510.552799802834
7295 -8508.140378359458
7296 -8504.861040456864
7297 -8499.783546341858
7298 -8495.390202606795
7299 -8490.087540490638
7300 -8482.39747925856
7301 -8476.179745676447
7302 -8469.262793275209
7303 -8461.444601052333
7304 -8452.790951950461
7305 -8443.389113343519
7306 -8430.464429568605
7307 -8420.457031283198
7308 -8409.395616751912
7309 -8397.790562339074
7310 -8384.987630241425
7311 -8367.599328791572
7312 -8354.099439529347
7313 -8340.15087795151
7314 -8321.057775208592
7315 -8306.506542273761
7316 -8286.413333247308
7317 -8271.125638292917
7318 -8249.870043657653
7319 -8233.971368653672
7320 -8212.095829888909
7321 -8190.330714606782
7322 -8168.291954550901
7323 -8146.480308249716
7324 -8124.944609550836
7325 -8103.245489942642
7326 -8081.813306178873
7327 -8060.243020348725
7328 -8038.897838962377
7329 -8017.714102714478
7330 -7996.32870601706
7331 -7974.79640077296
7332 -7953.594000165589
7333 -7931.873519886079
7334 -7910.491341560622
7335 -7889.031438217031
7336 -7867.482706571635
7337 -7846.203135086182
7338 -7825.094432797927
7339 -7803.851555653253
7340 -7782.828257692541
7341 -7761.691909542583
7342 -7740.936514442489
7343 -7720.24902280068
7344 -7699.954941539
7345 -7679.520517774237
7346 -7659.833801161678
7347 -7639.964055593741
7348 -7620.596811469838
7349 -7606.0899837569
7350 -7586.587849242547
7351 -7566.993974289282
7352 -7552.12210711942
7353 -7532.622771792762
7354 -7518.367482220253
7355 -7498.848319346725
7356 -7484.580730865128
7357 -7465.582845200844
7358 -7451.535006595922
7359 -7437.221877690671
7360 -7418.544733709178
7361 -7404.983238477997
7362 -7391.20881408458
7363 -7377.464171240767
7364 -7364.048434142602
7365 -7350.31659335127
7366 -7336.519304837479
7367 -7322.799025935005
7368 -7309.138286981253
7369 -7295.598007726767
7370 -7282.16876305545
7371 -7268.978629457023
7372 -7255.979404526103
7373 -7243.141938127516
7374 -7234.460090789301
7375 -7221.126647276894
7376 -7212.135977052057
7377 -7198.124451298956
7378 -7188.663418709755
7379 -7173.851177958215
7380 -7164.188630440982
7381 -7149.169845417515
7382 -7139.121038556499
7383 -7123.74507784472
7384 -7113.58208593019
7385 -7097.715858517747
7386 -7087.246396329089
7387 -7071.126731850341
7388 -7060.472267043945
7389 -7043.958364283762
7390 -7027.739725812627
7391 -7016.872154298292
7392 -7000.331991503189
7393 -6984.17125126294
7394 -6967.996134113589
7395 -6957.254547256049
7396 -6940.502498227333
7397 -6923.908333794066
7398 -6907.581108042316
7399 -6891.433156120029
7400 -6875.42037087194
7401 -6859.776647367829
7402 -6843.917353516581
7403 -6828.246131863283
7404 -6812.673687851531
7405 -6797.201350988074
7406 -6781.579963021706
7407 -6765.884631600183
7408 -6750.409674610951
7409 -6734.975038642016
7410 -6719.761990994578
7411 -6704.708609301449
7412 -6689.927596775766
7413 -6675.197692753482
7414 -6660.685673726472
7415 -6646.585182063426
7416 -6632.714435393007
7417 -6619.390476826239
7418 -6606.417609224532
7419 -6593.861203921339
7420 -6581.503989150894
7421 -6569.850467884158
7422 -6558.259307642665
7423 -6547.43614583594
7424 -6536.986547986582
7425 -6526.974990845121
7426 -6517.322688344197
7427 -6508.31491106763
7428 -6499.802444215654
7429 -6491.63766894534
7430 -6483.913021105865
7431 -6476.563811592639
7432 -6469.660127165901
7433 -6463.193367424199
7434 -6456.979387074875
7435 -6453.088271579175
7436 -6447.045105595927
7437 -6443.154966243739
7438 -6437.203451719224
7439 -6433.44708694696
7440 -6427.60717880856
7441 -6423.762690180898
7442 -6417.708413859462
7443 -6413.573861080147
7444 -6409.2419518235
7445 -6402.732856252241
7446 -6398.15270446761
7447 -6393.438528491635
7448 -6386.107018488252
7449 -6381.132995931664
7450 -6375.831532528699
7451 -6367.717469140481
7452 -6362.03391963924
7453 -6356.33783724709
7454 -6347.237448272856
7455 -6340.984580117998
7456 -6331.243711705923
7457 -6324.655103415976
7458 -6314.332285101255
7459 -6307.352609918147
7460 -6296.359347376027
7461 -6288.937366660181
7462 -6276.95733114779
7463 -6265.119504865746
7464 -6252.866981768932
7465 -6240.456305883769
7466 -6228.049712322671
7467 -6215.771028767488
7468 -6203.168166739471
7469 -6190.586745177605
7470 -6177.924225253798
7471 -6165.128483028589
7472 -6152.392126402454
7473 -6139.534678567302
7474 -6126.502772474812
7475 -6113.989746351394
7476 -6101.262475721114
7477 -6088.450762455776
7478 -6075.330037077866
7479 -6062.412094708762
7480 -6049.77937663712
7481 -6037.487846183501
7482 -6025.157032984686
7483 -6012.958734712568
7484 -6001.175261301632
7485 -5989.316098320172
7486 -5977.819543732468
7487 -5966.618520745679
7488 -5955.957325544374
7489 -5945.866485700173
7490 -5935.986966192183
7491 -5926.399432175782
7492 -5917.113459403607
7493 -5908.591293567273
7494 -5900.586527321324
7495 -5893.062814744788
7496 -5885.845421611835
7497 -5879.288330700335
7498 -5873.065794577437
7499 -5867.488577051638
7500 -5862.609964125101
7501 -5858.093772375657
7502 -5853.8740211935
7503 -5850.545206030517
7504 -5848.128718956667
7505 -5845.027857168794
7506 -5843.244378061009
7507 -5840.73286541211
7508 -5838.926933953545
7509 -5836.062397258373
7510 -5834.537568421021
7511 -5831.841630619346
7512 -5830.276038747062
7513 -5827.997444067464
7514 -5826.700386909507
7515 -5824.109908362372
7516 -5822.675414037294
7517 -5820.001490128937
7518 -5818.379233837358
7519 -5815.583176490572
7520 -5813.65543704464
7521 -5810.300635839169
7522 -5806.849961078766
7523 -5804.375346458785
7524 -5800.721486912279
7525 -5796.746861827437
7526 -5792.680077965905
7527 -5788.08410069957
7528 -5783.213085514274
7529 -5778.409133583134
7530 -5773.57279176438
7531 -5768.623757140796
7532 -5763.537877270115
7533 -5758.208619092296
7534 -5753.098055250921
7535 -5748.017320875442
7536 -5743.319930551937
7537 -5738.86631113063
7538 -5734.778397134033
7539 -5731.046455559412
7540 -5727.852609592087
7541 -5725.19408945133
7542 -5722.651095585039
7543 -5720.796399237405
7544 -5719.631243573879
7545 -5718.937780457801
7546 -5719.105939541578
7547 -5719.606302243234
7548 -5720.690347656508
7549 -5722.537973120918
7550 -5725.111071917497
7551 -5727.971393282087
7552 -5731.353349477174
7553 -5735.220756621282
7554 -5739.799234081433
7555 -5744.546261783457
7556 -5749.737450231901
7557 -5755.257132116702
7558 -5761.34304304965
7559 -5767.290724534519
7560 -5773.473132905948
7561 -5779.776898417602
7562 -5786.482268862319
7563 -5793.067427602879
7564 -5799.430919267558
7565 -5805.803738158832
7566 -5811.943171762237
7567 -5817.742860396333
7568 -5823.354504068371
7569 -5828.835946558292
7570 -5833.94131772278
7571 -5838.686218137741
7572 -5842.752276715983
7573 -5846.581399099136
7574 -5849.948052403998
7575 -5852.746090481643
7576 -5854.767809934897
7577 -5856.607182312136
7578 -5857.45246161652
7579 -5857.863529914913
7580 -5857.614925924338
7581 -5856.551976485978
7582 -5855.3726002886
7583 -5853.625268572135
7584 -5851.460308226831
7585 -5848.817942213051
7586 -5845.995715632555
7587 -5842.928383122691
7588 -5839.490292940941
7589 -5837.445123227581
7590 -5834.453703890192
7591 -5831.104443087593
7592 -5829.149039913358
7593 -5826.151462599382
7594 -5823.452440382659
7595 -5821.936107258176
7596 -5820.149765348398
7597 -5819.150667726711
7598 -5818.136144753929
7599 -5817.515188641878
7600 -5817.490058845896
7601 -5818.095362771654
7602 -5819.021019208602
7603 -5820.774012815645
7604 -5822.901982838775
7605 -5825.808587593851
7606 -5829.341658193567
7607 -5833.479325042504
7608 -5837.860653119229
7609 -5843.028865641852
7610 -5848.584493029864
7611 -5854.529660992011
7612 -5860.718387097898
7613 -5867.742751666609
7614 -5875.084810766574
7615 -5882.790009953982
7616 -5891.091563923786
7617 -5899.561072348359
7618 -5908.058943426202
7619 -5916.698124977867
7620 -5925.384967240987
7621 -5934.338649041531
7622 -5943.251915214141
7623 -5952.186637097226
7624 -5960.81453932464
7625 -5969.661428618043
7626 -5978.040722790724
7627 -5986.469637767498
7628 -5994.601894613342
7629 -6002.549547431967
7630 -6010.06989398198
7631 -6017.492890726837
7632 -6024.470133767784
7633 -6031.199114483528
7634 -6037.369192267696
7635 -6043.583660654386
7636 -6049.397036865569
7637 -6054.809932367953
7638 -6060.005180106356
7639 -6064.926386766472
7640 -6069.264353815227
7641 -6073.565282158688
7642 -6077.150212294419
7643 -6080.620783470232
7644 -6083.725061610719
7645 -6086.873054022072
7646 -6089.3926637609
7647 -6091.786352630443
7648 -6093.643201274044
7649 -6095.013890381937
7650 -6096.610619896468
7651 -6098.405268933327
7652 -6099.26918197718
7653 -6100.6280381353
7654 -6101.434402076809
7655 -6103.060227623429
7656 -6103.843884032471
7657 -6105.538998845231
7658 -6106.309037791088
7659 -6107.766903858206
7660 -6108.584522930041
7661 -6110.212006207898
7662 -6110.929225092338
7663 -6112.478816113662
7664 -6113.687410140315
7665 -6115.50173705039
7666 -6117.093397074129
7667 -6118.681798449409
7668 -6121.059763098212
7669 -6123.70645499234
7670 -6126.157319299926
7671 -6129.426739866924
7672 -6132.637945707513
7673 -6136.376458202501
7674 -6140.174897427929
7675 -6144.549133589618
7676 -6149.295536421375
7677 -6154.437782028046
7678 -6159.41711176956
7679 -6165.211051967354
7680 -6170.897735193525
7681 -6177.330491739674
7682 -6183.57687067316
7683 -6190.001508987697
7684 -6196.838360722289
7685 -6203.962118709327
7686 -6210.948846135328
7687 -6217.97681322299
7688 -6225.325868517429
7689 -6232.478117720247
7690 -6239.703633470484
7691 -6246.925479959002
7692 -6253.618718457992
7693 -6260.531402859971
7694 -6267.269061571346
7695 -6273.889922930913
7696 -6279.823987881096
7697 -6286.108882575743
7698 -6291.739424678622
7699 -6296.963084300182
7700 -6301.692994344043
7701 -6306.432859737321
7702 -6310.929233137845
7703 -6315.260520798743
7704 -6318.707613455769
7705 -6322.012972103473
7706 -6324.910487048122
7707 -6327.644244346271
7708 -6329.994756046439
7709 -6331.722862863201
7710 -6333.258522211853
7711 -6334.571678918511
7712 -6335.490881743282
7713 -6336.64036458221
7714 -6337.38725336572
7715 -6337.750955593486
7716 -6338.03802402075
7717 -6338.124929192114
7718 -6338.287067523256
7719 -6338.415141232771
7720 -6338.529628497272
7721 -6338.472558100783
7722 -6338.280897638859
7723 -6338.17648121968
7724 -6337.324966096759
7725 -6337.184408191653
7726 -6336.926339856162
7727 -6336.584704512977
7728 -6336.383565663652
7729 -6335.982917072037
7730 -6335.453561942593
7731 -6334.984724873867
7732 -6334.653574094329
7733 -6334.202365733781
7734 -6333.761192125819
7735 -6332.895909826534
7736 -6332.244944508763
7737 -6331.486807435258
7738 -6330.648825579954
7739 -6329.941281101506
7740 -6329.205761055257
7741 -6328.292993577325
7742 -6327.520785935729
7743 -6326.571988028382
7744 -6325.615228989738
7745 -6324.674422160369
7746 -6323.39562872898
7747 -6322.177295926711
7748 -6320.973097837969
7749 -6319.372151537969
7750 -6317.545175989686
7751 -6315.700667001056
7752 -6313.549109393193
7753 -6311.994526900786
7754 -6309.110029012556
7755 -6306.005980335594
7756 -6302.670595758772
7757 -6299.180933079223
7758 -6296.54956560798
7759 -6292.193330461458
7760 -6287.773110030439
7761 -6283.064358160913
7762 -6277.73808521205
7763 -6272.223934837793
7764 -6266.324670531859
7765 -6260.390588627487
7766 -6254.109796489848
7767 -6247.452488248057
7768 -6240.633914554497
7769 -6233.585673372626
7770 -6226.167508857719
7771 -6218.206239926008
7772 -6210.018768392147
7773 -6201.839495050584
7774 -6193.439199138675
7775 -6184.682596743357
7776 -6175.600981435477
7777 -6166.096239608447
7778 -6156.592040763063
7779 -6147.110616424927
7780 -6137.341842360591
7781 -6127.796866647509
7782 -6118.140849544506
7783 -6108.352022666418
7784 -6098.564924113599
7785 -6088.795090906813
7786 -6079.13470353863
7787 -6069.282354172584
7788 -6060.104229311563
7789 -6050.596509567099
7790 -6041.552373884874
7791 -6032.903040011643
7792 -6024.182200107286
7793 -6015.792588684946
7794 -6007.917996284449
7795 -6000.412468990985
7796 -5993.151609868622
7797 -5985.929803026559
7798 -5979.505536797576
7799 -5973.092503616085
7800 -5967.276403355098
7801 -5962.061001188371
7802 -5956.911665148574
7803 -5952.076562790984
7804 -5947.829739294716
7805 -5943.955117999811
7806 -5940.180772734907
7807 -5936.781462929381
7808 -5933.703020031336
7809 -5931.115795176846
7810 -5928.679194663454
7811 -5926.352878365101
7812 -5924.080207401566
7813 -5922.133447592884
7814 -5921.058813135709
7815 -5919.041447227857
7816 -5918.127024663456
7817 -5916.461005939557
7818 -5915.20728786879
7819 -5913.445653815579
7820 -5912.340443950241
7821 -5910.559353071302
7822 -5909.52100180661
7823 -5907.419522293342
7824 -5905.90928916054
7825 -5903.535802577228
7826 -5901.776190954765
7827 -5898.738184435323
7828 -5896.675239670283
7829 -5893.101631299709
7830 -5890.551953578724
7831 -5886.70231814427
7832 -5882.434115390157
7833 -5879.273500666476
7834 -5874.177074877655
7835 -5868.807524552984
7836 -5864.958171299443
7837 -5858.84791405918
7838 -5852.403464955401
7839 -5847.969094468674
7840 -5841.244670382386
7841 -5834.09651409564
7842 -5829.145126624378
7843 -5821.473313435797
7844 -5813.549964346023
7845 -5808.148926367065
7846 -5799.569335648076
7847 -5791.097710199509
7848 -5782.452515429367
7849 -5773.788487286062
7850 -5765.142137447279
7851 -5756.586649717412
7852 -5748.016139720452
7853 -5739.635230948824
7854 -5731.521424155896
7855 -5723.815800888829
7856 -5716.342063450887
7857 -5709.086419289574
7858 -5702.319535176514
7859 -5695.713490491252
7860 -5689.515779051975
7861 -5683.872924676045
7862 -5678.325865830811
7863 -5673.296415003678
7864 -5668.754036098712
7865 -5664.383007177078
7866 -5660.391059835841
7867 -5656.713902121002
7868 -5653.225338935471
7869 -5651.125882896805
7870 -5647.932269539006
7871 -5645.142332955525
7872 -5643.256388001659
7873 -5640.522294971174
7874 -5638.657986271502
7875 -5635.984867900735
7876 -5634.481326240308
7877 -5631.994659713995
7878 -5630.540779464252
7879 -5628.123958328878
7880 -5626.489169692645
7881 -5623.899642389279
7882 -5622.160489511054
7883 -5620.425107558932
7884 -5617.766707651266
7885 -5615.896927976456
7886 -5613.984536341478
7887 -5611.028628800116
7888 -5608.963667944394
7889 -5606.595185369533
7890 -5603.264455157922
7891 -5600.983117073028
7892 -5597.497712100879
7893 -5595.123952796402
7894 -5591.130544173562
7895 -5588.673143452562
7896 -5585.020794330508
7897 -5582.559648725382
7898 -5578.700080778728
7899 -5576.079421134411
7900 -5571.920483404944
7901 -5569.275615115287
7902 -5565.144934099922
7903 -5562.509789945214
7904 -5558.697266245211
7905 -5555.876859783417
7906 -5551.36967015542
7907 -5548.363878436083
7908 -5543.983134822552
7909 -5540.835669864071
7910 -5536.135882781493
7911 -5533.190594662228
7912 -5528.466100705644
7913 -5525.235613884232
7914 -5520.514631472543
7915 -5517.373039092867
7916 -5512.620504356746
7917 -5509.390299170102
7918 -5504.773634767739
7919 -5501.612762611093
7920 -5496.866477435033
7921 -5493.531491569152
7922 -5488.838953053858
7923 -5485.684284202363
7924 -5481.06799991213
7925 -5476.72602419699
7926 -5473.758770179681
7927 -5469.532484613735
7928 -5466.908648811287
7929 -5463.157994468104
7930 -5459.70629616017
7931 -5457.506289582747
7932 -5454.436307329698
7933 -5452.491856587219
7934 -5449.848375320255
7935 -5448.260876343394
7936 -5446.384666222984
7937 -5445.230009304492
7938 -5443.614320116129
7939 -5442.890194968001
7940 -5442.052242068687
7941 -5441.511801113922
7942 -5441.25214247779
7943 -5441.358716876906
7944 -5441.531127372967
7945 -5442.28439394917
7946 -5442.845961519633
7947 -5443.815272240456
7948 -5445.170173831485
7949 -5446.794370390332
7950 -5448.475347533416
7951 -5450.476820552135
7952 -5452.687438562646
7953 -5455.218121293046
7954 -5458.091093901673
7955 -5461.307610880672
7956 -5464.820798275217
7957 -5468.526801432236
7958 -5472.517268937562
7959 -5478.699079394974
7960 -5482.835052450643
7961 -5487.23677060617
7962 -5493.995524013246
7963 -5498.619694485234
7964 -5505.603546801934
7965 -5510.39252288453
7966 -5517.486491719494
7967 -5522.235151829798
7968 -5529.209385146373
7969 -5533.936660225299
7970 -5540.816029465069
7971 -5545.38701482695
7972 -5552.004285170194
7973 -5558.373387303389
7974 -5562.366135111034
7975 -5568.287151128475
7976 -5572.048967916414
7977 -5577.537182584214
7978 -5580.955310783195
7979 -5585.928238397199
7980 -5589.009210371781
7981 -5593.405537248238
7982 -5596.152260769999
7983 -5600.027607721398
7984 -5602.46892488581
7985 -5605.816599566167
7986 -5607.934674838438
7987 -5609.786354602304
7988 -5612.522489538329
7989 -5614.002464003794
7990 -5615.624589076503
7991 -5617.088344998471
7992 -5618.430071112783
7993 -5619.530198930813
7994 -5620.747494140575
7995 -5621.799759733895
7996 -5622.840100102256
7997 -5623.832346954124
7998 -5624.784513702983
7999 -5625.75788843635
8000 -5626.692022027566
8001 -5627.416816960581
8002 -5628.172020677147
8003 -5628.913461382858
8004 -5629.706423804101
8005 -5630.455085946985
8006 -5631.2190100129
8007 -5631.948017045045
8008 -5632.74027967574
8009 -5633.483522903701
8010 -5634.30174246069
8011 -5635.196121247557
8012 -5636.163866525976
8013 -5637.123007284275
8014 -5638.191973824702
8015 -5639.346370230236
8016 -5640.565361661802
8017 -5641.917744365338
8018 -5643.310701081665
8019 -5644.670096514688
8020 -5646.248227992709
8021 -5647.898270282103
8022 -5649.650906970308
8023 -5651.483099664028
8024 -5653.414704870344
8025 -5655.485290073216
8026 -5657.67853494237
8027 -5659.893160429555
8028 -5662.253654424832
8029 -5664.642374818504
8030 -5667.074973463201
8031 -5669.528690097591
8032 -5673.310019782463
8033 -5675.662249173914
8034 -5678.141870850331
8035 -5681.776517597518
8036 -5684.15270016212
8037 -5686.382681097075
8038 -5689.726735802837
8039 -5691.79076190517
8040 -5693.973636860685
8041 -5696.944706804838
8042 -5698.958788756914
8043 -5700.83683852225
8044 -5703.513831461546
8045 -5705.213409399733
8046 -5706.854517023154
8047 -5708.455348609971
8048 -5710.592088024739
8049 -5712.010043356827
8050 -5713.300730193143
8051 -5714.588675050903
8052 -5715.814309239417
8053 -5717.002900200415
8054 -5718.09132196158
8055 -5719.206448942177
8056 -5720.290353172991
8057 -5721.40196855885
8058 -5722.421810243805
8059 -5723.451807122187
8060 -5724.509265485152
8061 -5725.575263481959
8062 -5726.670435606171
8063 -5727.832238601462
8064 -5729.029092157724
8065 -5730.174409232894
8066 -5731.337049794822
8067 -5732.509417537563
8068 -5733.765628061812
8069 -5735.004917049191
8070 -5736.267104649187
8071 -5737.532083410952
8072 -5738.874938711762
8073 -5740.253070684555
8074 -5741.670511210044
8075 -5743.047175454523
8076 -5744.453747637495
8077 -5745.975361785122
8078 -5747.375187327118
8079 -5748.750293171637
8080 -5750.178694988821
8081 -5751.608406249018
8082 -5753.019643213058
8083 -5754.482651345815
8084 -5755.895246824664
8085 -5757.34061553954
8086 -5758.698123659698
8087 -5760.109844474423
8088 -5761.488542150304
8089 -5762.79687239944
8090 -5763.990158130369
8091 -5765.238525652196
8092 -5766.410941173275
8093 -5767.636279526501
8094 -5768.784919945392
8095 -5769.935132706195
8096 -5771.04451570627
8097 -5772.132839687954
8098 -5773.1124077732
8099 -5774.086918043403
8100 -5775.043052589107
8101 -5775.994015407295
8102 -5776.924898231731
8103 -5777.835811661968
8104 -5778.740032684482
8105 -5779.615769977437
8106 -5780.408635137196
8107 -5781.203370521109
8108 -5782.045086457902
8109 -5782.901595523443
8110 -5783.774493545012
8111 -5784.704887862805
8112 -5785.61684390078
8113 -5786.561442324402
8114 -5787.467547666262
8115 -5788.506218606617
8116 -5789.516071087072
8117 -5790.645710873899
8118 -5791.716090956503
8119 -5792.916146534639
8120 -5794.173311073676
8121 -5795.576905517389
8122 -5796.939627773626
8123 -5798.460732476027
8124 -5800.065942582508
8125 -5801.726643388582
8126 -5803.501953335901
8127 -5805.372316938693
8128 -5807.266380013391
8129 -5809.2802596355
8130 -5811.379510744002
8131 -5813.554352395067
8132 -5815.713631842738
8133 -5817.980798455974
8134 -5820.231330667244
8135 -5822.569889804483
8136 -5824.925381568538
8137 -5827.33020087903
8138 -5829.55185778696
8139 -5831.867959933911
8140 -5834.201727080787
8141 -5836.595485891995
8142 -5838.758873832694
8143 -5840.986526816419
8144 -5843.022906878492
8145 -5845.16722584851
8146 -5847.100248441763
8147 -5849.010791994247
8148 -5850.691227009319
8149 -5852.373620588654
8150 -5853.929918818249
8151 -5855.501918327093
8152 -5856.804691334253
8153 -5858.088611684245
8154 -5859.160085526448
8155 -5860.134408464573
8156 -5860.963083643711
8157 -5861.661927068933
8158 -5862.270906691321
8159 -5862.783938612285
8160 -5863.15145106943
8161 -5863.4490824677
8162 -5863.546577717706
8163 -5863.567229001089
8164 -5863.429353636935
8165 -5863.235687109189
8166 -5862.964338488302
8167 -5862.610430467519
8168 -5862.127287455466
8169 -5861.491806378902
8170 -5860.78171796964
8171 -5860.064898718033
8172 -5859.181817184833
8173 -5858.27307282978
8174 -5857.223296078022
8175 -5856.190136242615
8176 -5854.991017855607
8177 -5853.883476140257
8178 -5852.568314131603
8179 -5851.25159724382
8180 -5849.826020333325
8181 -5848.473418303202
8182 -5846.950447652428
8183 -5845.476622814998
8184 -5843.817170904174
8185 -5842.155302572639
8186 -5840.440896356686
8187 -5838.625221968251
8188 -5836.690627011012
8189 -5834.817810961095
8190 -5832.859372545973
8191 -5829.944542993093
8192 -5827.939953181191
8193 -5825.925350696875
8194 -5823.780354291608
8195 -5820.65802099317
8196 -5818.548653995345
8197 -5816.508918627726
8198 -5814.387999911219
8199 -5811.331889015474
8200 -5809.252243155772
8201 -5807.283418377689
8202 -5805.237739903521
8203 -5802.320380064444
8204 -5800.393423636285
8205 -5798.572998607417
8206 -5796.66230314193
8207 -5794.859674776912
8208 -5792.860842897637
8209 -5791.070055355109
8210 -5789.138282400125
8211 -5787.298447752828
8212 -5785.449657646665
8213 -5783.672225289002
8214 -5781.912652888933
8215 -5780.237884093377
8216 -5778.537881139294
8217 -5776.895507420706
8218 -5775.239296849438
8219 -5773.610971805213
8220 -5771.946710396002
8221 -5770.400986011876
8222 -5768.835524926347
8223 -5767.348771822293
8224 -5765.85964912685
8225 -5764.434628258477
8226 -5762.919411690986
8227 -5761.530262295832
8228 -5760.029068320677
8229 -5758.711961992598
8230 -5757.260401930225
8231 -5755.97878445179
8232 -5754.519708614973
8233 -5753.237655385768
8234 -5751.819323896486
8235 -5750.547793659108
8236 -5749.118514209557
8237 -5747.889642719636
8238 -5746.491236849314
8239 -5745.282157870548
8240 -5743.905150402503
8241 -5742.664246121464
8242 -5741.29178178264
8243 -5740.06102512865
8244 -5738.698284860641
8245 -5737.438058051023
8246 -5736.139475521175
8247 -5734.964250065096
8248 -5733.681400209453
8249 -5732.484341712285
8250 -5731.228234446539
8251 -5730.099142965983
8252 -5728.919736858029
8253 -5727.87956631272
8254 -5726.836236505206
8255 -5725.88089427113
8256 -5724.958341652804
8257 -5724.186695789814
8258 -5723.392563245918
8259 -5722.788993548356
8260 -5722.201249132512
8261 -5721.753984827309
8262 -5721.320130730911
8263 -5721.077335473494
8264 -5720.886881625162
8265 -5720.877069993645
8266 -5720.84489277574
8267 -5721.028372465007
8268 -5721.223165926534
8269 -5721.578228155614
8270 -5721.988602093273
8271 -5722.573798564646
8272 -5723.167840397001
8273 -5723.784327934408
8274 -5724.496112772763
8275 -5725.295816751119
8276 -5726.12353780692
8277 -5727.061468518515
8278 -5727.955875918266
8279 -5728.969256679357
8280 -5729.895783899246
8281 -5730.905258922871
8282 -5731.809368752028
8283 -5732.854751529761
8284 -5733.788166116474
8285 -5734.773902921684
8286 -5735.638844395541
8287 -5736.593565787327
8288 -5737.36855221247
8289 -5738.235496588673
8290 -5738.957333220498
8291 -5739.785196146453
8292 -5740.490710646716
8293 -5741.231004906696
8294 -5741.864207771153
8295 -5742.542064010873
8296 -5743.062858429592
8297 -5743.657288584826
8298 -5744.102719947949
8299 -5744.559152854792
8300 -5744.918149118614
8301 -5745.309007093541
8302 -5745.580085181623
8303 -5745.89665160243
8304 -5746.10964484445
8305 -5746.365170480126
8306 -5746.502922188934
8307 -5746.778832156636
8308 -5746.894335335388
8309 -5747.136453733281
8310 -5747.187982143624
8311 -5747.382172420772
8312 -5747.406874444903
8313 -5747.559338879197
8314 -5747.617579426838
8315 -5747.788215712155
8316 -5747.83874446712
8317 -5747.999144446178
8318 -5748.059526746085
8319 -5748.210177134841
8320 -5748.281675591587
8321 -5748.414208846174
8322 -5748.469292774707
8323 -5748.603433046381
8324 -5748.655807211151
8325 -5748.801116431358
8326 -5748.859218502617
8327 -5749.017629189494
8328 -5749.044003182124
8329 -5749.212669442544
8330 -5749.269321157038
8331 -5749.352669782686
8332 -5749.416534493877
8333 -5749.520326850314
8334 -5749.504571169677
8335 -5749.518039594223
8336 -5749.416830129053
8337 -5749.295565580112
8338 -5749.073150062694
8339 -5748.908390251878
8340 -5748.557206929846
8341 -5748.253192094728
8342 -5747.818093607882
8343 -5747.426888961755
8344 -5746.920014554114
8345 -5746.483200926191
8346 -5745.905975768469
8347 -5745.578922184618
8348 -5745.058085712318
8349 -5744.712030634358
8350 -5744.299214512229
8351 -5744.060799035402
8352 -5743.675699475032
8353 -5743.537742162409
8354 -5743.281315104026
8355 -5743.15944044244
8356 -5743.027355483213
8357 -5743.127902540238
8358 -5743.172211577363
8359 -5743.372684937335
8360 -5743.560458115837
8361 -5743.916173433593
8362 -5744.255498940458
8363 -5744.811841628251
8364 -5745.252708131975
8365 -5745.95786205737
8366 -5746.635685130612
8367 -5747.468418640092
8368 -5748.219149409254
8369 -5749.141419899629
8370 -5749.978419993705
8371 -5751.021398832957
8372 -5751.964147479828
8373 -5753.08420158633
8374 -5754.088269091193
8375 -5755.278551333087
8376 -5756.362965549035
8377 -5757.607082125791
8378 -5758.838636206953
8379 -5760.108731553764
8380 -5761.372434859076
8381 -5762.684473143298
8382 -5763.918280795558
8383 -5765.277982579205
8384 -5766.644819126817
8385 -5767.957406325844
8386 -5769.246335501028
8387 -5770.640472517057
8388 -5771.941719062824
8389 -5773.236046263775
8390 -5774.502407719674
8391 -5775.821819998298
8392 -5776.996476467003
8393 -5778.193880876499
8394 -5779.246202645952
8395 -5780.314121766518
8396 -5781.276542127602
8397 -5782.187770960553
8398 -5782.954991834832
8399 -5783.704675680377
8400 -5784.254876930879
8401 -5784.858839782647
8402 -5785.224594652815
8403 -5785.733632425061
8404 -5785.875134720459
8405 -5786.146500038244
8406 -5786.240020435543
8407 -5786.409100255508
8408 -5786.358263682903
8409 -5786.403332219926
8410 -5786.126147135212
8411 -5786.076339748506
8412 -5785.786189072195
8413 -5785.653452437927
8414 -5785.303693956872
8415 -5785.101536658656
8416 -5784.819887599157
8417 -5784.61427670976
8418 -5784.16506297992
8419 -5783.913888360567
8420 -5783.608420893141
8421 -5783.402961058615
8422 -5783.134326727639
8423 -5783.006776693318
8424 -5782.940143815453
8425 -5782.923538865284
8426 -5782.837971653833
8427 -5782.971310012605
8428 -5783.001769709846
8429 -5783.187433050005
8430 -5783.417649090573
8431 -5783.722365985615
8432 -5784.165919566668
8433 -5784.669968719526
8434 -5785.149453019292
8435 -5785.735859079781
8436 -5786.326931990799
8437 -5787.108886846368
8438 -5787.964298243316
8439 -5788.923708028763
8440 -5790.020120014071
8441 -5791.208470803267
8442 -5792.41122512098
8443 -5793.739380035644
8444 -5795.076871076641
8445 -5796.672402931878
8446 -5798.233989827055
8447 -5799.970947377633
8448 -5802.534275376631
8449 -5804.395140006553
8450 -5806.299628674368
8451 -5809.156340080815
8452 -5811.032714438609
8453 -5814.073025977655
8454 -5815.936201929522
8455 -5818.874317740287
8456 -5820.760201925026
8457 -5823.865188927443
8458 -5826.625400613166
8459 -5828.428748897404
8460 -5830.982289785587
8461 -5833.544306159305
8462 -5835.589151273753
8463 -5837.705716372495
8464 -5839.484364374885
8465 -5841.335806756007
8466 -5842.703094951469
8467 -5844.102078792648
8468 -5845.259602109401
8469 -5846.334320331644
8470 -5847.137055563481
8471 -5847.781298129398
8472 -5848.316401908855
8473 -5848.833415519794
8474 -5849.180917985664
8475 -5849.588939748382
8476 -5849.798676905443
8477 -5850.156459865064
8478 -5850.359514537208
8479 -5850.65553421279
8480 -5850.834129283107
8481 -5851.270227769171
8482 -5851.305634777603
8483 -5851.543841124634
8484 -5851.929474368671
8485 -5852.389001400059
8486 -5852.673308041529
8487 -5853.433652272437
8488 -5854.232429640531
8489 -5855.015953013769
8490 -5855.776480485089
8491 -5856.715828072322
8492 -5857.429306931729
8493 -5858.850773413698
8494 -5860.183598666562
8495 -5861.347174596925
8496 -5863.186229616614
8497 -5865.267481439162
8498 -5867.228766274238
8499 -5869.211045230848
8500 -5871.410106394649
8501 -5874.045907289056
8502 -5876.523528491363
8503 -5879.347046159434
8504 -5882.16618159487
8505 -5885.087288383917
8506 -5888.210319478646
8507 -5891.609108522328
8508 -5894.829273061716
8509 -5898.368128643493
8510 -5901.777416871541
8511 -5905.714519692751
8512 -5909.337959303412
8513 -5913.143609183783
8514 -5916.758303826956
8515 -5920.791090187994
8516 -5924.512192264817
8517 -5928.45265484537
8518 -5932.016434804114
8519 -5935.86485153069
8520 -5939.261783723675
8521 -5942.773941837429
8522 -5945.850885217152
8523 -5949.190320369185
8524 -5952.180929521159
8525 -5955.287762641423
8526 -5957.816671255542
8527 -5960.601106127934
8528 -5962.934831279921
8529 -5965.40068086982
8530 -5967.258074034662
8531 -5969.100125011645
8532 -5970.346351781041
8533 -5971.657223380592
8534 -5972.451553382692
8535 -5973.156398992186
8536 -5973.406146548279
8537 -5973.706447071607
8538 -5973.821624163165
8539 -5973.907728984843
8540 -5973.662186162079
8541 -5973.378625270638
8542 -5973.149877182799
8543 -5972.857265166078
8544 -5972.390778596329
8545 -5972.092999614569
8546 -5971.391431824982
8547 -5970.94606999514
8548 -5970.39891470658
8549 -5970.141379326864
8550 -5969.637580949269
8551 -5969.494888737539
8552 -5968.976041800905
8553 -5968.858029933259
8554 -5968.683536436331
8555 -5968.738898073234
8556 -5968.799511378093
8557 -5969.16737966501
8558 -5969.479548589601
8559 -5969.897758957801
8560 -5970.502939695704
8561 -5971.047117308412
8562 -5971.988158435026
8563 -5972.445885872477
8564 -5973.45925211434
8565 -5974.706632408226
8566 -5975.43846412833
8567 -5976.423262156017
8568 -5977.139811392252
8569 -5978.194705672699
8570 -5978.759909395598
8571 -5979.643639802206
8572 -5980.164153069709
8573 -5980.744987708281
8574 -5981.077681593029
8575 -5981.484488990322
8576 -5981.436756163896
8577 -5981.483635738936
8578 -5981.114079198225
8579 -5980.715510423692
8580 -5980.326673675454
8581 -5979.376022929401
8582 -5978.288779976127
8583 -5977.586532114371
8584 -5976.402895729875
8585 -5974.884559111638
8586 -5973.933415126403
8587 -5972.495840963621
8588 -5970.685835017823
8589 -5969.89289249378
8590 -5968.623256046832
8591 -5967.445658597408
8592 -5966.660508687841
8593 -5965.758245137075
8594 -5964.949201213701
8595 -5964.491947390535
8596 -5964.075273068727
8597 -5963.906246123507
8598 -5963.915088780878
8599 -5964.155713724348
8600 -5964.584930091345
8601 -5965.190868294861
8602 -5965.939336361209
8603 -5966.902877473465
8604 -5967.567856425673
8605 -5969.009531310829
8606 -5970.203429036356
8607 -5971.973619902607
8608 -5973.520735612925
8609 -5974.761130331121
8610 -5976.52292923704
8611 -5977.964863492041
8612 -5979.807539922732
8613 -5981.176860480406
8614 -5983.192003899093
8615 -5985.427107778309
8616 -5986.669087673223
8617 -5988.527318055661
8618 -5989.609554371074
8619 -5991.246472719773
8620 -5992.205118717208
8621 -5993.634769400424
8622 -5994.360071916799
8623 -5995.384223410969
8624 -5995.695800641414
8625 -5995.949753350239
8626 -5995.698755023474
8627 -5995.336811460164
8628 -5994.800331403945
8629 -5993.430515363649
8630 -5992.192352329266
8631 -5990.088489474408
8632 -5988.380555765244
8633 -5985.688845492885
8634 -5983.54110456717
8635 -5980.020111288319
8636 -5977.266068132556
8637 -5973.163616654493
8638 -5970.12283103687
8639 -5965.268020241396
8640 -5960.168835474191
8641 -5956.974875155169
8642 -5951.654685786955
8643 -5946.695706321944
8644 -5943.179911624326
8645 -5938.265996382352
8646 -5933.476080289649
8647 -5929.075072477516
8648 -5924.774136460422
8649 -5922.467029263049
8650 -5919.004755061242
8651 -5916.307719528822
8652 -5914.009089868155
8653 -5912.215175581186
8654 -5911.264255820866
8655 -5910.654602479046
8656 -5910.521185227101
8657 -5911.089764036207
8658 -5911.987748357811
8659 -5913.521456146845
8660 -5915.591664704399
8661 -5917.459515964878
8662 -5920.588887679849
8663 -5924.373371283863
8664 -5928.642133894745
8665 -5933.47256832245
8666 -5938.477218060234
8667 -5943.937536797984
8668 -5949.782337315322
8669 -5955.942573350155
8670 -5962.244177597584
8671 -5968.662000776182
8672 -5975.361968013503
8673 -5982.365184239953
8674 -5988.90879100013
8675 -5995.928223060546
8676 -6002.373620998068
8677 -6009.029165489604
8678 -6015.445740006385
8679 -6021.642351902317
8680 -6027.365227803189
8681 -6032.949922568875
8682 -6038.134385526499
8683 -6042.97649196314
8684 -6047.054235284158
8685 -6050.925779223814
8686 -6054.238769787912
8687 -6057.137840802829
8688 -6059.389690821259
8689 -6061.188945003608
8690 -6062.304443936207
8691 -6062.971905766592
8692 -6062.717016775833
8693 -6062.0373512971
8694 -6060.649678507134
8695 -6059.46029540247
8696 -6056.869676497126
8697 -6054.854483709592
8698 -6051.34196376677
8699 -6048.534230990595
8700 -6043.816737463525
8701 -6040.493893272493
8702 -6034.725096045407
8703 -6030.978361608455
8704 -6024.425176490889
8705 -6019.806806838559
8706 -6012.57416041574
8707 -6007.709962311754
8708 -6000.303462659216
8709 -5995.108089458782
8710 -5986.906593335366
8711 -5981.625562591318
8712 -5973.401464743505
8713 -5965.393197900377
8714 -5960.070513063002
8715 -5952.410234806101
8716 -5944.809642045457
8717 -5937.553842483999
8718 -5932.773828012401
8719 -5925.816130643437
8720 -5918.882573906514
8721 -5912.501622568731
8722 -5906.305419513858
8723 -5900.723611497837
8724 -5896.887943855026
8725 -5891.460359522719
8726 -5886.094217450066
8727 -5882.910542843378
8728 -5878.12480780132
8729 -5873.542161590524
8730 -5870.432557021391
8731 -5866.164011306788
8732 -5863.268377640255
8733 -5858.851079481356
8734 -5855.746556997072
8735 -5851.328834681915
8736 -5848.214109015351
8737 -5843.742024769863
8738 -5840.578811582863
8739 -5836.032989638376
8740 -5832.815716560422
8741 -5829.464434787122
8742 -5824.430838978181
8743 -5821.271156895741
8744 -5817.773550154946
8745 -5812.426175624728
8746 -5808.849525825661
8747 -5805.393606850491
8748 -5800.097793566897
8749 -5796.798012821519
8750 -5793.357694419744
8751 -5788.53947821227
8752 -5785.504146803942
8753 -5782.593250120443
8754 -5779.707431260922
8755 -5776.090859798097
8756 -5773.824511484115
8757 -5771.891428279281
8758 -5769.24935973813
8759 -5767.927175452078
8760 -5766.776788533844
8761 -5766.082654801576
8762 -5765.230989722202
8763 -5765.261272150084
8764 -5765.594298916712
8765 -5766.341641197739
8766 -5767.213739940012
8767 -5769.238714117349
8768 -5770.932225640804
8769 -5773.00669249662
8770 -5775.367511929331
8771 -5779.465665830267
8772 -5782.446134617505
8773 -5785.801433203093
8774 -5791.121957890002
8775 -5795.094001332805
8776 -5801.171721703092
8777 -5805.439035553595
8778 -5811.816097902497
8779 -5818.494627577532
8780 -5822.884891402511
8781 -5829.809755633462
8782 -5836.437339719994
8783 -5843.171960229866
8784 -5849.299586182022
8785 -5853.438517481605
8786 -5859.326322115192
8787 -5864.97068898113
8788 -5870.089252610497
8789 -5873.342409099802
8790 -5877.702648731502
8791 -5881.72378743086
8792 -5883.908688400506
8793 -5887.031784998774
8794 -5889.471897322719
8795 -5890.746621894143
8796 -5892.182156128583
8797 -5892.880799726022
8798 -5893.205114047479
8799 -5893.193752488547
8800 -5892.52964822661
8801 -5891.87910190944
8802 -5890.129481221441
8803 -5888.802696235784
8804 -5886.874878132365
8805 -5883.770424651496
8806 -5881.320718692394
8807 -5878.593609146123
8808 -5875.444678960918
8809 -5872.160261295629
8810 -5866.76579112328
8811 -5863.065922867468
8812 -5859.119092449805
8813 -5852.927885928034
8814 -5848.583746038616
8815 -5841.881541449327
8816 -5837.12586659403
8817 -5830.121571983243
8818 -5825.237154159918
8819 -5818.050257214119
8820 -5810.752758095696
8821 -5803.881873533868
8822 -5796.925516284345
8823 -5790.441110051478
8824 -5784.03423389018
8825 -5777.974794081232
8826 -5772.004652988574
8827 -5766.564828392581
8828 -5761.20229897648
8829 -5756.335241619525
8830 -5751.578079445508
8831 -5747.206797617154
8832 -5742.927481528289
8833 -5739.022938796084
8834 -5735.385151590147
8835 -5733.177432169564
8836 -5729.998054827529
8837 -5727.034462993142
8838 -5725.19685252237
8839 -5722.698091159871
8840 -5721.102296740633
8841 -5718.864811999124
8842 -5717.540688661224
8843 -5715.816722196867
8844 -5714.889284956331
8845 -5714.078673058372
8846 -5712.913669061401
8847 -5712.451294135634
8848 -5712.015585482704
8849 -5711.783505605657
8850 -5711.827820163189
8851 -5712.130453647474
8852 -5712.490391447361
8853 -5713.133967041533
8854 -5713.873280868643
8855 -5714.834043874985
8856 -5715.864778477403
8857 -5717.145601009733
8858 -5718.542231606503
8859 -5720.195836022807
8860 -5722.859607961291
8861 -5724.920611594809
8862 -5726.824227379569
8863 -5730.329857972438
8864 -5732.606735109079
8865 -5736.201880302881
8866 -5738.527512264446
8867 -5742.108408458745
8868 -5744.556099254262
8869 -5748.100871680536
8870 -5750.53548144307
8871 -5754.201523267526
8872 -5756.532872719197
8873 -5759.752176508207
8874 -5761.820050866491
8875 -5764.826702110289
8876 -5766.753600800332
8877 -5769.548464346207
8878 -5771.296104424974
8879 -5773.721836857711
8880 -5775.15222867119
8881 -5777.491168282978
8882 -5778.970580612322
8883 -5780.85472344814
8884 -5782.076285746584
8885 -5783.492210187556
8886 -5785.53431450418
8887 -5786.845634790002
8888 -5788.252353166761
8889 -5789.725867226217
8890 -5791.856771675744
8891 -5793.484575331218
8892 -5794.896263975435
8893 -5796.686767713915
8894 -5798.495137509133
8895 -5801.241497322661
8896 -5803.130278301814
8897 -5805.392870025588
8898 -5807.467264787902
8899 -5810.998210226072
8900 -5813.43054732836
8901 -5816.165930490884
8902 -5820.254444790471
8903 -5823.254645447407
8904 -5827.372836952009
8905 -5830.435184580817
8906 -5834.894576996195
8907 -5838.060595170684
8908 -5842.856682137513
8909 -5846.103989963934
8910 -5851.144294785797
8911 -5856.305339885669
8912 -5859.604048598109
8913 -5864.81658086744
8914 -5869.593268752264
8915 -5874.485988269581
8916 -5879.314964389532
8917 -5884.051243245382
8918 -5888.768994701439
8919 -5893.37915827242
8920 -5897.942859722643
8921 -5902.325669061029
8922 -5906.636006159732
8923 -5910.999445381179
8924 -5915.214021659806
8925 -5919.249336820305
8926 -5923.058584179087
8927 -5926.990226779089
8928 -5930.54564694724
8929 -5934.13690556336
8930 -5937.610720736722
8931 -5941.03980764432
8932 -5943.900676137373
8933 -5947.087710071703
8934 -5949.694769853906
8935 -5952.351522393014
8936 -5954.538072241966
8937 -5956.786984227482
8938 -5958.686568577734
8939 -5960.315471018411
8940 -5961.015173615292
8941 -5962.412635494338
8942 -5963.144580898521
8943 -5963.600060021023
8944 -5963.855092359323
8945 -5964.051296553162
8946 -5963.834334648801
8947 -5963.618661348554
8948 -5963.101741046833
8949 -5962.361686802921
8950 -5961.013470582236
8951 -5960.104821654893
8952 -5958.004916918538
8953 -5956.480289891021
8954 -5953.948622816013
8955 -5952.383057259646
8956 -5949.492431715466
8957 -5947.567763404215
8958 -5944.276783748152
8959 -5941.116484676601
8960 -5938.859309899479
8961 -5935.323803702298
8962 -5931.803871515996
8963 -5928.343294157283
8964 -5924.841365223968
8965 -5921.696158758763
8966 -5918.660212183696
8967 -5915.893133229159
8968 -5913.300113107878
8969 -5910.95355690727
8970 -5909.017757762698
8971 -5908.100069372825
8972 -5906.6364058029
8973 -5905.537197240551
8974 -5904.521337340786
8975 -5904.306451242877
8976 -5904.065143456744
8977 -5904.367134861085
8978 -5904.569443988059
8979 -5905.422741876303
8980 -5906.215052433418
8981 -5907.517568959157
8982 -5908.534016051609
8983 -5910.586491987988
8984 -5912.112411720737
8985 -5914.582934600553
8986 -5916.364364802019
8987 -5919.366964060878
8988 -5921.28884902688
8989 -5923.774278948341
8990 -5927.198203042861
8991 -5929.782339287481
8992 -5933.724460587516
8993 -5936.351642678398
8994 -5940.467307844294
8995 -5943.362367675007
8996 -5947.749769432014
8997 -5950.694078956574
8998 -5955.193612632898
8999 -5959.549927695696
9000 -5963.638007103624
9001 -5967.833813073929
9002 -5971.992572070956
9003 -5976.069712270763
9004 -5979.784998840956
9005 -5983.489985372054
9006 -5986.861827923847
9007 -5990.297686799398
9008 -5993.525011199242
9009 -5996.795195628507
9010 -5999.837097535258
9011 -6002.990281221282
9012 -6005.643559037739
9013 -6008.725025588648
9014 -6011.440386473397
9015 -6014.24744900179
9016 -6016.983824474937
9017 -6020.087020476672
9018 -6022.902387257825
9019 -6025.053874150297
9020 -6028.401814127083
9021 -6031.842593889643
9022 -6034.144970307257
9023 -6038.104815067475
9024 -6041.66598628395
9025 -6044.301114752446
9026 -6048.163726041679
9027 -6051.152291557328
9028 -6055.403364085905
9029 -6060.310232757151
9030 -6063.340534765442
9031 -6067.794532841302
9032 -6070.860676767428
9033 -6075.631393430935
9034 -6078.660140845926
9035 -6083.3274306639
9036 -6086.461137466704
9037 -6091.275240761148
9038 -6095.589855374874
9039 -6098.574969085722
9040 -6102.539927557129
9041 -6105.349481112246
9042 -6109.001335019934
9043 -6111.491054799076
9044 -6114.484208004094
9045 -6116.541586670797
9046 -6118.867661871278
9047 -6120.338473454413
9048 -6121.506462551009
9049 -6122.372580492281
9050 -6122.915767251092
9051 -6123.090812940958
9052 -6122.640638135457
9053 -6122.096205979736
9054 -6120.136367300229
9055 -6118.658709422897
9056 -6115.594538088521
9057 -6113.165926992211
9058 -6108.599278098133
9059 -6105.386853474117
9060 -6099.581298838717
9061 -6095.64914490387
9062 -6088.951265604588
9063 -6082.130566426821
9064 -6074.736828153161
9065 -6067.176143945971
9066 -6059.357033461557
9067 -6051.721286974989
9068 -6043.944213590202
9069 -6036.21512959505
9070 -6028.230546333849
9071 -6020.619100208132
9072 -6013.006434167005
9073 -6005.726213017332
9074 -5998.21962976038
9075 -5991.291757252532
9076 -5984.50476251991
9077 -5978.006890933916
9078 -5971.888772244545
9079 -5966.222089287644
9080 -5960.791029544109
9081 -5955.931466893018
9082 -5951.246812225362
9083 -5947.198734121821
9084 -5943.448375486453
9085 -5940.394236487117
9086 -5937.47442353973
9087 -5935.210444921181
9088 -5933.261880675869
9089 -5932.46836676311
9090 -5931.358309203916
9091 -5931.050839894133
9092 -5930.950308132245
9093 -5931.153017376582
9094 -5931.726150846051
9095 -5932.418781547431
9096 -5933.465990013027
9097 -5934.440801249968
9098 -5935.72903089188
9099 -5937.903458308404
9100 -5939.398049426295
9101 -5941.347966565706
9102 -5943.355451387349
9103 -5945.66503128168
9104 -5948.926006386278
9105 -5951.565438833801
9106 -5954.081770608173
9107 -5958.282351131204
9108 -5960.930651264614
9109 -5965.35810336685
9110 -5968.18955150515
9111 -5972.539122347888
9112 -5976.62671009859
9113 -5979.446268516602
9114 -5983.082937144482
9115 -5987.093758924618
9116 -5990.65609228682
9117 -5992.871511962951
9118 -5995.564395194035
9119 -5998.115406600496
9120 -6000.148196362094
9121 -6001.91092371147
9122 -6003.203489616219
9123 -6003.902833321013
9124 -6004.115343433023
9125 -6004.246674610674
9126 -6003.826888188122
9127 -6002.871117272735
9128 -6001.515637421991
9129 -6000.448775459915
9130 -5998.104056882675
9131 -5996.468124010768
9132 -5993.286034824061
9133 -5991.188045610988
9134 -5987.420564311826
9135 -5984.946780592994
9136 -5980.537767781392
9137 -5977.555231416615
9138 -5972.715515731115
9139 -5969.500181813467
9140 -5964.346745567434
9141 -5960.748420753726
9142 -5955.006858448256
9143 -5951.288719225236
9144 -5945.317779090276
9145 -5941.475467973775
9146 -5935.32323896415
9147 -5929.617306097867
9148 -5925.637300647757
9149 -5919.867874282631
9150 -5913.941100577538
9151 -5908.269606169614
9152 -5902.521008622753
9153 -5897.099356331825
9154 -5891.679482256446
9155 -5886.691797156029
9156 -5881.627586468678
9157 -5876.923983478746
9158 -5872.205961457629
9159 -5867.940671760427
9160 -5863.586020193608
9161 -5859.609454909197
9162 -5855.566881922499
9163 -5851.998455006924
9164 -5848.167068484241
9165 -5844.679084639281
9166 -5842.309806404817
9167 -5838.916423549966
9168 -5835.37237707533
9169 -5833.212917623866
9170 -5829.74388920358
9171 -5827.715692180081
9172 -5824.22440646932
9173 -5822.113771048685
9174 -5818.632986454761
9175 -5816.498192697265
9176 -5813.10825012278
9177 -5811.017209953811
9178 -5808.565672098389
9179 -5805.400388720373
9180 -5803.279249711441
9181 -5801.204597861053
9182 -5798.978772016128
9183 -5796.973174545629
9184 -5794.925540631311
9185 -5792.952863619368
9186 -5790.725012917944
9187 -5788.706643313119
9188 -5786.896477745347
9189 -5785.094654793732
9190 -5783.158403610424
9191 -5781.493185652125
9192 -5779.790020662964
9193 -5778.251105183439
9194 -5776.68360560227
9195 -5774.735156918413
9196 -5773.405608746347
9197 -5772.592892160192
9198 -5771.634716761773
9199 -5770.508061859429
9200 -5769.841825010742
9201 -5769.378149287474
9202 -5768.628012768491
9203 -5768.565814859487
9204 -5768.381531512155
9205 -5768.443234362929
9206 -5768.705975432128
9207 -5768.987674121501
9208 -5769.242150688488
9209 -5769.548894400062
9210 -5770.035615073364
9211 -5770.694525545543
9212 -5770.921957395683
9213 -5771.980672204064
9214 -5772.741652573117
9215 -5773.890988933303
9216 -5774.50807336241
9217 -5775.760758509865
9218 -5776.575517793687
9219 -5777.670953157055
9220 -5778.379458320976
9221 -5779.730219121538
9222 -5780.47721884384
9223 -5781.707730164819
9224 -5782.4362149681
9225 -5783.439957136585
9226 -5784.007411384777
9227 -5785.21065228957
9228 -5785.567619370876
9229 -5786.323485630324
9230 -5786.665576631935
9231 -5787.151582572422
9232 -5787.458667234031
9233 -5788.017419564808
9234 -5788.303345316839
9235 -5788.438707604533
9236 -5788.326873872101
9237 -5788.051785456788
9238 -5787.914018593317
9239 -5787.488325709656
9240 -5786.685147490681
9241 -5786.209043336517
9242 -5785.379289815089
9243 -5784.760661893447
9244 -5783.608803556524
9245 -5783.01439613347
9246 -5781.83614120798
9247 -5781.321112120509
9248 -5780.21243475682
9249 -5779.751440347697
9250 -5779.088256222234
9251 -5778.896191512866
9252 -5778.429708184
9253 -5778.49099155535
9254 -5778.649641714711
9255 -5779.025588137838
9256 -5779.729192448342
9257 -5780.976961368173
9258 -5781.876209596227
9259 -5783.609932389882
9260 -5785.016373248496
9261 -5787.740592993887
9262 -5789.669937764137
9263 -5793.061595901716
9264 -5795.360180728076
9265 -5799.406418801924
9266 -5802.244292774575
9267 -5807.009156791451
9268 -5811.876101523469
9269 -5815.361352269991
9270 -5820.597694264606
9271 -5825.937997898374
9272 -5829.533967850717
9273 -5835.155794212248
9274 -5840.747481354379
9275 -5846.451515195049
9276 -5850.124408250505
9277 -5855.791966182053
9278 -5861.367244246538
9279 -5866.833019302487
9280 -5870.328197593842
9281 -5875.600755081852
9282 -5880.512477412883
9283 -5883.979203319654
9284 -5888.693117013418
9285 -5893.419474966616
9286 -5896.251868556822
9287 -5900.47155971828
9288 -5902.985924737098
9289 -5906.824344605124
9290 -5909.003273939593
9291 -5912.3853493412
9292 -5914.324396918959
9293 -5917.027481844465
9294 -5918.71975627083
9295 -5920.431837996501
9296 -5922.709318851026
9297 -5924.218332292775
9298 -5925.439110152852
9299 -5926.596713705207
9300 -5927.64131677666
9301 -5928.70234408394
9302 -5929.607980028915
9303 -5930.446904019448
9304 -5931.204001640247
9305 -5931.816917555108
9306 -5932.375692560858
9307 -5932.691531923058
9308 -5932.885717230281
9309 -5933.085266921943
9310 -5933.164595162103
9311 -5933.371269740536
9312 -5933.139017765236
9313 -5933.099479212184
9314 -5932.803131709981
9315 -5932.56948046688
9316 -5932.050119659001
9317 -5931.849326947893
9318 -5931.295662242352
9319 -5930.852289727572
9320 -5930.050055384866
9321 -5929.424131981864
9322 -5928.557006841615
9323 -5927.729407811591
9324 -5926.655068105795
9325 -5925.762912909956
9326 -5924.7592578207
9327 -5923.727189117696
9328 -5922.556381641659
9329 -5921.438454525113
9330 -5920.256997226098
9331 -5919.147922652392
9332 -5918.103221496196
9333 -5917.048975037495
9334 -5915.824302443471
9335 -5914.779533064696
9336 -5913.709809115809
9337 -5912.862979528091
9338 -5911.875639081782
9339 -5910.939973222135
9340 -5910.101011871504
9341 -5909.546551127526
9342 -5908.812607064965
9343 -5908.281396804628
9344 -5907.779861822722
9345 -5907.51354394373
9346 -5907.141704788441
9347 -5907.024158344208
9348 -5906.901493673702
9349 -5906.979899083626
9350 -5907.167760058016
9351 -5907.368238223797
9352 -5907.61067475384
9353 -5908.008667855675
9354 -5908.373125779221
9355 -5909.036978555832
9356 -5909.743383871027
9357 -5910.505585724498
9358 -5911.355246754134
9359 -5912.302310945417
9360 -5913.288625931055
9361 -5914.502089596129
9362 -5915.633519542449
9363 -5917.021420117245
9364 -5918.257808940256
9365 -5919.614612604651
9366 -5921.027138496376
9367 -5922.596251014926
9368 -5924.228719077276
9369 -5925.9509890216
9370 -5927.54446617687
9371 -5929.380739753253
9372 -5931.179001603609
9373 -5933.094629043792
9374 -5934.769233683286
9375 -5936.745576646875
9376 -5938.602601772159
9377 -5940.629678214937
9378 -5942.563895229333
9379 -5944.606377657822
9380 -5946.467320039561
9381 -5948.430441156923
9382 -5950.251300734852
9383 -5952.257466757786
9384 -5954.031170984683
9385 -5955.922226186902
9386 -5957.662929553145
9387 -5959.532059601276
9388 -5961.344141161267
9389 -5963.061594522674
9390 -5964.739885727499
9391 -5966.38788975404
9392 -5967.912951121186
9393 -5969.49684458405
9394 -5970.860157726042
9395 -5972.21414790954
9396 -5973.434822279359
9397 -5974.671241940086
9398 -5975.691613747864
9399 -5976.624168180868
9400 -5977.414183265528
9401 -5978.570648135933
9402 -5979.157387555188
9403 -5979.6875153947
9404 -5979.947109301028
9405 -5980.195910180142
9406 -5980.265741394221
9407 -5980.184448348647
9408 -5979.920084209892
9409 -5979.509235585922
9410 -5978.92792055351
9411 -5978.361809109552
9412 -5977.48907717121
9413 -5976.466936992922
9414 -5975.246232396985
9415 -5973.965405173786
9416 -5972.329554244841
9417 -5970.716995329271
9418 -5968.903331193311
9419 -5967.022428506948
9420 -5964.874027165007
9421 -5962.708645029837
9422 -5960.226404166112
9423 -5957.813870304181
9424 -5953.934379752533
9425 -5951.455113333341
9426 -5948.689660830728
9427 -5944.659416337217
9428 -5941.776393558015
9429 -5938.942693697682
9430 -5934.591697428494
9431 -5931.791294173429
9432 -5927.33694219767
9433 -5924.511853442988
9434 -5919.955535378113
9435 -5917.192689949183
9436 -5912.822562699784
9437 -5910.113673679135
9438 -5905.921659571619
9439 -5903.300413979336
9440 -5899.376904294325
9441 -5896.820061823384
9442 -5893.076757994085
9443 -5890.721926231131
9444 -5888.389600907322
9445 -5884.784056148423
9446 -5882.654728899201
9447 -5880.552240883332
9448 -5878.451882635046
9449 -5875.404522716059
9450 -5873.500139478367
9451 -5871.693176111108
9452 -5869.941037413673
9453 -5868.339102164507
9454 -5866.730609118202
9455 -5865.230497987431
9456 -5863.738832670119
9457 -5862.346793794988
9458 -5861.016942300748
9459 -5859.767087449733
9460 -5858.474957577152
9461 -5857.362264357183
9462 -5856.201124027521
9463 -5855.166289224037
9464 -5854.122897853977
9465 -5853.234647900842
9466 -5852.360212165609
9467 -5851.595417115977
9468 -5850.759873325261
9469 -5850.081688898741
9470 -5849.324568026987
9471 -5848.75385755703
9472 -5848.086337494011
9473 -5847.540316008389
9474 -5846.969015899393
9475 -5846.501351953095
9476 -5845.958493788306
9477 -5845.532984115497
9478 -5844.972250038365
9479 -5844.586533759842
9480 -5844.077356632042
9481 -5843.676446618419
9482 -5843.165742531523
9483 -5842.795488564479
9484 -5842.281910682154
9485 -5841.879868984033
9486 -5841.398348325152
9487 -5840.928113161495
9488 -5840.410690470057
9489 -5839.94478398787
9490 -5839.428380641089
9491 -5838.970767730098
9492 -5838.437603254842
9493 -5837.955285185257
9494 -5837.438281410814
9495 -5836.978270501599
9496 -5836.513727865833
9497 -5836.08354916911
9498 -5835.638492061893
9499 -5835.27375242552
9500 -5834.875260162974
9501 -5834.536113603447
9502 -5834.200608606155
9503 -5833.96355669447
9504 -5833.708289258655
9505 -5833.563348560918
9506 -5833.365845150719
9507 -5833.356930934626
9508 -5833.291485416969
9509 -5833.398275152766
9510 -5833.394548966867
9511 -5833.573398751338
9512 -5833.634131689951
9513 -5833.906645330078
9514 -5834.100030053248
9515 -5834.482281534906
9516 -5834.730855357412
9517 -5835.233154727405
9518 -5835.594886966751
9519 -5836.118647682028
9520 -5836.511905489989
9521 -5837.10840126604
9522 -5837.557044181482
9523 -5838.214112579199
9524 -5838.675387439478
9525 -5839.311035692155
9526 -5839.806187786061
9527 -5840.435093030019
9528 -5840.944667997053
9529 -5841.562170475517
9530 -5842.06491176039
9531 -5842.633387695265
9532 -5843.095546025279
9533 -5843.612374417927
9534 -5843.990998693823
9535 -5844.419065294693
9536 -5844.762022981637
9537 -5845.149678895926
9538 -5845.415833584298
9539 -5845.724332013684
9540 -5845.885773365097
9541 -5846.146774946809
9542 -5846.251116554375
9543 -5846.451065295721
9544 -5846.498140547451
9545 -5846.650391247338
9546 -5846.692780106519
9547 -5846.812966047708
9548 -5846.812421818559
9549 -5846.929181666947
9550 -5846.866435260938
9551 -5846.948413468883
9552 -5846.878413295827
9553 -5846.924090659046
9554 -5846.900627422714
9555 -5846.981994842292
9556 -5846.959569579835
9557 -5847.101742031731
9558 -5847.152304895289
9559 -5847.333690902718
9560 -5847.446295804481
9561 -5847.698123321544
9562 -5847.928996221254
9563 -5848.251930003767
9564 -5848.539499606684
9565 -5848.997099642606
9566 -5849.408228531463
9567 -5849.942696819698
9568 -5850.436535321413
9569 -5851.07358149781
9570 -5851.654504512872
9571 -5852.382403387043
9572 -5853.042901652153
9573 -5853.88049973481
9574 -5854.606039471889
9575 -5855.525892140105
9576 -5856.360745261481
9577 -5857.363030906106
9578 -5858.271427497464
9579 -5859.323357913361
9580 -5860.225816190908
9581 -5861.333871936489
9582 -5862.321962441701
9583 -5863.488301314427
9584 -5864.506216905308
9585 -5865.641696987088
9586 -5866.664108591536
9587 -5867.836639248846
9588 -5868.847331990665
9589 -5870.017917835287
9590 -5871.042442094882
9591 -5872.232994438209
9592 -5873.226514711479
9593 -5874.34541288976
9594 -5875.294337152186
9595 -5876.34272660783
9596 -5877.238940122496
9597 -5878.267075939144
9598 -5879.165202783441
9599 -5880.147737623885
9600 -5880.9625634125
9601 -5881.877030243252
9602 -5882.686290867187
9603 -5883.54763606714
9604 -5884.280081132248
9605 -5885.107907811851
9606 -5885.794119133579
9607 -5886.640717685985
9608 -5887.309638537541
9609 -5888.100883151006
9610 -5888.749327333386
9611 -5889.533040975783
9612 -5890.122734772506
9613 -5890.857732674786
9614 -5891.435143625327
9615 -5892.138662419186
9616 -5892.719296513314
9617 -5893.437664767743
9618 -5894.017382360475
9619 -5894.721849775809
9620 -5895.287010412114
9621 -5895.987807458209
9622 -5896.530711494041
9623 -5897.221346412429
9624 -5897.792317274937
9625 -5898.501780382067
9626 -5899.039003117136
9627 -5899.740989123279
9628 -5900.244582531278
9629 -5900.924346015947
9630 -5901.447107202875
9631 -5902.104017621722
9632 -5902.638035780298
9633 -5903.289352392455
9634 -5903.786180423202
9635 -5904.362430832143
9636 -5904.799552316625
9637 -5905.318842591596
9638 -5905.742321747724
9639 -5906.223882345209
9640 -5906.610624533802
9641 -5907.085504023392
9642 -5907.401501261444
9643 -5907.794196192021
9644 -5908.037039062575
9645 -5908.373327587213
9646 -5908.550734190429
9647 -5908.804083027169
9648 -5908.952973658339
9649 -5909.158792996583
9650 -5909.243897796055
9651 -5909.386865258141
9652 -5909.38133223061
9653 -5909.458844009509
9654 -5909.391565973618
9655 -5909.415578357921
9656 -5909.289984124433
9657 -5909.301579259813
9658 -5909.121470801942
9659 -5909.111886912226
9660 -5908.934514255037
9661 -5908.870946891534
9662 -5908.644078197766
9663 -5908.580993217627
9664 -5908.333116940475
9665 -5908.27536361658
9666 -5908.036710547577
9667 -5907.961868976675
9668 -5907.733179519704
9669 -5907.689354668159
9670 -5907.47586842547
9671 -5907.46423576363
9672 -5907.298713209193
9673 -5907.313748439792
9674 -5907.218933025357
9675 -5907.284343375793
9676 -5907.263460700827
9677 -5907.377876395676
9678 -5907.391107779878
9679 -5907.515456262171
9680 -5907.601227065234
9681 -5907.776988648474
9682 -5907.934277895912
9683 -5908.188123243993
9684 -5908.357450640519
9685 -5908.66642197162
9686 -5908.891351073636
9687 -5909.23171655039
9688 -5909.516267121468
9689 -5909.918031870546
9690 -5910.228401205939
9691 -5910.644700607864
9692 -5910.977414060034
9693 -5911.396391285678
9694 -5911.718424368071
9695 -5912.166262661265
9696 -5912.554998509743
9697 -5912.983864433701
9698 -5913.334237551913
9699 -5913.782751118347
9700 -5914.088631499194
9701 -5914.453904342541
9702 -5914.706960157686
9703 -5915.059313018383
9704 -5915.276106636667
9705 -5915.593635111335
9706 -5915.817200857628
9707 -5916.131145964918
9708 -5916.225129444686
9709 -5916.461643000447
9710 -5916.549189560307
9711 -5916.769614674637
9712 -5916.726791118976
9713 -5916.864313425168
9714 -5916.814217491331
9715 -5916.891198096557
9716 -5916.78208335665
9717 -5916.864159184259
9718 -5916.620103892896
9719 -5916.535227661009
9720 -5916.270847431296
9721 -5916.120574416322
9722 -5915.82074424746
9723 -5915.62589707875
9724 -5915.267000951814
9725 -5915.037621506306
9726 -5914.582409461947
9727 -5914.219677492933
9728 -5913.7724436612
9729 -5913.345986614902
9730 -5912.808184704386
9731 -5912.317204094647
9732 -5911.723789662576
9733 -5911.169644762246
9734 -5910.48225189988
9735 -5909.904029002593
9736 -5909.14795099
9737 -5908.501587908743
9738 -5907.75292870524
9739 -5907.07844568438
9740 -5906.276748745657
9741 -5905.542239728755
9742 -5904.609632687698
9743 -5903.777845460034
9744 -5902.823692988468
9745 -5901.919946489806
9746 -5900.844666637618
9747 -5899.898443997685
9748 -5898.782458148953
9749 -5897.811437848645
9750 -5896.58913742002
9751 -5895.462132726611
9752 -5893.584691161209
9753 -5892.473355202518
9754 -5891.189320993952
9755 -5890.057035018866
9756 -5888.772775022241
9757 -5886.894978370057
9758 -5885.570869988484
9759 -5884.331519546216
9760 -5883.047129080903
9761 -5881.193768107361
9762 -5879.935680876835
9763 -5878.710854837281
9764 -5876.830673099585
9765 -5875.701152023413
9766 -5874.445703576354
9767 -5872.675356044342
9768 -5871.412355603939
9769 -5870.242198499544
9770 -5868.487747122124
9771 -5867.479715029832
9772 -5866.26352578771
9773 -5864.759457722681
9774 -5863.632912627298
9775 -5862.601929416862
9776 -5860.945370468999
9777 -5860.072682133657
9778 -5858.526078873507
9779 -5857.772546081665
9780 -5856.401569574854
9781 -5855.661111456562
9782 -5854.450900968316
9783 -5853.893781972
9784 -5853.163513400265
9785 -5852.315432056621
9786 -5851.686859109522
9787 -5850.938189150885
9788 -5850.416526941563
9789 -5849.714257402755
9790 -5849.212706346203
9791 -5848.854104010263
9792 -5848.195851313893
9793 -5847.968992826123
9794 -5847.704085840071
9795 -5847.678090275948
9796 -5847.552640032293
9797 -5847.561355153291
9798 -5847.563255370727
9799 -5847.863943539811
9800 -5848.015361381953
9801 -5848.526928407717
9802 -5848.852509909145
9803 -5849.574869563963
9804 -5850.127383609608
9805 -5850.935117134556
9806 -5852.07964941823
9807 -5853.154011495029
9808 -5854.683241855486
9809 -5855.911320567561
9810 -5857.610264371906
9811 -5859.081931974079
9812 -5861.205437604367
9813 -5863.693858237598
9814 -5865.265556478098
9815 -5867.924918703457
9816 -5870.644438492251
9817 -5873.528510070658
9818 -5876.392192400072
9819 -5879.530878831221
9820 -5882.431116254266
9821 -5885.548091489499
9822 -5888.372970835187
9823 -5891.44524919218
9824 -5894.283240866334
9825 -5897.408453240016
9826 -5900.350145034679
9827 -5903.479430936867
9828 -5906.467991691561
9829 -5909.417257549982
9830 -5912.264822568884
9831 -5915.18845885562
9832 -5917.863184745947
9833 -5920.651571562097
9834 -5923.279868910313
9835 -5925.991458222471
9836 -5928.475660238169
9837 -5930.925275786107
9838 -5933.22717474463
9839 -5935.579726649343
9840 -5937.754743172963
9841 -5939.328020256943
9842 -5941.351049473813
9843 -5943.524975469782
9844 -5944.744992012869
9845 -5946.73933069626
9846 -5948.071080494051
9847 -5950.133838996316
9848 -5951.330251248934
9849 -5953.203653011975
9850 -5954.346540513395
9851 -5956.084984483331
9852 -5957.01006538915
9853 -5958.202953285965
9854 -5959.689860680197
9855 -5960.746708550233
9856 -5961.474879067348
9857 -5962.39678498896
9858 -5963.008201610645
9859 -5963.712753904839
9860 -5964.169434499831
9861 -5964.902118641977
9862 -5965.220551105799
9863 -5965.816710406494
9864 -5966.141508986874
9865 -5966.584187757687
9866 -5966.728167342732
9867 -5967.00580524053
9868 -5967.03953767209
9869 -5967.241852744287
9870 -5967.093107407791
9871 -5966.950664414705
9872 -5966.667540572607
9873 -5966.379980472877
9874 -5965.990209443412
9875 -5965.726114583001
9876 -5965.262180644426
9877 -5964.615735788453
9878 -5964.081816528177
9879 -5963.446311737956
9880 -5962.399988837879
9881 -5961.567237659107
9882 -5960.254046442664
9883 -5959.400386993772
9884 -5957.932776161561
9885 -5956.885727921987
9886 -5955.156393439247
9887 -5953.558755914978
9888 -5952.355226691843
9889 -5950.589044960129
9890 -5948.658975191051
9891 -5946.675835758813
9892 -5944.493833509746
9893 -5942.427958435956
9894 -5940.003723738327
9895 -5937.702982035354
9896 -5935.196427491762
9897 -5932.841156378413
9898 -5930.205504932881
9899 -5927.786775954411
9900 -5925.166606711825
9901 -5922.571489511412
9902 -5919.718878668014
9903 -5917.304332306035
9904 -5914.666370366637
9905 -5912.225684567846
9906 -5909.353431385458
9907 -5906.996255026692
9908 -5904.362957200133
9909 -5902.118328630629
9910 -5899.795667327049
9911 -5897.825223633969
9912 -5895.757822696425
9913 -5894.079109969199
9914 -5892.339177553469
9915 -5890.987797236555
9916 -5890.043418109589
9917 -5888.952283183524
9918 -5887.962802698595
9919 -5887.627534879475
9920 -5887.124926125223
9921 -5887.048738148243
9922 -5886.823816285027
9923 -5887.113939862665
9924 -5887.415435464995
9925 -5888.09675305202
9926 -5888.686134094488
9927 -5890.016054414842
9928 -5890.922811621703
9929 -5892.13750758293
9930 -5893.301942490212
9931 -5894.702048464756
9932 -5896.997017328752
9933 -5898.923005542127
9934 -5900.630665534789
9935 -5903.663411917864
9936 -5905.448331340252
9937 -5908.459321118089
9938 -5910.511142361397
9939 -5913.628686062725
9940 -5915.594639164741
9941 -5918.899152466774
9942 -5920.874740616089
9943 -5923.814556442589
9944 -5926.563844773206
9945 -5928.276689952371
9946 -5930.480609468346
9947 -5931.9798511283
9948 -5933.584239659662
9949 -5934.709196619628
9950 -5935.927848848626
9951 -5936.641760324009
9952 -5937.085041192863
9953 -5937.349793663666
9954 -5937.263926359426
9955 -5937.095378628037
9956 -5936.642624219713
9957 -5935.794928452773
9958 -5934.833416661158
9959 -5933.897725117074
9960 -5932.722670112398
9961 -5931.477379145193
9962 -5929.907374262151
9963 -5928.343983025213
9964 -5926.619118951572
9965 -5924.87472922418
9966 -5922.850792371412
9967 -5921.04814061755
9968 -5918.98662941853
9969 -5917.133408258286
9970 -5915.25277920029
9971 -5913.57345660345
9972 -5911.735717145201
9973 -5910.114991548076
9974 -5908.498594815265
9975 -5907.168127876186
9976 -5905.805223692908
9977 -5904.814610170386
9978 -5903.828834701641
9979 -5903.129664871884
9980 -5902.372371619986
9981 -5902.001482647312
9982 -5901.659070006795
9983 -5901.616751312627
9984 -5901.540174818081
9985 -5901.766602421636
9986 -5901.958154473619
9987 -5902.537623515028
9988 -5903.058200827908
9989 -5903.753430108447
9990 -5904.41494781985
9991 -5905.322953437201
9992 -5906.205902987957
9993 -5907.19257951568
9994 -5908.180060270623
9995 -5909.315930777549
9996 -5910.41717874523
9997 -5911.587557441838
9998 -5912.677442123882
9999 -5913.802529452134
10000 -5914.85035099209
10001 -5915.986980438035
10002 -5916.89129899447
10003 -5917.820244073779
10004 -5918.471062278854
10005 -5919.163165675436
10006 -5919.657067028675
10007 -5920.230702121897
10008 -5920.501509442323
10009 -5920.779218331154
10010 -5920.697118434652
10011 -5920.663164566698
10012 -5920.280020732026
10013 -5919.914960973917
10014 -5919.263146066275
10015 -5918.587469554031
10016 -5917.633540277003
10017 -5916.674789705718
10018 -5915.381041690865
10019 -5914.128443964202
10020 -5912.558012690591
10021 -5910.994290351949
10022 -5909.176909716132
10023 -5907.392285375565
10024 -5905.388563638328
10025 -5903.401255297074
10026 -5901.348528125417
10027 -5899.307703920721
10028 -5897.148430262645
10029 -5895.06367504145
10030 -5892.824962960615
10031 -5890.749319437027
10032 -5887.524074490944
10033 -5885.56173584981
10034 -5883.523626530289
10035 -5881.710390341022
10036 -5878.940860671665
10037 -5877.424407627513
10038 -5875.785026475031
10039 -5874.448811075851
10040 -5873.030211310928
10041 -5871.361871454635
10042 -5870.238794054246
10043 -5869.459133407752
10044 -5868.558333524089
10045 -5868.002628133655
10046 -5867.371514329971
10047 -5866.984319683044
10048 -5866.589654208599
10049 -5866.462735881142
10050 -5866.273515520729
10051 -5866.303709138688
10052 -5866.298272350326
10053 -5866.509668554076
10054 -5866.685724706037
10055 -5867.04559423147
10056 -5867.331036988311
10057 -5867.829985984036
10058 -5868.221981256867
10059 -5868.810275086796
10060 -5869.318732489493
10061 -5869.939962948208
10062 -5870.424547974038
10063 -5871.070826638979
10064 -5871.493362901653
10065 -5872.148865740546
10066 -5872.657758245756
10067 -5873.227647224441
10068 -5873.535093295011
10069 -5874.029074347359
10070 -5874.265206158667
10071 -5874.688244073817
10072 -5874.869860477143
10073 -5875.168424483784
10074 -5875.127115563602
10075 -5875.236888718415
10076 -5875.046004905292
10077 -5874.935480613398
10078 -5874.652277920371
10079 -5874.390403133058
10080 -5873.909653408357
10081 -5873.535476418846
10082 -5872.950346834591
10083 -5872.414330216119
10084 -5871.70310160123
10085 -5871.108816576927
10086 -5870.369737557837
10087 -5869.691287807192
10088 -5868.747707927901
10089 -5867.933190631441
10090 -5867.041158634499
10091 -5866.29723438355
10092 -5865.381084764742
10093 -5864.555417002715
10094 -5863.685830932846
10095 -5862.620563936583
10096 -5861.912987168408
10097 -5861.332735791948
10098 -5860.658785015297
10099 -5859.955140547989
10100 -5859.474585285975
10101 -5859.23675198032
10102 -5858.939845870463
10103 -5858.994725973631
10104 -5858.964249253878
10105 -5859.307129474358
10106 -5859.46549688416
10107 -5859.858722776028
10108 -5860.406028638134
10109 -5860.943495780219
10110 -5861.391436884398
10111 -5862.199868800348
10112 -5863.211215469691
10113 -5864.161161795363
10114 -5864.934028678942
10115 -5865.912123909251
10116 -5867.193827277216
10117 -5868.229005575477
10118 -5869.165561022076
10119 -5870.697750207483
10120 -5871.566991671376
10121 -5872.548250878887
10122 -5873.39593996449
10123 -5874.70886586593
10124 -5875.402626845565
10125 -5876.128608748058
10126 -5876.920634397316
10127 -5877.459545474434
10128 -5877.727925701575
10129 -5878.039904767921
10130 -5878.035572127146
10131 -5878.010903458859
10132 -5877.705982678149
10133 -5877.362638270866
10134 -5876.699343803677
10135 -5875.71079193399
10136 -5874.733596398069
10137 -5873.77929568913
10138 -5872.412605487112
10139 -5870.440432825789
10140 -5868.844023983987
10141 -5867.273388256724
10142 -5864.398905754721
10143 -5862.621421905376
10144 -5860.430688437005
10145 -5857.38889585302
10146 -5855.0597318997
10147 -5851.615579126773
10148 -5849.194855343742
10149 -5845.74781777682
10150 -5843.131257799153
10151 -5839.565184773606
10152 -5836.959638995891
10153 -5833.348509830745
10154 -5829.606862095817
10155 -5827.318688125739
10156 -5823.70865020542
10157 -5820.502050588392
10158 -5818.323207223429
10159 -5815.274943979643
10160 -5812.354921727626
10161 -5810.625257932044
10162 -5807.864896352686
10163 -5805.540868856115
10164 -5804.002546148281
10165 -5802.054925221908
10166 -5800.753684736534
10167 -5799.166905937356
10168 -5798.139365769581
10169 -5796.923129459519
10170 -5796.07840108541
10171 -5795.117439844455
10172 -5794.510071606122
10173 -5793.985311913298
10174 -5793.621246799592
10175 -5793.482987650103
10176 -5793.150619316937
10177 -5793.292112274165
10178 -5793.245830373977
10179 -5793.509323843472
10180 -5793.677217137046
10181 -5794.108320756517
10182 -5794.412348666774
10183 -5794.88531547839
10184 -5795.323630190693
10185 -5796.001825696718
10186 -5796.588042019754
10187 -5797.46935342311
10188 -5798.289616700845
10189 -5799.393396411171
10190 -5800.411369023404
10191 -5801.641861720633
10192 -5802.798560941317
10193 -5804.868068242817
10194 -5806.140375488585
10195 -5807.55571494618
10196 -5809.568473130716
10197 -5811.054576640903
10198 -5813.229049669608
10199 -5814.905218138524
10200 -5817.099438082567
10201 -5818.761843858474
10202 -5820.99975243135
10203 -5822.62918770856
10204 -5824.870708938769
10205 -5826.485341926135
10206 -5828.659816754265
10207 -5830.280524128854
10208 -5832.289470521233
10209 -5833.843415369902
10210 -5835.789793236198
10211 -5837.223821254685
10212 -5838.441139234756
10213 -5840.578754601112
10214 -5841.719016735922
10215 -5843.064676948639
10216 -5844.784138870799
10217 -5846.070366673513
10218 -5847.062930755706
10219 -5848.266584537623
10220 -5849.518141336518
10221 -5850.591282600943
10222 -5851.49107812596
10223 -5852.550817082074
10224 -5853.478669886427
10225 -5854.416290027244
10226 -5855.248713946127
10227 -5856.147751269415
10228 -5856.876847699027
10229 -5857.683228104886
10230 -5858.243717009137
10231 -5859.014952922282
10232 -5859.525818605457
10233 -5860.044804666377
10234 -5860.501392135256
10235 -5860.9197391405
10236 -5861.084952190614
10237 -5861.445968200282
10238 -5861.505850328197
10239 -5861.6160602256
10240 -5861.51254812719
10241 -5861.397103462649
10242 -5861.138405877306
10243 -5860.882651616905
10244 -5860.281272199793
10245 -5859.655479090577
10246 -5858.742413215284
10247 -5857.942205488978
10248 -5856.857034556278
10249 -5855.765453908332
10250 -5854.273297293849
10251 -5852.849879625095
10252 -5851.078324258275
10253 -5849.449623800973
10254 -5847.52607436288
10255 -5845.674841142202
10256 -5843.613271848865
10257 -5841.663216970924
10258 -5839.540153094128
10259 -5837.373386021062
10260 -5834.995368353968
10261 -5832.813901879154
10262 -5830.504296154678
10263 -5828.253258106354
10264 -5825.915634663728
10265 -5823.58864249551
10266 -5821.155852925705
10267 -5817.605719733414
10268 -5815.235292724306
10269 -5813.059653356278
10270 -5810.774428421502
10271 -5808.686829135684
10272 -5805.367585392146
10273 -5803.442746080748
10274 -5801.286377442303
10275 -5799.395022151037
10276 -5796.460124653432
10277 -5794.740744909421
10278 -5792.840732080886
10279 -5791.336055785151
10280 -5789.683677157313
10281 -5787.406281225858
10282 -5785.839068756572
10283 -5784.637976967914
10284 -5783.331473290062
10285 -5782.207043334347
10286 -5780.44067067783
10287 -5779.378850952053
10288 -5778.222163834176
10289 -5776.71701842623
10290 -5775.664258556985
10291 -5774.855367223061
10292 -5773.410288009098
10293 -5772.601110779049
10294 -5771.670368818858
10295 -5770.682749905042
10296 -5770.001530681253
10297 -5769.353031492243
10298 -5768.569403264505
10299 -5768.152694729121
10300 -5767.523757888996
10301 -5767.40007701912
10302 -5767.080084452587
10303 -5766.88460450757
10304 -5766.715759448752
10305 -5766.926174853378
10306 -5766.969536121793
10307 -5767.580602712706
10308 -5767.905935674753
10309 -5768.798878376332
10310 -5769.396875269761
10311 -5770.711550496348
10312 -5771.527339585849
10313 -5773.349512017216
10314 -5774.617304697024
10315 -5776.837218220301
10316 -5778.317745605533
10317 -5781.087439929609
10318 -5782.807330038859
10319 -5785.811011127957
10320 -5787.807343570519
10321 -5791.303205525795
10322 -5794.810392789798
10323 -5797.421762093378
10324 -5801.415643084028
10325 -5805.505874426727
10326 -5809.452204755541
10327 -5812.353301148415
10328 -5816.741635127503
10329 -5821.335246404195
10330 -5825.754844737067
10331 -5830.287163401662
10332 -5834.753076981288
10333 -5839.419486233535
10334 -5843.775312783606
10335 -5848.333595731719
10336 -5852.547939656498
10337 -5856.866330717222
10338 -5860.869745389696
10339 -5864.752509292838
10340 -5868.44411467277
10341 -5872.012976935182
10342 -5875.238891723199
10343 -5878.513606643555
10344 -5881.47804710179
10345 -5883.60487776087
10346 -5886.173544132002
10347 -5888.831660039551
10348 -5890.232606650079
10349 -5892.648807256007
10350 -5894.04878404251
10351 -5895.9633645919
10352 -5897.016574746267
10353 -5898.552638443034
10354 -5899.255631306786
10355 -5900.427905427066
10356 -5900.932474778183
10357 -5901.684940474989
10358 -5902.284793114682
10359 -5902.660819536613
10360 -5902.720615916943
10361 -5902.840188422948
10362 -5902.709349839304
10363 -5902.646767243155
10364 -5902.404278404079
10365 -5902.165128165071
10366 -5901.738283656493
10367 -5901.37947865326
10368 -5900.969824609229
10369 -5900.610577488927
10370 -5900.200989347726
10371 -5899.831529098379
10372 -5899.272983677253
10373 -5898.874924531904
10374 -5898.427850746445
10375 -5898.235885888026
10376 -5897.89194586656
10377 -5897.71311961947
10378 -5897.512244158838
10379 -5897.615593247119
10380 -5897.675321570484
10381 -5898.036987048453
10382 -5898.278072109422
10383 -5898.950114113375
10384 -5899.414957754965
10385 -5900.232625497529
10386 -5900.848398737917
10387 -5901.851255895384
10388 -5902.629884496577
10389 -5903.825744036189
10390 -5904.967509042824
10391 -5906.377334779636
10392 -5907.739657384815
10393 -5909.392008885879
10394 -5910.952128235484
10395 -5912.720341669653
10396 -5914.363031716349
10397 -5916.231717653259
10398 -5918.010247757234
10399 -5919.991804141051
10400 -5921.818154053419
10401 -5923.785614181747
10402 -5925.561070392153
10403 -5927.599734600067
10404 -5929.435676393152
10405 -5931.335085489731
10406 -5932.967830199488
10407 -5934.678548077247
10408 -5936.186651420101
10409 -5937.689042571264
10410 -5939.087847613752
10411 -5940.428109898572
10412 -5941.404187720376
10413 -5942.557868408301
10414 -5943.367700004444
10415 -5944.214762767532
10416 -5944.822530493647
10417 -5945.347777180514
10418 -5945.592410372213
10419 -5945.807572542273
10420 -5945.633177462961
10421 -5945.424105668973
10422 -5944.972582735763
10423 -5944.515897898171
10424 -5943.847769944818
10425 -5943.092026472728
10426 -5942.087384270219
10427 -5941.096859681358
10428 -5939.868820760941
10429 -5938.600610052606
10430 -5937.136602094792
10431 -5935.742916147773
10432 -5934.096635440403
10433 -5932.500661170716
10434 -5930.663938786246
10435 -5928.861083634787
10436 -5926.91388995705
10437 -5925.044702245797
10438 -5923.075433381023
10439 -5921.241189070998
10440 -5919.200747540949
10441 -5917.385144504967
10442 -5915.41194716988
10443 -5913.659216876456
10444 -5911.734028073991
10445 -5910.032941020861
10446 -5908.252335681564
10447 -5906.713707774647
10448 -5905.030403501183
10449 -5903.620260064972
10450 -5902.063774804721
10451 -5900.816087322151
10452 -5899.460020584227
10453 -5898.433483333388
10454 -5897.331276852707
10455 -5896.508611815549
10456 -5895.622519136362
10457 -5894.984039815158
10458 -5894.339381096892
10459 -5893.930070768406
10460 -5893.501911382288
10461 -5893.272098604418
10462 -5893.060698750851
10463 -5893.074496680442
10464 -5893.08636640072
10465 -5893.21514879516
10466 -5893.388031173685
10467 -5893.672032855803
10468 -5893.983099119308
10469 -5894.449108459689
10470 -5894.848652865001
10471 -5895.390551829101
10472 -5895.921231105095
10473 -5896.571245124068
10474 -5897.171070381463
10475 -5897.947128777302
10476 -5898.59331493227
10477 -5899.405335082824
10478 -5900.083529992986
10479 -5900.954860171259
10480 -5901.612942753294
10481 -5902.402839739437
10482 -5903.092238423023
10483 -5903.854886939976
10484 -5904.435258492003
10485 -5905.114375304011
10486 -5905.691206450944
10487 -5906.290513467316
10488 -5906.839188253763
10489 -5907.46381464947
10490 -5907.949405084853
10491 -5908.46306707971
10492 -5908.857967402581
10493 -5909.288866867997
10494 -5909.54326103959
10495 -5909.939348774503
10496 -5910.117829119451
10497 -5910.36981565682
10498 -5910.463318706742
10499 -5910.618278390262
10500 -5910.608637168149
10501 -5910.672764798713
10502 -5910.515980977198
10503 -5910.475520615669
10504 -5910.202843143448
10505 -5910.013083261224
10506 -5909.606302229306
10507 -5909.399705277982
10508 -5908.962961177803
10509 -5908.652420488491
10510 -5908.091975096923
10511 -5907.630705398577
10512 -5906.973459514986
10513 -5906.40295438768
10514 -5905.58427045699
10515 -5904.900303731185
10516 -5903.990692727858
10517 -5903.150330384518
10518 -5902.203806652782
10519 -5901.310682266987
10520 -5900.306668857879
10521 -5899.372107653803
10522 -5898.368291407818
10523 -5897.44359079502
10524 -5896.410235420134
10525 -5895.402065274861
10526 -5894.278625584496
10527 -5893.246467251624
10528 -5892.112597013116
10529 -5891.004957995084
10530 -5889.780776700466
10531 -5888.663216750166
10532 -5887.542138349336
10533 -5886.489741708104
10534 -5885.315704019274
10535 -5884.27378534813
10536 -5883.17231659916
10537 -5882.178145562571
10538 -5881.079585310171
10539 -5880.111555371858
10540 -5879.035233709513
10541 -5878.085239451127
10542 -5877.07704755401
10543 -5876.21867828041
10544 -5875.274504988279
10545 -5874.441619688766
10546 -5873.566538699182
10547 -5872.787090534493
10548 -5872.023654305906
10549 -5871.417982255556
10550 -5870.790487476977
10551 -5870.280757304202
10552 -5869.800001945484
10553 -5869.48526091924
10554 -5869.090417711077
10555 -5868.83156168701
10556 -5868.529600288594
10557 -5868.391690423236
10558 -5868.249200165916
10559 -5868.274241034674
10560 -5868.250611009845
10561 -5868.4802740343
10562 -5868.618326040561
10563 -5868.949042464442
10564 -5869.219173556666
10565 -5869.626364788567
10566 -5869.942828154705
10567 -5870.468782228419
10568 -5870.870829111233
10569 -5871.518943255534
10570 -5872.102772757922
10571 -5872.797814727966
10572 -5873.4200730773
10573 -5874.121368630407
10574 -5874.783688243756
10575 -5875.666972472379
10576 -5876.456376051054
10577 -5877.352739513635
10578 -5878.202742171106
10579 -5879.227015966067
10580 -5880.127853182283
10581 -5881.156410387774
10582 -5882.103801400603
10583 -5883.069787403105
10584 -5884.023533077425
10585 -5885.10085696133
10586 -5886.120697989561
10587 -5887.235162877763
10588 -5888.273373620497
10589 -5889.398564061586
10590 -5890.476033987599
10591 -5891.574412766364
10592 -5892.594690835875
10593 -5893.663220178121
10594 -5894.651956825494
10595 -5895.684705887423
10596 -5896.687769122894
10597 -5897.782240420497
10598 -5898.723102254869
10599 -5899.765223262579
10600 -5900.599808446303
10601 -5901.47708831363
10602 -5902.189533720323
10603 -5902.928574808338
10604 -5903.555796966289
10605 -5904.182754177213
10606 -5904.698277440635
10607 -5905.172297852228
10608 -5905.527786930059
10609 -5905.840043124391
10610 -5905.991262255196
10611 -5906.063944116413
10612 -5905.932370132729
10613 -5905.823964031236
10614 -5905.490567948473
10615 -5905.13275544224
10616 -5904.562349459995
10617 -5903.937258434039
10618 -5903.133012015966
10619 -5902.252152468865
10620 -5901.195693448173
10621 -5900.054286583782
10622 -5898.705128464248
10623 -5897.359239959042
10624 -5895.820764713915
10625 -5894.193160149031
10626 -5892.405223346596
10627 -5890.632052015906
10628 -5888.609431157524
10629 -5886.664790584619
10630 -5884.326906665754
10631 -5880.870935012413
10632 -5878.491274545504
10633 -5876.077741575921
10634 -5872.322517501302
10635 -5869.887415556785
10636 -5865.900050720755
10637 -5863.41601264071
10638 -5859.400855027276
10639 -5855.324354672819
10640 -5852.599983875131
10641 -5848.619573802634
10642 -5844.62041093722
10643 -5840.729340920977
10644 -5838.032482797867
10645 -5834.15489534604
10646 -5830.147586913581
10647 -5826.377938624821
10648 -5822.381526059095
10649 -5818.602592962666
10650 -5814.684293259258
10651 -5812.232679746201
10652 -5808.374222553463
10653 -5804.667496431118
10654 -5800.715783051835
10655 -5798.214957418279
10656 -5794.272866271112
10657 -5790.469883563187
10658 -5787.871444614593
10659 -5784.052708318075
10660 -5781.406321340949
10661 -5777.472682639394
10662 -5774.870527176891
10663 -5770.98882236667
10664 -5768.392251693531
10665 -5764.73185849749
10666 -5762.231457561208
10667 -5758.64719058691
10668 -5756.213812690768
10669 -5753.999666809113
10670 -5750.561464055221
10671 -5748.507298568178
10672 -5746.394372759762
10673 -5744.551986639015
10674 -5742.66105054168
10675 -5740.986926685028
10676 -5739.272823907978
10677 -5737.809759796064
10678 -5736.213906345456
10679 -5735.003837119217
10680 -5733.714855705152
10681 -5732.687889484809
10682 -5731.687273474658
10683 -5731.025523338566
10684 -5730.307584703027
10685 -5729.949187976929
10686 -5729.460422408039
10687 -5729.298288280286
10688 -5729.203435257151
10689 -5729.311130663322
10690 -5729.457332146304
10691 -5729.915935275963
10692 -5730.371473903046
10693 -5731.05310289812
10694 -5731.865961508458
10695 -5732.825692975541
10696 -5733.739491755726
10697 -5734.968119012041
10698 -5736.079400303845
10699 -5737.323532381864
10700 -5738.482308649857
10701 -5739.841053724859
10702 -5741.711658064792
10703 -5743.034001085193
10704 -5744.336785662018
10705 -5745.694417694071
10706 -5747.682316299161
10707 -5748.969967252177
10708 -5750.121422212936
10709 -5751.326840190788
10710 -5752.327427075364
10711 -5753.872331347116
10712 -5754.719968667913
10713 -5755.530223353782
10714 -5756.118562750862
10715 -5756.854092421312
10716 -5757.380835648095
10717 -5757.870093165994
10718 -5758.176714251639
10719 -5758.451554776609
10720 -5758.522242703548
10721 -5758.63945267006
10722 -5758.555646087473
10723 -5758.535316666567
10724 -5758.318443435073
10725 -5758.219099844623
10726 -5757.869224391379
10727 -5757.572719672214
10728 -5757.042314620331
10729 -5756.567010715345
10730 -5755.923721151064
10731 -5755.36885816388
10732 -5754.575139559541
10733 -5753.85786112007
10734 -5752.969574993553
10735 -5752.14120237495
10736 -5751.123245143377
10737 -5750.311798296842
10738 -5749.31283613192
10739 -5748.408859903553
10740 -5747.424913939811
10741 -5746.579748007955
10742 -5745.074580484687
10743 -5744.267619002962
10744 -5743.299440598912
10745 -5742.120829221656
10746 -5741.16936157926
10747 -5740.520879545174
10748 -5739.529772210293
10749 -5738.957901838183
10750 -5738.470186664843
10751 -5737.914965158401
10752 -5737.449136081356
10753 -5737.276048712872
10754 -5736.972171025877
10755 -5737.02476104093
10756 -5737.045015627532
10757 -5737.398261472154
10758 -5737.594886760194
10759 -5738.109126396988
10760 -5738.870057558854
10761 -5739.580658305787
10762 -5740.282503130468
10763 -5741.236454767659
10764 -5742.190960809796
10765 -5743.862364546082
10766 -5744.906346198694
10767 -5746.202707518528
10768 -5747.512379574059
10769 -5749.162358945042
10770 -5751.499202361408
10771 -5753.272068355956
10772 -5754.927525392245
10773 -5757.704159691838
10774 -5759.485668451547
10775 -5761.546369543606
10776 -5764.513726460698
10777 -5766.58049240634
10778 -5769.605411280066
10779 -5771.797634742557
10780 -5774.782918319582
10781 -5776.925956559518
10782 -5779.996876693135
10783 -5782.162882160204
10784 -5785.184454311582
10785 -5787.347440456119
10786 -5790.396828918199
10787 -5792.506722647744
10788 -5795.445622966357
10789 -5797.580896420204
10790 -5800.495401163968
10791 -5802.522928463804
10792 -5804.457628181256
10793 -5807.47091337355
10794 -5809.396591613437
10795 -5812.194548077105
10796 -5813.895364413876
10797 -5815.680540802507
10798 -5818.166149804011
10799 -5819.947143951677
10800 -5821.547449139956
10801 -5823.290281581062
10802 -5824.806884467217
10803 -5827.354695003425
10804 -5828.876723393173
10805 -5830.521912157978
10806 -5832.01297040456
10807 -5833.592583684379
10808 -5835.069286015669
10809 -5836.675813542457
10810 -5838.040581767637
10811 -5839.534628631122
10812 -5840.863882259635
10813 -5842.161220737384
10814 -5843.396981011148
10815 -5844.689083734644
10816 -5845.788804519602
10817 -5846.920289864212
10818 -5847.877722394763
10819 -5848.947205018164
10820 -5849.801432661672
10821 -5850.727327209895
10822 -5851.532632026264
10823 -5852.306923894435
10824 -5852.910247787266
10825 -5853.495029664514
10826 -5853.956570191759
10827 -5854.382287135131
10828 -5854.766143235373
10829 -5855.06948769818
10830 -5855.271029800214
10831 -5855.452696337537
10832 -5855.390586183293
10833 -5855.365988833411
10834 -5855.128028801279
10835 -5854.924457638079
10836 -5854.539427766579
10837 -5854.228495470928
10838 -5853.536056400707
10839 -5853.010638234096
10840 -5852.22723735816
10841 -5851.479275872906
10842 -5850.552431820734
10843 -5849.701100663229
10844 -5848.663533332167
10845 -5847.6430930483
10846 -5846.29757044545
10847 -5845.192375113424
10848 -5843.703481360109
10849 -5842.419064118022
10850 -5840.913990896197
10851 -5839.590279522199
10852 -5838.127525091
10853 -5836.748919847526
10854 -5835.184136957136
10855 -5833.818305422097
10856 -5832.334511373292
10857 -5830.988701931828
10858 -5829.558339855123
10859 -5828.230772291586
10860 -5826.838578675969
10861 -5825.652690190153
10862 -5824.530265423447
10863 -5822.893219853543
10864 -5821.916009274546
10865 -5821.146673336408
10866 -5820.48492216456
10867 -5819.809411324475
10868 -5819.472626548953
10869 -5819.303392699628
10870 -5819.358693608682
10871 -5819.627355564327
10872 -5819.931979779654
10873 -5820.881112900099
10874 -5821.60013459173
10875 -5823.051467854767
10876 -5824.127214762847
10877 -5825.511107936943
10878 -5827.639983356791
10879 -5829.277059588593
10880 -5830.996004917206
10881 -5833.949905640015
10882 -5835.822252637961
10883 -5838.046357280513
10884 -5841.38933809474
10885 -5843.808399608512
10886 -5847.35524737261
10887 -5849.935379006387
10888 -5853.687630528102
10889 -5856.368812673782
10890 -5860.247739770127
10891 -5863.005288183518
10892 -5866.939449357968
10893 -5869.617595590007
10894 -5873.377431173486
10895 -5875.979489676517
10896 -5879.718628423255
10897 -5882.271862938199
10898 -5885.996856588284
10899 -5889.689623708638
10900 -5891.97427193642
10901 -5895.460016075459
10902 -5897.660698287715
10903 -5900.834933681151
10904 -5903.701149126191
10905 -5905.601074523442
10906 -5908.24826021574
10907 -5910.886649983062
10908 -5912.396072716779
10909 -5914.582497513657
10910 -5915.978033297065
10911 -5918.110913991889
10912 -5919.28425909615
10913 -5921.38286405293
10914 -5922.405713505014
10915 -5924.207689044508
10916 -5925.19858275712
10917 -5926.760445567844
10918 -5927.622772961159
10919 -5929.154626119598
10920 -5930.138245854516
10921 -5931.363032185922
10922 -5932.902050830458
10923 -5933.839238048728
10924 -5934.870510390912
10925 -5936.495060690301
10926 -5937.586193287126
10927 -5938.832768589726
10928 -5940.708443346398
10929 -5941.991784640296
10930 -5943.067097773063
10931 -5945.146276198847
10932 -5946.35495162983
10933 -5947.605484206393
10934 -5949.482888443065
10935 -5951.011777609766
10936 -5953.130698220207
10937 -5954.648764189773
10938 -5956.995772997169
10939 -5958.751263313904
10940 -5961.496622659035
10941 -5963.519702758266
10942 -5966.676535284148
10943 -5968.839155454073
10944 -5972.006067112174
10945 -5974.289000772694
10946 -5977.748845554715
10947 -5981.607063913177
10948 -5984.0536275317
10949 -5987.909980000424
10950 -5991.733426053818
10951 -5995.98369223634
10952 -5999.614699709783
10953 -6003.109745687403
10954 -6006.664592684931
10955 -6010.156914034723
10956 -6013.262477409466
10957 -6016.574499909131
10958 -6019.285594219085
10959 -6022.107993210453
10960 -6024.544066462756
10961 -6026.957843226221
10962 -6028.869142571807
10963 -6030.799321160673
10964 -6032.354579117262
10965 -6033.863803987542
10966 -6034.579740620155
10967 -6035.250306022253
10968 -6035.238050553877
10969 -6035.144030186575
10970 -6034.576078535137
10971 -6033.655149466386
10972 -6032.311621357856
10973 -6030.755570622946
10974 -6028.824888694568
10975 -6026.458234299686
10976 -6024.054955721404
10977 -6021.395654513003
10978 -6018.465676779403
10979 -6015.513483368998
10980 -6012.251117785506
10981 -6009.007878733373
10982 -6005.73293192728
10983 -6002.536815101283
10984 -5999.464619936699
10985 -5996.598692123381
10986 -5993.588918465683
10987 -5990.778540847865
10988 -5988.368798171764
10989 -5986.3225008722
10990 -5984.224672194062
10991 -5982.618365701976
10992 -5981.317763822506
10993 -5980.378391275451
10994 -5980.169140724279
10995 -5979.87153674218
10996 -5980.332911097712
10997 -5981.122869034438
10998 -5982.256881518983
10999 -5984.427719490717
11000 -5987.421258552029
11001 -5990.695612131725
11002 -5994.917196028366
11003 -5999.174199270735
11004 -6003.925676795409
11005 -6009.195601066699
11006 -6015.299325395943
11007 -6022.126144583235
11008 -6029.224996684291
11009 -6036.88234835389
11010 -6044.921507306632
11011 -6053.439437717944
11012 -6062.037150465856
11013 -6071.229177109415
11014 -6079.789016108492
11015 -6088.831488948887
11016 -6097.680183964329
11017 -6106.877746443236
11018 -6116.009278292644
11019 -6124.748569035874
11020 -6133.278852861597
11021 -6141.516789943888
11022 -6149.357142124993
11023 -6156.650533405111
11024 -6163.714991209835
11025 -6170.331345519138
11026 -6176.316165946658
11027 -6181.674520457625
11028 -6186.395389770117
11029 -6190.309706007516
11030 -6193.569620552053
11031 -6196.19335649449
11032 -6197.986988270116
11033 -6199.013168096944
11034 -6198.946054593142
11035 -6198.223608808009
11036 -6196.108312235433
11037 -6193.686266196109
11038 -6190.234099614315
11039 -6185.897728803109
11040 -6180.904748719137
11041 -6177.287751772093
11042 -6170.329521045211
11043 -6165.605468393028
11044 -6157.647437529236
11045 -6151.824958683363
11046 -6142.445840742889
11047 -6135.860270970788
11048 -6125.49343196267
11049 -6118.335190414892
11050 -6107.438387246247
11051 -6096.306294978508
11052 -6088.839468392417
11053 -6077.617670506479
11054 -6066.254511369513
11055 -6055.497356024344
11056 -6044.920452689313
11057 -6034.846693449128
11058 -6025.108794812972
11059 -6016.062183572022
11060 -6007.552416291326
11061 -5999.770696913359
11062 -5992.586240781733
11063 -5986.306847392241
11064 -5980.653298241007
11065 -5975.623727309011
11066 -5971.280471096653
11067 -5967.760264993219
11068 -5964.86234725951
11069 -5962.68342382733
11070 -5960.938278880751
11071 -5959.978889725467
11072 -5959.378287982267
11073 -5959.531874681712
11074 -5959.854569391614
11075 -5960.786237666907
11076 -5961.558404318874
11077 -5963.085076125671
11078 -5964.197613211997
11079 -5966.394006081659
11080 -5968.074975574693
11081 -5969.839625962464
11082 -5972.456390691612
11083 -5974.310628949079
11084 -5976.212253376854
11085 -5978.184395133778
11086 -5980.097472700728
11087 -5983.04833176931
11088 -5984.972414088253
11089 -5987.061265629421
11090 -5989.891725320336
11091 -5991.671680091347
11092 -5993.927251833941
11093 -5995.473134684073
11094 -5997.430331239139
11095 -5998.828172526847
11096 -5999.994741961433
11097 -6001.084753961663
11098 -6001.67135614181
11099 -6002.219225857681
11100 -6002.065068601261
11101 -6001.47498935374
11102 -6000.566359936418
11103 -5999.126675671166
11104 -5997.000759639357
11105 -5994.499198299024
11106 -5991.419139063423
11107 -5987.983389613935
11108 -5983.957231141429
11109 -5979.806321561639
11110 -5975.063967650638
11111 -5969.988687873982
11112 -5964.724988588967
11113 -5959.312317682537
11114 -5953.378845787302
11115 -5947.485046989779
11116 -5941.330761986374
11117 -5934.876023787067
11118 -5928.231952993672
11119 -5921.523530812571
11120 -5914.87303652378
11121 -5908.282091951776
11122 -5901.680528637353
11123 -5895.313176063805
11124 -5889.097091034295
11125 -5882.902725720966
11126 -5876.703289917813
11127 -5870.777607717639
11128 -5865.156190656429
11129 -5859.583628284617
11130 -5854.049126145886
11131 -5848.918098708073
11132 -5844.137066822269
11133 -5839.657542777308
11134 -5835.415125018174
11135 -5831.673222869452
11136 -5828.185362318236
11137 -5825.149783925741
11138 -5822.3266572024
11139 -5819.971918814984
11140 -5817.920010637808
11141 -5816.388983272489
11142 -5815.115434073752
11143 -5814.234678342527
11144 -5813.552254832051
11145 -5813.434636951235
11146 -5813.497110268606
11147 -5813.794727665097
11148 -5814.297934969637
11149 -5814.965101230234
11150 -5815.531665327841
11151 -5816.750288134641
11152 -5817.686891016107
11153 -5818.819413750095
11154 -5819.913717291214
11155 -5821.210967672059
11156 -5822.424617090637
11157 -5824.726416505529
11158 -5826.289685501946
11159 -5827.991037009108
11160 -5830.347290140195
11161 -5832.130772372354
11162 -5834.81210244793
11163 -5836.463966897134
11164 -5838.806061567157
11165 -5840.425419397069
11166 -5842.316390175195
11167 -5844.369119793583
11168 -5845.875500889525
11169 -5847.206004792742
11170 -5848.061524839298
11171 -5848.43678346128
11172 -5848.568632193528
11173 -5848.57624192161
11174 -5848.059641942423
11175 -5847.264052162097
11176 -5845.72016444589
11177 -5843.756548881121
11178 -5842.019052188409
11179 -5839.230044987667
11180 -5835.86353447173
11181 -5833.484497131796
11182 -5829.518896806379
11183 -5826.774489012021
11184 -5821.927115499131
11185 -5816.888745307844
11186 -5813.302209401988
11187 -5807.581634918514
11188 -5801.889447035824
11189 -5796.126886232707
11190 -5790.213250783952
11191 -5784.460985803177
11192 -5778.600264436482
11193 -5773.04925773424
11194 -5767.389543850904
11195 -5761.948878843208
11196 -5756.689219388661
11197 -5751.885466039756
11198 -5747.139917645986
11199 -5742.716555401053
11200 -5738.42772150267
11201 -5734.415392276354
11202 -5730.790026942942
11203 -5727.465317204398
11204 -5724.713844481156
11205 -5722.254224825204
11206 -5720.167272473158
11207 -5718.488983517088
11208 -5717.136298416846
11209 -5716.213076914114
11210 -5715.536963891944
11211 -5715.360029597919
11212 -5715.685371146273
11213 -5716.618542606237
11214 -5717.614893174796
11215 -5718.757760994046
11216 -5720.727954481094
11217 -5722.43636000385
11218 -5725.198353399185
11219 -5727.46043483463
11220 -5730.753062102972
11221 -5733.30594696529
11222 -5737.330899903735
11223 -5740.415014109846
11224 -5745.091003598513
11225 -5748.608693120872
11226 -5753.739547017365
11227 -5759.156634790477
11228 -5764.60405905859
11229 -5770.142493125228
11230 -5773.673372186135
11231 -5778.941361000511
11232 -5784.364539602308
11233 -5789.494769038465
11234 -5794.223047268184
11235 -5798.66527605537
11236 -5802.64199658423
11237 -5806.278463300072
11238 -5809.329494844712
11239 -5811.185976698762
11240 -5813.559441490661
11241 -5815.664575479407
11242 -5816.678218265579
11243 -5817.737042556706
11244 -5818.147517157285
11245 -5818.106436587203
11246 -5817.617152435942
11247 -5816.729041606597
11248 -5815.702447878169
11249 -5813.639794987787
11250 -5812.082820477558
11251 -5809.52132779796
11252 -5807.392769841039
11253 -5804.281163752306
11254 -5801.871582659957
11255 -5798.257113303949
11256 -5795.403187896292
11257 -5791.278962035599
11258 -5788.312037725922
11259 -5784.182169541182
11260 -5781.332321146278
11261 -5777.150906103475
11262 -5774.236436684102
11263 -5770.289555438663
11264 -5766.488747451695
11265 -5764.194966662183
11266 -5760.968951495413
11267 -5758.155144468368
11268 -5756.329948341136
11269 -5754.371738843328
11270 -5752.690193484644
11271 -5751.544683031671
11272 -5751.086053814616
11273 -5751.201949699982
11274 -5751.53843451759
11275 -5752.225634095035
11276 -5753.437196318463
11277 -5755.370531724269
11278 -5756.969650885093
11279 -5759.870922724229
11280 -5762.043019174484
11281 -5765.821517132485
11282 -5768.657711467743
11283 -5773.292257624555
11284 -5778.072717344508
11285 -5781.680276607873
11286 -5787.138323274511
11287 -5791.159649169261
11288 -5797.177761294193
11289 -5803.603189300127
11290 -5807.828244164892
11291 -5814.238480706658
11292 -5820.517785588519
11293 -5826.677015519792
11294 -5832.474524936649
11295 -5838.259216308926
11296 -5843.645254574565
11297 -5848.933820330898
11298 -5853.92863123808
11299 -5858.535285119333
11300 -5862.636027087691
11301 -5866.381446528889
11302 -5869.441907944287
11303 -5872.281857046672
11304 -5874.687010536335
11305 -5876.660649054043
11306 -5878.265176456463
11307 -5879.469273443608
11308 -5879.952731912277
11309 -5880.457901081818
11310 -5880.444573942636
11311 -5880.245026532038
11312 -5879.575799086606
11313 -5879.031927555116
11314 -5877.538651772021
11315 -5876.685516114388
11316 -5875.006998211782
11317 -5873.671998883881
11318 -5871.45239905224
11319 -5870.031494758433
11320 -5868.468157697281
11321 -5865.706334412742
11322 -5863.853298135365
11323 -5862.112439279173
11324 -5859.298563899829
11325 -5857.547003168693
11326 -5854.793840685647
11327 -5853.043859331666
11328 -5850.377636066258
11329 -5848.775313158576
11330 -5846.255252655916
11331 -5844.744822212759
11332 -5842.540974155723
11333 -5841.157975066562
11334 -5839.343577695411
11335 -5837.692606967551
11336 -5836.684635529948
11337 -5835.425251747657
11338 -5834.627186726678
11339 -5833.842282650789
11340 -5833.445412302345
11341 -5833.128191397031
11342 -5833.036211094821
11343 -5833.236469452576
11344 -5833.527154173371
11345 -5834.150197617043
11346 -5834.533097016355
11347 -5835.613012584074
11348 -5836.40136817951
11349 -5837.355340325885
11350 -5838.267763730727
11351 -5839.34296542811
11352 -5840.261966395332
11353 -5841.472909163963
11354 -5842.521811943359
11355 -5843.64370300018
11356 -5844.780739513638
11357 -5846.00620753549
11358 -5847.138875255413
11359 -5848.308043152944
11360 -5849.343732149716
11361 -5850.389454142241
11362 -5851.398546417396
11363 -5852.319521846141
11364 -5853.019416436297
11365 -5853.796190442728
11366 -5854.409482272263
11367 -5854.92623629711
11368 -5855.294668518332
11369 -5855.651223267728
11370 -5855.768318267712
11371 -5855.927727289141
11372 -5855.7670096107
11373 -5855.569955902153
11374 -5855.157974545503
11375 -5854.772384937778
11376 -5854.155109059176
11377 -5853.59354629145
11378 -5852.874892381732
11379 -5852.238180259892
11380 -5851.37597669894
11381 -5850.571854783619
11382 -5849.729756654438
11383 -5848.809905089076
11384 -5847.839815993068
11385 -5846.935642621642
11386 -5845.879645701125
11387 -5844.994765018262
11388 -5844.122316059098
11389 -5843.252549377241
11390 -5842.472988182569
11391 -5841.782488129556
11392 -5841.094558496862
11393 -5840.351543753445
11394 -5839.772208398133
11395 -5839.364486213933
11396 -5838.926026404205
11397 -5838.810619162982
11398 -5838.795800458602
11399 -5839.03406623366
11400 -5839.280231205944
11401 -5839.819116348429
11402 -5840.024858954789
11403 -5840.636100398832
11404 -5841.18253203141
11405 -5842.006821141184
11406 -5842.687659291898
11407 -5843.649026799486
11408 -5844.439514921004
11409 -5845.53039192254
11410 -5846.591189681263
11411 -5847.735908200072
11412 -5849.455224088525
11413 -5850.765428857699
11414 -5851.961477908676
11415 -5853.148689875047
11416 -5854.864672181011
11417 -5855.969735572189
11418 -5856.958210003383
11419 -5858.552148807562
11420 -5859.478248279561
11421 -5860.412564392222
11422 -5861.511751020512
11423 -5862.30021724802
11424 -5862.91155889099
11425 -5863.93732502035
11426 -5864.394219680344
11427 -5864.867198548008
11428 -5865.142936373728
11429 -5865.368144985734
11430 -5865.454811294564
11431 -5865.642465733084
11432 -5865.496405578934
11433 -5865.547783643053
11434 -5865.372573076545
11435 -5865.205225939997
11436 -5864.788365195525
11437 -5864.552496275193
11438 -5864.040084303438
11439 -5863.616648109512
11440 -5863.098203422749
11441 -5862.704318980297
11442 -5862.164667886345
11443 -5861.806950163329
11444 -5861.344940226516
11445 -5860.953018864006
11446 -5860.488240636453
11447 -5860.047210341732
11448 -5859.63967955869
11449 -5859.396197242706
11450 -5859.232608294523
11451 -5859.086870990666
11452 -5858.818974307685
11453 -5858.702192764125
11454 -5858.553037189185
11455 -5858.690968060622
11456 -5858.738973632575
11457 -5858.992254157214
11458 -5859.163375767685
11459 -5859.606894754891
11460 -5859.99049559078
11461 -5860.684360102749
11462 -5861.262375948977
11463 -5862.038008635728
11464 -5862.778098642146
11465 -5863.707645566709
11466 -5864.4795502783
11467 -5865.579452280609
11468 -5866.585473932606
11469 -5867.748444411497
11470 -5868.816230329754
11471 -5870.060986414778
11472 -5871.175491991861
11473 -5872.453913065484
11474 -5873.708365867876
11475 -5874.949974511054
11476 -5876.029080316762
11477 -5877.764243357814
11478 -5878.738360135003
11479 -5879.794575914038
11480 -5880.674016020434
11481 -5882.017282371115
11482 -5882.704901332538
11483 -5883.413863751571
11484 -5884.060615324724
11485 -5884.462321502761
11486 -5884.587150588065
11487 -5884.721614626654
11488 -5884.523687315105
11489 -5884.216812910813
11490 -5883.471310327243
11491 -5882.889368548694
11492 -5881.985623559968
11493 -5880.621323408735
11494 -5879.481560338509
11495 -5878.242678173497
11496 -5876.163590185744
11497 -5874.661589237883
11498 -5872.810970174341
11499 -5869.9645723841
11500 -5867.939455027972
11501 -5865.738757776825
11502 -5862.107866569881
11503 -5859.724077067598
11504 -5855.901556812537
11505 -5853.433765179764
11506 -5849.321703880104
11507 -5845.28037603337
11508 -5842.444375991116
11509 -5838.377419266823
11510 -5834.345325711786
11511 -5830.425423341326
11512 -5826.500879460583
11513 -5822.979215637713
11514 -5819.361475494016
11515 -5816.202705956331
11516 -5813.023508337332
11517 -5810.206793009296
11518 -5807.478751616396
11519 -5805.073443098865
11520 -5802.797467094796
11521 -5800.881051647545
11522 -5799.284523382345
11523 -5798.130425058675
11524 -5797.013439417963
11525 -5796.384550818677
11526 -5795.95876696083
11527 -5795.96503447635
11528 -5796.102919906602
11529 -5796.414814180046
11530 -5796.737227694032
11531 -5797.636851993921
11532 -5798.41605440206
11533 -5800.082270791404
11534 -5801.26396974522
11535 -5802.70590491693
11536 -5805.026631619419
11537 -5806.834471442095
11538 -5808.678019870246
11539 -5810.831685095173
11540 -5814.070104879011
11541 -5816.485409385077
11542 -5818.926452218259
11543 -5823.036916190371
11544 -5825.74817181205
11545 -5830.16129667928
11546 -5833.07423678001
11547 -5837.58444282844
11548 -5840.408523115676
11549 -5845.002571260424
11550 -5849.41354327945
11551 -5852.42342976814
11552 -5856.702153303525
11553 -5860.944843879586
11554 -5863.596245628197
11555 -5867.59622822482
11556 -5871.279417147006
11557 -5873.7018814726
11558 -5876.994926846971
11559 -5880.251482239602
11560 -5882.13594229402
11561 -5884.976103274914
11562 -5886.509818699733
11563 -5888.757427699927
11564 -5890.088934177779
11565 -5891.880270585595
11566 -5892.852824942307
11567 -5894.301639439116
11568 -5894.961651371966
11569 -5895.607710783895
11570 -5896.331334323846
11571 -5896.776079607407
11572 -5896.95742627962
11573 -5897.211627907514
11574 -5897.177944731333
11575 -5897.09720418442
11576 -5896.809477526795
11577 -5896.627574070284
11578 -5896.209978523213
11579 -5895.897626480884
11580 -5895.437958556688
11581 -5894.954126361553
11582 -5894.31480480986
11583 -5893.771873778699
11584 -5893.17882557918
11585 -5892.502395887474
11586 -5891.665466382508
11587 -5890.954204199199
11588 -5890.095819912351
11589 -5889.379991281141
11590 -5888.511731823934
11591 -5887.648549309399
11592 -5886.734795620034
11593 -5885.89726478604
11594 -5885.000026116684
11595 -5884.22063296252
11596 -5883.246648896928
11597 -5882.388209772342
11598 -5881.051642357806
11599 -5880.228233921182
11600 -5879.258098545481
11601 -5878.269153686947
11602 -5877.160477972739
11603 -5875.74673177894
11604 -5874.631103672411
11605 -5873.631016886033
11606 -5872.420653902506
11607 -5871.369774976676
11608 -5869.530310447269
11609 -5868.503279559274
11610 -5867.205512120818
11611 -5866.140845924383
11612 -5864.139866642682
11613 -5863.138832590875
11614 -5861.78522907141
11615 -5860.755735568488
11616 -5858.858082829981
11617 -5857.794893684054
11618 -5856.548613882352
11619 -5854.859521002607
11620 -5853.6949769762
11621 -5852.755114984311
11622 -5851.143482496122
11623 -5850.307859078073
11624 -5849.395564593117
11625 -5848.686315797597
11626 -5847.459229260104
11627 -5846.956886810596
11628 -5846.48317070034
11629 -5846.202546654845
11630 -5845.858123445027
11631 -5845.905643095874
11632 -5845.964360869154
11633 -5846.405970521793
11634 -5846.909745469051
11635 -5848.164221149126
11636 -5849.065772948641
11637 -5850.277920866493
11638 -5851.541111824507
11639 -5853.253732883139
11640 -5855.028100516437
11641 -5857.196540651716
11642 -5859.369313480839
11643 -5863.228875894813
11644 -5865.850847845716
11645 -5868.812698776394
11646 -5873.385723889856
11647 -5876.657885517758
11648 -5880.079640710692
11649 -5885.64505624993
11650 -5889.275664137606
11651 -5895.13880902455
11652 -5898.942972244321
11653 -5904.898793987997
11654 -5910.561739361519
11655 -5914.557384880478
11656 -5920.471666759265
11657 -5926.34178159663
11658 -5930.159596285523
11659 -5935.827130068114
11660 -5939.412929112875
11661 -5944.931815816054
11662 -5950.104033060123
11663 -5953.551092544267
11664 -5958.456335919455
11665 -5961.622026163082
11666 -5966.082757681879
11667 -5969.01784525163
11668 -5973.034314888741
11669 -5975.711563391157
11670 -5979.307660707345
11671 -5981.681475817645
11672 -5984.762946186948
11673 -5986.905058495333
11674 -5988.7133763604
11675 -5991.479102693869
11676 -5993.016613372255
11677 -5994.651524840931
11678 -5996.013647714825
11679 -5997.477899853405
11680 -5998.624886685921
11681 -5999.912288509725
11682 -6000.85426396465
11683 -6001.979943798334
11684 -6002.785647622892
11685 -6003.764536615536
11686 -6004.491180817441
11687 -6005.376010347798
11688 -6005.957432495938
11689 -6006.70701107829
11690 -6007.165964414492
11691 -6007.832534140231
11692 -6008.291255723723
11693 -6008.829211904705
11694 -6009.18194160485
11695 -6009.616569204781
11696 -6009.90924851273
11697 -6010.334301240411
11698 -6010.553497611833
11699 -6010.949318946816
11700 -6011.083113753403
11701 -6011.337891859263
11702 -6011.43910991368
11703 -6011.75269315304
11704 -6011.858998037254
11705 -6012.066611867222
11706 -6012.103939039433
11707 -6012.239121854362
11708 -6012.352485975112
11709 -6012.385417740677
11710 -6012.335956442375
11711 -6012.323083939267
11712 -6012.182083152119
11713 -6012.080914733393
11714 -6011.894142592403
11715 -6011.671234885171
11716 -6011.331321025749
11717 -6011.028980990794
11718 -6010.32668634733
11719 -6009.931431385198
11720 -6009.197210226912
11721 -6008.166619388096
11722 -6007.341163621597
11723 -6006.097728938555
11724 -6005.076236779066
11725 -6003.467427576692
11726 -6002.281776661393
11727 -6000.422626278031
11728 -5998.970608243875
11729 -5996.913364411948
11730 -5994.522972014963
11731 -5993.017202404591
11732 -5990.456607417323
11733 -5988.037905269014
11734 -5985.522446661185
11735 -5982.943944628742
11736 -5980.065185840785
11737 -5977.488741246686
11738 -5974.523200960712
11739 -5971.765450422859
11740 -5968.661291881167
11741 -5965.910844833901
11742 -5963.255815590716
11743 -5960.474953721351
11744 -5957.687503909635
11745 -5954.922262397384
11746 -5952.256296686881
11747 -5949.739821137714
11748 -5947.233670558512
11749 -5944.807969592984
11750 -5942.378818735641
11751 -5939.987386157522
11752 -5937.592930772994
11753 -5935.544033612642
11754 -5933.058264506118
11755 -5931.083314612212
11756 -5929.06440762498
11757 -5927.066339535757
11758 -5924.937606358002
11759 -5923.198574181563
11760 -5921.245210163041
11761 -5919.542073624164
11762 -5917.677747690211
11763 -5915.945390166971
11764 -5914.239596611743
11765 -5912.716721813889
11766 -5910.819497532249
11767 -5909.837602332336
11768 -5907.906628558846
11769 -5906.216377784845
11770 -5904.304262282079
11771 -5903.214735242625
11772 -5901.079384807382
11773 -5899.244363139111
11774 -5897.890004151099
11775 -5895.847702786703
11776 -5893.464031578058
11777 -5891.908370719898
11778 -5889.209913191246
11779 -5886.680835401434
11780 -5884.562231638243
11781 -5881.522196698389
11782 -5878.109102594212
11783 -5874.554750806525
11784 -5870.804384758741
11785 -5867.150334996669
11786 -5863.26493725305
11787 -5859.424500126434
11788 -5855.115080942171
11789 -5850.82066273366
11790 -5846.07737683986
11791 -5841.508598773055
11792 -5836.330779480413
11793 -5831.352012550564
11794 -5826.092085528112
11795 -5821.025405556747
11796 -5815.498781332078
11797 -5810.287547526991
11798 -5804.703262224799
11799 -5799.315185258913
11800 -5793.663707631864
11801 -5788.255516913461
11802 -5782.704802831312
11803 -5777.530135120868
11804 -5772.176702773091
11805 -5767.393620027939
11806 -5762.567612621357
11807 -5758.071394188678
11808 -5753.648121866248
11809 -5749.710953769191
11810 -5745.747560656013
11811 -5742.248663355791
11812 -5739.025491840939
11813 -5736.205144574635
11814 -5733.505344970082
11815 -5731.483889824235
11816 -5729.580861886974
11817 -5728.260257675945
11818 -5727.456843051698
11819 -5726.763637774729
11820 -5725.937571521987
11821 -5725.814594818292
11822 -5725.649799814724
11823 -5725.678546531275
11824 -5726.053761128051
11825 -5726.482862860643
11826 -5726.975387123819
11827 -5727.774001296443
11828 -5728.251746845972
11829 -5729.524524749493
11830 -5730.291534550984
11831 -5731.302780385067
11832 -5732.547380224496
11833 -5733.79618425701
11834 -5734.833844519108
11835 -5736.792965352996
11836 -5737.785326
11837 -5738.850341591091
11838 -5740.330272280878
11839 -5741.576481681351
11840 -5743.014717418467
11841 -5744.057315770333
11842 -5745.190207890748
11843 -5746.074398988868
11844 -5746.865025912485
11845 -5747.378287557488
11846 -5747.894871273239
11847 -5748.342201676383
11848 -5748.678492210794
11849 -5748.995844852409
11850 -5749.232362051043
11851 -5749.552740064457
11852 -5749.487865496329
11853 -5749.722734778733
11854 -5749.795141743576
11855 -5750.030469336345
11856 -5750.041377600996
11857 -5750.334144450738
11858 -5750.943260243965
11859 -5751.500685855647
11860 -5752.073347693738
11861 -5753.033873649481
11862 -5754.062789156344
11863 -5755.537333149089
11864 -5757.908071030989
11865 -5759.862311873435
11866 -5761.852619555203
11867 -5764.177793142797
11868 -5766.874352898119
11869 -5771.167432726575
11870 -5774.239628444102
11871 -5777.664088009457
11872 -5782.885221200174
11873 -5786.607849105339
11874 -5792.305885998058
11875 -5796.285754846806
11876 -5802.57376818656
11877 -5806.781902029343
11878 -5813.217387125441
11879 -5819.860790474357
11880 -5824.203340602267
11881 -5830.981524851049
11882 -5837.651385758653
11883 -5842.125620739945
11884 -5848.506319786072
11885 -5855.011911662943
11886 -5859.135400249842
11887 -5865.50064823788
11888 -5871.447601564371
11889 -5877.279896120755
11890 -5880.845677945766
11891 -5886.252416103448
11892 -5891.144362354888
11893 -5895.870228634184
11894 -5898.818027932218
11895 -5903.211906814813
11896 -5906.966912173391
11897 -5909.409028780343
11898 -5912.658752013032
11899 -5915.719453806651
11900 -5917.413835363192
11901 -5919.866489767943
11902 -5921.235896231202
11903 -5923.249102122943
11904 -5924.271210027533
11905 -5925.786455303872
11906 -5926.416315297929
11907 -5927.46738999382
11908 -5927.879584809614
11909 -5928.368321418558
11910 -5928.793044869793
11911 -5929.162268031266
11912 -5929.410266190756
11913 -5929.719476095219
11914 -5929.941938600648
11915 -5930.384119904931
11916 -5930.638457494997
11917 -5931.121472485354
11918 -5931.478177358224
11919 -5932.105693279381
11920 -5932.786733476669
11921 -5933.695523213303
11922 -5934.488854608389
11923 -5935.608192452325
11924 -5936.727516515665
11925 -5938.794587678734
11926 -5940.180507704246
11927 -5941.96530392866
11928 -5944.58968260085
11929 -5946.571153129146
11930 -5949.766835344228
11931 -5952.33419505669
11932 -5956.081793499658
11933 -5958.784443536806
11934 -5962.794438372868
11935 -5965.712034430384
11936 -5970.253520408822
11937 -5975.1263398906
11938 -5978.369166472572
