"x-rfile"
"Iteration" "x"
("Iteration" "x")
1 6156.329511893897
2 5536.541994187995
3 4101.102732051537
4 3274.555182603958
5 2461.934450436562
6 1968.892244242753
7 1386.564069305856
8 1039.677851944268
9 647.8786524860081
10 414.5736598259224
11 227.2179890816555
12 97.27250750109796
13 20.54220016175646
14 -29.83228967246968
15 -50.81837444501969
16 -55.26597004550531
17 -49.14360494726282
18 -35.53470502146042
19 -19.12334878425516
20 -1.173124639134483
21 15.95313748358333
22 33.76304092530212
23 48.19427449126324
24 60.20450737067377
25 70.15267314894143
26 76.58352939791827
27 80.93237641496781
28 83.87119163882338
29 84.94522155092709
30 85.26938590861285
31 84.54723975374482
32 83.49076288122978
33 81.69417905842718
34 79.95185985179948
35 77.64135139165474
36 75.26066148101651
37 72.46696470723595
38 69.32936672293594
39 66.08257663113096
40 62.72428916573334
41 59.76316938955999
42 56.67179867943849
43 53.85211767685858
44 50.94323554058457
45 48.29584004993573
46 45.83478929077874
47 43.49570209312814
48 41.28021251744329
49 38.80158809150284
50 36.88315949601881
51 35.0224743362664
52 32.74793242190139
53 30.7491176437358
54 28.83928381931793
55 26.65603854450627
56 24.63238352699369
57 22.37976057374187
58 20.3464514630035
59 17.64644759459559
60 15.79755728945787
61 13.31940905344857
62 11.25783816061466
63 9.127033794722736
64 7.315769264681097
65 5.363471649225098
66 3.70408226690796
67 2.185897290475419
68 0.5319410349251257
69 -0.9681348551819315
70 -2.313351661900602
71 -3.879907763599302
72 -5.252202955868723
73 -6.841332324904205
74 -8.224089375242501
75 -9.799484652824207
76 -10.81012439528976
77 -12.44529184672964
78 -13.45966741364469
79 -14.71950728510071
80 -15.80309544605369
81 -17.51293208787742
82 -18.52265668663973
83 -19.76160146036294
84 -21.16812279988627
85 -22.31471226095612
86 -23.26467086591249
87 -24.77928850540021
88 -25.63935185044024
89 -27.04833650212738
90 -27.8298452793708
91 -29.14311299677921
92 -29.85841618284045
93 -31.08365672708678
94 -31.7464036837102
95 -32.90387172857672
96 -33.51330728202366
97 -34.34039527402961
98 -34.9542225364675
99 -35.76668831713485
100 -36.37483910488352
101 -37.17268843418512
102 -37.77399834595041
103 -38.55392246317732
104 -39.13446530471687
105 -39.88883171434668
106 -40.44322934350566
107 -41.16992070283736
108 -41.69860647819055
109 -42.39168016870686
110 -42.89057694000958
111 -43.55206414855456
112 -44.01897867289527
113 -44.65663654323804
114 -45.09683167725452
115 -45.70199933974678
116 -46.11243753835063
117 -46.69334717571767
118 -47.07942440416868
119 -47.6313971776214
120 -47.99776354275573
121 -48.52651977907592
122 -48.86786029247097
123 -49.37330707022581
124 -49.69884363612228
125 -50.18523958090465
126 -50.4820892319915
127 -50.94563269652013
128 -51.22829351665119
129 -51.66996734688971
130 -51.92671381630012
131 -52.34422119208084
132 -52.58510446953685
133 -52.98103120968404
134 -53.20161458074642
135 -53.57179738920395
136 -53.77235014832564
137 -54.12195331509044
138 -54.30137413155076
139 -54.62944266771893
140 -54.79063168122767
141 -55.097135162535
142 -55.23565754942742
143 -55.52525382204116
144 -55.63872709443467
145 -55.90851985943701
146 -56.00353064725097
147 -56.25952053230047
148 -56.33624124588258
149 -56.57781565328518
150 -56.63755021186796
151 -56.86139376173244
152 -56.90834285620919
153 -57.1222691742618
154 -57.1540845974092
155 -57.3546420138143
156 -57.37693362169566
157 -57.5629302142875
158 -57.57506380530967
159 -57.75238882424377
160 -57.75788522611687
161 -57.92829154675964
162 -57.9270579654938
163 -58.09117094878165
164 -58.08760177606447
165 -58.24385666886157
166 -58.24009517005865
167 -58.39491218561664
168 -58.38938275742171
169 -58.54136052839516
170 -58.53618323439198
171 -58.68753543596196
172 -58.68515535048651
173 -58.83760461320994
174 -58.83508423053364
175 -58.98883821445691
176 -58.99113919706774
177 -59.14754218380041
178 -59.15275845498314
179 -59.31196694120666
180 -59.32107764707965
181 -59.48514389502233
182 -59.49784180768937
183 -59.66750323951063
184 -59.68180731369028
185 -59.85890105332211
186 -59.87505811128382
187 -60.05909839863541
188 -60.08277983757831
189 -60.27138844953726
190 -60.29730995124471
191 -60.49377466680658
192 -60.52659783202159
193 -60.72698538843463
194 -60.76132989267753
195 -60.96733495253321
196 -61.00992678348722
197 -61.22175447979108
198 -61.26525074064833
199 -61.48167225228264
200 -61.529614131003
201 -61.7471130633278
202 -61.79629902997822
203 -62.01283342174535
204 -62.06584735182619
205 -62.28293223538542
206 -62.33847129987504
207 -62.55634974508997
208 -62.61397160962922
209 -62.82943349286094
210 -62.88614761929765
211 -63.10124871568279
212 -63.16004500872751
213 -63.37506214690596
214 -63.43074210161291
215 -63.64589023835931
216 -63.69949828926753
217 -63.91372755735848
218 -63.96278597798189
219 -64.17608316146023
220 -64.22577934047743
221 -64.4346203863583
222 -64.47818733605895
223 -64.68404048915849
224 -64.72700562829655
225 -64.92783703496671
226 -64.96703764750848
227 -65.16724664513774
228 -65.20429931262346
229 -65.39611748299814
230 -65.42728829345056
231 -65.61767983726961
232 -65.64646213753215
233 -65.82960564270851
234 -65.8555549172069
235 -66.03593662636075
236 -66.05993642158454
237 -66.23383640766858
238 -66.25243486092872
239 -66.42645353940023
240 -66.43925183628588
241 -66.6089634730469
242 -66.61941334123281
243 -66.78331043344554
244 -66.79061621560216
245 -66.95183757243429
246 -66.95532715089125
247 -67.11350003061342
248 -67.11194155690319
249 -67.26549007869805
250 -67.26083342049772
251 -67.41068346903009
252 -67.40295470600873
253 -67.5518470323493
254 -67.5390584363393
255 -67.68534336214459
256 -67.66847745351124
257 -67.81115834497145
258 -67.78961522447345
259 -67.93161289420435
260 -67.90622032644714
261 -68.04181137232516
262 -68.01383154995509
263 -68.14959600940033
264 -68.12001108551094
265 -68.25363999357569
266 -68.21981401842589
267 -68.35101125980017
268 -68.31611801313606
269 -68.44549965182421
270 -68.40798809012057
271 -68.53586470719604
272 -68.49759913875963
273 -68.6227864685728
274 -68.58378221967601
275 -68.70783064808653
276 -68.66539695465971
277 -68.78791198419151
278 -68.7455992246207
279 -68.86912954391356
280 -68.82347084128449
281 -68.94369781971753
282 -68.89828204435968
283 -69.01990029111197
284 -68.97199678903407
285 -69.08972969139474
286 -69.04105272681177
287 -69.16031937388551
288 -69.11216194709051
289 -69.22706185039056
290 -69.1790830221308
291 -69.29423499393833
292 -69.24557191817972
293 -69.35944590389585
294 -69.3125471357978
295 -69.42616597596599
296 -69.37993015634471
297 -69.491520664961
298 -69.4419525265792
299 -69.55668119871505
300 -69.50500769150138
301 -69.62077636621135
302 -69.57181016797695
303 -69.68750254953167
304 -69.63659064560896
305 -69.75156551622439
306 -69.69939821336575
307 -69.81617728232321
308 -69.76553136533731
309 -69.88193129516397
310 -69.83058350710853
311 -69.94752049876331
312 -69.89640739724236
313 -70.01423792453564
314 -69.96151289162803
315 -70.07995943370381
316 -70.02745448012604
317 -70.14443360069795
318 -70.09104198504345
319 -70.20980343649335
320 -70.15743577779361
321 -70.27437871025164
322 -70.22187965446567
323 -70.34102441417269
324 -70.28885857878608
325 -70.40542633087718
326 -70.35427220643322
327 -70.47165984619934
328 -70.42160114850576
329 -70.53659576309227
330 -70.48484435990945
331 -70.60146160304657
332 -70.55087067420406
333 -70.66763397811957
334 -70.61545270783141
335 -70.7315727696365
336 -70.68210728338897
337 -70.79780549818112
338 -70.74734116084923
339 -70.8633364865786
340 -70.81371938871341
341 -70.92774524772125
342 -70.87631627933722
343 -70.99269710913435
344 -70.94285638263595
345 -71.05805183910604
346 -71.00767796135693
347 -71.12389671027866
348 -71.0720791850256
349 -71.18741213654522
350 -71.13695203451149
351 -71.25309738498129
352 -71.20243682836968
353 -71.31598246187524
354 -71.26515613394626
355 -71.38042348075761
356 -71.33042796506345
357 -71.44555990938002
358 -71.39616853446809
359 -71.51278903583658
360 -71.46201554252271
361 -71.5772219178186
362 -71.52622613854263
363 -71.64378935888044
364 -71.59067912218772
365 -71.70690824773348
366 -71.65476289153443
367 -71.77158371241896
368 -71.71863752330071
369 -71.83386158586914
370 -71.78015827978862
371 -71.89778776719523
372 -71.84387560939415
373 -71.96101906844315
374 -71.90741323286383
375 -72.02323155416192
376 -71.97046750980621
377 -72.08599539147528
378 -72.0318048311899
379 -72.14717118486902
380 -72.09389629703901
381 -72.2088012035851
382 -72.15612980024693
383 -72.27054814802526
384 -72.21880442671457
385 -72.33063140391296
386 -72.28033154536136
387 -72.39235627010574
388 -72.34261730655891
389 -72.45360458397519
390 -72.40230937753086
391 -72.51395041259475
392 -72.46414620831472
393 -72.57477648161517
394 -72.52261796958859
395 -72.63440994369313
396 -72.58162552604834
397 -72.69283972008124
398 -72.64001201237643
399 -72.75092085604373
400 -72.69807767739658
401 -72.80948950967158
402 -72.75401604906685
403 -72.86661082294825
404 -72.81273985768455
405 -72.92456920104915
406 -72.86872168591938
407 -72.97908760314466
408 -72.92490746521565
409 -73.03403391414331
410 -72.9787933548424
411 -73.0885789689509
412 -73.03397098647726
413 -73.1435565562418
414 -73.08889905527305
415 -73.1969357124653
416 -73.14317232120548
417 -73.25040825698871
418 -73.1952036575601
419 -73.30415938573199
420 -73.24820730074647
421 -73.35632897994981
422 -73.30046082785363
423 -73.40856484455139
424 -73.35346349586925
425 -73.46187207606484
426 -73.40366076351864
427 -73.51307411433793
428 -73.45460891791302
429 -73.56392197152766
430 -73.50598458379933
431 -73.61372881938725
432 -73.55754489132353
433 -73.663664750217
434 -73.60597833103647
435 -73.71187335113166
436 -73.65465164235144
437 -73.76109874456164
438 -73.70374760129728
439 -73.80926907451533
440 -73.7521597140029
441 -73.85648432462119
442 -73.80027107663753
443 -73.90414066242876
444 -73.84693595665104
445 -73.95210426551122
446 -73.89579941542283
447 -73.9980826539298
448 -73.94146106039676
449 -74.04296300357372
450 -73.98696791972669
451 -74.08818775155437
452 -74.03121957994054
453 -74.13323564094777
454 -74.0772859643151
455 -74.17844253305057
456 -74.12151213955558
457 -74.22278997615992
458 -74.16571212693614
459 -74.26716771844937
460 -74.20929573577297
461 -74.31293963158427
462 -74.25523510670783
463 -74.35714924775273
464 -74.29870481057381
465 -74.39970336444416
466 -74.34037179177287
467 -74.44269060851778
468 -74.38113123142412
469 -74.48367173618166
470 -74.42471974139328
471 -74.52409632167196
472 -74.4639064415439
473 -74.56532279520934
474 -74.50485602897146
475 -74.60514494941305
476 -74.54383887810265
477 -74.64537654452474
478 -74.58605955257475
479 -74.68607082197903
480 -74.62447792142144
481 -74.72400611546668
482 -74.66334206000406
483 -74.76198148801923
484 -74.70041643855663
485 -74.79987181930518
486 -74.74009093903905
487 -74.83699972565925
488 -74.7765152439957
489 -74.87300667212806
490 -74.81254141390232
491 -74.90943251679045
492 -74.84992237897625
493 -74.94789511723368
494 -74.88722146445332
495 -74.9821223831824
496 -74.92221913662591
497 -75.01939755524609
498 -74.95756558427995
499 -75.05262927999136
500 -74.99189112540699
501 -75.08747761506332
502 -75.02661509186368
503 -75.12217472302417
504 -75.06102663378147
505 -75.15579343332246
506 -75.09351650879141
507 -75.18848232739938
508 -75.12595659395949
509 -75.22120586389826
510 -75.15848693498698
511 -75.25324054479358
512 -75.19047696942647
513 -75.28519220570418
514 -75.22180663583647
515 -75.31685301502993
516 -75.25200982045753
517 -75.34696405825731
518 -75.28411256363644
519 -75.37758565148771
520 -75.31323616478976
521 -75.40828373954702
522 -75.34283899120774
523 -75.43667712333162
524 -75.37064443253448
525 -75.46610498467336
526 -75.40083936624333
527 -75.49491226425172
528 -75.42881012588116
529 -75.52279924035928
530 -75.45830873757214
531 -75.55077930163637
532 -75.48532306778164
533 -75.57811957880689
534 -75.5141688799681
535 -75.60434487608204
536 -75.54129216483832
537 -75.63018913768386
538 -75.56747622680352
539 -75.65683623325509
540 -75.59205008513179
541 -75.6817560725746
542 -75.61907345309999
543 -75.70824441191812
544 -75.64543488630073
545 -75.73519756920278
546 -75.66841933553061
547 -75.75925364244132
548 -75.69182915801638
549 -75.78388637153252
550 -75.71734483109536
551 -75.80954591736445
552 -75.7413336276954
553 -75.83454561310461
554 -75.7664794101287
555 -75.85694421382286
556 -75.78872202311311
557 -75.88150086703514
558 -75.81313642226391
559 -75.90300501523129
560 -75.83577546918727
561 -75.92437058702615
562 -75.8573644743889
563 -75.94606793801407
564 -75.87802388017568
565 -75.96666206122653
566 -75.90069129835523
567 -75.9891933062794
568 -75.9223450546542
569 -76.01191742912599
570 -75.94326777445004
571 -76.03280479225731
572 -75.96292037756213
573 -76.05530032431048
574 -75.98376052358697
575 -76.07520627765591
576 -76.00199744070974
577 -76.09470850271309
578 -76.02197685621393
579 -76.11456063944705
580 -76.04133657566976
581 -76.13476988249188
582 -76.06131035684736
583 -76.1533665496314
584 -76.08211127566973
585 -76.17324327655454
586 -76.09957354201924
587 -76.19205601295064
588 -76.1186806573906
589 -76.20974172108458
590 -76.13899941781295
591 -76.22735288119341
592 -76.15780137217229
593 -76.24497133388753
594 -76.17453773861054
595 -76.2606677914617
596 -76.1920662850812
597 -76.27959055578177
598 -76.21104309438486
599 -76.29697965753391
600 -76.22827170902839
601 -76.31394710611355
602 -76.2457253166219
603 -76.33129102266233
604 -76.26131528478791
605 -76.34772568483105
606 -76.27823517671676
607 -76.36272402565854
608 -76.29368189893299
609 -76.37811042441203
610 -76.30912099530396
611 -76.39409900392859
612 -76.3224073467246
613 -76.40933295070637
614 -76.33889760782493
615 -76.42371439977181
616 -76.35285550527806
617 -76.43918503542872
618 -76.36714659036465
619 -76.45321025848121
620 -76.38022929453381
621 -76.46839969776315
622 -76.39634102677205
623 -76.48391818762876
624 -76.40898829618006
625 -76.49692928407869
626 -76.42376868117474
627 -76.51056011377293
628 -76.43514587903849
629 -76.52416548613004
630 -76.44978330134697
631 -76.53605150150008
632 -76.46460489182407
633 -76.55055609990447
634 -76.47903188845545
635 -76.56400247810618
636 -76.49199790419635
637 -76.57759961865032
638 -76.50717992231493
639 -76.59110784683911
640 -76.52068998942184
641 -76.60455624243966
642 -76.53358185487532
643 -76.61703588889492
644 -76.54544892858739
645 -76.62964735957181
646 -76.55798857850552
647 -76.64226975336953
648 -76.57047492628777
649 -76.65480764954658
650 -76.5845501484071
651 -76.6693974708207
652 -76.59601448349292
653 -76.68247136217478
654 -76.60809094782374
655 -76.69251514362703
656 -76.62124957217114
657 -76.70591069410975
658 -76.63204972802086
659 -76.71589051028892
660 -76.64223054794954
661 -76.72575928833909
662 -76.65452048109724
663 -76.73607287598144
664 -76.66525361318162
665 -76.74612101563778
666 -76.6751982268208
667 -76.75495640644645
668 -76.6848504891705
669 -76.76510526916694
670 -76.69485838857668
671 -76.77515449278681
672 -76.70359467531526
673 -76.78573596697056
674 -76.71308319349063
675 -76.79692698857602
676 -76.72075323278138
677 -76.80827031947554
678 -76.7312157605889
679 -76.81801371556318
680 -76.74050284205538
681 -76.83039372267299
682 -76.74963455660647
683 -76.8409545510689
684 -76.75774119211897
685 -76.84895347928615
686 -76.76871618165046
687 -76.85875098581329
688 -76.77930241660221
689 -76.86809522661441
690 -76.7882026997336
691 -76.87636518703275
692 -76.7991785048786
693 -76.88540352513385
694 -76.80906424470707
695 -76.89217310912146
696 -76.81731684789069
697 -76.89943972604861
698 -76.82646513986295
699 -76.90775524794213
700 -76.83370246610518
701 -76.9162364055684
702 -76.84270333940395
703 -76.92481765633413
704 -76.85234943170182
705 -76.93518829853805
706 -76.86017052725289
707 -76.94397253078677
708 -76.86669736712896
709 -76.95221829205347
710 -76.87569014841533
711 -76.9600401013011
712 -76.88405453852448
713 -76.96851329261676
714 -76.89095237298932
715 -76.97558149532949
716 -76.8999602761522
717 -76.98360122660405
718 -76.9098164944549
719 -76.99127762866287
720 -76.91698616514142
721 -76.99757176572686
722 -76.92590966113011
723 -77.00602772140815
724 -76.93275395982883
725 -77.0129677428173
726 -76.94009883252437
727 -77.01849197899115
728 -76.94741984969012
729 -77.02618267622277
730 -76.95395669938465
731 -77.03421080214801
732 -76.95932806262807
733 -77.04223923890618
734 -76.96690743103481
735 -77.04993674624963
736 -76.97252172718316
737 -77.05732303099023
738 -76.97762439534206
739 -77.06446691220951
740 -76.9836854412051
741 -77.0717667369569
742 -76.99116597918565
743 -77.07832790951744
744 -76.99732173150123
745 -77.08386960596017
746 -77.00571971495123
747 -77.09119576652606
748 -77.01044300199548
749 -77.09656097806383
750 -77.01655119975477
751 -77.1007370312111
752 -77.02348195187543
753 -77.10690464173102
754 -77.02909600660436
755 -77.11297758546161
756 -77.03507572111336
757 -77.11777729868713
758 -77.04214774722338
759 -77.12412416043955
760 -77.04913262829302
761 -77.13133088845949
762 -77.05381830365
763 -77.1368741899982
764 -77.05968191417128
765 -77.14178027880286
766 -77.06540229985109
767 -77.14802839916443
768 -77.07092271487733
769 -77.15303067932727
770 -77.07789054919473
771 -77.16038546098919
772 -77.08203898745825
773 -77.16617151025204
774 -77.08814454395593
775 -77.1708621407347
776 -77.09392904982202
777 -77.17725084399731
778 -77.09764044208015
779 -77.18207324650844
780 -77.10125535873715
781 -77.18611614545998
782 -77.10676038308289
783 -77.19235100558204
784 -77.11170059231657
785 -77.1974550768485
786 -77.11536295443621
787 -77.20315571333749
788 -77.12168045793024
789 -77.20678874085476
790 -77.12725008657638
791 -77.21237764527316
792 -77.13203147833272
793 -77.21727133606856
794 -77.1377150294294
795 -77.22212062628306
796 -77.14010677736204
797 -77.22661623897952
798 -77.14497234321136
799 -77.23020186694335
800 -77.15129398215062
801 -77.23527630728262
802 -77.154953074332
803 -77.24017143882536
804 -77.15905920860959
805 -77.24331926203401
806 -77.16532948078597
807 -77.2479756909315
808 -77.16951853743825
809 -77.25218300386911
810 -77.17170881513893
811 -77.25624503001188
812 -77.17619992094545
813 -77.26031317588586
814 -77.17907900990085
815 -77.26342467367969
816 -77.18303487292162
817 -77.26611639403419
818 -77.18685629560756
819 -77.26955336735689
820 -77.19050982757237
821 -77.27320587149265
822 -77.19423800319429
823 -77.2749719550964
824 -77.19878724410566
825 -77.27977001713074
826 -77.20286038114317
827 -77.28353598970624
828 -77.20628449976536
829 -77.2863143565183
830 -77.21136723756319
831 -77.29092047594604
832 -77.21587528024233
833 -77.29558117960104
834 -77.21818503875652
835 -77.29889048243645
836 -77.22240477034332
837 -77.30334331397779
838 -77.22522511713211
839 -77.30800842771907
840 -77.22878220166129
841 -77.31181748854475
842 -77.23186277419349
843 -77.31668450397557
844 -77.23436081007932
845 -77.31945773241165
846 -77.23789974908568
847 -77.32305343447854
848 -77.24262175368314
849 -77.32591562712773
850 -77.24535050127827
851 -77.32853536399752
852 -77.24735122850615
853 -77.33103896930912
854 -77.2522065727012
855 -77.33379180602169
856 -77.2556918661902
857 -77.3380881667477
858 -77.25862651818422
859 -77.34021921242541
860 -77.26258497865874
861 -77.34400746618557
862 -77.26641009173865
863 -77.34780286058788
864 -77.27053524093645
865 -77.35100893062115
866 -77.27242379511318
867 -77.35548152317868
868 -77.27577528499928
869 -77.35924654641532
870 -77.27808729968109
871 -77.36149536927709
872 -77.28233539890257
873 -77.36547343052324
874 -77.28304393487939
875 -77.36790836646109
876 -77.28536504400603
877 -77.36932458170151
878 -77.29034499994789
879 -77.37215585746424
880 -77.29305997395728
881 -77.37467828145536
882 -77.29521134522645
883 -77.37703268942238
884 -77.29823186097305
885 -77.3794449399123
886 -77.30008152187911
887 -77.38129671414852
888 -77.30220441410184
889 -77.38445262315601
890 -77.30546523514255
891 -77.38762860681969
892 -77.30844251279284
893 -77.39135800148385
894 -77.31063176277542
895 -77.39320936239159
896 -77.31502438495779
897 -77.39695479745401
898 -77.31646572934837
899 -77.39964889765822
900 -77.31805178706112
901 -77.40002606202762
902 -77.32147782954061
903 -77.4030376490679
904 -77.32454870270159
905 -77.40546987273252
906 -77.32531946170955
907 -77.40664568710942
908 -77.32820296472856
909 -77.40889131168247
910 -77.32962699419319
911 -77.41051199710249
912 -77.33125453500375
913 -77.41182681564152
914 -77.33210167327319
915 -77.41375199651181
916 -77.33348321934344
917 -77.41619635580273
918 -77.33507531645434
919 -77.41846239663697
920 -77.33914904533376
921 -77.4228719353779
922 -77.33993563063596
923 -77.4254599973372
924 -77.34186742024328
925 -77.42617139054721
926 -77.34536172731465
927 -77.42836813788141
928 -77.3483880251521
929 -77.42919745050742
930 -77.35008550480171
931 -77.43018625793314
932 -77.35355431261627
933 -77.43221168522066
934 -77.35602667124094
935 -77.43328010439306
936 -77.35846714117015
937 -77.43467380454422
938 -77.35946646597759
939 -77.43594856799737
940 -77.35872404849751
941 -77.43723384668787
942 -77.35900840163204
943 -77.43842258311777
944 -77.36139409192089
945 -77.44205443681501
946 -77.36115862872143
947 -77.44570048587394
948 -77.36191565077506
949 -77.44886459174336
950 -77.36599358739157
951 -77.45256645286024
952 -77.36822020666028
953 -77.4554162754775
954 -77.36947661093706
955 -77.45655582924999
956 -77.37261175462905
957 -77.45775712268234
958 -77.3750380959995
959 -77.45801510142769
960 -77.37615069325908
961 -77.45669927502611
962 -77.37889014698311
963 -77.45797102347645
964 -77.37931815983623
965 -77.45780359026476
966 -77.38059957416668
967 -77.45771203958748
968 -77.38298506719903
969 -77.4598490044213
970 -77.38340505159874
971 -77.4618675700584
972 -77.38391088666278
973 -77.46304723298364
974 -77.38375007409067
975 -77.46355705591826
976 -77.38397108000039
977 -77.46611559703408
978 -77.3833780657327
979 -77.46751128118663
980 -77.38499893848419
981 -77.46936113795523
982 -77.3859293108991
983 -77.47093071745098
984 -77.3886273521055
985 -77.47199774022367
986 -77.39095657900174
987 -77.47579627195601
988 -77.39395265440169
989 -77.47732271050641
990 -77.39653335228168
991 -77.4773913742124
992 -77.39861241104445
993 -77.47868604586574
994 -77.39899609724202
995 -77.47839970697395
996 -77.39936111907465
997 -77.47840985227434
998 -77.40191427387717
999 -77.48024564040175
1000 -77.40319503611535
1001 -77.48241212024212
1002 -77.40276997475902
1003 -77.48364860487897
1004 -77.40453120039976
1005 -77.48615700568135
1006 -77.40478707410453
1007 -77.48758308354527
1008 -77.40518977897828
1009 -77.48778452795023
1010 -77.40585668604146
1011 -77.49012261668474
1012 -77.40694138150714
1013 -77.49064074017174
1014 -77.40903085904436
1015 -77.49097924207207
1016 -77.4117395660768
1017 -77.49350442416514
1018 -77.41206761941868
1019 -77.49518831612389
1020 -77.41185033146178
1021 -77.49292603794979
1022 -77.41475530525126
1023 -77.49412567289933
1024 -77.41550980987367
1025 -77.49353109149894
1026 -77.41519011829656
1027 -77.49354242947724
1028 -77.41669326240572
1029 -77.49538287768996
1030 -77.41710135816648
1031 -77.49643251067772
1032 -77.41935523070201
1033 -77.4979448810671
1034 -77.41984254808845
1035 -77.49957590970479
1036 -77.4204712171769
1037 -77.50078829917332
1038 -77.4213399737114
1039 -77.50175171111157
1040 -77.42385610670499
1041 -77.50367163130564
1042 -77.42359491426926
1043 -77.50552767439751
1044 -77.42438290236529
1045 -77.50523303788268
1046 -77.42604501470146
1047 -77.507034221
1048 -77.42789725527054
1049 -77.50908690618152
1050 -77.42810523300314
1051 -77.5095820961681
1052 -77.42898225694618
1053 -77.51133352025957
1054 -77.43010345285974
1055 -77.51227029432137
1056 -77.43197529102109
1057 -77.51331206571599
1058 -77.43209898558331
1059 -77.51471513780827
1060 -77.43162346132894
1061 -77.51335719785935
1062 -77.43138729795999
1063 -77.51284754335663
1064 -77.43380527431023
1065 -77.51350674013979
1066 -77.4336325873612
1067 -77.51425540089667
1068 -77.43412004885607
1069 -77.51386895672537
1070 -77.4363357510578
1071 -77.51545759933563
1072 -77.43747343682298
1073 -77.5173201440486
1074 -77.43715204136898
1075 -77.51729296452059
1076 -77.43746274855116
1077 -77.51884540926481
1078 -77.43925760666194
1079 -77.5190530628112
1080 -77.44008251254041
1081 -77.52001879117326
1082 -77.43994526112012
1083 -77.52138157070125
1084 -77.44018784226155
1085 -77.52232105811973
1086 -77.4412647202234
1087 -77.52185138842451
1088 -77.44308457557999
1089 -77.52374646865142
1090 -77.44266173518506
1091 -77.52339496509589
1092 -77.44329262746115
1093 -77.52291454796942
1094 -77.44644306654145
1095 -77.52390116237041
1096 -77.44752269979806
1097 -77.52399585680625
1098 -77.44690455357402
1099 -77.52446060075194
1100 -77.44715909983877
1101 -77.5253234922918
1102 -77.4472007576356
1103 -77.52621597052216
1104 -77.44671270109156
1105 -77.52560250314551
1106 -77.447204128618
1107 -77.52800309321718
1108 -77.44669572731451
1109 -77.52929643159943
1110 -77.44777305061001
1111 -77.52924898880684
1112 -77.44917848365942
1113 -77.53145672301333
1114 -77.44967597789841
1115 -77.53198224188496
1116 -77.44924754234262
1117 -77.53270585466136
1118 -77.45140393191339
1119 -77.53370930879602
1120 -77.45290121332549
1121 -77.53428602827482
1122 -77.45327086459217
1123 -77.53468322819117
1124 -77.45474908990917
1125 -77.53480573604669
1126 -77.45488479474021
1127 -77.53484528386912
1128 -77.45512917239171
1129 -77.53385323027516
1130 -77.45627774045926
1131 -77.53582437179166
1132 -77.4565913120081
1133 -77.53685930385865
1134 -77.45748132231913
1135 -77.53611936816046
1136 -77.4588450148289
1137 -77.5378216545601
1138 -77.45671778366584
1139 -77.53785317608906
1140 -77.45583638280169
1141 -77.53657648813876
1142 -77.4563190511418
1143 -77.53679324062335
1144 -77.45698901431255
1145 -77.53805516126133
1146 -77.45748715202403
1147 -77.5382730294555
1148 -77.4588468456472
1149 -77.53967492799507
1150 -77.46026208290175
1151 -77.54027509071831
1152 -77.46104112340078
1153 -77.53975476024016
1154 -77.4610143148752
1155 -77.54154097485045
1156 -77.46121633775266
1157 -77.54188347211533
1158 -77.46240460499256
1159 -77.54081343886698
1160 -77.4644516289233
1161 -77.54226738498163
1162 -77.46402964958511
1163 -77.54380783545651
1164 -77.4636352316609
1165 -77.54351145473383
1166 -77.46576765791232
1167 -77.54644619508245
1168 -77.46714261490943
1169 -77.54720048064037
1170 -77.46583870476759
1171 -77.54719578009394
1172 -77.46639004724842
1173 -77.54765613404031
1174 -77.46618056188478
1175 -77.54651299299061
1176 -77.4659821775908
1177 -77.54542072169511
1178 -77.46515487579758
1179 -77.54517311595818
1180 -77.46372478500582
1181 -77.54487918241264
1182 -77.46403049586711
1183 -77.54537647834559
1184 -77.46509605475197
1185 -77.5472079459937
1186 -77.46562979438292
1187 -77.5480579723216
1188 -77.46598198900553
1189 -77.54840905305018
1190 -77.46745718297618
1191 -77.54885403545447
1192 -77.46927781939128
1193 -77.55035034666716
1194 -77.46927156092526
1195 -77.54957609895332
1196 -77.47036775375084
1197 -77.55080847152125
1198 -77.47172345504643
1199 -77.5514357717647
1200 -77.47237781588535
1201 -77.55118920299202
1202 -77.47408226758004
1203 -77.55372464766165
1204 -77.47386261164155
1205 -77.5531661283475
1206 -77.47371908542081
1207 -77.55203413978982
1208 -77.47347848641633
1209 -77.55197501937948
1210 -77.47250194517564
1211 -77.55216051440991
1212 -77.4717400898936
1213 -77.5521197607391
1214 -77.47406357736766
1215 -77.55382725213437
1216 -77.47408238090014
1217 -77.55530321941023
1218 -77.47381901140406
1219 -77.5562338061255
1220 -77.47512302507923
1221 -77.55785149373786
1222 -77.47571944930482
1223 -77.55729855468996
1224 -77.47529988742286
1225 -77.55614409286429
1226 -77.47565420990514
1227 -77.55693656503304
1228 -77.47523017700814
1229 -77.55567675657255
1230 -77.47535085143218
1231 -77.55485415352382
1232 -77.47796087170569
1233 -77.55678069285851
1234 -77.47712543681686
1235 -77.55714874810737
1236 -77.47586700029275
1237 -77.55480212475835
1238 -77.47648034282625
1239 -77.55501091709948
1240 -77.47573787426573
1241 -77.55478632703198
1242 -77.47418290740904
1243 -77.55535429994103
1244 -77.47369812360182
1245 -77.55633140084744
1246 -77.47450842020977
1247 -77.55807695330994
1248 -77.47646748285094
1249 -77.55926895501773
1250 -77.47600195924409
1251 -77.55975180349324
1252 -77.47672578075769
1253 -77.56105918966669
1254 -77.47837708697485
1255 -77.55986506518836
1256 -77.47980124263199
1257 -77.56099861434113
1258 -77.48029000520647
1259 -77.55978744521232
1260 -77.48039154098122
1261 -77.55720878764859
1262 -77.4820223865425
1263 -77.55749776310216
1264 -77.48150414301264
1265 -77.55622766901989
1266 -77.47969603182473
1267 -77.55565074099867
1268 -77.47924225373289
1269 -77.55629184255784
1270 -77.47788106809392
1271 -77.55669090229009
1272 -77.4787957107154
1273 -77.55734947544896
1274 -77.47808848858138
1275 -77.55967343356107
1276 -77.47756061643949
1277 -77.56047204829814
1278 -77.47742122745368
1279 -77.56059646900249
1280 -77.4802996295892
1281 -77.56292108921831
1282 -77.47926977652607
1283 -77.56397184615342
1284 -77.48050088808731
1285 -77.56370466892287
1286 -77.48335889580908
1287 -77.56470646811763
1288 -77.48360623888442
1289 -77.56428642799543
1290 -77.48355238842464
1291 -77.56374788888385
1292 -77.48447157823328
1293 -77.56328358599583
1294 -77.48491765047741
1295 -77.56168400477858
1296 -77.48487736670621
1297 -77.56243057191635
1298 -77.48450633482625
1299 -77.56291205782662
1300 -77.48359901282457
1301 -77.56354884627211
1302 -77.48338409524374
1303 -77.56266170690674
1304 -77.48384051159832
1305 -77.56338793821732
1306 -77.48114917176457
1307 -77.56399571395254
1308 -77.48200879336298
1309 -77.56450841435039
1310 -77.48419518220918
1311 -77.56596766478457
1312 -77.48556584122228
1313 -77.56650513450376
1314 -77.48527837115452
1315 -77.56642553238335
1316 -77.48560226372904
1317 -77.56665848907821
1318 -77.48527888883066
1319 -77.56569948494757
1320 -77.48572925916223
1321 -77.56442441197223
1322 -77.48564761821929
1323 -77.56424836827219
1324 -77.48502503021271
1325 -77.56410403336704
1326 -77.48520161025036
1327 -77.56364974536815
1328 -77.4851359531345
1329 -77.56474224479786
1330 -77.48401278247071
1331 -77.5645575861756
1332 -77.48455913029244
1333 -77.56455420446063
1334 -77.48527744529724
1335 -77.56469045513956
1336 -77.48421376056632
1337 -77.56535634080977
1338 -77.48382588186037
1339 -77.56607479901602
1340 -77.48535687988969
1341 -77.5665928484829
1342 -77.48615321780366
1343 -77.5673798339043
1344 -77.48626420415341
1345 -77.56594484325753
1346 -77.48720714216005
1347 -77.56814884017807
1348 -77.48753155186175
1349 -77.56678652099656
1350 -77.48669146007698
1351 -77.5664053210706
1352 -77.48793683275262
1353 -77.56843238402864
1354 -77.48639421402132
1355 -77.56876773306911
1356 -77.48667974134577
1357 -77.56802795107568
1358 -77.48711817583028
1359 -77.56766140808394
1360 -77.48714030135974
1361 -77.56792263724014
1362 -77.48593422504113
1363 -77.56635923493303
1364 -77.48818419806045
1365 -77.56785473003153
1366 -77.48876541507775
1367 -77.56761298375024
1368 -77.48869412525308
1369 -77.56743192768373
1370 -77.4886441509544
1371 -77.56816953141623
1372 -77.48765862565206
1373 -77.56820713479397
1374 -77.48879500937602
1375 -77.5677705072917
1376 -77.48912057354403
1377 -77.56865754369881
1378 -77.48856809191049
1379 -77.57019880022628
1380 -77.48777985661667
1381 -77.56980720991814
1382 -77.48892769624192
1383 -77.5720987916727
1384 -77.48981058746091
1385 -77.5715686523654
1386 -77.48833523032621
1387 -77.57142803751888
1388 -77.48934460736236
1389 -77.5714299228589
1390 -77.48917890574931
1391 -77.56939489245913
1392 -77.48900693542016
1393 -77.56793352671853
1394 -77.48940648837723
1395 -77.56798944343373
1396 -77.48831129001815
1397 -77.56748326426538
1398 -77.48828809774849
1399 -77.56662253688597
1400 -77.48907456547008
1401 -77.56754594019151
1402 -77.488772040146
1403 -77.56839905443174
1404 -77.48873026873062
1405 -77.56745484918248
1406 -77.48938686405847
1407 -77.56844836430696
1408 -77.49024128906288
1409 -77.56982431490697
1410 -77.48814305210377
1411 -77.56908853444507
1412 -77.49022844654928
1413 -77.57091768588599
1414 -77.48955573521044
1415 -77.57134897169325
1416 -77.48931288355699
1417 -77.57100670963592
1418 -77.49000344957362
1419 -77.57185856891415
1420 -77.48988824607886
1421 -77.57115532055624
1422 -77.49070966395495
1423 -77.57065002896191
1424 -77.49062389520984
1425 -77.57055639118893
1426 -77.4897330271052
1427 -77.57045840334831
1428 -77.48846787133272
1429 -77.56957213594559
1430 -77.49048222426508
1431 -77.57061362506195
1432 -77.49000262841383
1433 -77.5714408682573
1434 -77.4891189132081
1435 -77.5715862923896
1436 -77.48944082166713
1437 -77.57270183762347
1438 -77.49026885357739
1439 -77.5720501083306
1440 -77.49067396705146
1441 -77.57153347265066
1442 -77.49047242538572
1443 -77.57219137106071
1444 -77.49175514143582
1445 -77.57127492536783
1446 -77.49244570596406
1447 -77.57064207148414
1448 -77.49388217682647
1449 -77.57189213290171
1450 -77.49247590515739
1451 -77.57175576160668
1452 -77.49206005916861
1453 -77.57113765679591
1454 -77.49409211371231
1455 -77.57072759211965
1456 -77.49313529861666
1457 -77.57087430658737
1458 -77.49158028462098
1459 -77.57179653665257
1460 -77.49218256591934
1461 -77.57326603812352
1462 -77.49176505176416
1463 -77.57417954894211
1464 -77.49260670014273
1465 -77.57493694876264
1466 -77.49270715084829
1467 -77.57604106619122
1468 -77.49334400036231
1469 -77.57612395880855
1470 -77.49314014812003
1471 -77.57421378812451
1472 -77.4949845525753
1473 -77.57539356452141
1474 -77.49433923568157
1475 -77.57377505089052
1476 -77.49374091575065
1477 -77.57308615071219
1478 -77.4940796154272
1479 -77.5722871655453
1480 -77.49255881032708
1481 -77.57254635397909
1482 -77.49165868733543
1483 -77.57312896816273
1484 -77.49200178541311
1485 -77.57271802744285
1486 -77.49044746152157
1487 -77.5724622988743
1488 -77.49008248669558
1489 -77.57162636145701
1490 -77.49042521700308
1491 -77.57320153475624
1492 -77.49012570565918
1493 -77.57266679021176
1494 -77.49035015693508
1495 -77.57273686341721
1496 -77.49217831507573
1497 -77.57412844650074
1498 -77.49295379588794
1499 -77.57357751672758
1500 -77.4923394983873
1501 -77.57212004152883
1502 -77.49451671409243
1503 -77.57207994607352
1504 -77.49349126301907
1505 -77.57169980334896
1506 -77.4930512657518
1507 -77.57137512601453
1508 -77.4941605411656
1509 -77.57165815438756
1510 -77.49505562243056
1511 -77.57254674747324
1512 -77.49458904772351
1513 -77.57369536471809
1514 -77.49420618977425
1515 -77.57379218146698
1516 -77.49256228633743
1517 -77.5739698969963
1518 -77.49160099486549
1519 -77.57347262214108
1520 -77.49285814612605
1521 -77.57472047425213
1522 -77.4915354764628
1523 -77.5745255277006
1524 -77.49161239071525
1525 -77.57320071466694
1526 -77.49406011225612
1527 -77.57460540135462
1528 -77.49589212152247
1529 -77.57427822793116
1530 -77.4952190123963
1531 -77.57380747878216
1532 -77.49601896368944
1533 -77.5736506646185
1534 -77.49554551567246
1535 -77.57303741401607
1536 -77.49445857794015
1537 -77.57238922974268
1538 -77.49300774086333
1539 -77.57313912423848
1540 -77.49199148066637
1541 -77.57361267594239
1542 -77.49267602587119
1543 -77.57460618312651
1544 -77.49297964802625
1545 -77.57609233150905
1546 -77.49225262449721
1547 -77.5771915528442
1548 -77.49251799841014
1549 -77.57784145284415
1550 -77.49527205301389
1551 -77.57839796840315
1552 -77.49608483258172
1553 -77.57794818941233
1554 -77.49510766983738
1555 -77.57711362236697
1556 -77.49738404596015
1557 -77.57662701237381
1558 -77.49761844003783
1559 -77.57551309146524
1560 -77.4967648233954
1561 -77.57319807616409
1562 -77.49602080857343
1563 -77.57356322091829
1564 -77.49623838490065
1565 -77.57129321987611
1566 -77.49425703699121
1567 -77.57052112786535
1568 -77.49478391230922
1569 -77.57202767506891
1570 -77.49183585027708
1571 -77.57302401344265
1572 -77.49285742879923
1573 -77.57290542096518
1574 -77.49279792610861
1575 -77.57265245196002
1576 -77.49309855856282
1577 -77.57451175684523
1578 -77.49219878399548
1579 -77.57509613744284
1580 -77.49428674481899
1581 -77.57626687396478
1582 -77.49537891581912
1583 -77.57635533635766
1584 -77.4952590338128
1585 -77.57566391940466
1586 -77.49497720955938
1587 -77.57530269152775
1588 -77.49452737210855
1589 -77.57454091941293
1590 -77.49485708870284
1591 -77.57300866470266
1592 -77.49548651858142
1593 -77.57358688933198
1594 -77.49457167179449
1595 -77.57359655741
1596 -77.49395426015681
1597 -77.57367944017103
1598 -77.49459925718769
1599 -77.57532885777692
1600 -77.49337889667068
1601 -77.57549540612553
1602 -77.49193488945173
1603 -77.5760574498109
1604 -77.49283820101802
1605 -77.57614092714496
1606 -77.49321470840236
1607 -77.57602710071643
1608 -77.49291546044908
1609 -77.57510696339658
1610 -77.4941465985211
1611 -77.57618063729822
1612 -77.49325483995514
1613 -77.57541733465084
1614 -77.49333028807411
1615 -77.57445193475462
1616 -77.49532491719758
1617 -77.57609157216437
1618 -77.4955309921677
1619 -77.5750049652007
1620 -77.49509319240317
1621 -77.57425808445049
1622 -77.4961394457977
1623 -77.57475862473797
1624 -77.49726910244192
1625 -77.57557342179177
1626 -77.496074752331
1627 -77.57467549662496
1628 -77.4971806046876
1629 -77.5755621313738
1630 -77.49608309071064
1631 -77.57563927917961
1632 -77.49608226032066
1633 -77.57576436658451
1634 -77.49699449843904
1635 -77.57677890417497
1636 -77.49631979325645
1637 -77.57716377818876
1638 -77.49688431669931
1639 -77.57726098001297
1640 -77.49780612094717
1641 -77.57732879576578
1642 -77.4968051267699
1643 -77.57739671443998
1644 -77.49577919943711
1645 -77.57577528473234
1646 -77.49607510538974
1647 -77.57725458786993
1648 -77.4952017298632
1649 -77.57741602204517
1650 -77.49424076581032
1651 -77.57745759034015
1652 -77.49530878777038
1653 -77.57788541516271
1654 -77.4959322161365
1655 -77.57616232620894
1656 -77.49576738991065
1657 -77.57442864182217
1658 -77.49543204562769
1659 -77.57400333579646
1660 -77.49469895742715
1661 -77.5733704388234
1662 -77.49499490209503
1663 -77.5728368556136
1664 -77.49687468221022
1665 -77.57371088736633
1666 -77.49490841170019
1667 -77.57389663241491
1668 -77.4930917825873
1669 -77.57271390878869
1670 -77.49439850692622
1671 -77.5738840650498
1672 -77.49421896262257
1673 -77.57527151202305
1674 -77.49298991661264
1675 -77.57562351613085
1676 -77.49458501355986
1677 -77.57822880161879
1678 -77.49475577340735
1679 -77.57877199787946
1680 -77.4941327842009
1681 -77.57811552274666
1682 -77.4945084855789
1683 -77.57908470825151
1684 -77.49527773224715
1685 -77.57730379499385
1686 -77.49507738285062
1687 -77.57557375777951
1688 -77.49743740737077
1689 -77.57601892919125
1690 -77.49669062514083
1691 -77.57464037667127
1692 -77.49670460951245
1693 -77.5745758930798
1694 -77.4982905705286
1695 -77.57456556784065
1696 -77.49759356396908
1697 -77.575026203714
1698 -77.49588018460084
1699 -77.57480860258718
1700 -77.49635434563544
1701 -77.57574933480696
1702 -77.49603420270185
1703 -77.57740162868095
1704 -77.49649034291787
1705 -77.5773021625257
1706 -77.49609018487538
1707 -77.57897938336775
1708 -77.49625028300422
1709 -77.57824670974769
1710 -77.49628436140007
1711 -77.57792866375159
1712 -77.49718831058713
1713 -77.5786068515542
1714 -77.49617428916832
1715 -77.57736223553968
1716 -77.49634503624216
1717 -77.57637759207071
1718 -77.49803083953422
1719 -77.57588560083558
1720 -77.4961708506458
1721 -77.57571595118843
1722 -77.49460514118887
1723 -77.57484690153201
1724 -77.49502318191153
1725 -77.57534887228422
1726 -77.49474474884217
1727 -77.57575490445011
1728 -77.49558952323176
1729 -77.57659654008071
1730 -77.4949339956753
1731 -77.5777705856204
1732 -77.4949394421452
1733 -77.57821707226891
1734 -77.49408627184248
1735 -77.57720853576781
1736 -77.49563836087241
1737 -77.57852320910374
1738 -77.49592588457246
1739 -77.57804416292254
1740 -77.49616225789904
1741 -77.57588206492198
1742 -77.49793508265893
1743 -77.57772905450072
1744 -77.49956667666083
1745 -77.57693069558002
1746 -77.49833831353139
1747 -77.57625173990733
1748 -77.49959908215358
1749 -77.57634837722811
1750 -77.49839465353453
1751 -77.57423423318264
1752 -77.49784442388821
1753 -77.57331417206659
1754 -77.49647637959521
1755 -77.5735935941146
1756 -77.49515529824471
1757 -77.57386395879691
1758 -77.49412434052199
1759 -77.57446781233989
1760 -77.49479885653166
1761 -77.57687000511901
1762 -77.49416162056963
1763 -77.57753636399464
1764 -77.49376967248234
1765 -77.57778610286466
1766 -77.49468128601841
1767 -77.57860322747844
1768 -77.49488317191806
1769 -77.57812305062279
1770 -77.49544310982355
1771 -77.57719973005511
1772 -77.49650775385258
1773 -77.57759477682292
1774 -77.49691045195503
1775 -77.57607967291196
1776 -77.49715928485335
1777 -77.5758120298192
1778 -77.49666090875147
1779 -77.57559365226231
1780 -77.4955038215269
1781 -77.57472628311835
1782 -77.49537169310354
1783 -77.57438918047031
1784 -77.49643575029231
1785 -77.5752163892241
1786 -77.49402180089258
1787 -77.57546336173071
1788 -77.49499832706617
1789 -77.57546161591014
1790 -77.49600680692159
1791 -77.57631415527611
1792 -77.49698549793514
1793 -77.57764504340686
1794 -77.49618050252896
1795 -77.57695662423998
1796 -77.49790764195842
1797 -77.57848537135268
1798 -77.49830456676935
1799 -77.5783496976423
1800 -77.49716775623295
1801 -77.57733172141124
1802 -77.49665126899713
1803 -77.57820416692786
1804 -77.49688599942087
1805 -77.57723422058199
1806 -77.49791925657296
1807 -77.5764687994355
1808 -77.4993583934699
1809 -77.57839320439393
1810 -77.49847634573557
1811 -77.57915216127887
1812 -77.49870677538968
1813 -77.57882118284807
1814 -77.49933985900918
1815 -77.57976133916627
1816 -77.49812912634226
1817 -77.5783808147158
1818 -77.49609839529461
1819 -77.57761601978353
1820 -77.49659595386618
1821 -77.57790562949768
1822 -77.49690682341725
1823 -77.57781344441045
1824 -77.49635314434194
1825 -77.57622686032445
1826 -77.49581865456555
1827 -77.57780482007469
1828 -77.49558801279775
1829 -77.57745259643153
1830 -77.49499857498878
1831 -77.57511823885172
1832 -77.49509441200432
1833 -77.57630645810221
1834 -77.49382070425493
1835 -77.57570804302964
1836 -77.49431813998179
1837 -77.57533405508569
1838 -77.49471793401305
1839 -77.57507251590714
1840 -77.49481541767243
1841 -77.57592862301638
1842 -77.49353223861689
1843 -77.57600108226561
1844 -77.49475237667983
1845 -77.57592251566318
1846 -77.49540141324844
1847 -77.57577785438271
1848 -77.49590749278408
1849 -77.57546225188737
1850 -77.49740581699881
1851 -77.5768362585019
1852 -77.49813874180599
1853 -77.57614023833308
1854 -77.49802552361261
1855 -77.57578694651667
1856 -77.49921634316418
1857 -77.57710939758793
1858 -77.4972524299959
1859 -77.57688009111835
1860 -77.49657530377368
1861 -77.57530139822039
1862 -77.49687526463481
1863 -77.57656534241795
1864 -77.49662583076616
1865 -77.57630528173767
1866 -77.49453158735444
1867 -77.57656573580823
1868 -77.4950448103055
1869 -77.57776545204482
1870 -77.49594563725198
1871 -77.5769777909268
1872 -77.4957552650975
1873 -77.57680454943622
1874 -77.49621168708423
1875 -77.57749026638511
1876 -77.49527385164581
1877 -77.57657842768123
1878 -77.49640030156183
1879 -77.57639439381708
1880 -77.49893561122605
1881 -77.57778487914744
1882 -77.49712109127387
1883 -77.57777997664213
1884 -77.49718103031154
1885 -77.57621485704367
1886 -77.4986388849922
1887 -77.57771274298267
1888 -77.49876867352548
1889 -77.577968607486
1890 -77.49671480443318
1891 -77.5775989800625
1892 -77.49755213704483
1893 -77.57821064218942
1894 -77.49744596188818
1895 -77.57805276258193
1896 -77.49709223797981
1897 -77.57786832391996
1898 -77.49633119455291
1899 -77.57835252805542
1900 -77.4964277412825
1901 -77.57806281051027
1902 -77.49641875274591
1903 -77.5768924859705
1904 -77.49736177763661
1905 -77.5775182863409
1906 -77.4971932781841
1907 -77.57765129253892
1908 -77.49639337588359
1909 -77.57577992748905
1910 -77.49708927778079
1911 -77.57648431516451
1912 -77.49587475521356
1913 -77.57559793572774
1914 -77.49474562111122
1915 -77.57523003191704
1916 -77.49575569195798
1917 -77.57564974967586
1918 -77.49535090892105
1919 -77.57629564898544
1920 -77.49530232645706
1921 -77.57552159146233
1922 -77.49533979867832
1923 -77.57693693550956
1924 -77.4955227147548
1925 -77.57661037884598
1926 -77.49514250979412
1927 -77.57673095465643
1928 -77.49635727273588
1929 -77.57782147273359
1930 -77.49582933787752
1931 -77.57760613609172
1932 -77.49568071411363
1933 -77.57648861615498
1934 -77.49620762240147
1935 -77.57687536512564
1936 -77.49607684224543
1937 -77.57716250731914
1938 -77.49443129152799
1939 -77.57631280082208
1940 -77.49605972800842
1941 -77.57716611471356
1942 -77.49644244915054
1943 -77.57768061645983
1944 -77.49674400608666
1945 -77.57769639355288
1946 -77.49683130132624
1947 -77.57838354745175
1948 -77.49745797621613
1949 -77.57915903284103
1950 -77.49638023684244
1951 -77.57679659507191
1952 -77.4980083259955
1953 -77.5769362835518
1954 -77.49721914687161
1955 -77.57707887312807
1956 -77.49691011850844
1957 -77.57545814162515
1958 -77.49826861000236
1959 -77.57665404437313
1960 -77.49994676727155
1961 -77.57735179718932
1962 -77.49998311715601
1963 -77.57757218420554
1964 -77.50071813599189
1965 -77.57670463627777
1966 -77.49936371012092
1967 -77.57656146072648
1968 -77.49933135041078
1969 -77.57640428366363
1970 -77.49874046385125
1971 -77.57712697958561
1972 -77.49767141692278
1973 -77.57769082504261
1974 -77.49666054422227
1975 -77.57791074547997
1976 -77.49737187705607
1977 -77.58102227053625
1978 -77.49647291027604
1979 -77.58089868579444
1980 -77.49572808940603
1981 -77.58024549887607
1982 -77.49615334969047
1983 -77.57946548587242
1984 -77.49600608167974
1985 -77.5778380723894
1986 -77.49520885504923
1987 -77.57723079138177
1988 -77.49708140652388
1989 -77.57746831709926
1990 -77.49685012753238
1991 -77.5766245152232
1992 -77.49722821501837
1993 -77.57527752402893
1994 -77.4978558076785
1995 -77.57533989412894
1996 -77.49577664158686
1997 -77.57437955054648
1998 -77.49493307111545
1999 -77.57454051590629
2000 -77.49545267486971
2001 -77.57667642434308
2002 -77.49473535078556
2003 -77.57767242414425
2004 -77.49557749146115
2005 -77.57742903925006
2006 -77.49661370409541
2007 -77.57898732180409
2008 -77.49751794414324
2009 -77.58025865428574
2010 -77.49615510736609
2011 -77.57880897604346
2012 -77.49870119066512
2013 -77.58016050862409
2014 -77.49945769801391
2015 -77.57816792190381
2016 -77.49925325517282
2017 -77.57622975353767
2018 -77.49823879943466
2019 -77.57522380691664
2020 -77.49772915547894
2021 -77.57381780818264
2022 -77.49752442294931
2023 -77.57290296807167
2024 -77.49789004485565
2025 -77.57380586719169
2026 -77.49577989263186
2027 -77.57487720100498
2028 -77.49587537517303
2029 -77.57515592544337
2030 -77.4962389110909
2031 -77.57656828981189
2032 -77.49476591714556
2033 -77.57719825379142
2034 -77.49272459170294
2035 -77.5776426202507
2036 -77.49378758827963
2037 -77.57871485177373
2038 -77.49551697192373
2039 -77.57984799539538
2040 -77.49605459056203
2041 -77.58028762230896
2042 -77.49706829909793
2043 -77.58181182097596
2044 -77.49773731292856
2045 -77.58027027084712
2046 -77.49839905858694
2047 -77.57887011420381
2048 -77.49939167647939
2049 -77.57817502423612
2050 -77.49879104069352
2051 -77.57767987925754
2052 -77.49888116407841
2053 -77.5767298846846
2054 -77.49873505510583
2055 -77.576173446523
2056 -77.49827573234955
2057 -77.57759204262108
2058 -77.49664187212089
2059 -77.57715856108805
2060 -77.49768842998614
2061 -77.57790579293224
2062 -77.49652946973821
2063 -77.57806397822715
2064 -77.49605916279856
2065 -77.57643533404055
2066 -77.4958833668159
2067 -77.57860444421084
2068 -77.4970463594082
2069 -77.57824722270676
2070 -77.49814990232798
2071 -77.57766318992013
2072 -77.49979724941439
2073 -77.57907823100143
2074 -77.49900205112934
2075 -77.57788346980287
2076 -77.49756921828346
2077 -77.57528992778687
2078 -77.49817086507473
2079 -77.57556004086203
2080 -77.49719764383542
2081 -77.57539047848925
2082 -77.49577219009294
2083 -77.57459493594133
2084 -77.49504080520796
2085 -77.57471010324312
2086 -77.49509148578504
2087 -77.57508124078679
2088 -77.49526319379051
2089 -77.57530316125462
2090 -77.49594945779295
2091 -77.57706014766656
2092 -77.49551163393447
2093 -77.57758092026835
2094 -77.49566926254539
2095 -77.57678363788011
2096 -77.49685509657742
2097 -77.57924990093572
2098 -77.49593966506603
2099 -77.57867133482364
2100 -77.49482104813825
2101 -77.57730336537479
2102 -77.49581079476233
2103 -77.57801020232088
2104 -77.49671225614959
2105 -77.57652143607559
2106 -77.49533603522799
2107 -77.57726737362317
2108 -77.49542680632661
2109 -77.57797472531017
2110 -77.49542161520058
2111 -77.57769635779364
2112 -77.49614458605153
2113 -77.57856812702171
2114 -77.49644630356823
2115 -77.57696655643984
2116 -77.49644466939561
2117 -77.57640759252608
2118 -77.49591235528031
2119 -77.57460256945197
2120 -77.49864230342266
2121 -77.57611640054628
2122 -77.49793957924248
2123 -77.5756206019592
2124 -77.49787484860697
2125 -77.57457450979015
2126 -77.49847841385741
2127 -77.57543263596666
2128 -77.4987933525518
2129 -77.57664991134962
2130 -77.49789723671948
2131 -77.5769543524479
2132 -77.49792572840545
2133 -77.57801097854814
2134 -77.49785242386929
2135 -77.57830125865257
2136 -77.49657928433781
2137 -77.577662740433
2138 -77.49652231783135
2139 -77.58025859678605
2140 -77.49558265021017
2141 -77.57866366095227
2142 -77.49520183903742
2143 -77.57865552738652
2144 -77.49583121474177
2145 -77.57935802700823
2146 -77.49494002239442
2147 -77.57812397631362
2148 -77.49484727836671
2149 -77.57591136048369
2150 -77.49676515396823
2151 -77.57586409707871
2152 -77.49651098845403
2153 -77.57576506586936
2154 -77.49518081113838
2155 -77.57467449032252
2156 -77.49615949856589
2157 -77.57539871871317
2158 -77.49726694207662
2159 -77.57600585947891
2160 -77.49655288049497
2161 -77.57607309055319
2162 -77.49485714122821
2163 -77.57740392203587
2164 -77.49471191124474
2165 -77.57843602425757
2166 -77.49486268761497
2167 -77.57726421338864
2168 -77.49601217938987
2169 -77.57844068684808
2170 -77.49495192753565
2171 -77.57850712875336
2172 -77.495487614265
2173 -77.57771303132461
2174 -77.49738501251669
2175 -77.57868337162628
2176 -77.49882678630145
2177 -77.57860443332912
2178 -77.49800429996969
2179 -77.57761710838906
2180 -77.49924025818568
2181 -77.57685536316183
2182 -77.49851835215343
2183 -77.5755117563309
2184 -77.49779067292451
2185 -77.57351085658729
2186 -77.49754039420938
2187 -77.57380307733646
2188 -77.49651230190415
2189 -77.57422175854821
2190 -77.49614934418824
2191 -77.57435934348653
2192 -77.49654073755339
2193 -77.57728704792244
2194 -77.49658226835685
2195 -77.57781118700879
2196 -77.49613181784359
2197 -77.57854067535359
2198 -77.49575405793698
2199 -77.57836838195119
2200 -77.4960741745748
2201 -77.57816560818537
2202 -77.49577421041022
2203 -77.57734800856655
2204 -77.49673078153359
2205 -77.57796653220443
2206 -77.49593018805581
2207 -77.57875831962852
2208 -77.49566669802712
2209 -77.57832415558013
2210 -77.4967910895064
2211 -77.57924539280806
2212 -77.49757243921783
2213 -77.57869700845802
2214 -77.49727055177883
2215 -77.57766836478993
2216 -77.4988779712168
2217 -77.57898240423692
2218 -77.4987397336177
2219 -77.57890992483983
2220 -77.4984904724849
2221 -77.57815884272749
2222 -77.49929519546907
2223 -77.57933040168108
2224 -77.49987071441942
2225 -77.57893685779472
2226 -77.49845217209429
2227 -77.57815735361571
2228 -77.49926426195111
2229 -77.57852126963057
2230 -77.4983684569991
2231 -77.57676018683885
2232 -77.49819460296719
2233 -77.57646406925042
2234 -77.4965807944436
2235 -77.57638981839025
2236 -77.49492690421326
2237 -77.57514055297226
2238 -77.49406398193985
2239 -77.57468489800618
2240 -77.49374757890241
2241 -77.57535796500767
2242 -77.49152104478117
2243 -77.57647783992722
2244 -77.49136423831007
2245 -77.57611944203506
2246 -77.49412360001649
2247 -77.57646919002977
2248 -77.49412793412225
2249 -77.57577123975125
2250 -77.49392164448588
2251 -77.57563215776634
2252 -77.49633801692961
2253 -77.57675971394758
2254 -77.49748910037715
2255 -77.57591364135497
2256 -77.49850098974531
2257 -77.57556987647776
2258 -77.49849024687339
2259 -77.5764606825997
2260 -77.49740825062129
2261 -77.57581003583262
2262 -77.49729320355443
2263 -77.57538612736282
2264 -77.49771002339416
2265 -77.57662512453791
2266 -77.49607509391247
2267 -77.57637259305837
2268 -77.49630221296022
2269 -77.57696104127109
2270 -77.49672183777443
2271 -77.57794594464029
2272 -77.49744956649266
2273 -77.5800079013744
2274 -77.49579736142621
2275 -77.57873923841913
2276 -77.4970268148669
2277 -77.58015200205502
2278 -77.4967787591316
2279 -77.57817996498777
2280 -77.49628368636309
2281 -77.57612241788196
2282 -77.49630259519473
2283 -77.57706556384603
2284 -77.49695321003756
2285 -77.57554479150014
2286 -77.49760123421413
2287 -77.57514268102287
2288 -77.49850343231566
2289 -77.57614799678261
2290 -77.49751561132085
2291 -77.57632674317932
2292 -77.496676764882
2293 -77.57647570811913
2294 -77.49692351562513
2295 -77.57706321730139
2296 -77.49511967274404
2297 -77.57825031484805
2298 -77.49357991555716
2299 -77.57894883269682
2300 -77.49433447458861
2301 -77.57940125213037
2302 -77.49604804388206
2303 -77.58022263686568
2304 -77.49684423769007
2305 -77.58112277392702
2306 -77.49826317805531
2307 -77.5813508495424
2308 -77.49937481866932
2309 -77.58025161470714
2310 -77.49975768712031
2311 -77.57855856026788
2312 -77.50092567016256
2313 -77.57730326954247
2314 -77.49982690696827
2315 -77.57547097940586
2316 -77.49898260038469
2317 -77.57347395963058
2318 -77.49854493975087
2319 -77.57384388440867
2320 -77.49836288341469
2321 -77.574528259123
2322 -77.49684680593229
2323 -77.574521890098
2324 -77.49586563289448
2325 -77.5747064391516
2326 -77.49410610957767
2327 -77.57527824008197
2328 -77.49449595590762
2329 -77.5760469690703
2330 -77.49394352222343
2331 -77.5761038795946
2332 -77.49353146218553
2333 -77.57724518080052
2334 -77.4942045698124
2335 -77.57525852836787
2336 -77.49625348156812
2337 -77.57754654019382
2338 -77.49614092896159
2339 -77.57731908418118
2340 -77.49588229263938
2341 -77.57656116850187
2342 -77.49785972018555
2343 -77.5779800908627
2344 -77.49777656500062
2345 -77.57714926102318
2346 -77.49694928445486
2347 -77.57612835686369
2348 -77.49707591651892
2349 -77.57694394584074
2350 -77.4963654948815
2351 -77.57698930734016
2352 -77.49698057559014
2353 -77.576921546021
2354 -77.49577096640776
2355 -77.57813361920097
2356 -77.49497097716946
2357 -77.57784757135458
2358 -77.49489322648132
2359 -77.57700774992497
2360 -77.4954319617368
2361 -77.57821652444011
2362 -77.49453711824167
2363 -77.57854853465648
2364 -77.49562097216574
2365 -77.57655948775302
2366 -77.49763211018744
2367 -77.57716076497792
2368 -77.49790337739759
2369 -77.57682614011003
2370 -77.49652903188911
2371 -77.57622159117828
2372 -77.49681734728163
2373 -77.57684572941996
2374 -77.49847389352782
2375 -77.57641900397861
2376 -77.49897869537259
2377 -77.57795404677209
2378 -77.49903723981399
2379 -77.57867354667889
2380 -77.49775389991449
2381 -77.57922117340932
2382 -77.49782321132913
2383 -77.57770655896078
2384 -77.499299325837
2385 -77.57836492218237
2386 -77.49721148335291
2387 -77.57823275193856
2388 -77.49803444621283
2389 -77.577199991367
2390 -77.49933012035407
2391 -77.57813671157271
2392 -77.500166920103
2393 -77.57922567406285
2394 -77.49917917579921
2395 -77.57895046845601
2396 -77.49926483224561
2397 -77.57842644205033
2398 -77.49873614945939
2399 -77.57719082872482
2400 -77.49681265532558
2401 -77.57457939065876
2402 -77.49583810929103
2403 -77.57594289900069
2404 -77.49485090140958
2405 -77.57633146637541
2406 -77.49527550680878
2407 -77.5771319634205
2408 -77.49666733300964
2409 -77.579560870845
2410 -77.49556161603921
2411 -77.57823695328375
2412 -77.49485903307935
2413 -77.57713094910385
2414 -77.49574091391798
2415 -77.57613884648744
2416 -77.49541722180015
2417 -77.57673602576433
2418 -77.49535212423471
2419 -77.57593849411022
2420 -77.49679433798948
2421 -77.57646261511375
2422 -77.49605561232647
2423 -77.5760600163869
2424 -77.49661248974188
2425 -77.57539035378494
2426 -77.49662184276968
2427 -77.57675713415276
2428 -77.49699241178419
2429 -77.57603735624869
2430 -77.49723113929281
2431 -77.57590194992207
2432 -77.49816162303291
2433 -77.57673014168915
2434 -77.4961720265144
2435 -77.57586097659433
2436 -77.49601634106705
2437 -77.57509460167476
2438 -77.49658473842074
2439 -77.57599451967785
2440 -77.49676714763166
2441 -77.57644753211721
2442 -77.49558747408122
2443 -77.57644860465317
2444 -77.4963683609495
2445 -77.5759547943066
2446 -77.49594147769213
2447 -77.57414359436454
2448 -77.49531897920107
2449 -77.57460585736888
2450 -77.49534901337886
2451 -77.57550615929354
2452 -77.49543914070063
2453 -77.57591913504821
2454 -77.49558194362579
2455 -77.57579084642835
2456 -77.49735691903544
2457 -77.57833253405659
2458 -77.49686458032545
2459 -77.57895926701933
2460 -77.49650807808982
2461 -77.57939175667649
2462 -77.49811899622505
2463 -77.58078740312992
2464 -77.49780510144029
2465 -77.58130878810628
2466 -77.49639729468701
2467 -77.58118182707739
2468 -77.49677904479051
2469 -77.57988516381134
2470 -77.49732264112473
2471 -77.57993051621143
2472 -77.49658042189806
2473 -77.57877004378797
2474 -77.49718580761429
2475 -77.57896464910493
2476 -77.4966737085462
2477 -77.57785919879443
2478 -77.49577788916253
2479 -77.57537546904324
2480 -77.49697997630184
2481 -77.57494160317809
2482 -77.49509012154014
2483 -77.57436717772654
2484 -77.49493500646625
2485 -77.57325774969861
2486 -77.49708890245743
2487 -77.57459953677598
2488 -77.4979959531303
2489 -77.57567997115306
2490 -77.49639898388102
2491 -77.57528353922071
2492 -77.49816896469373
2493 -77.57634507917986
2494 -77.49708584405879
2495 -77.57628043911569
2496 -77.49777439751264
2497 -77.57622817355093
2498 -77.49732183557448
2499 -77.57591071464618
2500 -77.49837049415432
2501 -77.57629180713312
2502 -77.49807351312977
2503 -77.57705856057872
2504 -77.49892805819427
2505 -77.57813126109581
2506 -77.49685400913978
2507 -77.5784683008856
2508 -77.49634276109478
2509 -77.57796559307585
2510 -77.49671635845576
2511 -77.57741194982616
2512 -77.49535483730506
2513 -77.57763632658541
2514 -77.49424615363714
2515 -77.57714174201193
2516 -77.49537554807047
2517 -77.57840218297981
2518 -77.49603618153384
2519 -77.5780016319485
2520 -77.49532673297281
2521 -77.57697773112577
2522 -77.49610501576342
2523 -77.57799346263641
2524 -77.4952526288323
2525 -77.57623547563573
2526 -77.49455239824459
2527 -77.57525275661335
2528 -77.49502105028539
2529 -77.5763264945962
2530 -77.49423193051429
2531 -77.5761872832655
2532 -77.49469138362053
2533 -77.57535012495855
2534 -77.49581257797351
2535 -77.57622393932056
2536 -77.49642657786906
2537 -77.57695982241631
2538 -77.4952840755612
2539 -77.57716391190257
2540 -77.49704451011353
2541 -77.57800596087677
2542 -77.49664589253909
2543 -77.57760512958032
2544 -77.49771945528883
2545 -77.5773224356863
2546 -77.49911597707597
2547 -77.57790451623148
2548 -77.50016420153202
2549 -77.57899346033801
2550 -77.50118595505936
2551 -77.57772484513231
2552 -77.50254492700553
2553 -77.57912113600722
2554 -77.50225722745907
2555 -77.57917970700569
2556 -77.5001440150878
2557 -77.57713985650466
2558 -77.49924502523695
2559 -77.57665972579584
2560 -77.49763682917026
2561 -77.57702950880532
2562 -77.4959421888674
2563 -77.57646632301193
2564 -77.49471895386607
2565 -77.57557745525766
2566 -77.49448017110622
2567 -77.57615428815743
2568 -77.49453530746025
2569 -77.57672357911343
2570 -77.49367036828228
2571 -77.57792810627008
2572 -77.49368110892904
2573 -77.57802717208604
2574 -77.49412540038482
2575 -77.57699685418285
2576 -77.49517922020321
2577 -77.57751156385962
2578 -77.49448059184465
2579 -77.57772542364474
2580 -77.49503916009854
2581 -77.57577900622576
2582 -77.49819282477881
2583 -77.57706890746826
2584 -77.49779395075481
2585 -77.57709960560835
2586 -77.497612949889
2587 -77.57642072658517
2588 -77.49851132628061
2589 -77.57647761342798
2590 -77.49840759924854
2591 -77.57642209853526
2592 -77.49794621690361
2593 -77.57725359700967
2594 -77.49641307143865
2595 -77.57723909013531
2596 -77.49678907804184
2597 -77.57833455649919
2598 -77.4959733728073
2599 -77.5773099787631
2600 -77.49725264795535
2601 -77.57886802209464
2602 -77.49565602822707
2603 -77.57901374944447
2604 -77.49551138242838
2605 -77.57719778508239
2606 -77.4977401208693
2607 -77.57874456264902
2608 -77.4992698228986
2609 -77.57702979444512
2610 -77.49716137363147
2611 -77.57610402834314
2612 -77.49907228221925
2613 -77.57555428312196
2614 -77.49889861053005
2615 -77.57500807929149
2616 -77.49862354166883
2617 -77.57391091847477
2618 -77.49720018045934
2619 -77.57517825235824
2620 -77.49683191387622
2621 -77.57529081008968
2622 -77.49581024618257
2623 -77.57530588796649
2624 -77.49548632293029
2625 -77.57755077954587
2626 -77.49444648988928
2627 -77.5783316896087
2628 -77.49471985976824
2629 -77.57905562509345
2630 -77.4960849917357
2631 -77.57907176752967
2632 -77.49568700683442
2633 -77.57991714867164
2634 -77.49608761158434
2635 -77.57967115222496
2636 -77.49772577299782
2637 -77.5796918090725
2638 -77.4978654021745
2639 -77.57916584950956
2640 -77.4968753526807
2641 -77.57711620568655
2642 -77.49683035956991
2643 -77.57681969008794
2644 -77.49686779504738
2645 -77.57507155085608
2646 -77.49673658060502
2647 -77.57369641527744
2648 -77.49757741425729
2649 -77.57498270737686
2650 -77.4963469854498
2651 -77.57519796551851
2652 -77.49643206196502
2653 -77.57452050932524
2654 -77.49650834645351
2655 -77.57514263628735
2656 -77.49611023487626
2657 -77.57666855238409
2658 -77.4954262601251
2659 -77.57676386218384
2660 -77.49609138908571
2661 -77.57754654394139
2662 -77.49685866698697
2663 -77.57822151175327
2664 -77.49693593939917
2665 -77.5765597625722
2666 -77.49726814438084
2667 -77.57840996651635
2668 -77.49658907398813
2669 -77.57801503115699
2670 -77.49706418881894
2671 -77.57724960096084
2672 -77.49898807708776
2673 -77.57901549755103
2674 -77.4975973991769
2675 -77.57866305528744
2676 -77.49669159626602
2677 -77.57739101748834
2678 -77.49636329682595
2679 -77.57811718276876
2680 -77.49669195512585
2681 -77.57737749749805
2682 -77.49496355751835
2683 -77.57696361131941
2684 -77.49505089420208
2685 -77.57687398075758
2686 -77.4953335638814
2687 -77.57626742339519
2688 -77.49575995088291
2689 -77.57567320675872
2690 -77.49585733496966
2691 -77.57630226329077
2692 -77.49464077710809
2693 -77.57560509420868
2694 -77.49564422072558
2695 -77.57396676848332
2696 -77.49665847558315
2697 -77.57436995385162
2698 -77.49625187702479
2699 -77.57444181669563
2700 -77.49605260361355
2701 -77.57435767253725
2702 -77.49684865375146
2703 -77.57648219827522
2704 -77.49741820188012
2705 -77.57869836108523
2706 -77.49706708633099
2707 -77.57840079356639
2708 -77.49819520157315
2709 -77.57919219298228
2710 -77.49787106808971
2711 -77.57878505853363
2712 -77.49763598672452
2713 -77.5776618504636
2714 -77.49840192291524
2715 -77.57898809492858
2716 -77.4989704474463
2717 -77.5795545819952
2718 -77.49909684242395
2719 -77.5789305353521
2720 -77.49986213068404
2721 -77.57897418552641
2722 -77.49734249980165
2723 -77.57880023529634
2724 -77.49672255484336
2725 -77.57618526606858
2726 -77.49701317255625
2727 -77.57696569893233
2728 -77.4960099707527
2729 -77.57744232261147
2730 -77.49434272904421
2731 -77.57615500670281
2732 -77.49546075337238
2733 -77.57749149915584
2734 -77.49623706460305
2735 -77.57751531344289
2736 -77.49595820495385
2737 -77.5775636376643
2738 -77.49624202716889
2739 -77.5779661598323
2740 -77.49652698323602
2741 -77.57820858032278
2742 -77.49760689960868
2743 -77.57631377930548
2744 -77.49835454945442
2745 -77.57746993257639
2746 -77.49676645101063
2747 -77.57665028344466
2748 -77.49663277935993
2749 -77.57562998483698
2750 -77.49833023729293
2751 -77.57693811010161
2752 -77.49855412342943
2753 -77.57736105484906
2754 -77.4969899151951
2755 -77.57694438254487
2756 -77.49738032281769
2757 -77.57790040207426
2758 -77.49602763500661
2759 -77.57719500492905
2760 -77.49618580712176
2761 -77.57669610013423
2762 -77.49479444806524
2763 -77.57599004588108
2764 -77.49436296711247
2765 -77.57559379392808
2766 -77.49454074732289
2767 -77.57451658880406
2768 -77.49558266245226
2769 -77.5758580644741
2770 -77.49445234102653
2771 -77.57557297466636
2772 -77.49517431760574
2773 -77.57533442651112
2774 -77.49699308884519
2775 -77.5745149575592
2776 -77.49592739090525
2777 -77.5741685126423
2778 -77.49523742527892
2779 -77.57364031808473
2780 -77.49616525964147
2781 -77.57527300156868
2782 -77.49618857721332
2783 -77.57699206536587
2784 -77.49663550589874
2785 -77.57752331521638
2786 -77.49697510731728
2787 -77.58037441244706
2788 -77.49655185889536
2789 -77.57934698918993
2790 -77.49518728233454
2791 -77.57849963674418
2792 -77.49704291539349
2793 -77.57960184929101
2794 -77.49677103541664
2795 -77.5790328566009
2796 -77.49717504647268
2797 -77.5784757290904
2798 -77.49851580235128
2799 -77.57861351536941
2800 -77.49857450143963
2801 -77.57950541691119
2802 -77.49860346420593
2803 -77.57851021399269
2804 -77.49937446705133
2805 -77.57867716793126
2806 -77.49923959625019
2807 -77.57663519964875
2808 -77.49899607938025
2809 -77.57686176075779
2810 -77.49856624401995
2811 -77.57711994350655
2812 -77.4979817448058
2813 -77.57847705272773
2814 -77.49734263709891
2815 -77.57757506762725
2816 -77.49919700778153
2817 -77.57929771295306
2818 -77.49713588155686
2819 -77.57923430028988
2820 -77.49615608344889
2821 -77.5766119312454
2822 -77.4974401032254
2823 -77.57748848043049
2824 -77.49731739502349
2825 -77.57685547681551
2826 -77.49645887478407
2827 -77.57639945266374
2828 -77.49637810423366
2829 -77.57537742608142
2830 -77.49699353472246
2831 -77.57577756332003
2832 -77.49734962476506
2833 -77.57494567454951
2834 -77.49630416228256
2835 -77.57573937376921
2836 -77.49447367323694
2837 -77.57561592185293
2838 -77.49356054603632
2839 -77.57549879073672
2840 -77.49464969916211
2841 -77.57770862054215
2842 -77.49411810032011
2843 -77.57741078533573
2844 -77.49494574205895
2845 -77.57726075960922
2846 -77.49695624369913
2847 -77.57847131742611
2848 -77.49746035878411
2849 -77.57907679244427
2850 -77.49679181500731
2851 -77.57770933789618
2852 -77.49883865621032
2853 -77.57807520089655
2854 -77.49726154005695
2855 -77.57683423591351
2856 -77.49614179129152
2857 -77.57590129971351
2858 -77.49527879738002
2859 -77.57643554408305
2860 -77.49509956407555
2861 -77.57615173089908
2862 -77.49570333136253
2863 -77.57567534677467
2864 -77.49594612354232
2865 -77.5774412794409
2866 -77.4947436655882
2867 -77.57732683513593
2868 -77.49598712958519
2869 -77.57667503151232
2870 -77.49699588306366
2871 -77.57771034940541
2872 -77.4976682290862
2873 -77.57915560658404
2874 -77.49746517345858
2875 -77.57724704821256
2876 -77.49891208701601
2877 -77.57824270504585
2878 -77.49972813819379
2879 -77.57704421561508
2880 -77.49918009977839
2881 -77.57644160144463
2882 -77.49987595839659
2883 -77.57708564248884
2884 -77.49962188406681
2885 -77.5766667264965
2886 -77.4987160399895
2887 -77.57559841579828
2888 -77.49828055790623
2889 -77.57660250932776
2890 -77.4950210943975
2891 -77.57738526166969
2892 -77.49522931457847
2893 -77.57790025553069
2894 -77.49519676939931
2895 -77.5783704693408
2896 -77.49568332501578
2897 -77.57952546071265
2898 -77.49410997707403
2899 -77.57928047384877
2900 -77.49637961964183
2901 -77.58000052064816
2902 -77.49667687386636
2903 -77.57987649303639
2904 -77.49767726709348
2905 -77.57847656184346
2906 -77.49855946736207
2907 -77.57840218851562
2908 -77.4977400117502
2909 -77.57677260801138
2910 -77.49679369882004
2911 -77.57443747201194
2912 -77.49762839518516
2913 -77.57465099699836
2914 -77.49662922169669
2915 -77.57386490193717
2916 -77.49636171213413
2917 -77.57391538612069
2918 -77.4962153931028
2919 -77.57559222263997
2920 -77.49611268511477
2921 -77.57751238797736
2922 -77.49417764255537
2923 -77.57744901901097
2924 -77.49589856710354
2925 -77.57884263988755
2926 -77.49507578818155
2927 -77.57883613534287
2928 -77.49612940255173
2929 -77.57800461747505
2930 -77.49713571619002
2931 -77.57839836510898
2932 -77.49780057930711
2933 -77.57855199448809
2934 -77.49877032494835
2935 -77.57757305976489
2936 -77.49995916344365
2937 -77.57854408801913
2938 -77.49835377336035
2939 -77.57729546914555
2940 -77.49793204370052
2941 -77.5742864493569
2942 -77.4966813352207
2943 -77.57410220293765
2944 -77.4960560185523
2945 -77.57453835181252
2946 -77.49486158995906
2947 -77.57437479581658
2948 -77.49449513398491
2949 -77.57616894454526
2950 -77.49458904850658
2951 -77.57640963033327
2952 -77.49531908635004
2953 -77.57756795607212
2954 -77.49570002552747
2955 -77.57860400653531
2956 -77.49499249146299
2957 -77.57735604311124
2958 -77.49582042644616
2959 -77.57718844121599
2960 -77.49729500840562
2961 -77.57777631531432
2962 -77.49564322615198
2963 -77.57775743339873
2964 -77.49645681677008
2965 -77.57748778957308
2966 -77.49721850963576
2967 -77.57964761148752
2968 -77.49811810210051
2969 -77.57960638522229
2970 -77.49753491105315
2971 -77.57963938150179
2972 -77.49868920159106
2973 -77.5794103553832
2974 -77.49707822382389
2975 -77.5778075218805
2976 -77.49790399777528
2977 -77.57665791657443
2978 -77.49668199305948
2979 -77.57608302714871
2980 -77.49606870602493
2981 -77.57671702244345
2982 -77.49630580991369
2983 -77.57586704924839
2984 -77.49865785950395
2985 -77.57714925099344
2986 -77.49702479381392
2987 -77.57673980942374
2988 -77.49671978903393
2989 -77.57612251268468
2990 -77.49749651371887
2991 -77.57556668836322
2992 -77.4964416096098
2993 -77.57572509065795
2994 -77.49475186043975
2995 -77.57448991176531
2996 -77.49524432118712
2997 -77.57519221393662
2998 -77.49525864303553
2999 -77.57645061647713
3000 -77.49479539588469
3001 -77.57632987670475
3002 -77.49525833658235
3003 -77.57845300431651
3004 -77.49559693383287
3005 -77.57775921398043
3006 -77.49577432428134
3007 -77.57702050897139
3008 -77.49694567660536
3009 -77.57615674422723
3010 -77.49486200242087
3011 -77.57577992094845
3012 -77.49569217272366
3013 -77.57573015083135
3014 -77.49833598904389
3015 -77.57664274040241
3016 -77.49807707545312
3017 -77.57744677196256
3018 -77.49758875584126
3019 -77.57725417233527
3020 -77.49770286197463
3021 -77.57721009396364
3022 -77.49579058336259
3023 -77.57640883855781
3024 -77.49572577253707
3025 -77.57680611203712
3026 -77.49425669006644
3027 -77.57724533398408
3028 -77.49493488020224
3029 -77.5777416446567
3030 -77.49530463376193
3031 -77.5775415263375
3032 -77.49745839184619
3033 -77.57830002572251
3034 -77.49498000762763
3035 -77.57708198997773
3036 -77.49619162090245
3037 -77.57647422320697
3038 -77.49770042667113
3039 -77.57593484115812
3040 -77.49783522968346
3041 -77.57651073801136
3042 -77.49718312917115
3043 -77.57774370635406
3044 -77.49909576562966
3045 -77.5771785440276
3046 -77.49761529050994
3047 -77.57742973308704
3048 -77.4989636390234
3049 -77.57770127679224
3050 -77.49898652899199
3051 -77.57859328133334
3052 -77.49775982570215
3053 -77.57939954677586
3054 -77.49728147510014
3055 -77.57895542026375
3056 -77.49807744622848
3057 -77.58065794982575
3058 -77.4966478227892
3059 -77.57912381337754
3060 -77.49658119614644
3061 -77.57830807999686
3062 -77.49755213003849
3063 -77.5785775932459
3064 -77.49738768019812
3065 -77.57846905725013
3066 -77.49677966408744
3067 -77.57755695966689
3068 -77.49823604014891
3069 -77.57760239128896
3070 -77.49758525691668
3071 -77.57608093012247
3072 -77.49671838077083
3073 -77.57442131668162
3074 -77.49663570008468
3075 -77.57494540540438
3076 -77.4961081100554
3077 -77.57420623126774
3078 -77.49585056162908
3079 -77.57526834752962
3080 -77.49755703475483
3081 -77.5784668969156
3082 -77.49641796104996
3083 -77.57895217556297
3084 -77.49684724990367
3085 -77.57884939861594
3086 -77.49685664119238
3087 -77.57904545318713
3088 -77.49666561335026
3089 -77.57922055088002
3090 -77.49586920349799
3091 -77.57797559772624
3092 -77.49751901569707
3093 -77.57795478012605
3094 -77.49669985066912
3095 -77.57668626905506
3096 -77.49760453612416
3097 -77.57645496847836
3098 -77.49602508424789
3099 -77.57593219660809
3100 -77.4944479248736
3101 -77.57472637111795
3102 -77.49424090098954
3103 -77.57458636410293
3104 -77.49528612686123
3105 -77.57407016253808
3106 -77.49400025422571
3107 -77.57489204494422
3108 -77.4951317720722
3109 -77.57526375486441
3110 -77.49722268375996
3111 -77.57679023758371
3112 -77.49793298547169
3113 -77.57823305824108
3114 -77.49697398287383
3115 -77.57771368038789
3116 -77.49862782801607
3117 -77.57872444591847
3118 -77.49821860350855
3119 -77.57792168085308
3120 -77.49849122845427
3121 -77.57798410111913
3122 -77.4992435966555
3123 -77.57801775112296
3124 -77.49745482398441
3125 -77.57702915782258
3126 -77.49768383076757
3127 -77.57561570122097
3128 -77.49811270897926
3129 -77.57646554549773
3130 -77.49670092915974
3131 -77.57716047781683
3132 -77.495921167578
3133 -77.57763675659342
3134 -77.49679000372907
3135 -77.5790960543347
3136 -77.49705447305664
3137 -77.57978131279471
3138 -77.49522334890877
3139 -77.57884846099036
3140 -77.49788494933111
3141 -77.57922487299921
3142 -77.49727777562236
3143 -77.57901564255367
3144 -77.49815771918998
3145 -77.57813052577887
3146 -77.49878546946054
3147 -77.57986908728341
3148 -77.49961017318543
3149 -77.57876605986215
3150 -77.49881850203805
3151 -77.57726973479456
3152 -77.49879546756712
3153 -77.57753068492929
3154 -77.49594110624673
3155 -77.57636099388145
3156 -77.49594036225612
3157 -77.57524334777098
3158 -77.49569603197799
3159 -77.57535055409399
3160 -77.49502014721031
3161 -77.57558056944842
3162 -77.4934862288757
3163 -77.57659625278896
3164 -77.49428934228669
3165 -77.57686672350167
3166 -77.49524621243462
3167 -77.57687887068091
3168 -77.49541912545293
3169 -77.57758077870004
3170 -77.49673379166022
3171 -77.57749071571902
3172 -77.49756952422366
3173 -77.57714064390285
3174 -77.49763646861008
3175 -77.57603640785203
3176 -77.50018980824944
3177 -77.5776004172196
3178 -77.49896346568944
3179 -77.5775232667358
3180 -77.49834702033132
3181 -77.57607084957827
3182 -77.49914760644705
3183 -77.57671034397652
3184 -77.49843055963323
3185 -77.5761538134594
3186 -77.49611874094745
3187 -77.57581860604762
3188 -77.4959413582294
3189 -77.57642548124804
3190 -77.49426018297278
3191 -77.57616100808019
3192 -77.493540154759
3193 -77.57617820031352
3194 -77.49333297612105
3195 -77.57674101281893
3196 -77.49249336867734
3197 -77.57797527278348
3198 -77.49329051423696
3199 -77.57833650691062
3200 -77.49659592324667
3201 -77.58062070125948
3202 -77.49717310936458
3203 -77.57947651557966
3204 -77.49784275412465
3205 -77.57770215926317
3206 -77.4986161908804
3207 -77.57752846663824
3208 -77.49863988290775
3209 -77.57694612234772
3210 -77.4971419657489
3211 -77.57567758554143
3212 -77.49791903925326
3213 -77.57601516504782
3214 -77.49720732836381
3215 -77.57623830925439
3216 -77.49714437616221
3217 -77.57624060478597
3218 -77.49635189433349
3219 -77.57723239366334
3220 -77.49484730070299
3221 -77.57692105360009
3222 -77.49461210543591
3223 -77.57768100596807
3224 -77.49657093520001
3225 -77.57747105404725
3226 -77.49555122229643
3227 -77.57838872243302
3228 -77.49613048501051
3229 -77.57753303108285
3230 -77.49822980476839
3231 -77.57843847091704
3232 -77.49916971426214
3233 -77.57935869557348
3234 -77.49875631517531
3235 -77.57749343536449
3236 -77.49987695270387
3237 -77.57736725715152
3238 -77.4990851463556
3239 -77.57561744170221
3240 -77.49857478026718
3241 -77.57539685569346
3242 -77.49757726095558
3243 -77.5754291534728
3244 -77.4965631882188
3245 -77.57635166583201
3246 -77.4965351555005
3247 -77.57574616842456
3248 -77.49769225376835
3249 -77.57734251061623
3250 -77.49558016051749
3251 -77.57764127162305
3252 -77.4948871698107
3253 -77.57662622008651
3254 -77.49575235574311
3255 -77.57787692807582
3256 -77.49624526611132
3257 -77.57878496297123
3258 -77.4949257034081
3259 -77.57830494246207
3260 -77.49578050406609
3261 -77.57843931749304
3262 -77.49536615867632
3263 -77.57886913711256
3264 -77.49648371011718
3265 -77.57714164342521
3266 -77.49587890775005
3267 -77.57751213134313
3268 -77.49616699371855
3269 -77.5773075919971
3270 -77.49605364793267
3271 -77.57474513916557
3272 -77.49657453750198
3273 -77.57573188597357
3274 -77.49518474153412
3275 -77.57508934860418
3276 -77.49572573427552
3277 -77.57492963977803
3278 -77.49769011737173
3279 -77.57549353399037
3280 -77.4974351145169
3281 -77.57671748486385
3282 -77.49595135509901
3283 -77.5761210309382
3284 -77.49682280545373
3285 -77.57593842472791
3286 -77.49538194727526
3287 -77.57605601456142
3288 -77.4955481720279
3289 -77.57638204226448
3290 -77.49605008191709
3291 -77.57758948639768
3292 -77.49661430534518
3293 -77.57746404822365
3294 -77.49617285186331
3295 -77.57710232552793
3296 -77.49782800925411
3297 -77.57957191491904
3298 -77.49603196042115
3299 -77.57949732578959
3300 -77.49702457746906
3301 -77.57888631531515
3302 -77.49829313043826
3303 -77.5786963662989
3304 -77.49839407823285
3305 -77.57841577404884
3306 -77.49748580713862
3307 -77.57719679566706
3308 -77.49917440011022
3309 -77.57709385914086
3310 -77.49951410445649
3311 -77.5771096230887
3312 -77.49916418376071
3313 -77.57742321424092
3314 -77.49889399760684
3315 -77.57819208528136
3316 -77.49755401938489
3317 -77.5776225595731
3318 -77.49602996011564
3319 -77.57652936503395
3320 -77.49622978953376
3321 -77.5779613751213
3322 -77.49458394940291
3323 -77.57871674920345
3324 -77.49462733282272
3325 -77.57804895785313
3326 -77.49586790834793
3327 -77.57950797953548
3328 -77.49581113717701
3329 -77.57956506917563
3330 -77.49459366061399
3331 -77.57783051347242
3332 -77.49485635148855
3333 -77.57768470379006
3334 -77.49521074243478
3335 -77.57506426606807
3336 -77.49600642094168
3337 -77.57395138374112
3338 -77.49627183150801
3339 -77.57346978120461
3340 -77.49641740463291
3341 -77.57398537390574
3342 -77.49744332737973
3343 -77.57393829771001
3344 -77.49954415204579
3345 -77.57512704083243
3346 -77.49812940205662
3347 -77.5755765078445
3348 -77.49777923373045
3349 -77.57631616081892
3350 -77.49713829804929
3351 -77.57771144382073
3352 -77.49747220444884
3353 -77.57961503031693
3354 -77.49571965002598
3355 -77.57948146128282
3356 -77.49742104487792
3357 -77.58000441669907
3358 -77.49631271234895
3359 -77.57928979616693
3360 -77.49717574564873
3361 -77.57848661761597
3362 -77.49672380516301
3363 -77.5788398370405
3364 -77.49715390083533
3365 -77.57733283598589
3366 -77.49758178169633
3367 -77.57652717021945
3368 -77.49899808432555
3369 -77.57649124701386
3370 -77.49729562348405
3371 -77.57504663476765
3372 -77.49695613679251
3373 -77.57449324112869
3374 -77.49737741643709
3375 -77.57502158151711
3376 -77.49666483099654
3377 -77.57584761585665
3378 -77.49560486032766
3379 -77.57704946420999
3380 -77.49634785910884
3381 -77.57916299724539
3382 -77.49603307883014
3383 -77.57902160101523
3384 -77.49649688928496
3385 -77.57951706832756
3386 -77.49628395875996
3387 -77.58072678788513
3388 -77.49623038363373
3389 -77.5798864515766
3390 -77.49754637717309
3391 -77.57901295317376
3392 -77.49944147859344
3393 -77.57930841855448
3394 -77.49666844278187
3395 -77.57841992199219
3396 -77.49661544758041
3397 -77.57596148708613
3398 -77.49694525302534
3399 -77.57680192577962
3400 -77.49736049139079
3401 -77.57563529800643
3402 -77.49625059423114
3403 -77.57512365165314
3404 -77.49726631149488
3405 -77.57585830775335
3406 -77.49559726651071
3407 -77.5759895713055
3408 -77.49619252824773
3409 -77.57597260647383
3410 -77.4950122455988
3411 -77.57681154844003
3412 -77.49521354384707
3413 -77.57747968364687
3414 -77.49592965079758
3415 -77.57612904335741
3416 -77.49718292798568
3417 -77.57809359995991
3418 -77.49656368395362
3419 -77.5767200011838
3420 -77.49733381484587
3421 -77.57628714080944
3422 -77.49818150425817
3423 -77.57580264163806
3424 -77.49805432762354
3425 -77.57629520384833
3426 -77.49836540387118
3427 -77.57583416748825
3428 -77.49841582906811
3429 -77.57661554727731
3430 -77.49709700942269
3431 -77.57717431383165
3432 -77.49728438567011
3433 -77.57782239102201
3434 -77.49711048033748
3435 -77.57849022300421
3436 -77.49539873627681
3437 -77.57837869056917
3438 -77.49433432577521
3439 -77.57823894093565
3440 -77.49583670362922
3441 -77.57893235307915
3442 -77.49460948963376
3443 -77.57901200559704
3444 -77.49619684533339
3445 -77.57716661486955
3446 -77.49694153445293
3447 -77.57728229289992
3448 -77.49723967803195
3449 -77.57698231974736
3450 -77.49544213537136
3451 -77.57430581270555
3452 -77.49526283378459
3453 -77.57403787650956
3454 -77.49530372090393
3455 -77.57312647967747
3456 -77.49513495922153
3457 -77.57238312320514
3458 -77.49500070535491
3459 -77.57432769045269
3460 -77.49471162167514
3461 -77.5760110844317
3462 -77.49462775863906
3463 -77.57676675390429
3464 -77.49728881384117
3465 -77.57994554433117
3466 -77.49689811577818
3467 -77.57978892104038
3468 -77.49779034260901
3469 -77.57931908173323
3470 -77.4994082015607
3471 -77.57983382641143
3472 -77.50032122618444
3473 -77.58041620288606
3474 -77.49988602318815
3475 -77.5787606259109
3476 -77.50067441774347
3477 -77.57898433604981
3478 -77.49965081152675
3479 -77.57798526502305
3480 -77.49918297380631
3481 -77.57638040833413
3482 -77.49788400934604
3483 -77.5766604543132
3484 -77.49598503064252
3485 -77.57633463046545
3486 -77.49581292771259
3487 -77.57555619125085
3488 -77.49573082354749
3489 -77.57601025726387
3490 -77.49429757075274
3491 -77.57515438313695
3492 -77.49319999544805
3493 -77.57534511185402
3494 -77.49483846005947
3495 -77.57677206312066
3496 -77.49455352020443
3497 -77.57781067851549
3498 -77.49453100811326
3499 -77.57830969754473
3500 -77.49627375801181
3501 -77.57878900890822
3502 -77.49537704348754
3503 -77.57825559367393
3504 -77.49557833412435
3505 -77.5776490074019
3506 -77.49654542801802
3507 -77.57789425429331
3508 -77.49736068656388
3509 -77.57770656507766
3510 -77.49715705812558
3511 -77.57628214703836
3512 -77.49862328494369
3513 -77.57763638522303
3514 -77.49679887727389
3515 -77.57658510013886
3516 -77.49666798043825
3517 -77.5757788262935
3518 -77.49647325115212
3519 -77.57486863813565
3520 -77.49633193467865
3521 -77.57592775049149
3522 -77.49425606169866
3523 -77.57565429168959
3524 -77.4967689817996
3525 -77.57571979016265
3526 -77.49644839569692
3527 -77.5768236173525
3528 -77.49627325957212
3529 -77.57638736865391
3530 -77.49674180050171
3531 -77.57702263538812
3532 -77.49613460499984
3533 -77.57678741793406
3534 -77.49576529839482
3535 -77.57493095482403
3536 -77.49672606569239
3537 -77.57682129454639
3538 -77.49568897771989
3539 -77.57708905871914
3540 -77.49701809749023
3541 -77.57741728430484
3542 -77.49736314649456
3543 -77.57891476256664
3544 -77.49879491371843
3545 -77.57963887567381
3546 -77.49827113894861
3547 -77.57935410129161
3548 -77.49880663361159
3549 -77.57903720115728
3550 -77.4982029718492
3551 -77.57844053384576
3552 -77.49895082047958
3553 -77.57827348748711
3554 -77.49868256029907
3555 -77.57842717092572
3556 -77.49817889249947
3557 -77.57813400699908
3558 -77.49768926075924
3559 -77.57844013298532
3560 -77.49840216994983
3561 -77.57937085987679
3562 -77.49614127982241
3563 -77.57930110108009
3564 -77.49677752519808
3565 -77.57909350019146
3566 -77.497232415509
3567 -77.57816671247555
3568 -77.49722397437712
3569 -77.57802365198599
3570 -77.49575783497491
3571 -77.57680566982872
3572 -77.497118953263
3573 -77.57723534392184
3574 -77.49677796941647
3575 -77.57695879557967
3576 -77.49817257681579
3577 -77.57641296136144
3578 -77.49817626187536
3579 -77.5768636024619
3580 -77.49805360366291
3581 -77.57554486300866
3582 -77.49720104060579
3583 -77.57577881940496
3584 -77.4980673009553
3585 -77.57687059144838
3586 -77.49640741027287
3587 -77.57607660032473
3588 -77.49660575575329
3589 -77.57582466846289
3590 -77.4976199299159
3591 -77.57771645780942
3592 -77.49684717899024
3593 -77.57955164419184
3594 -77.49636886952409
3595 -77.5797535601971
3596 -77.49679428524738
3597 -77.58140898584884
3598 -77.49686425961848
3599 -77.57946491321104
3600 -77.49638086733991
3601 -77.57780083253161
3602 -77.49648725331033
3603 -77.57817436046641
3604 -77.49646108137458
3605 -77.5758897731374
3606 -77.4959752693408
3607 -77.57439669511331
3608 -77.4973073764406
3609 -77.57444184671188
3610 -77.49517629514617
3611 -77.57286155013877
3612 -77.49310288709337
3613 -77.57173590233707
3614 -77.49445651781085
3615 -77.57249282250845
3616 -77.49372151699671
3617 -77.57339508071435
3618 -77.492515873705
3619 -77.57510195398669
3620 -77.4936252482194
3621 -77.57669880257646
3622 -77.49401065740405
3623 -77.57887147365972
3624 -77.49614197140738
3625 -77.58054675469398
3626 -77.49626034492347
3627 -77.58153189675993
3628 -77.49785770633491
3629 -77.58214854297536
3630 -77.49857984408672
3631 -77.58023612985791
3632 -77.50092059999339
3633 -77.58043741746614
3634 -77.50012018785357
3635 -77.57826640126385
3636 -77.50050082642504
3637 -77.57704183442354
3638 -77.50167615727391
3639 -77.57569495813532
3640 -77.50089482574694
3641 -77.57546588731047
3642 -77.49815497120947
3643 -77.57472749302261
3644 -77.49804555454702
3645 -77.57426439285085
3646 -77.49521078335695
3647 -77.57396446802134
3648 -77.49444350010702
3649 -77.57561585910494
3650 -77.49341040123224
3651 -77.57767570647086
3652 -77.49312160924457
3653 -77.57815094179112
3654 -77.49269359043527
3655 -77.57807040299468
3656 -77.49407945750986
3657 -77.57884241959185
3658 -77.49335581561823
3659 -77.57950373657934
3660 -77.49484464823432
3661 -77.57836984183493
3662 -77.49767520612758
3663 -77.57921022549124
3664 -77.49789839271389
3665 -77.57889109551988
3666 -77.49750926038665
3667 -77.57711963619782
3668 -77.49913907158876
3669 -77.57658176852621
3670 -77.49877104835105
3671 -77.57497946176539
3672 -77.49793019162175
3673 -77.57565829448777
3674 -77.49683565237284
3675 -77.57552305660599
3676 -77.49636215297913
3677 -77.57604174678197
3678 -77.49593061662029
3679 -77.57568280947669
3680 -77.49739893024234
3681 -77.57652288111882
3682 -77.49528750126959
3683 -77.57643660889379
3684 -77.49574326893793
3685 -77.57517435484253
3686 -77.49609190347203
3687 -77.57622137398663
3688 -77.49812255101338
3689 -77.57678262477508
3690 -77.49721375433431
3691 -77.57630472894603
3692 -77.49824229023687
3693 -77.57756035071958
3694 -77.49752865935503
3695 -77.57660238316085
3696 -77.49725153062863
3697 -77.57588799151671
3698 -77.49636412569262
3699 -77.57572418130037
3700 -77.49537601098771
3701 -77.57580876050849
3702 -77.49504641952151
3703 -77.5760505501643
3704 -77.49619123837493
3705 -77.57780771857651
3706 -77.49525872016183
3707 -77.5783215657903
3708 -77.49513159818476
3709 -77.57876481181084
3710 -77.49751923788573
3711 -77.58023391235301
3712 -77.49858002283408
3713 -77.58112808044136
3714 -77.49796842981287
3715 -77.57964463172219
3716 -77.49885834519733
3717 -77.58053447748433
3718 -77.49923336719041
3719 -77.57986733933373
3720 -77.49852846784553
3721 -77.57717966652436
3722 -77.49791497865762
3723 -77.57713069130384
3724 -77.49633686440258
3725 -77.57634025497264
3726 -77.49680451465456
3727 -77.57580897542528
3728 -77.49794196908201
3729 -77.57806305901084
3730 -77.49554556841288
3731 -77.57553355075132
3732 -77.49441109852626
3733 -77.57491834428512
3734 -77.49583871518001
3735 -77.57451175600451
3736 -77.4961092993954
3737 -77.57541404393336
3738 -77.49599479461531
3739 -77.57514061212954
3740 -77.49769172265607
3741 -77.57618657996809
3742 -77.49861607815998
3743 -77.57650903378999
3744 -77.49868499875856
3745 -77.57621616496085
3746 -77.49775808524134
3747 -77.57727637643328
3748 -77.49755175029733
3749 -77.57727260787205
3750 -77.49749190123208
3751 -77.57597480296019
3752 -77.49824677655107
3753 -77.57780869065343
3754 -77.49673299401204
3755 -77.57843886573245
3756 -77.49609774995443
3757 -77.5786267607911
3758 -77.49679287700539
3759 -77.58036831909439
3760 -77.49617976673333
3761 -77.58006950844489
3762 -77.49506553163813
3763 -77.57906417181167
3764 -77.49536904097548
3765 -77.57808965995535
3766 -77.49504641760674
3767 -77.57691683836008
3768 -77.49513788118932
3769 -77.57571312826339
3770 -77.49587148947477
3771 -77.57578721677274
3772 -77.49528160240664
3773 -77.57585021813468
3774 -77.49541230186423
3775 -77.57475496260879
3776 -77.49574977881902
3777 -77.57643629044509
3778 -77.49543771780813
3779 -77.57615984893566
3780 -77.4953834778189
3781 -77.57640441378172
3782 -77.49635175378387
3783 -77.5770336894966
3784 -77.49699602534457
3785 -77.57804770451547
3786 -77.49630430119061
3787 -77.57782756569732
3788 -77.49852059901446
3789 -77.57777563378447
3790 -77.49803666602578
3791 -77.57793620645256
3792 -77.4978497268998
3793 -77.57712551927636
3794 -77.49954201622371
3795 -77.57778418636057
3796 -77.49950255347514
3797 -77.57709740814285
3798 -77.49921975349733
3799 -77.57606263870215
3800 -77.49940755247469
3801 -77.5756595360852
3802 -77.49748130528987
3803 -77.57635283800219
3804 -77.49678338050768
3805 -77.57504543451424
3806 -77.49664681293568
3807 -77.57630253369901
3808 -77.49643828638268
3809 -77.5778056062591
3810 -77.49533611278981
3811 -77.57751424989922
3812 -77.4957514825917
3813 -77.57886049224884
3814 -77.49508247984456
3815 -77.57725512589813
3816 -77.49467524429276
3817 -77.57810931447636
3818 -77.49509498424166
3819 -77.57777425960721
3820 -77.49522903599642
3821 -77.57779302244003
3822 -77.49623916371432
3823 -77.57829615921777
3824 -77.49868221048244
3825 -77.57844676861291
3826 -77.4965768380014
3827 -77.57848339965639
3828 -77.49584605444112
3829 -77.57730112837746
3830 -77.49751765557286
3831 -77.57764953810172
3832 -77.49806516571702
3833 -77.57805901390532
3834 -77.49703774301609
3835 -77.57741801953911
3836 -77.49830438237868
3837 -77.57876696799416
3838 -77.49783451592053
3839 -77.57886186195225
3840 -77.4981513455044
3841 -77.578157454039
3842 -77.49705259264903
3843 -77.57735522064263
3844 -77.49646589952816
3845 -77.57695662629219
3846 -77.49604479070869
3847 -77.57552795960437
3848 -77.49749335351218
3849 -77.57570344277674
3850 -77.49658845263318
3851 -77.57492667645535
3852 -77.49605945299633
3853 -77.57431334094369
3854 -77.49719654792682
3855 -77.57445278857368
3856 -77.49649833007996
3857 -77.57452348028144
3858 -77.49446482716081
3859 -77.57382749609604
3860 -77.49455562125739
3861 -77.57478474786923
3862 -77.49401987941074
3863 -77.57484929073996
3864 -77.4946835672858
3865 -77.57556473678824
3866 -77.49577611713163
3867 -77.57813491087964
3868 -77.49632764517125
3869 -77.57843984689153
3870 -77.49591962286723
3871 -77.57843485121047
3872 -77.49759952703545
3873 -77.57980676638167
3874 -77.49628662207989
3875 -77.57861070372212
3876 -77.49580894425826
3877 -77.57701454351063
3878 -77.49698732324859
3879 -77.57696636453053
3880 -77.49604209622653
3881 -77.57737013087861
3882 -77.49574860238221
3883 -77.57673715394625
3884 -77.49716404115458
3885 -77.57707752087332
3886 -77.49800639965987
3887 -77.57704586691638
3888 -77.49858224577122
3889 -77.57821582229205
3890 -77.49801512287792
3891 -77.57885198671235
3892 -77.49907694969784
3893 -77.57966052815935
3894 -77.49831031732467
3895 -77.57861842540885
3896 -77.49968484767415
3897 -77.57985221104497
3898 -77.49852490794879
3899 -77.5789342547012
3900 -77.49819082251473
3901 -77.57754726515117
3902 -77.49972224238229
3903 -77.57760639538074
3904 -77.49888994128153
3905 -77.57801068073596
3906 -77.49784564818452
3907 -77.57643505516671
3908 -77.4973890286773
3909 -77.57477499261194
3910 -77.4953442910096
3911 -77.57416090777815
3912 -77.49459913214868
3913 -77.5741497382747
3914 -77.49437922636565
3915 -77.57423394073263
3916 -77.49334079682815
3917 -77.57446734887083
3918 -77.49367083506682
3919 -77.57433181703989
3920 -77.49504446103707
3921 -77.57679348272693
3922 -77.49488204492221
3923 -77.57764937129011
3924 -77.49516075544055
3925 -77.57733388671954
3926 -77.49760009019094
3927 -77.57971741880986
3928 -77.49889555133589
3929 -77.58018696172083
3930 -77.49797552038295
3931 -77.5791448431891
3932 -77.49984160003284
3933 -77.57985046860971
3934 -77.49885625082753
3935 -77.57826741281704
3936 -77.49824307632574
3937 -77.57684971040557
3938 -77.49753844148063
3939 -77.57693634694014
3940 -77.49753725298218
3941 -77.5762214946183
3942 -77.49596178364942
3943 -77.57540969522651
3944 -77.49614142590221
3945 -77.57594829618841
3946 -77.49322440561325
3947 -77.57482186352773
3948 -77.4937031829803
3949 -77.57497809524664
3950 -77.49469017561071
3951 -77.57483947293424
3952 -77.49551927831686
3953 -77.57650415931148
3954 -77.4957597211384
3955 -77.57707820030627
3956 -77.49692668522556
3957 -77.5785966833535
3958 -77.49827031435122
3959 -77.57918989235499
3960 -77.49888823905458
3961 -77.57938157926397
3962 -77.50006103372441
3963 -77.58003953364242
3964 -77.49980141123028
3965 -77.57869992459743
3966 -77.49919274516419
3967 -77.57726972752005
3968 -77.49978566578379
3969 -77.57816418099247
3970 -77.49815798749714
3971 -77.57790708765125
3972 -77.49749280602808
3973 -77.57853262765738
3974 -77.49840948863584
3975 -77.57842821118986
3976 -77.49749611311762
3977 -77.57885550881255
3978 -77.49624242230239
3979 -77.57900616188876
3980 -77.49705078738397
3981 -77.57826264976083
3982 -77.49661595274593
3983 -77.57809891473902
3984 -77.49694069865204
3985 -77.57615401115444
3986 -77.49785476979025
3987 -77.57725182992961
3988 -77.49688000892633
3989 -77.5774366710604
3990 -77.49729189326379
3991 -77.57658205684324
3992 -77.49801086162049
3993 -77.57833852020119
3994 -77.49746465591645
3995 -77.57688164870298
3996 -77.49730123851688
3997 -77.57633732713751
3998 -77.49638634462335
3999 -77.57614597298191
4000 -77.49527221886083
4001 -77.57706749282673
4002 -77.4933322790491
4003 -77.5765967160788
4004 -77.49484598432784
4005 -77.57660275924555
4006 -77.49402651592558
4007 -77.57631848945688
4008 -77.4940481040944
4009 -77.57643509693415
4010 -77.49491055180744
4011 -77.57729837634032
4012 -77.49539953561562
4013 -77.57727401936239
4014 -77.49724756682068
4015 -77.57685550028464
4016 -77.4988233423571
4017 -77.57737819727419
4018 -77.49734708254528
4019 -77.57627277712473
4020 -77.49748687157967
4021 -77.57564607536835
4022 -77.49797284967964
4023 -77.5770625267032
4024 -77.49783019742948
4025 -77.57708842187026
4026 -77.49659211377411
4027 -77.57687005111285
4028 -77.49652661987108
4029 -77.57718924185639
4030 -77.49544839527219
4031 -77.5746405832593
4032 -77.49452541274127
4033 -77.57430889154604
4034 -77.49438042653708
4035 -77.57428293566709
4036 -77.49389518199476
4037 -77.57402915296694
4038 -77.49438000738789
4039 -77.57375132072579
4040 -77.4957600171132
4041 -77.57522117861987
4042 -77.49421328302311
4043 -77.57626423035241
4044 -77.49585622447378
4045 -77.57530072163698
4046 -77.49722742531316
4047 -77.57651918817943
4048 -77.49794584351815
4049 -77.57736549816984
4050 -77.49721880190364
4051 -77.57730987915693
4052 -77.49907574314889
4053 -77.57905826059556
4054 -77.49798886679251
4055 -77.57961486558234
4056 -77.49887144480368
4057 -77.58027093510481
4058 -77.49812767328964
4059 -77.5801046455625
4060 -77.49797660291459
4061 -77.57985588322585
4062 -77.49801708308378
4063 -77.57859605402143
4064 -77.49945032465443
4065 -77.57817135313944
4066 -77.49729224316589
4067 -77.5761201975521
4068 -77.49635563808617
4069 -77.57576024559449
4070 -77.49791395890774
4071 -77.57611567035383
4072 -77.49774355781878
4073 -77.57620581472571
4074 -77.49642438750809
4075 -77.57537083934146
4076 -77.49615394300326
4077 -77.57594573329173
4078 -77.4946020469342
4079 -77.57697587551607
4080 -77.49467118996591
4081 -77.57752014039878
4082 -77.49461476282886
4083 -77.57846693286176
4084 -77.49560039288502
4085 -77.57941269697056
4086 -77.4958720971611
4087 -77.57925887126686
4088 -77.4971515834584
4089 -77.57980925653644
4090 -77.49630785000156
4091 -77.5788218901596
4092 -77.49656098299859
4093 -77.57812213674933
4094 -77.49892927172554
4095 -77.57700189656839
4096 -77.49764815726515
4097 -77.57600752098593
4098 -77.49653768141428
4099 -77.5745610671221
4100 -77.49712869504708
4101 -77.57389461756078
4102 -77.49615528643571
4103 -77.57355081803438
4104 -77.49642336209766
4105 -77.57374312460156
4106 -77.49550574412689
4107 -77.5751569424507
4108 -77.49545728919261
4109 -77.57649408109742
4110 -77.49460871680868
4111 -77.57576275733969
4112 -77.49666595394555
4113 -77.57835103370394
4114 -77.49540936192535
4115 -77.57762777053573
4116 -77.49547900313001
4117 -77.57678206939507
4118 -77.4970779811007
4119 -77.57740902840503
4120 -77.49754920443048
4121 -77.57865379507589
4122 -77.49701030619056
4123 -77.57948394026826
4124 -77.49883137662795
4125 -77.57916863805391
4126 -77.49811328773829
4127 -77.57756479334937
4128 -77.4978180579582
4129 -77.57692481884956
4130 -77.49783580392862
4131 -77.57744096685026
4132 -77.49770531216316
4133 -77.57846235042976
4134 -77.49824213419151
4135 -77.57778373784134
4136 -77.49887652923769
4137 -77.57934941803605
4138 -77.49669259526586
4139 -77.57865043066444
4140 -77.4951502335141
4141 -77.57756319994628
4142 -77.49631290219146
4143 -77.57770948704659
4144 -77.49604127073903
4145 -77.578252012272
4146 -77.49595233648137
4147 -77.57755470080406
4148 -77.49757670214956
4149 -77.57735801005933
4150 -77.49756816821412
4151 -77.57668347743378
4152 -77.4973863737283
4153 -77.57632959487159
4154 -77.49716826418194
4155 -77.57611574519346
4156 -77.49677007554332
4157 -77.57566438941919
4158 -77.49625988772388
4159 -77.57580273076795
4160 -77.49727679359241
4161 -77.57685252323392
4162 -77.49631426892144
4163 -77.57703891568508
4164 -77.49726829145204
4165 -77.57646455385542
4166 -77.4980835147297
4167 -77.5773011001983
4168 -77.49896963093605
4169 -77.57929749711134
4170 -77.49856948745386
4171 -77.57825591033279
4172 -77.49971508426601
4173 -77.57965474070143
4174 -77.49906059117578
4175 -77.57791367341051
4176 -77.49824576152811
4177 -77.57731801159933
4178 -77.49737579245306
4179 -77.57741939911631
4180 -77.49633184223183
4181 -77.57663229661964
4182 -77.49502994629401
4183 -77.5761078912647
4184 -77.49541911487631
4185 -77.57649931930071
4186 -77.49319788913355
4187 -77.57630215956165
4188 -77.49322611712199
4189 -77.57661971701062
4190 -77.4949420813732
4191 -77.57830408419383
4192 -77.49540149532035
4193 -77.578408188084
4194 -77.49422088695935
4195 -77.57700508544221
4196 -77.49611281915213
4197 -77.57644541001808
4198 -77.49621253068406
4199 -77.57601316997346
4200 -77.49733170877887
4201 -77.57580273051744
4202 -77.49897724298839
4203 -77.57717267283468
4204 -77.49802759978945
4205 -77.57682913004766
4206 -77.49775171892782
4207 -77.57585671008911
4208 -77.49866266998144
4209 -77.57727443369727
4210 -77.49683271023265
4211 -77.57706490007304
4212 -77.49655728111399
4213 -77.5784192197512
4214 -77.49725580655112
4215 -77.57776279101331
4216 -77.49738678674925
4217 -77.57888763596262
4218 -77.49581290155068
4219 -77.57876661148921
4220 -77.49606632849907
4221 -77.57977502092314
4222 -77.49672406534253
4223 -77.57985241789673
4224 -77.49769249110304
4225 -77.57903263850827
4226 -77.49891882884148
4227 -77.57920394113842
4228 -77.49922774717918
4229 -77.57737583047803
4230 -77.49904898301779
4231 -77.57588067900954
4232 -77.49978818549681
4233 -77.57626866944847
4234 -77.49808516835958
4235 -77.57513749441931
4236 -77.4974624372968
4237 -77.57449442319728
4238 -77.49699577341536
4239 -77.57543705671179
4240 -77.49585100926085
4241 -77.57622912630801
4242 -77.49306495925399
4243 -77.57655733263972
4244 -77.49340207474006
4245 -77.57751867132768
4246 -77.49309011265544
4247 -77.57756134638652
4248 -77.49307483332846
4249 -77.57777638962781
4250 -77.49446160478928
4251 -77.57938109526613
4252 -77.49423392282898
4253 -77.57882033953928
4254 -77.49576611485445
4255 -77.57761704360777
4256 -77.49843224310847
4257 -77.57988026133445
4258 -77.49842995019468
4259 -77.57799820406115
4260 -77.49818119680732
4261 -77.57511698850871
4262 -77.49888725962445
4263 -77.57521214930087
4264 -77.49969114724915
4265 -77.57500093773855
4266 -77.49825025645508
4267 -77.57417772398419
4268 -77.49815753239356
4269 -77.5753922901191
4270 -77.49647304479264
4271 -77.5754306597219
4272 -77.49575403013263
4273 -77.57599483628046
4274 -77.49558796007838
4275 -77.57664873895568
4276 -77.493991832776
4277 -77.57657151234419
4278 -77.49450662742845
4279 -77.57602763079834
4280 -77.49580177757662
4281 -77.57685633664093
4282 -77.49568398074706
4283 -77.57772218576119
4284 -77.49672780562165
4285 -77.57677391727718
4286 -77.49790064287153
4287 -77.57824384736024
4288 -77.49815624902385
4289 -77.57894860417822
4290 -77.49805684196598
4291 -77.5778998329781
4292 -77.4988945517977
4293 -77.57755593430232
4294 -77.49755488196983
4295 -77.57710595948161
4296 -77.49718925650569
4297 -77.57708580293396
4298 -77.49687089609402
4299 -77.57862448300172
4300 -77.49702006166154
4301 -77.57845667949525
4302 -77.49621415215076
4303 -77.57907864495054
4304 -77.49762859172615
4305 -77.57997289870065
4306 -77.49564055317168
4307 -77.57884236366466
4308 -77.4956813289603
4309 -77.57718239481396
4310 -77.49681534888866
4311 -77.57775140425419
4312 -77.49656534708247
4313 -77.57780496322378
4314 -77.4956365576339
4315 -77.57587110932749
4316 -77.4962553630421
4317 -77.57650168221957
4318 -77.49690956756815
4319 -77.57631162527919
4320 -77.49649312645381
4321 -77.57593791369011
4322 -77.49664696191712
4323 -77.57724710363479
4324 -77.49749449610418
4325 -77.57763258310037
4326 -77.49698814625448
4327 -77.57620759429695
4328 -77.49887136300097
4329 -77.57749497125472
4330 -77.4973774292317
4331 -77.57690289892608
4332 -77.49682341211287
4333 -77.57620818435007
4334 -77.49862309403969
4335 -77.57726920312766
4336 -77.49861550302307
4337 -77.57659110424686
4338 -77.49707746427485
4339 -77.57637840336942
4340 -77.49653418185048
4341 -77.57619223336148
4342 -77.49513754023641
4343 -77.57588628687594
4344 -77.49541450154182
4345 -77.57579495047297
4346 -77.49491969711144
4347 -77.57664152373141
4348 -77.49445804746483
4349 -77.57639973486027
4350 -77.49421336254557
4351 -77.57679915966342
4352 -77.49601890990294
4353 -77.57852605840866
4354 -77.49491105056372
4355 -77.57809539698418
4356 -77.49558038407031
4357 -77.5783488823222
4358 -77.49676731480778
4359 -77.57762077912838
4360 -77.49719136482253
4361 -77.57778755568808
4362 -77.49565945106463
4363 -77.57663785040785
4364 -77.4983468031547
4365 -77.57671511738563
4366 -77.4970456127854
4367 -77.5761480845035
4368 -77.49653647597204
4369 -77.57561779254766
4370 -77.49654833396549
4371 -77.57595151700494
4372 -77.4958942408789
4373 -77.57634541586255
4374 -77.49554183629783
4375 -77.57601865801006
4376 -77.4967473907415
4377 -77.57796214717949
4378 -77.49501095742713
4379 -77.57857322897405
4380 -77.49619209745995
4381 -77.57780529674046
4382 -77.49783453472327
4383 -77.57799703893309
4384 -77.49841212946313
4385 -77.57947870765699
4386 -77.49790723220376
4387 -77.57807686795738
4388 -77.49934758798501
4389 -77.57909107740582
4390 -77.4999729437516
4391 -77.57765995362598
4392 -77.49938765128971
4393 -77.57690539981191
4394 -77.49918781826365
4395 -77.5763984779059
4396 -77.49760739861722
4397 -77.57443099332967
4398 -77.49632964282566
4399 -77.57295434140811
4400 -77.49544201462774
4401 -77.57418066466504
4402 -77.49391470826072
4403 -77.57490848601115
4404 -77.49331510814284
4405 -77.5745989715783
4406 -77.49325316257139
4407 -77.57678325460444
4408 -77.49441258909114
4409 -77.57782625654566
4410 -77.49411743039086
4411 -77.57864641318616
4412 -77.4961940982745
4413 -77.57828089907895
4414 -77.4972326953463
4415 -77.57746544174339
4416 -77.497723286243
4417 -77.57796519008035
4418 -77.49859889713716
4419 -77.57843989423881
4420 -77.4972349409792
4421 -77.57794560973289
4422 -77.49737107178471
4423 -77.57813342941193
4424 -77.49857176755332
4425 -77.57808437900405
4426 -77.49667372695494
4427 -77.57679916736359
4428 -77.49619792809958
4429 -77.57715907614732
4430 -77.49650238851605
4431 -77.5775944236206
4432 -77.49652805440149
4433 -77.57878074776211
4434 -77.49543705314855
4435 -77.57773735713721
4436 -77.49691139332006
4437 -77.57845143998142
4438 -77.49602857384585
4439 -77.57782097513969
4440 -77.49689796265606
4441 -77.57691647897391
4442 -77.49676366754636
4443 -77.57779205702641
4444 -77.49723871272536
4445 -77.57714360104131
4446 -77.49790222477844
4447 -77.57545554048654
4448 -77.4988851756502
4449 -77.57625044461761
4450 -77.49652760229429
4451 -77.57627117476653
4452 -77.49548825601653
4453 -77.57579726582318
4454 -77.49753788860495
4455 -77.57671905673894
4456 -77.49619302389529
4457 -77.57767196101025
4458 -77.49542742254629
4459 -77.57807272259549
4460 -77.49621552883906
4461 -77.57886092217029
4462 -77.49598526660931
4463 -77.57842630520069
4464 -77.49746232092019
4465 -77.57876302266229
4466 -77.49805826785658
4467 -77.57899847863075
4468 -77.49814224931109
4469 -77.57903355362679
4470 -77.49865138886022
4471 -77.57783008152018
4472 -77.50042926638051
4473 -77.57912939949377
4474 -77.49846285362071
4475 -77.57827671180577
4476 -77.49817726551332
4477 -77.5765397693005
4478 -77.49809208945805
4479 -77.5756890894384
4480 -77.49811918266657
4481 -77.57547196104237
4482 -77.49551165829259
4483 -77.57554582767172
4484 -77.49630068336093
4485 -77.57581713198094
4486 -77.49440470563098
4487 -77.57541817797137
4488 -77.49503526121083
4489 -77.57621575435428
4490 -77.49483750460399
4491 -77.57564092052159
4492 -77.49497736127925
4493 -77.57635292141235
4494 -77.49587642318481
4495 -77.57477197112902
4496 -77.49845450675713
4497 -77.57650342499647
4498 -77.49822257854019
4499 -77.57672287868965
4500 -77.49855942575945
4501 -77.57621457568794
4502 -77.49980628186348
4503 -77.57765694566999
4504 -77.49919044307863
4505 -77.57815659079874
4506 -77.49730953423318
4507 -77.57733116158235
4508 -77.49713932009838
4509 -77.57760439630815
4510 -77.49583075553211
4511 -77.57833583732061
4512 -77.49536417893084
4513 -77.57782265662482
4514 -77.4950457569703
4515 -77.57935181243155
4516 -77.494180441663
4517 -77.57876145707164
4518 -77.49286338606163
4519 -77.57768023878104
4520 -77.49477222601688
4521 -77.57797482516591
4522 -77.49423157919979
4523 -77.57816499259563
4524 -77.49550567573418
4525 -77.5750979271717
4526 -77.49681099467344
4527 -77.57423570594932
4528 -77.49657355576862
4529 -77.57443366042455
4530 -77.49542432453822
4531 -77.57250159017497
4532 -77.49670230233359
4533 -77.57376106035946
4534 -77.49715534936102
4535 -77.57447471027214
4536 -77.49791092983627
4537 -77.57583770777877
4538 -77.49721783971907
4539 -77.57720439631125
4540 -77.49638093873489
4541 -77.57851292461012
4542 -77.49625203803333
4543 -77.5779523221982
4544 -77.49781768434885
4545 -77.5789695562667
4546 -77.49606995058404
4547 -77.57914252592981
4548 -77.49693575841383
4549 -77.57940868528449
4550 -77.49829285373919
4551 -77.58084661373117
4552 -77.49987107517431
4553 -77.58151373884651
4554 -77.49910767607875
4555 -77.57979968947669
4556 -77.49896176096023
4557 -77.57855345487694
4558 -77.49691440899542
4559 -77.5762109577157
4560 -77.49619281577783
4561 -77.57390609284853
4562 -77.49602380616147
4563 -77.57396487349457
4564 -77.49488528076193
4565 -77.57408569262635
4566 -77.49574099021321
4567 -77.57379499131774
4568 -77.49737772659326
4569 -77.57653982362139
4570 -77.49627121818469
4571 -77.57669682262073
4572 -77.49510053641468
4573 -77.57652018553463
4574 -77.49576320917639
4575 -77.57742646916725
4576 -77.49563051430644
4577 -77.57819521485968
4578 -77.49507320948159
4579 -77.5778166219169
4580 -77.49639382403763
4581 -77.57820400601166
4582 -77.49559119323645
4583 -77.5785833942081
4584 -77.49620643190919
4585 -77.57728481628236
4586 -77.49708512609956
4587 -77.57819290380479
4588 -77.49707465176175
4589 -77.57730734111543
4590 -77.4976797985137
4591 -77.57560195093562
4592 -77.49836584849754
4593 -77.57587634326674
4594 -77.49624478242048
4595 -77.574742274858
4596 -77.49698244695495
4597 -77.57419593787731
4598 -77.49711632903866
4599 -77.57430200619022
4600 -77.49722992351435
4601 -77.57559238479068
4602 -77.49591507706499
4603 -77.5754629869686
4604 -77.4969166934258
4605 -77.57648662562866
4606 -77.49597109896263
4607 -77.57591412426186
4608 -77.49681489858688
4609 -77.57722848969743
4610 -77.49620032597475
4611 -77.57719949129719
4612 -77.49533207549328
4613 -77.57772495711312
4614 -77.49474525189031
4615 -77.57709779383281
4616 -77.49552570040679
4617 -77.57881443300091
4618 -77.49428816891782
4619 -77.5797243952105
4620 -77.49503837912266
4621 -77.5794732067241
4622 -77.49693263902594
4623 -77.57987844072883
4624 -77.49795051434957
4625 -77.57942739570035
4626 -77.49740313600948
4627 -77.57785975251224
4628 -77.4990825268457
4629 -77.57809378794829
4630 -77.49932584375264
4631 -77.57686140762645
4632 -77.49953021892678
4633 -77.57650529636098
4634 -77.4996259127
4635 -77.57703445719011
4636 -77.49779952005812
4637 -77.57621698083824
4638 -77.496104308059
4639 -77.57544507168899
4640 -77.49618811026714
4641 -77.57653091319605
4642 -77.49536064767275
4643 -77.57658847710115
4644 -77.49542179906238
4645 -77.57680778342376
4646 -77.49647280812303
4647 -77.57806769108946
4648 -77.49690908174324
4649 -77.57954633591051
4650 -77.49550801958907
4651 -77.57852449572897
4652 -77.49785057229755
4653 -77.57990167159618
4654 -77.4971603362071
4655 -77.57874357814173
4656 -77.49730520414926
4657 -77.57749838140326
4658 -77.49703180680287
4659 -77.57717893135235
4660 -77.49821839962549
4661 -77.57700952923147
4662 -77.4979765995989
4663 -77.57701498437969
4664 -77.50030249978424
4665 -77.57779517064444
4666 -77.49857048566592
4667 -77.57750409631063
4668 -77.49783151621722
4669 -77.57642441078201
4670 -77.49879892187997
4671 -77.57681980222323
4672 -77.49712291263815
4673 -77.57805882857227
4674 -77.49675237294417
4675 -77.57778574048288
4676 -77.49695644410032
4677 -77.57843923757702
4678 -77.49664396251335
4679 -77.57835586612883
4680 -77.49625850390655
4681 -77.57776487952657
4682 -77.4955504218705
4683 -77.57784485698505
4684 -77.49487593448279
4685 -77.57749331614977
4686 -77.49505639968777
4687 -77.57697046535905
4688 -77.49659210304497
4689 -77.57692365305256
4690 -77.49520401374454
4691 -77.5754849778958
4692 -77.49585864607988
4693 -77.57464006433651
4694 -77.49780453042797
4695 -77.57461623006913
4696 -77.49644155856046
4697 -77.57477323758329
4698 -77.49580476273871
4699 -77.57567125107028
4700 -77.49616771594013
4701 -77.57688273246407
4702 -77.49531474856936
4703 -77.57723701044618
4704 -77.49628722389637
4705 -77.57772329823764
4706 -77.49604396881821
4707 -77.57867061170896
4708 -77.49690076314167
4709 -77.5785564652389
4710 -77.49761450999141
4711 -77.57724589880057
4712 -77.49883386097839
4713 -77.57908242195626
4714 -77.49804244941878
4715 -77.57797017866487
4716 -77.4976769477812
4717 -77.57786537181384
4718 -77.4987622583829
4719 -77.57784236436115
4720 -77.4984554383462
4721 -77.57771472086479
4722 -77.4968697087243
4723 -77.57619294794974
4724 -77.49721872125625
4725 -77.57511062439109
4726 -77.4948847851016
4727 -77.57506301588379
4728 -77.49509978917897
4729 -77.5759057495796
4730 -77.49532791550348
4731 -77.57812590097291
4732 -77.49571929779374
4733 -77.57769461671516
4734 -77.49619725931355
4735 -77.57714172793536
4736 -77.49686218354078
4737 -77.57761770171635
4738 -77.49524430367056
4739 -77.57752760294164
4740 -77.4961975628037
4741 -77.57622329490719
4742 -77.49804809297596
4743 -77.57749050206264
4744 -77.49839177062954
4745 -77.5777566860332
4746 -77.49687335854367
4747 -77.5775038897801
4748 -77.49799059010596
4749 -77.57849270574066
4750 -77.49825473047066
4751 -77.57786262178277
4752 -77.49824033508735
4753 -77.57903445900982
4754 -77.49754802486564
4755 -77.57804249982892
4756 -77.49667616324976
4757 -77.57761780253919
4758 -77.49547878980648
4759 -77.57554566467148
4760 -77.49545688415338
4761 -77.57646563413992
4762 -77.49314700753317
4763 -77.57647569018339
4764 -77.49302458406243
4765 -77.57451216113513
4766 -77.49465494419135
4767 -77.57579262422786
4768 -77.49572387705474
4769 -77.57589325050226
4770 -77.49446881415444
4771 -77.57465246445226
4772 -77.49567153855894
4773 -77.5751782831602
4774 -77.49594319642634
4775 -77.57456139980067
4776 -77.49628736116954
4777 -77.57347541906869
4778 -77.4961926205456
4779 -77.57595155280158
4780 -77.49603857042101
4781 -77.57641594379348
4782 -77.49670192112825
4783 -77.57713061598169
4784 -77.49794438132632
4785 -77.57996664159539
4786 -77.49686105061687
4787 -77.57858980175462
4788 -77.49618301457407
4789 -77.57821490075133
4790 -77.49753736084001
4791 -77.57835931682052
4792 -77.49746614750939
4793 -77.57827890238015
4794 -77.49656975737797
4795 -77.57757974742024
4796 -77.49853999746972
4797 -77.57863392169773
4798 -77.49927274206989
4799 -77.57839216453262
4800 -77.4988753417141
4801 -77.57774026428876
4802 -77.49801601489193
4803 -77.5778122766575
4804 -77.49748344528884
4805 -77.57653265481166
4806 -77.49665298053377
4807 -77.57611334329357
4808 -77.49642300017678
4809 -77.57718468258199
4810 -77.49471836429869
4811 -77.57760698294497
4812 -77.49439006061432
4813 -77.57753763459912
4814 -77.4953245925736
4815 -77.57865716164555
4816 -77.49539618508108
4817 -77.57955085256965
4818 -77.49579044067107
4819 -77.57915101213474
4820 -77.49766355783238
4821 -77.57840814594944
4822 -77.49772424820902
4823 -77.57716411603485
4824 -77.49794552050191
4825 -77.57608187760609
4826 -77.49829257540343
4827 -77.57599392450105
4828 -77.4990045296724
4829 -77.57604806552021
4830 -77.49898220330662
4831 -77.57446036158572
4832 -77.49904886363294
4833 -77.5751134659948
4834 -77.49735447127097
4835 -77.57551850930626
4836 -77.49680152360617
4837 -77.57553099846351
4838 -77.49649616154184
4839 -77.57722617135201
4840 -77.49701607628836
4841 -77.57848122555274
4842 -77.49500250230221
4843 -77.57774453812725
4844 -77.49623930814585
4845 -77.5783277547078
4846 -77.49572479219204
4847 -77.57827765154491
4848 -77.49565334962584
4849 -77.57692150410404
4850 -77.49643692839098
4851 -77.57713195367903
4852 -77.49607143019857
4853 -77.57636173595409
4854 -77.49579611550577
4855 -77.57388113932856
4856 -77.49680664929704
4857 -77.57528122178721
4858 -77.49558885437644
4859 -77.57453523206715
4860 -77.495607368842
4861 -77.57482267563036
4862 -77.49568304341221
4863 -77.5767129884686
4864 -77.49655568092403
4865 -77.57805851807422
4866 -77.49466157591309
4867 -77.5781722385324
4868 -77.49544997190482
4869 -77.57948805339068
4870 -77.49517452091804
4871 -77.57872257710164
4872 -77.49587209540942
4873 -77.57861451556793
4874 -77.49654522033757
4875 -77.5791861418648
4876 -77.49749203065655
4877 -77.57878702412174
4878 -77.49811471130234
4879 -77.57862441808128
4880 -77.50007978870664
4881 -77.578491364692
4882 -77.49737468337511
4883 -77.57802211871292
4884 -77.49804327698497
4885 -77.5763835320497
4886 -77.49896713089802
4887 -77.57592572474137
4888 -77.49849389445367
4889 -77.57623867874577
4890 -77.49778861727691
4891 -77.57568749036176
4892 -77.49757275358488
4893 -77.57681369571972
4894 -77.49786927687089
4895 -77.57649566221981
4896 -77.49747604606007
4897 -77.5765151812985
4898 -77.49650976411505
4899 -77.57743142789374
4900 -77.49649192663432
4901 -77.57764718078991
4902 -77.49636409611131
4903 -77.57746849437686
4904 -77.49788497386614
4905 -77.57851438717969
4906 -77.49619638738383
4907 -77.5783313803343
4908 -77.49587203049443
4909 -77.57710967690383
4910 -77.49749600059283
4911 -77.57856648559742
4912 -77.49721451904087
4913 -77.57862774362066
4914 -77.49569983056898
4915 -77.5784934846138
4916 -77.4966965203752
4917 -77.57951006879159
4918 -77.49634087242782
4919 -77.57910339944591
4920 -77.49637833904019
4921 -77.57812691470328
4922 -77.49611102300697
4923 -77.57775629617785
4924 -77.49676546887808
4925 -77.57717918070914
4926 -77.49674539153295
4927 -77.57539578129855
4928 -77.49766873748197
4929 -77.5766621949944
4930 -77.49739701250307
4931 -77.57593149357223
4932 -77.49759254704496
4933 -77.57511509774629
4934 -77.49788134888394
4935 -77.57491083604991
4936 -77.4961344529121
4937 -77.5751442413376
4938 -77.49535191833571
4939 -77.57423028503
4940 -77.49516886922058
4941 -77.57470413281106
4942 -77.49456132396024
4943 -77.57544071883717
4944 -77.49475451329445
4945 -77.57609700547609
4946 -77.49420923994022
4947 -77.5777919954603
4948 -77.4946928437963
4949 -77.5779050486658
4950 -77.49449870629198
4951 -77.5777658293881
4952 -77.49712946853228
4953 -77.57881497258805
4954 -77.49668953348201
4955 -77.57780808668059
4956 -77.49665264545968
4957 -77.57613465266648
4958 -77.49734069114511
4959 -77.57641735546183
4960 -77.49690569410096
4961 -77.57694867047024
4962 -77.49634989338497
4963 -77.57632347979037
4964 -77.49781426169596
4965 -77.57773906017015
4966 -77.49768821956863
4967 -77.57736021280066
4968 -77.4985270782165
4969 -77.57868431229952
4970 -77.49829248685393
4971 -77.58014076603237
4972 -77.49829472650636
4973 -77.58044361530801
4974 -77.49825680950002
4975 -77.57935643372703
4976 -77.49962255271062
4977 -77.58024943251885
4978 -77.49782705813058
4979 -77.57952296685792
4980 -77.49736842745396
4981 -77.57816239557725
4982 -77.49864540345214
4983 -77.57915850774131
4984 -77.49901490331858
4985 -77.57783728951762
4986 -77.49723925332367
4987 -77.57718746996275
4988 -77.49767279750395
4989 -77.57619671865537
4990 -77.4962601003331
4991 -77.57461308976163
4992 -77.49569721822512
4993 -77.57449994876811
4994 -77.49504207084001
4995 -77.57469719188116
4996 -77.4942805650129
4997 -77.57519146694533
4998 -77.49409042597325
4999 -77.5757014417283
5000 -77.49596623956695
5001 -77.57661251724949
5002 -77.49450886965542
5003 -77.57725223749672
5004 -77.49528489233768
5005 -77.57686890116136
5006 -77.49688010938372
5007 -77.57668132685653
5008 -77.49735799857187
5009 -77.57766001115584
5010 -77.49662586512268
5011 -77.57750405341559
5012 -77.49792003952562
5013 -77.57838609779525
5014 -77.49782543260815
5015 -77.57758459920859
5016 -77.49740726533334
5017 -77.57684326670463
5018 -77.49603523290618
5019 -77.5767149380509
5020 -77.49590873363796
5021 -77.57541873487112
5022 -77.49471380047959
5023 -77.57522534421329
5024 -77.49649112217776
5025 -77.57614610326596
5026 -77.49389557200868
5027 -77.57608347175257
5028 -77.49519455885088
5029 -77.57650599404838
5030 -77.49707052222585
5031 -77.57686415796724
5032 -77.49711878685187
5033 -77.57815736537222
5034 -77.4957201201341
5035 -77.57712870349079
5036 -77.49713328036299
5037 -77.57751556560272
5038 -77.49808580733772
5039 -77.57763532893649
5040 -77.4974505226041
5041 -77.57680653825481
5042 -77.49790980135688
5043 -77.57752961447628
5044 -77.49726505958834
5045 -77.57765287974564
5046 -77.49746858156159
5047 -77.5767247143025
5048 -77.49768682902743
5049 -77.57938280407153
5050 -77.49683918696066
5051 -77.57915092529207
5052 -77.49595897289896
5053 -77.57857119065973
5054 -77.49729397172334
5055 -77.57949041814145
5056 -77.49695360335954
5057 -77.57905691004019
5058 -77.49554253897472
5059 -77.57826127337464
5060 -77.49704507544745
5061 -77.5777436392417
5062 -77.49700753038699
5063 -77.5779250115223
5064 -77.49780570489439
5065 -77.5766016548996
5066 -77.49849648680414
5067 -77.57707456767248
5068 -77.49751672851615
5069 -77.57578690932228
5070 -77.49662451528931
