"y-rfile"
"Iteration" "y"
("Iteration" "y")
1609 1002.954112417711
1610 1067.933362808197
1611 1151.918430781857
1612 1351.536416560201
1613 1579.791637716554
1614 1822.858198703742
1615 2042.62347886271
1616 2277.707693749305
1617 2516.462488702407
1618 2735.393743141462
1619 2961.631566432038
1620 3169.43150813923
1621 3301.796767237956
1622 3383.098258305696
1623 3424.645863835391
1624 3439.051824810284
1625 3437.50886828066
1626 3439.52844365827
1627 3449.415954323586
1628 3470.67927655392
1629 3506.802540947512
1630 3563.659577900711
1631 3642.124155173065
1632 3744.505653912908
1633 3868.545429381792
1634 3978.421819801444
1635 4146.810407873456
1636 4287.44815072194
1637 4442.240523876856
1638 4609.975023101704
1639 4790.649573803159
1640 4978.535173314919
1641 5173.783102752117
1642 5367.892101939953
1643 5563.931480005647
1644 5813.370885720135
1645 5989.067410861126
1646 6157.401248824957
1647 6318.381869717201
1648 6467.136846496704
1649 6605.971605735484
1650 6731.734855592786
1651 6847.066076378199
1652 6950.994763092525
1653 7043.000799281745
1654 7122.566969801494
1655 7191.785061352453
1656 7250.194783966472
1657 7299.275152810251
1658 7339.161403432264
1659 7370.100207293468
1660 7393.130385568348
1661 7408.555771789885
1662 7417.723234631774
1663 7422.127563020327
1664 7420.957970270259
1665 7416.745738594364
1666 7410.839728806497
1667 7399.959316690752
1668 7389.856083567092
1669 7372.530794189466
1670 7359.325329017343
1671 7337.464382365635
1672 7320.551201056794
1673 7302.685544732978
1674 7282.885399830431
1675 7261.96318335798
1676 7239.223970988702
1677 7215.442679146089
1678 7189.98323618211
1679 7163.796421753706
1680 7135.943364297254
1681 7107.746452500527
1682 7078.030631869675
1683 7048.372860404652
1684 7018.1479154361
1685 6988.640814946863
1686 6959.016389042621
1687 6930.60034886701
1688 6902.298165273869
1689 6875.882014531242
1690 6849.724208872722
1691 6825.722490001801
1692 6802.05659776711
1693 6781.020456738536
1694 6760.531245988727
1695 6743.14661250927
1696 6725.933953262158
1697 6711.775509190918
1698 6697.484191829288
1699 6686.40058132319
1700 6674.508006019465
1701 6665.924626248305
1702 6655.992069704671
1703 6649.399887365769
1704 6641.180488889586
1705 6636.388520071378
1706 6629.296326560558
1707 6625.510510527466
1708 6618.990095931753
1709 6615.592583535752
1710 6609.297680926957
1711 6606.125609905907
1712 6599.618474011637
1713 6596.099960493975
1714 6588.904081371913
1715 6584.989000831913
1716 6577.297637679359
1717 6572.806806222969
1718 6564.310354416888
1719 6559.209368192547
1720 6550.208698366556
1721 6544.508186188854
1722 6534.785929441199
1723 6524.887757762584
1724 6515.200527631252
1725 6509.134653388083
1726 6495.238889686951
1727 6489.296078362458
1728 6475.6850642196
1729 6470.061295441021
1730 6456.801393776115
1731 6451.600623736249
1732 6438.958753402416
1733 6434.488755050266
1734 6422.782165231669
1735 6416.058872486084
1736 6408.250184747567
1737 6402.451718831987
1738 6393.029582824545
1739 6388.298033942452
1740 6379.825322861876
1741 6376.460440249237
1742 6369.14149448131
1743 6366.956636408029
1744 6360.49320613003
1745 6359.427180785175
1746 6354.008954332221
1747 6353.73620722035
1748 6349.172192489712
1749 6349.414345932164
1750 6345.373589719422
1751 6346.165093333029
1752 6342.682100695732
1753 6343.806483062832
1754 6340.578609743156
1755 6341.810169368076
1756 6338.775273458354
1757 6340.200067065709
1758 6337.292624351256
1759 6338.738794161862
1760 6335.753324142295
1761 6336.957024245389
1762 6333.935324501668
1763 6334.942841229276
1764 6331.630129725671
1765 6332.130729416735
1766 6328.753233136962
1767 6329.164831248327
1768 6325.311335741066
1769 6325.294134724851
1770 6321.36275694681
1771 6320.923406390042
1772 6316.602408104603
1773 6315.610533024403
1774 6309.954364010043
1775 6309.148770209093
1776 6304.390038243087
1777 6302.053251734409
1778 6297.110342503892
1779 6295.712677537864
1780 6289.401208321869
1781 6287.818238863371
1782 6281.386240636117
1783 6279.667065334788
1784 6273.149245166991
1785 6271.341017222729
1786 6264.48218900327
1787 6262.622558696575
1788 6255.652944099922
1789 6253.506107845459
1790 6246.092395648528
1791 6242.46667875241
1792 6236.508476982358
1793 6232.855914130864
1794 6225.433422768936
1795 6221.665190236798
1796 6213.970697074773
1797 6210.219489312173
1798 6204.166230622488
1799 6200.284380700687
1800 6192.639098493857
1801 6188.899964111162
1802 6181.547701899268
1803 6178.589236404478
1804 6172.723333565156
1805 6169.490713619924
1806 6162.717983131732
1807 6159.914489278815
1808 6154.55580838007
1809 6151.944138093978
1810 6146.012220367353
1811 6144.756334816519
1812 6139.168591452079
1813 6138.3429065583
1814 6133.345929538405
1815 6132.71415754893
1816 6128.273440755176
1817 6128.323118153229
1818 6124.815699115141
1819 6125.422461803638
1820 6122.854636995176
1821 6123.543720766741
1822 6121.757164531179
1823 6123.493328306839
1824 6122.40348827187
1825 6124.722874103179
1826 6124.591574144225
1827 6127.6718746017
1828 6128.389506063626
1829 6132.271922375541
1830 6133.93516532212
1831 6138.6227437651
1832 6140.956508953595
1833 6146.524741054255
1834 6149.880610431808
1835 6155.936795069656
1836 6160.116204004638
1837 6166.986476102233
1838 6171.891539842547
1839 6179.584745581764
1840 6185.39368262461
1841 6193.638389159987
1842 6200.077756638003
1843 6208.76775115549
1844 6215.616294679885
1845 6225.108334750663
1846 6232.441350466289
1847 6245.107360379261
1848 6253.098955798043
1849 6263.044799316487
1850 6274.230208864257
1851 6284.490261764433
1852 6296.025979721367
1853 6306.35134874188
1854 6317.214410246697
1855 6327.514649963696
1856 6339.081134817883
1857 6349.513563726066
1858 6361.185941562232
1859 6374.812400447157
1860 6382.87903901256
1861 6396.302376518795
1862 6407.734663211114
1863 6420.850672626388
1864 6432.056707972128
1865 6444.712245387327
1866 6454.882323798242
1867 6467.035542606151
1868 6477.286170732834
1869 6489.648842187897
1870 6499.890908167577
1871 6511.894565173539
1872 6521.378699992669
1873 6533.112685704176
1874 6542.768369222042
1875 6554.565606905528
1876 6564.083589049527
1877 6575.439853224834
1878 6584.669658671934
1879 6595.467486481697
1880 6603.765473546251
1881 6614.195354458658
1882 6622.603593649801
1883 6632.241775994107
1884 6639.760710961295
1885 6647.138831198768
1886 6654.636397019211
1887 6663.760006277465
1888 6670.446107545895
1889 6677.170813254354
1890 6683.485859873444
1891 6691.171235118655
1892 6694.874943245959
1893 6701.872827495201
1894 6705.349873027901
1895 6711.611066671644
1896 6714.556344794866
1897 6719.781072732087
1898 6721.386914482361
1899 6724.633046015129
1900 6726.217460582284
1901 6728.270921644965
1902 6728.218977248849
1903 6729.03722231593
1904 6727.976359690656
1905 6727.724866544247
1906 6725.273907113498
1907 6723.756258592708
1908 6719.775476320643
1909 6716.892382953063
1910 6711.785386403331
1911 6707.456749238858
1912 6700.836957369872
1913 6694.95729927939
1914 6687.038180143176
1915 6679.934115524837
1916 6670.554253294264
1917 6662.187907112195
1918 6651.852734609756
1919 6642.463163995952
1920 6631.182066182482
1921 6620.777363818408
1922 6608.5800033881
1923 6597.170513964224
1924 6583.945488498143
1925 6567.933125668303
1926 6554.689827229133
1927 6542.595350913376
1928 6524.905352433399
1929 6512.76300855715
1930 6495.343575485621
1931 6483.656311795536
1932 6466.411826162044
1933 6455.001460823367
1934 6438.417687463018
1935 6427.329226771751
1936 6411.15327354928
1937 6400.491827587488
1938 6385.195545296741
1939 6374.823297804305
1940 6359.584637252814
1941 6349.64886699505
1942 6334.920863753008
1943 6325.275977795639
1944 6311.046169312996
1945 6301.922592892646
1946 6291.543575920787
1947 6279.07874365258
1948 6268.929132797952
1949 6260.344510891981
1950 6247.707756128565
1951 6239.53878191631
1952 6230.149930147909
1953 6222.221518358401
1954 6212.959383983385
1955 6204.948758207302
1956 6196.023469901254
1957 6188.231176351659
1958 6179.384782999156
1959 6171.906209849909
1960 6163.423716461065
1961 6156.275438309856
1962 6147.808034736599
1963 6140.658113448823
1964 6132.551628287949
1965 6125.664760688045
1966 6117.530825147078
1967 6110.803101425766
1968 6102.936008888592
1969 6098.680582335217
1970 6090.624902103661
1971 6086.088772139254
1972 6077.686015577922
1973 6072.908107120124
1974 6064.121961295459
1975 6059.15854843827
1976 6050.014016129373
1977 6044.77594427825
1978 6035.407765746028
1979 6029.946247389677
1980 6020.528773654948
1981 6015.011731743276
1982 6005.63539322567
1983 6000.019041246447
1984 5990.228863269476
1985 5984.574928374348
1986 5974.903455913213
1987 5966.351582641719
1988 5959.867999376002
1989 5951.007767227393
1990 5941.843209114428
1991 5936.382786983716
1992 5927.108007341621
1993 5919.148873910229
1994 5910.425383670329
1995 5902.792423327726
1996 5894.632059616635
1997 5887.609190467383
1998 5880.046445703223
1999 5873.617013849085
2000 5866.471471606997
2001 5860.516490552314
2002 5853.791278647914
2003 5848.233179282925
2004 5841.994966020067
2005 5836.984492123957
2006 5831.243885017464
2007 5826.602884876951
2008 5821.298161457817
2009 5817.289177475068
2010 5812.550575145575
2011 5808.90032730988
2012 5804.714253055503
2013 5801.6699663331
2014 5797.940862413638
2015 5795.332291658768
2016 5792.09743164823
2017 5790.054760889538
2018 5787.278041441201
2019 5785.716068221634
2020 5783.270685154537
2021 5782.023767048591
2022 5780.011878116999
2023 5779.101361439596
2024 5777.543909480664
2025 5777.241356170536
2026 5775.508679918375
2027 5774.749427877892
2028 5773.505144137149
2029 5772.602300938916
2030 5771.294722571218
2031 5770.139358293256
2032 5768.672000985427
2033 5767.25799686171
2034 5765.650706644707
2035 5763.955943723082
2036 5762.220273301677
2037 5761.033988932964
2038 5758.318296038396
2039 5756.900335912786
2040 5753.702705486116
2041 5752.047089303425
2042 5748.534425541085
2043 5746.642413770634
2044 5742.730257423493
2045 5740.518618076418
2046 5736.591377976978
2047 5734.587833022682
2048 5730.303707114748
2049 5728.040850249703
2050 5723.726632923994
2051 5721.317461406359
2052 5716.996397406582
2053 5714.721673492842
2054 5710.563113848631
2055 5708.373069153899
2056 5704.166224501017
2057 5702.216326617666
2058 5698.424851978669
2059 5696.59891040856
2060 5693.071056421337
2061 5691.403908314356
2062 5688.313388296636
2063 5686.822825102727
2064 5684.13491351978
2065 5682.944086706089
2066 5680.701715887962
2067 5679.869677536154
2068 5678.172488509468
2069 5677.577604936623
2070 5676.233218051642
2071 5676.065362264393
2072 5675.288307358137
2073 5675.351331258096
2074 5674.988781356655
2075 5675.277722807609
2076 5675.182344998111
2077 5675.787271502953
2078 5675.746234773826
2079 5676.604968262922
2080 5676.781124378822
2081 5677.743515515616
2082 5677.915984248124
2083 5678.950438371543
2084 5679.098394281725
2085 5680.08887255042
2086 5680.149022137281
2087 5680.800122044428
2088 5680.826444602881
2089 5681.356244331084
2090 5681.258452400356
2091 5681.714234713821
2092 5681.486507329336
2093 5681.679568521716
2094 5681.234565008632
2095 5681.182938302723
2096 5680.741121924177
2097 5680.511897414758
2098 5679.950042269529
2099 5679.617144712327
2100 5678.741480450894
2101 5678.468170054462
2102 5677.518051219959
2103 5677.099067265093
2104 5676.231625076167
2105 5676.192739264176
2106 5675.488497791707
2107 5675.385331382655
2108 5674.786174618304
2109 5674.879843044181
2110 5674.318908659809
2111 5674.464040043938
2112 5674.160152976821
2113 5674.477574686763
2114 5674.39170715908
2115 5674.957049663243
2116 5675.018846487057
2117 5675.841009004609
2118 5676.234681513032
2119 5677.203637580194
2120 5678.255149724184
2121 5679.386123937833
2122 5680.60268877712
2123 5681.891582880895
2124 5683.578831151041
2125 5685.1636938878
2126 5687.213795029591
2127 5689.027539761413
2128 5691.209422572741
2129 5693.190211899232
2130 5695.592301747116
2131 5697.683921581332
2132 5700.321691964373
2133 5702.393096535343
2134 5705.091306769882
2135 5708.079205198219
2136 5709.850316404236
2137 5712.844255661234
2138 5715.336575886155
2139 5718.02383658699
2140 5720.091307240564
2141 5722.571125038594
2142 5724.385538641767
2143 5726.320639552339
2144 5727.813869124368
2145 5729.407090135495
2146 5730.447230051946
2147 5731.764228221071
2148 5732.409350249003
2149 5733.209243456764
2150 5733.18142586185
2151 5733.495586244393
2152 5732.95270569726
2153 5732.748480214802
2154 5731.934097320103
2155 5731.310897760297
2156 5730.029175022945
2157 5728.977182843466
2158 5727.064576535651
2159 5725.616147589484
2160 5723.411820109449
2161 5721.536728829044
2162 5719.201597171666
2163 5717.187021166317
2164 5714.598042149589
2165 5712.31101693573
2166 5709.472883003122
2167 5707.106248002976
2168 5704.219643454869
2169 5701.999652045864
2170 5699.327750726698
2171 5697.192630417129
2172 5694.714738988387
2173 5692.920695028475
2174 5690.825353826773
2175 5689.310641339748
2176 5687.543590297258
2177 5686.669684390857
2178 5685.609171786604
2179 5685.279495286115
2180 5684.689210672112
2181 5685.010166974833
2182 5685.176474464408
2183 5686.442101685311
2184 5687.062277384233
2185 5688.888603541373
2186 5690.433362899934
2187 5693.028387176644
2188 5695.252531237864
2189 5698.294106570182
2190 5701.129924006628
2191 5704.930395947827
2192 5708.358830017017
2193 5711.479362314955
2194 5715.522196047626
2195 5718.837254649532
2196 5723.433546552204
2197 5727.141907161425
2198 5732.041806156668
2199 5737.675299670787
2200 5740.860933516201
2201 5746.244676418137
2202 5750.965341493697
2203 5755.972185076967
2204 5760.461997855687
2205 5765.180085568932
2206 5769.168634966143
2207 5773.621255722524
2208 5777.007832264921
2209 5780.6339309081
2210 5783.271816195348
2211 5786.284700554013
2212 5788.317828696233
2213 5790.697970597213
2214 5791.999065553055
2215 5793.424482331993
2216 5793.763574923401
2217 5794.709676476725
2218 5794.470042627545
2219 5794.741005830145
2220 5793.613525824047
2221 5793.157091769963
2222 5791.703040073862
2223 5790.471307720649
2224 5788.604542297639
2225 5787.082717636593
2226 5784.641259336518
2227 5782.913124794801
2228 5780.358231076322
2229 5778.454194109264
2230 5776.057430568106
2231 5774.894075286787
2232 5772.257310707666
2233 5770.266873970777
2234 5768.424115604531
2235 5766.209382557913
2236 5763.654697158598
2237 5761.850893598301
2238 5759.750234976756
2239 5758.476569714962
2240 5756.631316284062
2241 5755.594738597415
2242 5753.995067951956
2243 5753.242167144054
2244 5752.116533016541
2245 5751.842007471467
2246 5750.782394992028
2247 5750.77329231263
2248 5750.134606068866
2249 5750.249843180893
2250 5749.883460608708
2251 5750.28085545949
2252 5750.01569439804
2253 5750.584728861428
2254 5750.652481000429
2255 5751.545850539844
2256 5751.473977593867
2257 5752.182359648286
2258 5752.159688159958
2259 5753.017567692596
2260 5753.130959984726
2261 5753.954438478862
2262 5754.306411371297
2263 5755.195393172153
2264 5755.294212345523
2265 5756.094857940674
2266 5756.262707685214
2267 5757.23259425815
2268 5757.210085632303
2269 5758.048356758789
2270 5758.320977096786
2271 5759.091543507042
2272 5759.57737020318
2273 5760.418522307689
2274 5760.817402190531
2275 5761.876815601699
2276 5762.311383624474
2277 5763.396029540123
2278 5763.953927307031
2279 5765.111985914555
2280 5765.681435918294
2281 5766.699259337662
2282 5767.33803316552
2283 5768.719425180458
2284 5769.551975124951
2285 5770.84229130462
2286 5771.788965815251
2287 5773.575905756352
2288 5774.845952071272
2289 5776.769680727382
2290 5778.28058700701
2291 5780.530049350251
2292 5782.229349396156
2293 5784.685825585404
2294 5786.583130312494
2295 5789.189185760826
2296 5791.291035700056
2297 5794.000244195962
2298 5796.075631515841
2299 5798.731165004834
2300 5800.715868436921
2301 5803.271528320937
2302 5804.981129881449
2303 5806.923877356714
2304 5808.385939130474
2305 5810.442582356623
2306 5811.39764225302
2307 5812.729687785405
2308 5813.165317993093
2309 5813.765612881305
2310 5813.161491737364
2311 5812.810958170048
2312 5811.643449267111
2313 5810.947861452123
2314 5809.069563627345
2315 5807.719707814212
2316 5804.959261121943
2317 5802.419618039388
2318 5798.894260097943
2319 5795.934681306286
2320 5791.670089814523
2321 5787.772992616148
2322 5783.188722129726
2323 5778.617132948664
2324 5773.772620609017
2325 5769.543204812186
2326 5764.720804305978
2327 5760.278729473797
2328 5755.426958861091
2329 5751.123791172749
2330 5746.226376967322
2331 5742.279265270707
2332 5736.334362652809
2333 5732.752913833589
2334 5728.86015024786
2335 5725.299732489856
2336 5722.517203673062
2337 5719.894223235624
2338 5718.137179346999
2339 5716.799714566985
2340 5715.912938224905
2341 5716.133467822855
2342 5716.139516083156
2343 5717.573463082431
2344 5718.834374914391
2345 5721.797806516273
2346 5723.799790452672
2347 5728.144387512106
2348 5731.19694088198
2349 5735.753113512929
2350 5741.508068232614
2351 5746.541868258184
2352 5751.362408042416
2353 5757.384073233112
2354 5763.142650554095
2355 5769.93228383365
2356 5776.165410821053
2357 5783.204970311363
2358 5789.393312825369
2359 5796.617501952557
2360 5803.2995377681
2361 5810.729319299573
2362 5817.318256361668
2363 5824.363803190128
2364 5830.371159280889
2365 5836.859471397082
2366 5842.054386508747
2367 5847.530031239063
2368 5853.573454113099
2369 5857.820077597179
2370 5862.600627589683
2371 5866.165604231361
2372 5869.597560565274
2373 5872.091001030927
2374 5874.182987316724
2375 5875.937129869378
2376 5876.600997306591
2377 5877.291334956566
2378 5877.021945392987
2379 5877.213169997965
2380 5875.92831260695
2381 5874.886851412815
2382 5873.006198206935
2383 5871.203133174284
2384 5868.985486674934
2385 5867.220419108635
2386 5864.473602144411
2387 5862.076986931697
2388 5858.462303881905
2389 5855.262617448973
2390 5851.374213830246
2391 5847.863163882558
2392 5843.560398152331
2393 5839.980734582603
2394 5835.394517274211
2395 5831.635639860106
2396 5826.831951037873
2397 5822.904330166451
2398 5818.668891552943
2399 5815.05249826679
2400 5811.082654123989
2401 5807.714603920731
2402 5803.941538111138
2403 5801.439610597394
2404 5798.328682712147
2405 5796.299901475029
2406 5793.571857850036
2407 5792.40222412287
2408 5790.957062523601
2409 5790.293293144511
2410 5789.517200337395
2411 5789.577280524892
2412 5789.648264782893
2413 5790.406817818615
2414 5790.777852864121
2415 5792.152345452523
2416 5793.402357048557
2417 5795.640982380899
2418 5797.32972987936
2419 5799.824369607843
2420 5801.743567557975
2421 5804.396614241291
2422 5806.526179972581
2423 5808.365098890616
2424 5810.363235612662
2425 5812.311650989912
2426 5814.484696823489
2427 5816.568757726892
2428 5818.897296359295
2429 5820.670625808365
2430 5822.886348560569
2431 5824.494696328555
2432 5826.324261175916
2433 5828.782447942982
2434 5829.737372613236
2435 5831.683471264163
2436 5832.523815165885
2437 5833.753272528307
2438 5834.025903153535
2439 5834.812474107009
2440 5834.79936000892
2441 5835.068957009733
2442 5834.376347465502
2443 5834.068764423142
2444 5832.729564731096
2445 5832.042279372033
2446 5830.850040784861
2447 5829.53266760475
2448 5827.276447868486
2449 5826.268578907319
2450 5823.881335905573
2451 5822.501602430977
2452 5819.580431210628
2453 5818.04568256479
2454 5814.679853324013
2455 5812.598552704005
2456 5808.9797189206
2457 5806.996671967936
2458 5803.099850601231
2459 5801.148823257268
2460 5798.444304390774
2461 5794.912955803927
2462 5792.263781606373
2463 5790.167690803593
2464 5786.656634138306
2465 5784.825563544162
2466 5781.31178662178
2467 5779.479168904071
2468 5776.365003436316
2469 5774.842150458354
2470 5772.199244162309
2471 5771.076636115284
2472 5768.858323573915
2473 5768.105440485147
2474 5766.669073663466
2475 5766.210058396253
2476 5765.045753364132
2477 5765.092069357253
2478 5764.79150194752
2479 5765.252245434935
2480 5765.543440958902
2481 5766.410229650077
2482 5767.229065985597
2483 5768.597470985963
2484 5769.505238840173
2485 5771.710737515726
2486 5772.931790661275
2487 5774.884343362708
2488 5776.606433742605
2489 5779.832517001521
2490 5781.775507273171
2491 5784.253597008725
2492 5786.254426635508
2493 5788.869474584573
2494 5791.125635304868
2495 5793.825454409351
2496 5796.164544473721
2497 5800.474211374727
2498 5802.88829491668
2499 5805.793691413281
2500 5809.429443023284
2501 5812.081622308861
2502 5815.464239125326
2503 5818.064948935531
2504 5821.181300783976
2505 5824.58336371055
2506 5827.088361702375
2507 5829.022021944294
2508 5830.83342497408
2509 5833.008419720933
2510 5834.307364759396
2511 5835.662612973508
2512 5835.74955232099
2513 5836.434297164672
2514 5836.115944821936
2515 5836.204195181808
2516 5835.209931277746
2517 5834.476834833156
2518 5833.252600293174
2519 5832.076925544421
2520 5830.555251019256
2521 5828.807594724477
2522 5826.892491457624
2523 5824.572398573492
2524 5822.410590327322
2525 5819.806991901545
2526 5817.415796618715
2527 5815.564167782119
2528 5811.982245556409
2529 5809.877867497233
2530 5807.100255382122
2531 5803.569562231079
2532 5800.784801444397
2533 5797.297278247297
2534 5794.426884413926
2535 5790.891864416984
2536 5787.04389686893
2537 5785.009235035972
2538 5781.217720488645
2539 5778.245529335222
2540 5774.890950582721
2541 5772.450023822277
2542 5769.448347753563
2543 5767.326136662697
2544 5764.638425946878
2545 5762.851105058951
2546 5760.653066484378
2547 5759.548604507088
2548 5757.63700294119
2549 5756.713322250444
2550 5755.356117537459
2551 5754.731743384764
2552 5753.488624228723
2553 5753.378777383555
2554 5752.750618142825
2555 5752.959768467301
2556 5752.446130704237
2557 5752.947863664147
2558 5752.995553911311
2559 5753.993692186325
2560 5754.399976825203
2561 5755.828448694738
2562 5756.17591306123
2563 5757.770180763226
2564 5758.7212311546
2565 5760.049933934127
2566 5761.283879926168
2567 5762.984977207125
2568 5764.797548206222
2569 5766.800672369201
2570 5768.995977946577
2571 5771.24484014977
2572 5773.943524432143
2573 5777.392669260103
2574 5780.231375578654
2575 5783.903699709693
2576 5787.043108435699
2577 5790.918525966466
2578 5794.020852179779
2579 5797.935717135657
2580 5801.343102151341
2581 5805.026245879475
2582 5808.147051970436
2583 5812.178884692305
2584 5815.08733430098
2585 5818.823696957299
2586 5821.622095037344
2587 5825.206113675513
2588 5827.990718225234
2589 5831.595637472218
2590 5834.189684272549
2591 5837.236835879163
2592 5839.570602858019
2593 5842.25093818306
2594 5843.799702730141
2595 5846.469272090886
2596 5847.493619377663
2597 5849.303471319747
2598 5849.979520004343
2599 5851.195414196181
2600 5851.510836591149
2601 5852.297348425902
2602 5851.985134441677
2603 5852.270629566216
2604 5851.504987847301
2605 5851.299278215202
2606 5850.259791228411
2607 5849.887398163928
2608 5848.711159748689
2609 5848.219368861535
2610 5846.738564348911
2611 5846.130832218956
2612 5844.774636318914
2613 5844.408826969232
2614 5842.957065897413
2615 5842.590151645378
2616 5841.560197176945
2617 5841.768943145997
2618 5840.887307942921
2619 5841.103412559423
2620 5840.615093826723
2621 5841.134396206635
2622 5841.018887008282
2623 5842.114745484234
2624 5842.519072922638
2625 5843.697480587711
2626 5844.326702954741
2627 5846.425917553397
2628 5847.631194607575
2629 5849.874974727642
2630 5851.657455005336
2631 5854.605953380857
2632 5856.900007584518
2633 5860.420805135182
2634 5863.398722089627
2635 5867.562109638713
2636 5871.164146984126
2637 5875.823734567339
2638 5880.032718824853
2639 5885.197439621919
2640 5889.760324405412
2641 5895.283388207892
2642 5899.898641050797
2643 5905.460424683424
2644 5910.43937178227
2645 5916.400813376509
2646 5921.469526341203
2647 5927.433029826845
2648 5932.404621616524
2649 5937.808562400053
2650 5942.32291191804
2651 5947.556927204276
2652 5951.862321773921
2653 5956.958571666611
2654 5960.499617191263
2655 5964.36226690742
2656 5967.403549459741
2657 5971.766391672625
2658 5973.697415680354
2659 5976.098058020367
2660 5977.149635723839
2661 5978.707914003016
2662 5979.060232054711
2663 5979.673860258441
2664 5979.131605684957
2665 5978.906554574101
2666 5977.486644710722
2667 5976.673499519961
2668 5974.70067348701
2669 5973.352708909724
2670 5970.889316683222
2671 5968.939060489281
2672 5965.741569064015
2673 5963.398878789651
2674 5960.073561697919
2675 5957.27132538017
2676 5953.359953238469
2677 5950.346880270677
2678 5947.509935063809
2679 5944.325491051621
2680 5940.506130264981
2681 5938.484528730412
2682 5934.483362053107
2683 5931.386154479735
2684 5927.840130597365
2685 5925.130281370096
2686 5921.751074795118
2687 5919.419516707329
2688 5916.504437116935
2689 5914.659483222517
2690 5912.22216518558
2691 5910.97084956361
2692 5909.013404197794
2693 5908.077826999351
2694 5906.556330348891
2695 5906.274912401013
2696 5905.374108443502
2697 5905.623564001537
2698 5905.624435161148
2699 5906.468957307443
2700 5906.758125958143
2701 5908.39083247636
2702 5909.509866737683
2703 5911.596939552405
2704 5913.315713431495
2705 5916.225125593777
2706 5918.434260691587
2707 5921.806987767992
2708 5924.452359648512
2709 5928.152395810759
2710 5931.257465037985
2711 5934.212981751098
2712 5937.474231335557
2713 5941.831176539008
2714 5944.122271673324
2715 5948.531855042161
2716 5950.817924547847
2717 5955.259060852923
2718 5958.714460266441
2719 5962.456097968594
2720 5965.261589042309
2721 5968.5056066763
2722 5970.551179577986
2723 5973.25162634973
2724 5974.655306474857
2725 5976.442680263634
2726 5977.170723181654
2727 5978.294581149248
2728 5978.03510158718
2729 5978.296367247647
2730 5977.093617798822
2731 5976.423873223413
2732 5974.186688202151
2733 5972.602160331346
2734 5969.670111509354
2735 5967.271629041081
2736 5963.368120068311
2737 5960.100470084999
2738 5955.474527842448
2739 5951.626988857353
2740 5946.444098365673
2741 5942.069042511286
2742 5936.587516903139
2743 5931.878303707919
2744 5927.849454329546
2745 5922.640487709326
2746 5918.43978479406
2747 5913.084910201197
2748 5907.128670141581
2749 5903.596896203496
2750 5897.6011737598
2751 5892.400756441482
2752 5886.627772833607
2753 5882.270441074551
2754 5877.046261088288
2755 5872.908106949693
2756 5868.496333642999
2757 5865.361658200089
2758 5861.941811447286
2759 5859.721970696244
2760 5857.12097509128
2761 5855.833733378891
2762 5854.486186161135
2763 5854.38936237407
2764 5853.743102567589
2765 5854.394160656
2766 5854.685037175797
2767 5856.563069998345
2768 5858.155057821868
2769 5860.984337928907
2770 5863.182613777536
2771 5866.889870206076
2772 5869.882807362456
2773 5874.206695982594
2774 5878.077325151331
2775 5883.592182780107
2776 5887.946455030453
2777 5893.785332111431
2778 5898.888997728085
2779 5905.154776234608
2780 5908.644959375421
2781 5915.224408005872
2782 5921.097348156127
2783 5927.461706554342
2784 5932.901321815903
2785 5939.167548562749
2786 5944.55616131213
2787 5950.455708022154
2788 5955.207897360917
2789 5960.369080533299
2790 5964.272928054495
2791 5968.772422682541
2792 5971.926937474816
2793 5975.470679626533
2794 5977.667283375014
2795 5980.202321188111
2796 5981.438196409623
2797 5983.017987188074
2798 5983.048240818936
2799 5983.562893999264
2800 5982.717586566523
2801 5982.204866829725
2802 5980.496769440917
2803 5978.584424408713
2804 5975.475476614709
2805 5972.694509882253
2806 5968.96284645442
2807 5965.615094618504
2808 5961.104538731133
2809 5957.23506376211
2810 5952.186049788224
2811 5948.095271321023
2812 5943.058227813985
2813 5940.336595264758
2814 5935.062618950902
2815 5930.927037478861
2816 5927.331853980877
2817 5923.264316597976
2818 5918.3482228795
2819 5914.598881853816
2820 5909.979911175546
2821 5906.576144966901
2822 5902.681237964379
2823 5899.822585857295
2824 5896.728743341095
2825 5894.658332118132
2826 5891.657949840124
2827 5889.890720692419
2828 5887.641642449771
2829 5886.456179540759
2830 5884.524880094552
2831 5883.982115476995
2832 5882.97110411846
2833 5882.868697363633
2834 5882.018074676047
2835 5882.450520418526
2836 5881.823685263205
2837 5882.219971340672
2838 5881.856608097993
2839 5882.33335757569
2840 5882.090657240152
2841 5883.004022084356
2842 5882.944104509515
2843 5883.659368326173
2844 5883.449273691766
2845 5883.916008828093
2846 5883.431486321377
2847 5883.775543490414
2848 5883.187657794986
2849 5883.187977135123
2850 5882.233051842175
2851 5882.128932926142
2852 5880.822332486357
2853 5880.689653129683
2854 5879.116086146155
2855 5878.209933080048
2856 5876.309874895534
2857 5875.075531518758
2858 5873.229259887576
2859 5872.031917178725
2860 5869.969677461708
2861 5868.552660767822
2862 5866.536006525812
2863 5865.199575784791
2864 5863.010753174763
2865 5861.274823146876
2866 5859.124182375484
2867 5857.846215129786
2868 5855.710958385744
2869 5854.307579492501
2870 5852.37962989812
2871 5851.623134209818
2872 5850.111435206607
2873 5849.812359808601
2874 5848.698326359015
2875 5848.7134247625
2876 5848.288155507113
2877 5849.278581108863
2878 5849.469542613044
2879 5850.895870594365
2880 5852.123479066238
2881 5854.477655348264
2882 5856.093642935439
2883 5859.189103147044
2884 5861.550644464118
2885 5865.357168061333
2886 5868.565401589626
2887 5872.906783117895
2888 5876.755480149456
2889 5881.783924619982
2890 5886.0224434922
2891 5891.314774983382
2892 5895.775726702293
2893 5901.175800215291
2894 5906.05540129476
2895 5911.748992306737
2896 5916.586436030053
2897 5922.260037683342
2898 5927.198905806539
2899 5932.818606692097
2900 5937.598460965455
2901 5943.174800918967
2902 5947.44802674221
2903 5952.348242521415
2904 5956.082183740102
2905 5960.577503889785
2906 5963.831426645269
2907 5967.602517467169
2908 5969.864696197354
2909 5972.912192506893
2910 5974.976133271127
2911 5977.016572300901
2912 5977.542685878798
2913 5978.590104701508
2914 5978.103006704205
2915 5978.005670336819
2916 5976.607258342297
2917 5975.733355628781
2918 5973.597874530709
2919 5971.877591007878
2920 5968.646947879955
2921 5966.274954796858
2922 5962.826353960277
2923 5960.05926517811
2924 5955.92819583896
2925 5953.985748707471
2926 5949.746235818107
2927 5947.461567149219
2928 5942.729502427894
2929 5940.311753983929
2930 5935.390563926579
2931 5932.961030754598
2932 5928.306734639784
2933 5925.816015313558
2934 5921.371938460224
2935 5917.976665047701
2936 5914.089695233835
2937 5911.179521468268
2938 5907.660388961373
2939 5905.187996435833
2940 5902.249604535828
2941 5900.43140663529
2942 5897.884527756378
2943 5896.646626933682
2944 5894.877638643242
2945 5894.234007124694
2946 5892.996564965422
2947 5892.746423740455
2948 5892.015555136169
2949 5892.350566086279
2950 5891.86539051332
2951 5892.498831513853
2952 5892.400544064636
2953 5893.359445065924
2954 5893.503944377893
2955 5894.486654183165
2956 5894.829862425992
2957 5895.856612502459
2958 5896.219347877804
2959 5897.164365448732
2960 5897.33510007981
2961 5898.288123524191
2962 5898.431724770478
2963 5899.106694273798
2964 5899.06075037054
2965 5899.530789465623
2966 5899.307913914384
2967 5899.621525219971
2968 5899.241288101091
2969 5899.551033096259
2970 5899.03935614773
2971 5899.199965684596
2972 5898.453333584517
2973 5898.401770020248
2974 5897.414654717724
2975 5897.226645650696
2976 5895.938444890174
2977 5895.604735425437
2978 5894.151607628914
2979 5893.672136902156
2980 5891.968528966025
2981 5891.366008702056
2982 5889.25202765325
2983 5888.505314691064
2984 5886.864515141575
2985 5885.257960182404
2986 5883.541641408135
2987 5882.379968216281
2988 5880.511940334295
2989 5879.218636754233
2990 5877.107890993668
2991 5875.518816017992
2992 5873.24738844479
2993 5870.693385228811
2994 5868.379453442967
2995 5866.777170390153
2996 5863.519976491678
2997 5861.969404947965
2998 5858.963710238522
2999 5857.689145541292
3000 5855.009432703346
3001 5853.184298127181
3002 5850.856580170421
3003 5849.560502628497
3004 5847.733593976392
3005 5846.911423545158
3006 5845.499682786034
3007 5845.251450485769
3008 5844.289912830314
3009 5844.487226856295
3010 5843.947037116312
3011 5844.442128377842
3012 5844.301014277286
3013 5845.303534158736
3014 5845.588386704709
3015 5846.982170195098
3016 5847.54041675044
3017 5849.198989663044
3018 5850.046112843768
3019 5852.053939194512
3020 5852.668220512078
3021 5854.961461561568
3022 5856.364404177059
3023 5858.239715456071
3024 5859.82779278807
3025 5862.394675047422
3026 5863.466023176394
3027 5866.325058605194
3028 5868.235833011752
3029 5870.908677223176
3030 5872.850258254314
3031 5875.595028242438
3032 5877.547065145957
3033 5880.348154286719
3034 5882.126707707018
3035 5884.712072743556
3036 5886.300932642123
3037 5888.814335612064
3038 5890.233350317521
3039 5892.597811726315
3040 5893.701644875029
3041 5895.765191311674
3042 5896.569854647438
3043 5898.230030777268
3044 5898.714162101059
3045 5899.991437858496
3046 5900.051374707626
3047 5900.928773045871
3048 5900.635429834302
3049 5901.148832142068
3050 5900.35542996999
3051 5900.338569740376
3052 5899.104153494539
3053 5898.749779556859
3054 5897.109622678086
3055 5896.459824454376
3056 5894.726164912583
3057 5893.668733379841
3058 5892.029902306333
3059 5890.797127076023
3060 5888.240455771533
3061 5887.266776420238
3062 5884.585394515714
3063 5882.630746190056
3064 5879.705201484495
3065 5877.606216522958
3066 5874.814846574928
3067 5872.815239087971
3068 5869.939822376315
3069 5868.22403749079
3070 5865.719153258606
3071 5864.174845189359
3072 5861.835773642621
3073 5860.606400063893
3074 5858.425073471987
3075 5857.347797118295
3076 5855.453311601777
3077 5854.643194611952
3078 5853.017276180909
3079 5852.486889442683
3080 5851.090031461084
3081 5850.87105660193
3082 5849.767981743186
3083 5849.762243735115
3084 5848.852274907233
3085 5848.916619526055
3086 5848.065936283199
3087 5848.221903059539
3088 5847.354910450173
3089 5847.673534475165
3090 5847.009175380295
3091 5847.131035435409
3092 5846.415964601494
3093 5846.484649510398
3094 5845.519674541054
3095 5845.541914071158
3096 5844.415097289022
3097 5844.181932708492
3098 5842.759533362458
3099 5842.46382883874
3100 5840.617739426523
3101 5840.086545441205
3102 5838.055135078072
3103 5837.243622283664
3104 5834.845648416684
3105 5833.959609866724
3106 5831.376019822801
3107 5830.271640133826
3108 5827.405876766776
3109 5826.144670931792
3110 5823.461794199704
3111 5821.392755689186
3112 5819.442255516455
3113 5817.415975144029
3114 5814.508580151253
3115 5813.278567921206
3116 5810.260134024902
3117 5808.064513349245
3118 5805.174864357592
3119 5803.1955029368
3120 5800.361684624177
3121 5798.53739087107
3122 5796.04127773874
3123 5794.298242471833
3124 5792.094966783071
3125 5790.74046675793
3126 5788.558272839336
3127 5787.545531618907
3128 5785.754050607689
3129 5785.063585657019
3130 5783.665456571175
3131 5783.296775428807
3132 5782.179210051647
3133 5782.075876627499
3134 5781.137574022292
3135 5781.177618091058
3136 5780.545640919679
3137 5780.96338449175
3138 5780.320417798461
3139 5780.839624835702
3140 5780.314213068251
3141 5780.781739625419
3142 5780.196100910031
3143 5780.452407815346
3144 5779.637762448894
3145 5779.632017680879
3146 5778.501589060275
3147 5778.407126626115
3148 5777.051711092279
3149 5776.364284174928
3150 5775.013172324983
3151 5773.972383814166
3152 5771.989421277149
3153 5771.194530428627
3154 5768.75919101324
3155 5766.955153624995
3156 5764.243359865835
3157 5763.04678861946
3158 5760.027767989875
3159 5757.906552284976
3160 5754.884541457076
3161 5752.995112812368
3162 5750.01950565179
3163 5748.13101904018
3164 5745.429192390462
3165 5743.599776075482
3166 5740.919028335528
3167 5739.214902665636
3168 5736.669051680841
3169 5735.157578689703
3170 5732.775196663453
3171 5731.528147110641
3172 5729.527616562187
3173 5728.647955261284
3174 5726.91656076594
3175 5726.327345388077
3176 5725.066946195559
3177 5725.016753147418
3178 5724.261677468594
3179 5724.741107403657
3180 5724.562516679651
3181 5725.731045177798
3182 5726.062570889299
3183 5727.736425919995
3184 5728.748925645825
3185 5731.003890429138
3186 5732.415169813308
3187 5735.395151309398
3188 5737.640849018591
3189 5740.949073109206
3190 5743.51021520591
3191 5747.269164540547
3192 5750.154404134417
3193 5754.15485014386
3194 5757.449778302947
3195 5761.582089416737
3196 5764.971487522351
3197 5769.206185349032
3198 5772.554259505949
3199 5776.733848210406
3200 5779.915092405263
3201 5784.022344678537
3202 5787.046132830293
3203 5790.986559208567
3204 5793.986219198221
3205 5797.619657039031
3206 5800.177914855934
3207 5803.461063682871
3208 5805.750418000685
3209 5808.714926017029
3210 5810.757484594957
3211 5813.263583939402
3212 5814.950737833215
3213 5817.34828867284
3214 5818.805281447962
3215 5821.035861968832
3216 5822.148488371333
3217 5823.951221871464
3218 5824.727715261144
3219 5826.239040762719
3220 5826.976388828751
3221 5828.580932513893
3222 5829.221953403073
3223 5830.739312933298
3224 5831.094019272632
3225 5832.583127770935
3226 5833.025125818103
3227 5834.640217645721
3228 5835.104920424321
3229 5836.987222785246
3230 5837.662605299318
3231 5838.994777950892
3232 5840.176451625905
3233 5841.561808362218
3234 5842.453007377531
3235 5844.402120325021
3236 5845.305453204122
3237 5847.450943572672
3238 5848.310953367547
3239 5850.576924731609
3240 5851.599464186898
3241 5853.832156980803
3242 5854.788815296695
3243 5856.970303828401
3244 5857.833269408151
3245 5860.050801155447
3246 5860.883394266108
3247 5862.844249929015
3248 5863.669590416392
3249 5865.526000873038
3250 5866.148450947494
3251 5867.303085454476
3252 5868.166211136122
3253 5869.101413264508
3254 5869.42267027233
3255 5870.513801176996
3256 5870.546257611639
3257 5871.087577397569
3258 5870.981087423766
3259 5871.245521615247
3260 5870.805880142785
3261 5870.714219221575
3262 5870.085666030463
3263 5869.85491570835
3264 5868.938349654572
3265 5868.100657295744
3266 5867.049153159556
3267 5866.345001904796
3268 5864.971213979583
3269 5863.919142988054
3270 5861.653654034388
3271 5860.407675164738
3272 5858.426617698463
3273 5856.922881593793
3274 5854.779538083747
3275 5852.067125477445
3276 5849.807584068174
3277 5847.902655982704
3278 5844.252456475302
3279 5842.2239867825
3280 5838.444589130104
3281 5836.280714041064
3282 5832.384868967314
3283 5830.29879823153
3284 5826.448453071062
3285 5823.286735004142
3286 5820.673064938645
3287 5817.538649957672
3288 5813.982795384172
3289 5811.130356360105
3290 5807.760300699996
3291 5805.116346377452
3292 5802.041505180907
3293 5799.727105994223
3294 5796.942669512198
3295 5795.005666650475
3296 5792.601481836478
3297 5790.860235746191
3298 5788.609960942781
3299 5787.20717613572
3300 5785.236460104084
3301 5784.099695518838
3302 5782.386467310439
3303 5781.521178544774
3304 5780.250534786741
3305 5779.791632045914
3306 5778.872587311638
3307 5778.792689818813
3308 5778.27530480906
3309 5778.453327089179
3310 5778.206660829692
3311 5778.753562244096
3312 5778.757286513013
3313 5779.681904198995
3314 5779.928802459083
3315 5781.145004196302
3316 5781.632798576124
3317 5782.646612868906
3318 5783.752429048935
3319 5784.964388761774
3320 5785.81243704283
3321 5787.187265097238
3322 5788.183618882408
3323 5789.705385131403
3324 5791.673692720971
3325 5793.359245678334
3326 5795.395433394635
3327 5797.124021726841
3328 5799.146793215847
3329 5800.891222189561
3330 5802.910846841673
3331 5805.389258426125
3332 5807.336662541101
3333 5809.605605815194
3334 5811.289889380298
3335 5813.359226807025
3336 5814.773856589743
3337 5816.600737415843
3338 5817.739915814716
3339 5819.295388956723
3340 5820.049075471763
3341 5821.090793734589
3342 5821.478176244344
3343 5822.201486980761
3344 5822.185747478767
3345 5822.56144810307
3346 5822.100959529148
3347 5822.065862361769
3348 5821.322307695613
3349 5821.007613283443
3350 5820.199053649079
3351 5819.586734256487
3352 5818.634100142779
3353 5817.693050139955
3354 5816.734464583913
3355 5816.17989206969
3356 5814.591505740797
3357 5813.853671557368
3358 5812.628463472671
3359 5811.790034423217
3360 5810.48108155079
3361 5809.59019089847
3362 5808.363910894143
3363 5806.973962442829
3364 5805.850260727361
3365 5804.681958045181
3366 5803.655536875382
3367 5802.721531696096
3368 5801.49045823388
3369 5801.078782546076
3370 5800.032613190464
3371 5799.663033669051
3372 5798.879980149955
3373 5798.823634971592
3374 5798.435609753382
3375 5798.780950586567
3376 5798.793884454099
3377 5799.438164780167
3378 5799.739005013782
3379 5800.733235849725
3380 5801.27888344776
3381 5802.457855173264
3382 5803.2662286502
3383 5804.326054359297
3384 5805.432798706615
3385 5806.628745190257
3386 5807.876827935962
3387 5809.17517044104
3388 5810.697200479121
3389 5812.094625993923
3390 5813.733936287608
3391 5815.220005670246
3392 5816.884628063286
3393 5818.367384421962
3394 5819.961535876319
3395 5821.948163911796
3396 5822.897589557298
3397 5824.820260825893
3398 5826.355633252568
3399 5828.275183106614
3400 5829.574711529829
3401 5831.283596794808
3402 5832.375077387335
3403 5833.964867332612
3404 5834.817382440742
3405 5836.059973307868
3406 5836.64323321704
3407 5837.589825619332
3408 5837.861043741685
3409 5838.602669811106
3410 5838.615708785592
3411 5839.118271911317
3412 5838.859966320313
3413 5839.065506449875
3414 5838.708450394292
3415 5838.594170402787
3416 5837.876357040706
3417 5837.419565989527
3418 5836.387786772029
3419 5835.742685291494
3420 5834.464165581116
3421 5833.57831851268
3422 5832.475091570735
3423 5831.21443912738
3424 5829.970741595191
3425 5828.515361191584
3426 5827.176438242154
3427 5825.542618114932
3428 5823.445169612311
3429 5822.335860204136
3430 5820.043770560746
3431 5818.182647830268
3432 5815.814417975131
3433 5813.924967652472
3434 5811.515362772327
3435 5809.517996426888
3436 5807.049567446392
3437 5805.109187482758
3438 5802.781246090003
3439 5800.872786594944
3440 5798.601170496497
3441 5796.758650204951
3442 5794.553297578606
3443 5792.887868029055
3444 5790.719716227424
3445 5789.252053293439
3446 5787.208551963176
3447 5785.726764332515
3448 5783.905991183785
3449 5782.617934588925
3450 5780.970620012919
3451 5779.908657176598
3452 5778.490156074047
3453 5777.660864433679
3454 5776.4263627621
3455 5775.653276679814
3456 5774.52687909009
3457 5774.119250117228
3458 5773.334163057481
3459 5773.074799842738
3460 5772.496705107793
3461 5772.169704468861
3462 5771.772762000176
3463 5771.745608863155
3464 5771.3640959849
3465 5771.433508260667
3466 5771.145062238293
3467 5771.225497505977
3468 5770.92056394266
3469 5771.095750699846
3470 5770.961033085438
3471 5771.17545891304
3472 5771.036139210664
3473 5771.219909173991
3474 5771.066748930165
3475 5771.236355150523
3476 5771.144805400507
3477 5771.288660309604
3478 5771.197193626047
3479 5771.355452670008
3480 5771.241458132163
3481 5771.350020780808
3482 5771.175489925488
3483 5771.370603663006
3484 5771.198194336111
3485 5771.272322693366
3486 5771.098442842336
3487 5771.191990012891
3488 5771.014056146903
3489 5771.193599761176
3490 5771.053350358834
3491 5771.228545234377
3492 5771.05130824041
3493 5771.230909653723
3494 5771.140180478622
3495 5771.455680659268
3496 5771.401082062299
3497 5771.814075190962
3498 5771.833553907163
3499 5772.259019017734
3500 5772.267637751183
3501 5772.933781002055
3502 5773.08391881372
3503 5773.671955798106
3504 5773.963927231995
3505 5774.695263397878
3506 5775.095108464991
3507 5775.926055593659
3508 5776.396001638612
3509 5777.24245027166
3510 5777.811266597178
3511 5778.794010154328
3512 5779.440076705634
3513 5780.444297656695
3514 5781.120089685619
3515 5782.208838666989
3516 5783.50902773075
3517 5784.695950603869
3518 5785.664021247794
3519 5787.541351510738
3520 5788.479160341905
3521 5789.807535913276
3522 5791.233773165583
3523 5792.439677033857
3524 5793.850439183614
3525 5795.103318611342
3526 5796.45014359813
3527 5798.165246030005
3528 5798.846537131702
3529 5800.565571883446
3530 5801.682630357098
3531 5803.17780393443
3532 5804.147606007199
3533 5805.448810880758
3534 5806.214344265525
3535 5807.525794311512
3536 5808.265602656274
3537 5809.544388482476
3538 5810.095982798553
3539 5811.332258074164
3540 5812.004037899262
3541 5813.184950837795
3542 5813.74363255664
3543 5815.103368070701
3544 5815.859811550781
3545 5817.131294885882
3546 5818.027295550759
3547 5819.37288887853
3548 5820.037071022227
3549 5821.238318070258
3550 5822.099825329109
3551 5823.437503658683
3552 5824.17191498478
3553 5825.545844237329
3554 5826.174524500213
3555 5827.425716716592
3556 5828.056437139396
3557 5829.103330378252
3558 5829.79366785049
3559 5830.983917484564
3560 5831.47023862947
3561 5832.401831007683
3562 5832.835220067921
3563 5833.774118343298
3564 5834.171980444962
3565 5834.836489621684
3566 5835.019645640161
3567 5835.553282902966
3568 5835.515532137961
3569 5836.062071984708
3570 5836.014013003411
3571 5836.18005158131
3572 5835.763270511256
3573 5835.833983455974
3574 5835.201402566285
3575 5835.105354063755
3576 5834.349794626949
3577 5833.82593219839
3578 5832.761366001374
3579 5832.165773514802
3580 5830.768766117897
3581 5829.632881510755
3582 5827.956769062322
3583 5826.60203243789
3584 5824.650441053972
3585 5823.290736544574
3586 5820.912056809382
3587 5818.871959477893
3588 5817.196961517936
3589 5814.730923282173
3590 5811.841804965345
3591 5809.238054998053
3592 5807.279777538562
3593 5804.689887863417
3594 5801.433134139286
3595 5798.686766823601
3596 5795.425539535442
3597 5792.546334945439
3598 5789.335429721894
3599 5786.467629274857
3600 5783.231470702332
3601 5780.380435032494
3602 5777.254489624333
3603 5774.620971960641
3604 5771.602395482073
3605 5769.263899286496
3606 5766.511472271537
3607 5764.284227712459
3608 5761.795627002779
3609 5759.883993579082
3610 5757.652878171039
3611 5755.975605072932
3612 5754.171992784794
3613 5752.966811930722
3614 5751.500569147782
3615 5750.617161690156
3616 5749.601126643846
3617 5749.126965608587
3618 5748.400464913402
3619 5748.327938796222
3620 5748.034155497104
3621 5748.287863195133
3622 5748.261455997575
3623 5748.667070502081
3624 5748.696676525027
3625 5749.242570350083
3626 5749.561377487665
3627 5750.247256083227
3628 5750.506247520802
3629 5751.214938338192
3630 5751.699947718424
3631 5752.413703360672
3632 5752.934492180293
3633 5753.576996007314
3634 5753.985356950725
3635 5754.603643090955
3636 5754.758971643107
3637 5755.292760368167
3638 5755.347881047266
3639 5755.741177373606
3640 5755.453719951176
3641 5755.198225540884
3642 5754.399170866249
3643 5754.119187307383
3644 5752.855665922767
3645 5751.691222060322
3646 5750.184704361051
3647 5748.87533621617
3648 5746.994580805163
3649 5745.39837430447
3650 5743.088898900829
3651 5741.024338303594
3652 5738.039622244102
3653 5735.626395357391
3654 5732.593998714554
3655 5729.866438967704
3656 5726.508013019961
3657 5723.434259053582
3658 5719.70775317297
3659 5716.501123678207
3660 5712.646914967119
3661 5709.267196709815
3662 5705.354039643485
3663 5702.005072333105
3664 5698.243751654813
3665 5695.05911562423
3666 5691.278132309728
3667 5688.293361682619
3668 5684.669387140559
3669 5681.939220404611
3670 5678.616880802283
3671 5675.883760459329
3672 5672.943175555228
3673 5670.604817767087
3674 5667.922146246583
3675 5666.116769456984
3676 5664.039162024119
3677 5662.81819272534
3678 5661.157250728622
3679 5660.305037581311
3680 5658.943598787006
3681 5658.329164722103
3682 5657.602421137648
3683 5657.609054122538
3684 5657.437218260708
3685 5658.091001350975
3686 5658.62161260993
3687 5659.744786529665
3688 5660.714429413114
3689 5662.336857663325
3690 5663.915304853213
3691 5666.180922509869
3692 5668.151353546301
3693 5670.89009466881
3694 5672.416593876194
3695 5675.643993727048
3696 5677.636400886546
3697 5681.089006705116
3698 5683.167270878239
3699 5685.751270037689
3700 5689.089693107282
3701 5691.74311533851
3702 5695.278877118486
3703 5697.958566871272
3704 5701.529921402904
3705 5705.287305959569
3706 5708.42153940462
3707 5711.711643428318
3708 5714.206972753485
3709 5717.076500242592
3710 5719.321795477695
3711 5721.707350964687
3712 5723.200463513602
3713 5724.868029898262
3714 5725.684807469929
3715 5726.500731383132
3716 5726.381511288246
3717 5726.284775648609
3718 5725.454019514988
3719 5724.502885851645
3720 5722.783557853417
3721 5720.916300945953
3722 5718.469506963294
3723 5716.173901426047
3724 5713.028914758859
3725 5710.427690487279
3726 5706.955911159675
3727 5703.619758008763
3728 5699.615661677592
3729 5695.849140184163
3730 5691.436620471828
3731 5687.692789947512
3732 5684.536288297656
3733 5680.095761029552
3734 5675.135031941381
3735 5672.179731976166
3736 5667.015333926653
3737 5662.128890757064
3738 5657.264724516097
3739 5652.749117074532
3740 5648.124617632539
3741 5643.891992332148
3742 5639.536701642162
3743 5635.647847472535
3744 5631.708788337571
3745 5628.573515078697
3746 5625.062970124129
3747 5622.464490821863
3748 5619.773357874992
3749 5617.100020360043
3750 5615.14870181964
3751 5614.027536995701
3752 5612.882841067809
3753 5612.801755110437
3754 5612.494203427967
3755 5613.282199087169
3756 5613.793322566586
3757 5615.391963135962
3758 5616.929609474637
3759 5619.432439782581
3760 5621.671792009824
3761 5625.068626805941
3762 5628.181990301654
3763 5632.261726940739
3764 5636.098913030448
3765 5640.791816664768
3766 5643.748530156475
3767 5648.840699518432
3768 5651.983234431225
3769 5657.69698639728
3770 5661.301910620105
3771 5667.606551554879
3772 5671.512576918693
3773 5677.688613065638
3774 5683.418008411973
3775 5689.316065651949
3776 5694.718697933416
3777 5700.303900674226
3778 5705.142933579737
3779 5710.174925336725
3780 5714.460719127632
3781 5718.661620243909
3782 5722.078593082877
3783 5725.454366535454
3784 5727.938144458609
3785 5730.65202779797
3786 5732.02606366271
3787 5733.461000643916
3788 5734.044125809614
3789 5734.916841060132
3790 5734.555461001737
3791 5734.351992266267
3792 5733.230462324944
3793 5732.350603135781
3794 5730.521339290999
3795 5728.822608402426
3796 5726.50725240238
3797 5724.518434896983
3798 5721.695633418878
3799 5719.133180625788
3800 5717.080544486269
3801 5714.180960970125
3802 5711.848921262765
3803 5708.748689663001
3804 5706.136605623393
3805 5703.975513794629
3806 5700.455818589449
3807 5698.411522414239
3808 5694.906315741351
3809 5692.944971488012
3810 5689.566762667338
3811 5686.699341500467
3812 5683.558155100893
3813 5681.107328965394
3814 5678.326407393806
3815 5676.116967404583
3816 5673.652803956298
3817 5671.944826091669
3818 5669.993355429301
3819 5668.525191262259
3820 5666.89360281334
3821 5666.133681400102
3822 5665.026599528856
3823 5664.634773928139
3824 5664.105768508058
3825 5664.162406696618
3826 5663.944742580336
3827 5664.544324046594
3828 5664.925700066711
3829 5665.943258272053
3830 5666.568473409776
3831 5667.526925694414
3832 5668.73179888917
3833 5669.979698285179
3834 5671.570878424298
3835 5673.175531987603
3836 5674.491557165213
3837 5676.266037604481
3838 5677.742592431304
3839 5679.782333323681
3840 5681.485631210177
3841 5683.626017263079
3842 5685.595042863053
3843 5687.873146717685
3844 5689.800200390992
3845 5693.099264478491
3846 5695.040818042195
3847 5698.191466750218
3848 5700.905316599031
3849 5703.72860468271
3850 5706.117045214252
3851 5708.676189050791
3852 5710.633805463413
3853 5712.696193658896
3854 5714.116402428355
3855 5715.713027638478
3856 5716.6381820281
3857 5717.826216796575
3858 5718.168419188745
3859 5718.821706666557
3860 5718.588775574999
3861 5718.58117697058
3862 5717.875155440948
3863 5717.47271919882
3864 5716.430412067649
3865 5715.937245716083
3866 5714.630223474431
3867 5714.005672264786
3868 5712.274831694619
3869 5711.407797632031
3870 5710.007741796911
3871 5708.595970475701
3872 5707.098003698709
3873 5706.144344045422
3874 5704.68256550174
3875 5703.671684420273
3876 5702.177021183537
3877 5701.095010290547
3878 5698.899525356226
3879 5697.800114383841
3880 5695.776377325309
3881 5694.808198459978
3882 5692.876842141387
3883 5691.471465980574
3884 5689.55072295965
3885 5688.272703191165
3886 5686.668501358829
3887 5685.714653986537
3888 5684.378748367364
3889 5683.719440934007
3890 5682.814494721524
3891 5682.580266274208
3892 5681.944759638696
3893 5682.050035121865
3894 5681.774502789579
3895 5682.163794858476
3896 5682.088205802336
3897 5682.807866805709
3898 5683.015604411987
3899 5684.133334322391
3900 5684.488849746168
3901 5685.716163819099
3902 5686.261526991009
3903 5687.258394252673
3904 5687.908359284374
3905 5688.971750441746
3906 5689.668326988458
3907 5690.829758022771
3908 5691.575988720713
3909 5692.762987211063
3910 5693.480269877256
3911 5694.542770863747
3912 5695.352215561923
3913 5696.548230141039
3914 5697.297132192642
3915 5698.377806101786
3916 5699.102068406421
3917 5700.559445318342
3918 5701.183010455245
3919 5702.472788629701
3920 5702.997698184465
3921 5704.264594694738
3922 5704.690192187808
3923 5705.746691418911
3924 5705.958607791563
3925 5706.686326647578
3926 5706.951951501944
3927 5707.466329621193
3928 5707.515914644217
3929 5707.854957647887
3930 5707.697439170196
3931 5707.898272522247
3932 5707.529736676827
3933 5707.636752280388
3934 5707.205945009831
3935 5707.202715368327
3936 5706.670663376828
3937 5706.597525026507
3938 5706.131070775227
3939 5705.97299428207
3940 5705.42130970643
3941 5705.252947716948
3942 5704.77883750414
3943 5704.584463970858
3944 5704.068582111864
3945 5703.88581116615
3946 5703.402430632608
3947 5703.324200452855
3948 5702.874362472292
3949 5702.802067516779
3950 5702.410900849568
3951 5702.46415998524
3952 5702.203110333072
3953 5702.295919098343
3954 5702.102198504395
3955 5702.354915147668
3956 5702.302094280718
3957 5702.672596380353
3958 5702.751752017621
3959 5703.215888826335
3960 5703.387297926854
3961 5703.943156210226
3962 5704.212228887649
3963 5704.909458093089
3964 5705.338354186532
3965 5706.181596118292
3966 5706.714871671316
3967 5707.671607661869
3968 5708.356569533551
3969 5709.430120580751
3970 5710.240259007263
3971 5711.41210566149
3972 5712.29507440053
3973 5713.527986648734
3974 5714.526576693012
3975 5715.91485315438
3976 5717.012582645162
3977 5718.461100580244
3978 5719.566489795204
3979 5721.077633257029
3980 5722.288981931588
3981 5723.80822016178
3982 5725.032839414014
3983 5726.554261074822
3984 5728.45451564036
3985 5729.966429290695
3986 5731.144117109272
3987 5733.28067908304
3988 5734.408091475721
3989 5735.855408710481
3990 5737.483390317146
3991 5738.907285582735
3992 5740.488073369671
3993 5741.83971385269
3994 5743.266574964058
3995 5744.55132403376
3996 5745.890996132535
3997 5747.133113917099
3998 5748.452219191193
3999 5749.664534740687
4000 5750.862265427143
4001 5751.983003853105
4002 5752.735483701592
4003 5754.40440740246
4004 5755.152843986069
4005 5756.751712492611
4006 5757.441147708145
4007 5758.540120530485
4008 5759.704549422607
4009 5760.844401119013
4010 5761.562583438637
4011 5762.687124336383
4012 5763.852899476282
4013 5764.896473928495
4014 5765.589748570224
4015 5766.680083035484
4016 5767.352801389316
4017 5768.412212681146
4018 5769.080132839568
4019 5770.081395215975
4020 5770.746742184623
4021 5771.761792020316
4022 5772.403713300188
4023 5773.358555351668
4024 5773.950140779592
4025 5774.908265507157
4026 5775.500830406896
4027 5776.325171163176
4028 5776.88579303092
4029 5777.687580489935
4030 5778.228001572606
4031 5779.020498221166
4032 5779.546111983344
4033 5780.360844123115
4034 5780.847915141418
4035 5781.66323005723
4036 5782.156155906594
4037 5783.023531738212
4038 5783.59745174795
4039 5784.794699087552
4040 5785.330100325615
4041 5786.202351419571
4042 5786.758509995027
4043 5787.717463120027
4044 5788.280899436113
4045 5789.174982857215
4046 5790.223345503256
4047 5791.120775201149
4048 5791.671825697798
4049 5792.609545949688
4050 5793.25702033611
4051 5794.656418806116
4052 5795.281476340169
4053 5796.295953127241
4054 5797.402723985722
4055 5798.409808913742
4056 5799.170265138624
4057 5800.652445320881
4058 5801.392300795774
4059 5802.902793627778
4060 5803.608694947413
4061 5804.969764702996
4062 5805.647259486406
4063 5807.101126538422
4064 5807.7416252577
4065 5809.080603084534
4066 5810.049798515736
4067 5811.008356838709
4068 5811.972618171862
4069 5813.182656866484
4070 5813.981772978869
4071 5815.159670455714
4072 5815.775700364436
4073 5816.861122854531
4074 5817.325321683609
4075 5818.170153077574
4076 5818.55910930185
4077 5819.259301745145
4078 5819.397062396227
4079 5819.955463036915
4080 5820.018918467649
4081 5820.482250574145
4082 5820.54201729717
4083 5821.039439411062
4084 5820.999404194998
4085 5821.470124511694
4086 5821.437616106852
4087 5821.843497700373
4088 5821.840999565889
4089 5822.413185042308
4090 5822.307910215204
4091 5822.76831740339
4092 5822.821506251359
4093 5823.463212819715
4094 5823.587179007967
4095 5824.343130335077
4096 5824.595624660309
4097 5825.416617301213
4098 5825.654260349692
4099 5826.569461209627
4100 5827.142203307
4101 5827.87944478622
4102 5828.456895434492
4103 5829.472752626686
4104 5830.214102861722
4105 5831.373631256836
4106 5832.066829506962
4107 5833.387527690697
4108 5833.854412105638
4109 5835.193952069785
4110 5836.008864911279
4111 5837.316470792567
4112 5837.757744168652
4113 5839.091667008592
4114 5840.006699166663
4115 5841.027474407856
4116 5841.890697604289
4117 5843.22466185305
4118 5843.759848321184
4119 5845.054893002845
4120 5845.824903436253
4121 5847.123587767139
4122 5847.911126874442
4123 5848.772607890369
4124 5849.49459280376
4125 5850.667715256338
4126 5851.265431988826
4127 5852.435717124245
4128 5853.052164425448
4129 5854.158236733692
4130 5854.673564858762
4131 5855.608849193712
4132 5856.020099311925
4133 5856.82667708314
4134 5857.065783949296
4135 5857.832230439635
4136 5858.066690185342
4137 5858.732998096877
4138 5859.053005974443
4139 5859.629974901572
4140 5859.92855490584
4141 5860.753437467836
4142 5860.768045611007
4143 5861.427579139343
4144 5861.452311700284
4145 5862.160289639331
4146 5862.211315155844
4147 5862.94207016229
4148 5863.091998219583
4149 5863.706466783446
4150 5863.757408686273
4151 5864.413667282489
4152 5864.470187328221
4153 5865.016572077822
4154 5865.05065629528
4155 5865.638525337878
4156 5865.675065639314
4157 5866.37032169801
4158 5866.456265671102
4159 5866.846779451196
4160 5866.867340172041
4161 5867.378201647252
4162 5867.273278035294
4163 5867.832746319707
4164 5867.713568067921
4165 5868.014541213779
4166 5868.047183618117
4167 5868.487239039971
4168 5868.30775610311
4169 5868.778155174356
4170 5868.624451844085
4171 5869.014687282435
4172 5868.87091181994
4173 5869.225974604787
4174 5868.979953045161
4175 5869.409883411558
4176 5869.19167610853
4177 5869.49974102803
4178 5869.316716227927
4179 5869.587259305565
4180 5869.418361602468
4181 5869.912592996268
4182 5869.806013783043
4183 5870.125068220012
4184 5870.148569936885
4185 5870.459883106425
4186 5870.368130949926
4187 5870.77774928765
4188 5870.76160930418
4189 5871.240299816205
4190 5871.452187172128
4191 5871.953895794486
4192 5872.086283395738
4193 5872.681092926702
4194 5873.052123437068
4195 5873.715549982915
4196 5873.831859909515
4197 5874.456883776136
4198 5874.793658800709
4199 5875.804656468978
4200 5876.13033353081
4201 5876.866855704639
4202 5877.372646337353
4203 5878.044062213628
4204 5878.380722047417
4205 5879.198443705088
4206 5879.417741124777
4207 5879.9137164917
4208 5880.330788803267
4209 5880.712965303849
4210 5880.643608241746
4211 5880.815481208396
4212 5880.576262549879
4213 5880.699695571413
4214 5880.085110225748
4215 5879.814659975118
4216 5878.844199099191
4217 5878.005017479532
4218 5876.75639021503
4219 5875.799924742701
4220 5874.264748873717
4221 5872.903986427991
4222 5870.881820056722
4223 5869.447326748723
4224 5867.38438485418
4225 5865.686870834426
4226 5863.216826428378
4227 5861.143366374565
4228 5858.637158319598
4229 5856.414103037652
4230 5853.80159728642
4231 5851.402088631372
4232 5848.564089559184
4233 5846.234239547062
4234 5843.371563495766
4235 5841.139689132685
4236 5838.254506644307
4237 5836.021809081828
4238 5833.262153000604
4239 5831.022042576975
4240 5828.432803120585
4241 5826.224834169371
4242 5823.628817730785
4243 5821.646899427104
4244 5819.384032240738
4245 5817.609442861143
4246 5815.545540712114
4247 5813.923630763144
4248 5811.963039604932
4249 5810.68378667186
4250 5808.918069984725
4251 5807.895021886095
4252 5806.555013766108
4253 5805.861957876263
4254 5804.815801761213
4255 5804.492165609894
4256 5803.818956312488
4257 5803.7241667177
4258 5803.566068851245
4259 5804.096734641172
4260 5804.040201929703
4261 5804.696388941129
4262 5805.023024328035
4263 5806.184266255452
4264 5806.896618252855
4265 5808.191958538371
4266 5809.256739456147
4267 5810.32655666105
4268 5811.759607848156
4269 5812.940960146367
4270 5814.228560304634
4271 5815.432680220767
4272 5816.939745931626
4273 5818.174966627555
4274 5819.776110067344
4275 5821.106373093488
4276 5822.528178968211
4277 5823.855749897448
4278 5825.262861984686
4279 5826.748276510491
4280 5827.543115248191
4281 5828.745564015441
4282 5829.679256294783
4283 5830.626763687802
4284 5830.908113399917
4285 5831.469282900513
4286 5831.426787042742
4287 5831.525257492976
4288 5831.025323695003
4289 5830.565479074118
4290 5829.430782740072
4291 5828.419243911557
4292 5826.687019756591
4293 5825.02635457462
4294 5823.46727310506
4295 5821.312858661275
4296 5819.439113936467
4297 5816.906573481314
4298 5814.841586358945
4299 5811.835099426165
4300 5809.507751131051
4301 5807.408563654313
4302 5803.410869669047
4303 5801.031027081166
4304 5798.078018678032
4305 5795.425074302577
4306 5792.289796266436
4307 5789.37735290729
4308 5784.659142569757
4309 5781.834427043899
4310 5778.514059472926
4311 5774.03724302005
4312 5770.938680788058
4313 5766.861435665425
4314 5762.577726225147
4315 5758.952929937135
4316 5754.996913020494
4317 5751.716055211605
4318 5748.253809595131
4319 5745.408540393755
4320 5742.321909900547
4321 5739.806795091786
4322 5737.090140587759
4323 5735.011118759807
4324 5732.674731845806
4325 5730.976415554494
4326 5728.922981691173
4327 5727.403051701779
4328 5725.620159186299
4329 5724.402808440621
4330 5722.875220985501
4331 5721.913779238565
4332 5720.982216786029
4333 5720.195357396452
4334 5719.414554342144
4335 5718.774419293351
4336 5718.113997464528
4337 5717.736952217609
4338 5717.070803231882
4339 5716.700661130741
4340 5716.126520963449
4341 5715.787123932455
4342 5715.183959019849
4343 5714.807646661139
4344 5714.197571132552
4345 5713.873942896806
4346 5713.269309863406
4347 5713.03471434387
4348 5712.48602213786
4349 5712.227080313495
4350 5711.714464962649
4351 5711.458011116521
4352 5710.88709661553
4353 5710.587658627124
4354 5710.038197012306
4355 5709.663488093749
4356 5709.053807642933
4357 5708.417822546384
4358 5707.802251177149
4359 5707.386832460002
4360 5706.452147063184
4361 5706.01836961417
4362 5704.98443005593
4363 5704.430693695591
4364 5703.12716267221
4365 5702.403873145711
4366 5700.890465007456
4367 5700.14836620857
4368 5698.577861746593
4369 5697.625724881433
4370 5696.310224171662
4371 5694.621407219525
4372 5693.226907909693
4373 5691.941678622537
4374 5689.505321805964
4375 5688.205186387291
4376 5686.542402758947
4377 5684.224234951042
4378 5682.353240181875
4379 5680.700651697193
4380 5678.028200015649
4381 5676.247633794818
4382 5673.346040966499
4383 5671.733262512169
4384 5668.814444341657
4385 5666.264682111911
4386 5664.389585913546
4387 5661.864882842525
4388 5659.057245317911
4389 5656.639053802561
4390 5654.069461145453
4391 5651.75203682631
4392 5649.188677632918
4393 5647.088390475838
4394 5644.650179292608
4395 5642.604308520707
4396 5640.166323662086
4397 5638.108727665634
4398 5635.917773317585
4399 5633.969339961235
4400 5631.584760966094
4401 5629.595427634036
4402 5627.456316123406
4403 5625.510932104424
4404 5623.351495053275
4405 5621.440985878732
4406 5619.325068760769
4407 5617.738212792116
4408 5615.93357864565
4409 5614.382869141263
4410 5612.697196380188
4411 5611.315602832848
4412 5609.682941813272
4413 5608.958479845591
4414 5607.504428000942
4415 5606.454823943333
4416 5605.514808850878
4417 5604.471747975758
4418 5603.699022251933
4419 5603.052743728558
4420 5602.50005375018
4421 5602.171200790959
4422 5601.865444087394
4423 5601.912526128686
4424 5601.801493977125
4425 5602.017132996596
4426 5602.110696612877
4427 5602.613961875226
4428 5603.449738708267
4429 5604.281799217397
4430 5604.95778061335
4431 5606.345483369193
4432 5607.169991067761
4433 5608.341455611095
4434 5610.007358983943
4435 5611.499442852624
4436 5613.053939355601
4437 5615.49315789393
4438 5616.997210134106
4439 5619.716592275431
4440 5621.515566697027
4441 5624.43686009747
4442 5626.312229939547
4443 5629.32780799812
4444 5632.140954938001
4445 5635.069328952482
4446 5637.698233388579
4447 5640.492951745517
4448 5642.88519529756
4449 5645.471922589242
4450 5647.594411671196
4451 5649.942576716254
4452 5651.926499297972
4453 5653.926152721795
4454 5655.68847310917
4455 5657.608894611754
4456 5659.210056277938
4457 5661.050461923221
4458 5662.333063837048
4459 5664.038845430838
4460 5665.167334913276
4461 5666.569503045223
4462 5667.738515174079
4463 5669.138377181208
4464 5670.208471858194
4465 5671.555994071075
4466 5672.255668730199
4467 5673.778864319395
4468 5674.88505508502
4469 5675.957227944904
4470 5677.255877773596
4471 5678.413385580772
4472 5679.810205975505
4473 5680.983554617418
4474 5682.497807193518
4475 5683.894781367022
4476 5685.284611130367
4477 5687.417447617382
4478 5688.734829351099
4479 5691.196145365531
4480 5692.731798028979
4481 5695.247159436188
4482 5696.86704670298
4483 5699.762362351576
4484 5701.482604538051
4485 5704.206812260563
4486 5705.999962333534
4487 5708.849449370402
4488 5710.610355365709
4489 5713.661956653326
4490 5715.568072686185
4491 5718.758747548171
4492 5720.677811105297
4493 5723.885763667566
4494 5725.811511709843
4495 5728.968904651474
4496 5730.714764791719
4497 5733.796084246639
4498 5735.572314159486
4499 5738.564751295071
4500 5741.004253678867
4501 5742.674010068775
4502 5744.664928555207
4503 5746.87728293764
4504 5748.62030681346
4505 5749.827201628605
4506 5751.041042677958
4507 5752.42178335136
4508 5753.380989711772
4509 5754.33630055575
4510 5754.587053128847
4511 5754.885795103246
4512 5754.736701069884
4513 5754.733748292536
4514 5754.360297453803
4515 5753.815829317637
4516 5753.020692214232
4517 5752.199657407567
4518 5750.892215411839
4519 5750.166623344926
4520 5748.678036489568
4521 5747.341365249037
4522 5746.19536117893
4523 5744.883474237369
4524 5743.102016500754
4525 5742.227889330118
4526 5740.512968443446
4527 5739.213756925865
4528 5738.039713097542
4529 5736.586861985968
4530 5735.211210113934
4531 5734.045429862714
4532 5732.648018675706
4533 5731.851928856468
4534 5730.788706652249
4535 5730.328586574299
4536 5729.534860565484
4537 5729.331031854403
4538 5728.746540899232
4539 5728.914160207327
4540 5728.89164292625
4541 5729.426665654957
4542 5729.752171004367
4543 5730.89716016834
4544 5731.570777086639
4545 5732.502604908255
4546 5733.331769180864
4547 5734.683910137992
4548 5735.696621926796
4549 5737.284441151122
4550 5738.451655824627
4551 5739.989282680561
4552 5741.333438656095
4553 5742.81730271461
4554 5744.115705829043
4555 5745.760437653806
4556 5746.932400700064
4557 5748.597886625683
4558 5749.628311256926
4559 5750.953819872275
4560 5751.856972605556
4561 5753.192129443705
4562 5754.141201636139
4563 5755.451469272424
4564 5756.225116011941
4565 5757.493872917508
4566 5758.370514318685
4567 5759.643153535789
4568 5760.448175199159
4569 5761.589863903857
4570 5762.278033327464
4571 5763.302671253465
4572 5764.106309583498
4573 5765.229672401596
4574 5766.10042550936
4575 5767.301617148427
4576 5768.086811173206
4577 5769.547652745756
4578 5770.826064134526
4579 5772.490947487558
4580 5773.994354528282
4581 5775.75201984944
4582 5777.461630499264
4583 5779.755157159756
4584 5781.959010872875
4585 5784.770523567913
4586 5787.379542059501
4587 5790.777909683353
4588 5793.809517828153
4589 5797.337566668086
4590 5800.871368819646
4591 5804.622853607629
4592 5808.651404442625
4593 5812.977568285437
4594 5817.189882477016
4595 5821.6928124718
4596 5826.060187092389
4597 5830.822729038575
4598 5835.231267263463
4599 5840.142755148738
4600 5844.833470907257
4601 5849.833902778812
4602 5854.629364551836
4603 5859.577601337211
4604 5863.942037137986
4605 5868.642976527572
4606 5872.832387857428
4607 5877.156582473775
4608 5880.868093639849
4609 5885.488529460212
4610 5888.65819131325
4611 5891.814012367453
4612 5894.549081415903
4613 5897.129229421174
4614 5899.103742009813
4615 5901.170947202649
4616 5902.71653284855
4617 5903.957201626576
4618 5904.849989618386
4619 5905.578825443459
4620 5905.912029640556
4621 5906.379401758175
4622 5906.174961253149
4623 5906.193707777866
4624 5905.687539690889
4625 5905.268288253734
4626 5904.116602719394
4627 5903.080289811349
4628 5901.969833770299
4629 5900.637656768942
4630 5899.243756510454
4631 5897.457300039583
4632 5895.936089193164
4633 5893.707874462834
4634 5891.952725905815
4635 5889.482828241129
4636 5887.458628702435
4637 5884.608694336291
4638 5882.647257442919
4639 5879.821797240227
4640 5876.754270108164
4641 5874.105555067807
4642 5871.198520746118
4643 5868.680305347181
4644 5865.939730901968
4645 5863.515059851274
4646 5861.046549996056
4647 5859.139009926183
4648 5857.684360955507
4649 5856.004409142575
4650 5854.14452788458
4651 5852.930523730371
4652 5851.858162733181
4653 5850.963106850297
4654 5849.933771444329
4655 5849.646626046575
4656 5849.025922529041
4657 5849.103150715235
4658 5848.924955543782
4659 5849.286860259974
4660 5849.493568127101
4661 5850.129539544921
4662 5850.971487870046
4663 5851.890956565387
4664 5852.751274651606
4665 5854.08209801117
4666 5855.182047560698
4667 5856.697410667046
4668 5858.019145805876
4669 5859.789567263568
4670 5861.447873131716
4671 5863.339626670374
4672 5864.985464682813
4673 5867.025956717236
4674 5868.762431476619
4675 5871.814064985083
4676 5873.70539165522
4677 5875.680893943647
4678 5878.455018663701
4679 5880.410528035469
4680 5882.856891154568
4681 5884.877320423609
4682 5887.268023654771
4683 5889.852243025018
4684 5891.990055568927
4685 5894.245245967275
4686 5895.847247290707
4687 5897.529582927529
4688 5898.852490361196
4689 5900.080960795596
4690 5900.780381980509
4691 5901.667163130961
4692 5901.866643554462
4693 5902.206827481476
4694 5901.685062857456
4695 5901.395132967831
4696 5900.413569226646
4697 5899.762996806093
4698 5898.341186295685
4699 5896.886388570846
4700 5894.821828491047
4701 5892.756637347544
4702 5890.047118707617
4703 5887.54542500669
4704 5884.411233316478
4705 5881.418982068542
4706 5877.94952504987
4707 5875.591631128291
4708 5871.356710927795
4709 5867.362267801072
4710 5862.788600486496
4711 5860.09561492955
4712 5855.272180959978
4713 5850.675041023072
4714 5845.683967616975
4715 5841.202684858601
4716 5836.248707122943
4717 5831.517689465278
4718 5826.435883265374
4719 5821.880171562996
4720 5816.76048250263
4721 5812.101879400416
4722 5807.194350523228
4723 5802.773272767439
4724 5797.978729405683
4725 5793.600679502424
4726 5788.983206496036
4727 5784.950978233257
4728 5780.746526351497
4729 5777.048813517934
4730 5773.006288550008
4731 5769.496377530182
4732 5765.887514985263
4733 5762.816377956016
4734 5759.560314306023
4735 5756.903978050786
4736 5754.109347366115
4737 5751.789680129667
4738 5749.46794348376
4739 5747.683578270724
4740 5745.867840936013
4741 5744.653143318335
4742 5743.309252686251
4743 5742.585364541477
4744 5741.96180709412
4745 5741.64767519817
4746 5741.451311201312
4747 5741.660375359601
4748 5741.704671828368
4749 5742.084696388416
4750 5742.662210021896
4751 5743.450023358286
4752 5744.056226033637
4753 5744.986971369237
4754 5745.789690191044
4755 5747.005085326836
4756 5748.151368518578
4757 5749.719772045599
4758 5751.042750349598
4759 5752.70321179446
4760 5754.168150776508
4761 5755.949080868924
4762 5757.524263496605
4763 5760.424873822241
4764 5762.091494094887
4765 5765.096355650311
4766 5766.853500961428
4767 5769.80398727138
4768 5772.408242372962
4769 5774.360832415652
4770 5776.793000198595
4771 5779.42130104362
4772 5781.51188530139
4773 5783.820957916947
4774 5784.977726625742
4775 5787.002659142232
4776 5788.300723020571
4777 5789.830267106192
4778 5790.431030783424
4779 5791.818386742197
4780 5792.692641217953
4781 5793.449851065809
