"mz-rfile"
"Iteration" "mz"
("Iteration" "mz")
1 -898.8508976828223
2 -871.2953374579325
3 -759.6320203835066
4 -660.8432286001374
5 -540.1742252770362
6 -430.1168481336728
7 -319.191562270878
8 -225.0668256464692
9 -120.7820556463877
10 31.44396393112392
11 155.1765915402587
12 302.2149829072137
13 371.9250420325632
14 441.610852624126
15 450.3245876260437
16 465.8707641218298
17 442.6928749426881
18 426.0646944941966
19 385.8910415215649
20 357.1103683512317
21 298.3804266652309
22 257.9333573490569
23 201.9646620637138
24 164.5591352918557
25 119.8377189650503
26 103.8755570401895
27 71.70590976531493
28 69.88105119496132
29 51.29048924612205
30 60.44570910680329
31 49.29623271905341
32 63.07776095524086
33 56.90279809888425
34 73.08941976627155
35 70.04226903232362
36 88.81404199802228
37 87.44271293397502
38 105.505074560593
39 103.1228587396379
40 119.0506000683927
41 115.2829865158186
42 128.9420709571579
43 123.9740557578692
44 134.2006158808468
45 128.5060599268216
46 135.9906199872541
47 130.6248488302269
48 136.1303154316084
49 131.4230304329052
50 135.6292945711227
51 131.3098574330443
52 134.4937892681605
53 130.3365871672998
54 133.0097815313108
55 129.2837304389176
56 131.7357733079989
57 128.5907574223702
58 130.7325604655408
59 128.306724151029
60 130.0800148916767
61 128.2425442977673
62 129.8334401388422
63 128.493388598716
64 129.9320936877368
65 129.0827404705808
66 130.4597388484531
67 130.0394580715762
68 131.6468235263396
69 131.5251053537157
70 133.2214054380995
71 133.2626817716938
72 135.0328389964926
73 135.1552412633062
74 136.6106171066038
75 136.8481384917835
76 138.2923758941614
77 138.3086330468346
78 140.1297715364892
79 140.2120002309945
80 141.5774421402999
81 141.7475621723015
82 143.0888056227014
83 143.3129903892302
84 144.6165588320845
85 144.8950363873813
86 146.1545893569474
87 146.4571890337504
88 147.6648268665384
89 148.3436951891528
90 149.4666628628657
91 149.7511592454987
92 150.7975434609655
93 151.3971695252239
94 152.3526046734811
95 152.6135505635686
96 153.5052415292541
97 153.7744969755384
98 154.6092962779501
99 155.1567342872309
100 155.9358885812487
101 156.2114477498208
102 156.9663106679904
103 157.2640967711097
104 158.265378126699
105 158.5590681414068
106 159.2668041954483
107 159.8228128112473
108 160.5126499793231
109 160.8363018931085
110 161.7706688277438
111 162.1015477080218
112 163.008568173726
113 163.3282203079545
114 164.1963152360078
115 164.5188360516192
116 165.1322905367463
117 165.695332562363
118 166.2904880501184
119 166.8543018948214
120 167.4339725710789
121 167.9812726861307
122 168.5420545328289
123 169.066265503311
124 169.6025323163125
125 170.0987843308503
126 170.6168433689114
127 171.0793283088151
128 171.5729473022126
129 172.0144899320811
130 172.4808366022533
131 172.8777702916479
132 173.3197236835231
133 173.6850291542221
134 174.0984964060134
135 174.4088054561447
136 174.7999714094764
137 175.0781123349919
138 175.4469444308032
139 175.6792864978337
140 176.0149586874173
141 176.2212743888967
142 176.5380397852139
143 176.6015550793967
144 176.9712709195014
145 177.0199710146619
146 177.2804950710489
147 177.3429977203817
148 177.5791580320706
149 177.566234873481
150 177.8226398572559
151 177.7800311270253
152 177.959984856671
153 177.8865087818166
154 178.0618784510935
155 177.9635601749064
156 178.0917187987217
157 177.971665499506
158 178.0724792915037
159 177.9257567235412
160 178.0008291935333
161 177.8057474805089
162 177.8659379797732
163 177.6721915401484
164 177.7035298520767
165 177.4889514739094
166 177.4971743636972
167 177.2651368442025
168 177.2469929035672
169 176.9856367831351
170 176.9484916356907
171 176.5854571897489
172 176.5416984421391
173 176.242928788715
174 176.1821510536292
175 175.8702670501512
176 175.7920444811371
177 175.4566075057505
178 175.2677414184301
179 174.9299452505591
180 174.8348409999628
181 174.4775012368911
182 174.3684146721432
183 173.8869060419856
184 173.7813834660893
185 173.4186534481737
186 173.1962283269604
187 172.8349609473983
188 172.7215097288066
189 172.3504990135596
190 172.1155125299591
191 171.7545652464384
192 171.6419789383299
193 171.2744022850423
194 171.0466292006423
195 170.6912808318513
196 170.5818778576392
197 170.1030679064774
198 170.0141842221894
199 169.6633820728193
200 169.4728160418437
201 169.1308695765267
202 169.0544502113904
203 168.721647474027
204 168.5512787642874
205 168.2260996285044
206 168.1684933332558
207 167.8448725277953
208 167.7838134306465
209 167.3774046449057
210 167.3335801547006
211 167.0344385449908
212 166.9939862375265
213 166.7110698356922
214 166.673791004423
215 166.395884505641
216 166.3570057842623
217 166.0868685071193
218 166.0571805268697
219 165.7961671258534
220 165.7668535454689
221 165.5157787786067
222 165.4970652459818
223 165.2517841372787
224 165.2382052554229
225 165.0034770005877
226 164.9979799068476
227 164.7723266715433
228 164.7724083512402
229 164.5577658882981
230 164.5658853694911
231 164.3621515333579
232 164.373988312304
233 164.1765068058948
234 164.19664480342
235 164.0106430106813
236 164.0340651170606
237 163.8540306639638
238 163.8851545954037
239 163.7139334698375
240 163.7491029964711
241 163.5768024668037
242 163.6201204711237
243 163.4533682155841
244 163.4977978769849
245 163.3343303615703
246 163.3808619393417
247 163.2206601162258
248 163.2698568289315
249 163.1088369948744
250 163.1599574684361
251 163.0036737007234
252 163.0551406850402
253 162.8986508652375
254 162.9505527706029
255 162.7974119772085
256 162.8461751344139
257 162.692759236788
258 162.7416031652191
259 162.5902813600036
260 162.6385266528113
261 162.4870851962614
262 162.5337756306836
263 162.3835252680012
264 162.4284720574881
265 162.2767367548274
266 162.3234894162597
267 162.1706328618438
268 162.2166267679932
269 162.0663474517355
270 162.111925537432
271 161.9607219993933
272 162.0050010003829
273 161.8540921474774
274 161.9020218537811
275 161.7521486908991
276 161.7987868889962
277 161.649389082477
278 161.6977237796127
279 161.5498698815893
280 161.5923929858206
281 161.4437915153077
282 161.4908119073665
283 161.34307872517
284 161.3876127090924
285 161.2399587838478
286 161.2887571477128
287 161.1448146543128
288 161.1894823007223
289 161.0460737191686
290 161.0927799058632
291 160.950595605782
292 160.994122761621
293 160.850475164631
294 160.8972465128824
295 160.7496427855104
296 160.7943880857556
297 160.6507992026361
298 160.6999651244669
299 160.55602491555
300 160.6006304887644
301 160.4599841112586
302 160.505376098347
303 160.3669105500667
304 160.4086029170271
305 160.2686733374875
306 160.3156348045474
307 160.1747529011273
308 160.2173831017437
309 160.0778357945338
310 160.1234956260547
311 159.9838987600735
312 160.0290767829937
313 159.8870158527091
314 159.936339118818
315 159.7962663951834
316 159.8437990123315
317 159.7032812488113
318 159.753697237448
319 159.6133564362407
320 159.6600641167583
321 159.5252617257306
322 159.5713697416223
323 159.4353146329288
324 159.4797250752429
325 159.3436196292267
326 159.3896746776976
327 159.2548917203431
328 159.2995555694173
329 159.1651740563074
330 159.2140234374101
331 159.0799489614584
332 159.1263169376303
333 158.9913979968434
334 159.0387619051284
335 158.9080725403604
336 158.9521976058042
337 158.8204768752709
338 158.868396425208
339 158.7397107878506
340 158.7847817728874
341 158.6568999414674
342 158.704118178939
343 158.5731541456586
344 158.6214283878601
345 158.4915899580028
346 158.5427733464529
347 158.4120047690139
348 158.463456692372
349 158.3345104610009
350 158.388129068846
351 158.2620908431703
352 158.3118548191607
353 158.1860818953299
354 158.2385835704436
355 158.1139046903475
356 158.1671113683246
357 158.0428793237929
358 158.0955851541048
359 157.972756723043
360 158.0247336931296
361 157.9017350451966
362 157.9533562713686
363 157.8333953407039
364 157.8848996145914
365 157.7640315260377
366 157.8188691015873
367 157.6984940205417
368 157.7534550357168
369 157.6349522305425
370 157.6910757518016
371 157.5710946953654
372 157.6269079866522
373 157.5090652914182
374 157.5657802767446
375 157.4490423771681
376 157.5047724356834
377 157.3859611771038
378 157.447188383284
379 157.3280900634522
380 157.3887241403939
381 157.2687891386155
382 157.3314114703585
383 157.2140069065817
384 157.2757127833169
385 157.1563202314206
386 157.2183060438619
387 157.1016656267543
388 157.1622509235475
389 157.0455948616411
390 157.107111921726
391 156.9933183974153
392 157.0539667250681
393 156.9401119276361
394 157.0019088916847
395 156.887536714901
396 156.9496697270523
397 156.8360569213496
398 156.8991763761077
399 156.7858290440959
400 156.8497081445429
401 156.7343892686623
402 156.8033471180106
403 156.6888796051704
404 156.7534730544349
405 156.6424756762801
406 156.7074875151831
407 156.600020471346
408 156.6629990356296
409 156.5534587208427
410 156.617294699243
411 156.5060199160963
412 156.5719087237992
413 156.4614699614559
414 156.5302398967002
415 156.4201086069517
416 156.4855377137895
417 156.3775046668773
418 156.4464634203121
419 156.3379890558843
420 156.406770838578
421 156.2968579436475
422 156.367206533011
423 156.2578131609131
424 156.3260240817697
425 156.2150636839328
426 156.2858614884415
427 156.1771151256891
428 156.2474371357082
429 156.1385648961618
430 156.2108785528366
431 156.1060618169363
432 156.1754394849885
433 156.0688934589064
434 156.1386256877155
435 156.0325793910397
436 156.1009950676817
437 155.9981239434938
438 156.0698558586833
439 155.9656413432646
440 156.0378904208193
441 155.933386214202
442 156.0060334590592
443 155.9024627759466
444 155.9746168762619
445 155.8700394583546
446 155.9430261826766
447 155.8428089406268
448 155.9140815581544
449 155.8128018738699
450 155.8863252046171
451 155.7850775267083
452 155.8549064246252
453 155.7517317907769
454 155.823500590545
455 155.7214140541258
456 155.7942293054802
457 155.693165696175
458 155.7680999856262
459 155.6683243198095
460 155.741704314463
461 155.6431985399205
462 155.7179839993029
463 155.6179194191545
464 155.6916698681486
465 155.5930530357506
466 155.6698993703374
467 155.5697515839794
468 155.6461346455899
469 155.5445649273279
470 155.6223218838675
471 155.5228146285319
472 155.5998154276025
473 155.4970505693445
474 155.5768307959076
475 155.4733354943575
476 155.550973483906
477 155.4487769997539
478 155.5273924064384
479 155.4272010224094
480 155.5052887543839
481 155.4045047671349
482 155.4840638858487
483 155.3845462466123
484 155.4652738388715
485 155.3620321494012
486 155.4445138556015
487 155.3442304891345
488 155.4247293016145
489 155.3231603802317
490 155.4057302705497
491 155.3050613170747
492 155.3892970268178
493 155.2893209500859
494 155.373186459291
495 155.2716349930474
496 155.3559601989706
497 155.2553251322474
498 155.340793899062
499 155.2378573654336
500 155.3219410650748
501 155.221285163961
502 155.3042780781785
503 155.2065234583149
504 155.28814278724
505 155.1925096179401
506 155.2723730741316
507 155.1787341175563
508 155.2572893098745
509 155.1587126156948
510 155.239970218176
511 155.1431054823896
512 155.2238411015867
513 155.1229093891794
514 155.2064297256143
515 155.104643467027
516 155.1892934303329
517 155.0885051687592
518 155.1733701489459
519 155.0744680991166
520 155.1569071999193
521 155.0599177084416
522 155.145118990448
523 155.0454804921115
524 155.1293210591532
525 155.032076788379
526 155.1199618151433
527 155.021820686845
528 155.1078429293578
529 155.0071402876021
530 155.0954731170901
531 154.9979402872159
532 155.0839742390599
533 154.9832276475352
534 155.0723303209477
535 154.9748412010366
536 155.0599548963586
537 154.9619550232146
538 155.0497032013551
539 154.9488336197329
540 155.0373397173235
541 154.9366370616007
542 155.0264630292857
543 154.9258466175063
544 155.013784416374
545 154.9154323154143
546 155.0029777161003
547 154.9057905308103
548 154.9913200049343
549 154.8940378638207
550 154.9817295338391
551 154.8845029971579
552 154.9708284799064
553 154.8731382282242
554 154.9617356669038
555 154.8634748616902
556 154.9491563455367
557 154.8499267731264
558 154.9404327665418
559 154.8387731988882
560 154.9282285061936
561 154.8279666419953
562 154.9212766041078
563 154.8222648087134
564 154.9104084081884
565 154.8124095203008
566 154.9013771499622
567 154.8047860083328
568 154.8908701040801
569 154.7939341549285
570 154.8824814034451
571 154.7869087881565
572 154.8731821777941
573 154.7789231354176
574 154.865109907937
575 154.7745139185227
576 154.8578455265591
577 154.7669384568368
578 154.8508007081467
579 154.7600069803963
580 154.8423291741695
581 154.7497178977679
582 154.8349365631322
583 154.7401941858466
584 154.8264928346635
585 154.7306520940265
586 154.8210241607951
587 154.7249594074166
588 154.8147045567422
589 154.7165511067637
590 154.8073110738941
591 154.713695932003
592 154.7989958433241
593 154.7028960902672
594 154.7897021639823
595 154.6953527888305
596 154.7827695660913
597 154.6867289783513
598 154.7736974887933
599 154.6788417978872
600 154.7676965844515
601 154.6704439146495
602 154.759768455331
603 154.6647364010003
604 154.7530463278817
605 154.6579553787232
606 154.7485983370177
607 154.6526150448627
608 154.7422060663106
609 154.6469832517725
610 154.7380478432033
611 154.641748806853
612 154.7323438585321
613 154.634990016844
614 154.7294549524125
615 154.6333288608372
616 154.727101690113
617 154.6299668454484
618 154.7248305070015
619 154.6280370573321
620 154.7195664596531
621 154.6229986776428
622 154.7141395927871
623 154.6175579609703
624 154.7087537843774
625 154.6114209356805
626 154.7035462927229
627 154.6069963672553
628 154.6989476775058
629 154.5985031496331
630 154.6923551059323
631 154.5951328534553
632 154.6861446190742
633 154.5892405895964
634 154.6780121778034
635 154.5826918754908
636 154.6722061788344
637 154.5744272579457
638 154.6640050922677
639 154.568993631678
640 154.6593401999756
641 154.5625418989564
642 154.6562516864529
643 154.5616271481425
644 154.6509713902373
645 154.5588925069354
646 154.6457035463448
647 154.5572609564842
648 154.6421329672713
649 154.5520086321224
650 154.6377914139428
651 154.5489895769086
652 154.6361363949155
653 154.5446345020899
654 154.6351009513629
655 154.5415707881611
656 154.6326878479712
657 154.5349731657589
658 154.6275409698358
659 154.5326064585047
660 154.6247258581587
661 154.5301411434783
662 154.6225267314301
663 154.5277701833877
664 154.6188827104157
665 154.520214501762
666 154.6153651232779
667 154.5171761209542
668 154.6089736977365
669 154.5128117202565
670 154.6044321836259
671 154.5086552411664
672 154.5986924278459
673 154.5040327102375
674 154.5971966680381
675 154.5027954330737
676 154.5934550450403
677 154.4978544263764
678 154.5893345782519
679 154.4953455660855
680 154.5842569924496
681 154.4915890275895
682 154.5808928264505
683 154.4903121758979
684 154.5786425252877
685 154.483597709654
686 154.574588049007
687 154.4820993107765
688 154.571995016217
689 154.4800210953928
690 154.5715602411264
691 154.4802978077037
692 154.5713292479294
693 154.4756540500718
694 154.5696131271634
695 154.4726450997517
696 154.5671231430501
697 154.4691996737297
698 154.5649707817043
699 154.4673875762472
700 154.5644914259693
701 154.4659270520737
702 154.5631144228988
703 154.4666775943509
704 154.5610934655105
705 154.4628151184064
706 154.5579504491639
707 154.463787273352
708 154.5569056874043
709 154.4587854983887
710 154.5521423463058
711 154.4556231801071
712 154.5485629498072
713 154.4499632069193
714 154.543696620894
715 154.4493710059941
716 154.5385182098061
717 154.4436545682282
718 154.5331832099381
719 154.440756909525
720 154.5305719883326
721 154.436925172362
722 154.5279773294597
723 154.4383679615737
724 154.5253865361373
725 154.4340130368795
726 154.5252104773953
727 154.4343835005778
728 154.5240149040968
729 154.4317207024083
730 154.5238305130744
731 154.4343328225367
732 154.524598415822
733 154.4309732101611
734 154.5249633690342
735 154.4343072322919
736 154.5229934924247
737 154.4294241890078
738 154.5230153611126
739 154.4282493697822
740 154.521055151121
741 154.4260504931436
742 154.5181191821302
743 154.4223056249091
744 154.5146217058937
745 154.4177975788019
746 154.5128411131805
747 154.4187124234697
748 154.5093797020045
749 154.4130527215432
750 154.507833807652
751 154.411594873496
752 154.5041052372118
753 154.409567024236
754 154.50458901432
755 154.4087745124007
756 154.5042379049947
757 154.4065766372169
758 154.5019045607847
759 154.4043906188256
760 154.4979728868347
761 154.4038784709839
762 154.4960935137384
763 154.4012250409711
764 154.4941284616209
765 154.4005619908885
766 154.4949342659688
767 154.4026918098724
768 154.4951724901078
769 154.4010344478915
770 154.4964794557324
771 154.4030691826254
772 154.4959805053916
773 154.4003893077694
774 154.4953779590694
775 154.4003752005127
776 154.4922395934744
777 154.3989496341797
778 154.4913738885535
779 154.3963385187756
780 154.490015166242
781 154.3963209799889
782 154.4918175108013
783 154.3955668971634
784 154.4888090084098
785 154.3939224226919
786 154.4881488490411
787 154.3939677225843
788 154.4853193753129
789 154.3915740992034
790 154.4856823039686
791 154.3933134715483
792 154.4865281938002
793 154.391521452085
794 154.4841446540498
795 154.3915031903761
796 154.4830305202373
797 154.3882315821068
798 154.4820024059119
799 154.3878338850829
800 154.4811233180749
801 154.385574208646
802 154.4805946702363
803 154.3826576769798
804 154.4758073362958
805 154.3794716425011
806 154.4757698830283
807 154.381730280087
808 154.4750211677895
809 154.3805870884179
810 154.4752069283708
811 154.3807347005621
812 154.4732271979345
813 154.3790125761263
814 154.4725574043812
815 154.3805443644695
816 154.4709882827284
817 154.3767565287267
818 154.4698498401147
819 154.3821790640285
820 154.4734848123328
821 154.3804724968431
822 154.4747176985566
823 154.3832320770115
824 154.4756013470586
825 154.377660189705
826 154.4718227018208
827 154.3763691489607
828 154.471285214724
829 154.3722654597385
830 154.4683540144161
831 154.3719369811168
832 154.467544464345
833 154.3691348273877
834 154.4663843179845
835 154.3684623265214
836 154.4660413251282
837 154.3659612753553
838 154.4617991199731
839 154.368049787208
840 154.460762609179
841 154.3673810134359
842 154.46066223746
843 154.3696086284035
844 154.4624742924159
845 154.3684978198121
846 154.4606921417424
847 154.3701429896899
848 154.4624477919181
849 154.3689082412781
850 154.4635108371137
851 154.3738369623204
852 154.4644977905668
853 154.3706661053493
854 154.4652924890533
855 154.3723634175304
856 154.4626938729091
857 154.3694390691531
858 154.4610935727965
859 154.3695723789845
860 154.4610286596106
861 154.366294329937
862 154.4595907145429
863 154.367426665373
864 154.4618455876331
865 154.3662638540568
866 154.4600571312884
867 154.3653753764257
868 154.457709628374
869 154.3601424567574
870 154.4567791858902
871 154.3582688946789
872 154.4549310951725
873 154.3577030351024
874 154.4563303392335
875 154.3592781576935
876 154.4586083469068
877 154.3583572379953
878 154.4577575603498
879 154.3590111924717
880 154.455319315972
881 154.3561632667393
882 154.4535276925916
883 154.3575427797296
884 154.4508445047023
885 154.3557739050911
886 154.451770111766
887 154.3572180931461
888 154.450677355775
889 154.35666267126
890 154.4512472377509
891 154.357699004486
892 154.4512779594444
893 154.3542140323872
894 154.4495364806656
895 154.3509116815583
896 154.4447794270736
897 154.3489560802644
898 154.4422867850043
899 154.3488031724769
900 154.4420655652432
901 154.3494039273559
902 154.4447168204936
903 154.352053587856
904 154.446190980144
905 154.347966255229
906 154.4443163473178
907 154.3502093233316
908 154.443050831554
909 154.3483575850588
910 154.4421434541442
911 154.3485085590585
912 154.4436747480599
913 154.3458773883368
914 154.4421713104063
915 154.3445060869047
916 154.4421547108357
917 154.3433813146128
918 154.4419050262659
919 154.3439609003777
920 154.4399861653633
921 154.3409221520799
922 154.4394006976601
923 154.3456831738278
924 154.4400895457481
925 154.3433729960876
926 154.439180388269
927 154.3473994539168
928 154.4411840388278
929 154.3439721908127
930 154.4422981219843
931 154.3474441185609
932 154.4436046256947
933 154.3463330496684
934 154.4430225378786
935 154.3482083261111
936 154.4419690770998
937 154.3432588202524
938 154.4412563532461
939 154.3452978690078
940 154.4417739449363
941 154.3430789666282
942 154.4399506327452
943 154.3453194191123
944 154.4399102839343
945 154.3417225975718
946 154.4379539248089
947 154.3423640525029
948 154.4389004488749
949 154.3386504291342
950 154.4376973692596
951 154.3427810802473
952 154.4384906179906
953 154.3388893922397
954 154.4378943683739
955 154.3442719043724
956 154.4378103359602
957 154.3401688389558
958 154.4383524128957
959 154.3390677589186
960 154.4380651792874
961 154.3381001839485
962 154.4380736366488
963 154.341121413179
964 154.4398086681141
965 154.3429618724247
966 154.4426605624059
967 154.3467045697694
968 154.4416216287783
969 154.3436042416449
970 154.4402609454687
971 154.3471250715289
972 154.4389201025745
973 154.3444319175934
974 154.4366217264786
975 154.3456183155749
976 154.438020284639
977 154.3423311401594
978 154.4362945663334
979 154.3400945815937
980 154.4334085193468
981 154.3383492542625
982 154.4333343396003
983 154.3393603444468
984 154.4334056164567
985 154.3402722514571
986 154.434241551035
987 154.3424242921612
988 154.4348839985768
989 154.3389550585368
990 154.4367791549206
991 154.340711765038
992 154.4362657692432
993 154.3406463198872
994 154.4384912893898
995 154.3459102212321
996 154.4418529666481
997 154.3444446995573
998 154.4423331672406
999 154.3458555996854
1000 154.4430420157068
1001 154.3458361734834
1002 154.444082573005
1003 154.3464651280397
1004 154.4435913472391
1005 154.3449665809396
1006 154.4441305409877
1007 154.348332777435
1008 154.4418016273956
1009 154.3453760187858
1010 154.4412348143632
1011 154.3471780954731
1012 154.4408112234957
1013 154.344429452582
1014 154.4424401567674
1015 154.3464733003858
1016 154.4421237888297
1017 154.3426558046371
1018 154.4418868234443
1019 154.3453314333874
1020 154.443163797521
1021 154.3437540453917
1022 154.4428144798499
1023 154.3440103991745
1024 154.4404094705505
1025 154.3427679865769
1026 154.4393415237644
1027 154.3432887541949
1028 154.437506363005
1029 154.3440281230149
1030 154.4389320653329
1031 154.3471083187123
1032 154.4388897499708
1033 154.3478042147057
1034 154.4388932887297
1035 154.3475912912657
1036 154.4405006518721
1037 154.3467721490822
1038 154.4419623260818
1039 154.3493870408979
1040 154.4416149702998
1041 154.3462127835803
1042 154.4410621532516
1043 154.3469790202948
1044 154.4396023067633
1045 154.3432699011513
1046 154.441015265761
1047 154.3438307620537
1048 154.4408087802816
1049 154.3431532349027
1050 154.4418649028678
1051 154.3465286952843
1052 154.441186056404
1053 154.3441717506736
1054 154.4410153453254
1055 154.3460659648995
1056 154.4404072417325
1057 154.3451925643749
1058 154.4387316922005
1059 154.3485391217906
1060 154.4383928832366
1061 154.34407307036
1062 154.437640080881
1063 154.3441237706482
1064 154.4362413103532
1065 154.3407882750056
1066 154.4353963041094
1067 154.3416367920489
1068 154.4357386333407
1069 154.339361542465
1070 154.4364603422173
1071 154.3422362609814
1072 154.4380539089432
1073 154.3433554568757
1074 154.439797556741
1075 154.3457225133202
1076 154.440569628984
1077 154.3461329946667
1078 154.4418150128712
1079 154.3500862011004
1080 154.4426500565636
1081 154.348018468528
1082 154.4416374617842
1083 154.3504489852113
1084 154.4421345135647
1085 154.3463415094201
1086 154.4415408721452
1087 154.3458319761745
1088 154.4398153321308
1089 154.3422661267341
1090 154.4399594281727
1091 154.3423476360695
1092 154.4383939212021
1093 154.3417957921427
1094 154.4364821744277
1095 154.3414273125693
1096 154.4360258805906
1097 154.3387274306689
1098 154.4326204231702
1099 154.3389649300793
1100 154.4311749922309
1101 154.3364193871223
1102 154.4297959645477
1103 154.3391511956439
1104 154.431849916686
1105 154.3353856157846
1106 154.4308942914236
1107 154.3401286605835
1108 154.4321533088483
1109 154.3363318569886
1110 154.4317663902206
1111 154.3372751308674
1112 154.4317383012779
1113 154.3374691206869
1114 154.4325731771305
1115 154.3380323055596
1116 154.4344144177185
1117 154.3373614613082
1118 154.4382478317671
1119 154.3405078421277
1120 154.4374783795964
1121 154.336715766055
1122 154.4344394494403
1123 154.3369455509018
1124 154.4330265528041
1125 154.3343335165987
1126 154.4330604929688
1127 154.3400264924564
1128 154.4354000819947
1129 154.3381992223239
1130 154.4353505930586
1131 154.3377166172082
1132 154.4327817280349
1133 154.3352730595756
1134 154.4315234313904
1135 154.3344022040945
1136 154.4289349713319
1137 154.3344349822762
1138 154.4282577933421
1139 154.33613898095
1140 154.4283354541404
1141 154.3356898417145
1142 154.4299206063614
1143 154.3364428469835
1144 154.4296303294932
1145 154.3365474256724
1146 154.4314307511828
1147 154.3371111276243
1148 154.4297963844489
1149 154.3339666118041
1150 154.4295600288492
1151 154.3365897255881
1152 154.4291539699345
1153 154.3367576987081
1154 154.4298324040355
1155 154.3387970334512
1156 154.430443757049
1157 154.3361115145563
1158 154.4297288874236
1159 154.3344081228696
1160 154.4300625803042
1161 154.3348521333913
1162 154.4308539957372
1163 154.340459396459
1164 154.4334961323134
1165 154.3412060152515
1166 154.4358077421308
1167 154.3467372169027
1168 154.4366481614548
1169 154.3438478386965
1170 154.4359966710473
1171 154.3440218318289
1172 154.433601712938
1173 154.3404748898256
1174 154.4337290578134
1175 154.340619378321
1176 154.4338208927887
1177 154.3379300297632
1178 154.4339233458778
1179 154.3396962046748
1180 154.4330235474407
1181 154.3364153485134
1182 154.4325803562421
1183 154.3347170338128
1184 154.4299363122636
1185 154.3329024261904
1186 154.4293191441297
1187 154.3325340411708
1188 154.4296593048018
1189 154.3320019236753
1190 154.4303917083691
1191 154.3370516072674
1192 154.4327951235964
1193 154.3392309692424
1194 154.4352728095341
1195 154.3425063263378
1196 154.4336523509236
1197 154.3398642775898
1198 154.4328588763273
1199 154.3422799368493
1200 154.4338442245682
1201 154.33935266354
1202 154.4337768425324
1203 154.3402229354215
1204 154.4331756634778
1205 154.3403168289898
1206 154.4346400447935
1207 154.341998931131
1208 154.4325978667758
1209 154.3417473253028
1210 154.4331129572481
1211 154.3410858030775
1212 154.4331275559829
1213 154.3403831514844
1214 154.4349169521086
1215 154.3407600994457
1216 154.4317533182237
1217 154.3381732644566
1218 154.4326154480302
1219 154.3400307486209
1220 154.4342484940625
1221 154.338341547149
1222 154.4351738608707
1223 154.3408724176504
1224 154.4350037717682
1225 154.3398360912409
1226 154.4345972439194
1227 154.339181359173
1228 154.4343058515212
1229 154.3383589534241
1230 154.4397331007697
1231 154.3395081415781
1232 154.4382820818249
1233 154.3383170455756
1234 154.4405560034667
1235 154.3415681046899
1236 154.4399518377066
1237 154.3402521219588
1238 154.4397171792574
1239 154.341199307016
1240 154.4382674114991
1241 154.3404976394129
1242 154.439708267746
1243 154.3434278777445
1244 154.4384832753683
1245 154.3424126552726
1246 154.439222304708
1247 154.3426057261287
1248 154.4379081335531
1249 154.3414373140279
1250 154.4370722143189
1251 154.340473195444
1252 154.4363433576987
1253 154.3412066423483
1254 154.4372214089034
1255 154.3402035407176
1256 154.4372042015555
1257 154.3407336119308
1258 154.4380551248601
1259 154.342708190892
1260 154.4390289473521
1261 154.3394588515691
1262 154.4377001445806
1263 154.3409351903209
1264 154.4384650231496
1265 154.3384035443477
1266 154.4383056775388
1267 154.3399365921173
1268 154.4353835413355
1269 154.3378393802693
1270 154.433632890898
1271 154.3393701911783
1272 154.4330373804356
1273 154.3366016901782
1274 154.433000127223
1275 154.3358806638527
1276 154.4309272461138
1277 154.3345507579177
1278 154.4314189651434
1279 154.3362338766468
1280 154.4308429260934
1281 154.3344271925349
1282 154.4324771811612
1283 154.3397205696716
1284 154.435923363485
1285 154.3382792129455
1286 154.4352844674519
1287 154.3394297307929
1288 154.4318557283144
1289 154.3362639972977
1290 154.4323448622728
1291 154.3393487463095
1292 154.432108155512
1293 154.335960076463
1294 154.4302333990683
1295 154.3369559347217
1296 154.4292419037797
1297 154.3335612461459
1298 154.4281498577007
1299 154.3333291852167
1300 154.4262683116186
1301 154.3325037874286
1302 154.4283775112554
1303 154.3334769367798
1304 154.4296111492752
1305 154.3325879997741
1306 154.4303298400557
1307 154.332833292458
1308 154.4313451671303
1309 154.332798700016
1310 154.4351175698245
1311 154.3357955100753
1312 154.4359744622874
1313 154.33627517855
1314 154.4371128500737
1315 154.3358838902043
1316 154.4334463192691
1317 154.3335821525618
1318 154.4312070188124
1319 154.3341503173113
1320 154.4302932992379
1321 154.3328005032284
1322 154.4304660444747
1323 154.3363701583453
1324 154.4300013834435
1325 154.3336857113026
1326 154.4299946305266
1327 154.3350324865603
1328 154.427675696407
1329 154.3320809735589
1330 154.4264969444446
1331 154.3348898954666
1332 154.4264305785057
1333 154.3329146292073
1334 154.4272533001298
1335 154.3328155638611
1336 154.4256968374587
1337 154.3328957047819
1338 154.4286695542624
1339 154.3360388223689
1340 154.427333506108
1341 154.3354381611688
1342 154.4301212715073
1343 154.3397447330823
1344 154.4315036565216
1345 154.3372822832043
1346 154.4325293057192
1347 154.3376220193016
1348 154.4312149460841
1349 154.3370689904684
1350 154.4337983197309
1351 154.3399019551786
1352 154.4323457194136
1353 154.3377946892338
1354 154.4326845833904
1355 154.3394428436978
1356 154.434146722413
1357 154.3355710572094
1358 154.4335074995113
1359 154.3378502854242
1360 154.4318102745365
1361 154.3336193320475
1362 154.432300040654
1363 154.3336165341697
1364 154.4307843273527
1365 154.3341586282528
1366 154.4312500051747
1367 154.3342468697005
1368 154.4301140096407
1369 154.3323602556738
1370 154.4307443983874
1371 154.333494212684
1372 154.4295518935571
1373 154.3356802955772
1374 154.4333991501761
1375 154.3394062124769
1376 154.4344763708933
1377 154.3387235796385
1378 154.4360546114756
1379 154.3416351785987
1380 154.4369339194409
1381 154.3370042875733
1382 154.4364294505319
1383 154.3408746147821
1384 154.434761580322
1385 154.3385540950977
1386 154.4354554583904
1387 154.3420130827354
1388 154.4357648479703
1389 154.3415176623677
1390 154.435421396013
1391 154.3438725922614
1392 154.437329384589
1393 154.3438394674383
1394 154.4377403975313
1395 154.3430552612792
1396 154.4379332235645
1397 154.3421888073672
1398 154.4406666635443
1399 154.34514345767
1400 154.441106347023
1401 154.3420847163082
1402 154.4403487958204
1403 154.3427114533704
1404 154.4406218126054
1405 154.3398047554473
1406 154.4371855975121
1407 154.3397948845773
1408 154.4374901396892
1409 154.339025467258
1410 154.4347550466982
1411 154.3390438552665
1412 154.4344384833752
1413 154.3390160375191
1414 154.4359102641707
1415 154.3412428798578
1416 154.4346472482128
1417 154.339612628267
1418 154.4351874786992
1419 154.3429367544423
1420 154.4364241519253
1421 154.3411323779363
1422 154.4399584836736
1423 154.3450985228252
1424 154.4417002595197
1425 154.3459727654193
1426 154.4445826075135
1427 154.3489557838926
1428 154.4446849882505
1429 154.3462013749167
1430 154.4434500892928
1431 154.3474037964732
1432 154.4403274410807
1433 154.3454932049605
1434 154.4428356696723
1435 154.3458439672371
1436 154.439328143014
1437 154.3403873042169
1438 154.4379548530843
1439 154.3409836818022
1440 154.4376705607045
1441 154.3380477372612
1442 154.4384688648507
1443 154.3402795249693
1444 154.4360347647361
1445 154.3371226681907
1446 154.4358635127811
1447 154.3371862019582
1448 154.4356694755149
1449 154.3372995528954
1450 154.4375935179203
1451 154.3366400135854
1452 154.4348574192407
1453 154.3345249590778
1454 154.4355453675151
1455 154.3364779932277
1456 154.4334274820437
1457 154.3363243400361
1458 154.4352853910432
1459 154.3401981638518
1460 154.4354910742686
1461 154.3398996595776
1462 154.4347665771903
1463 154.3413406525476
1464 154.4338064956907
1465 154.3405520887055
1466 154.4347019281171
1467 154.3438058391857
1468 154.4368346675051
1469 154.3414868031924
1470 154.4357956062102
1471 154.3429731389689
1472 154.4342472249106
1473 154.338342153765
1474 154.4328598784678
1475 154.3373610555163
1476 154.434045086287
1477 154.3358088987823
1478 154.4320983102943
1479 154.3351310386105
1480 154.4305073377865
1481 154.3339927354477
1482 154.4318232605312
1483 154.3355308420643
1484 154.4315341039758
1485 154.3343355246312
1486 154.4324598873982
1487 154.3382915791045
1488 154.4334606076416
1489 154.3376192214082
1490 154.4340607893141
1491 154.3398081822434
1492 154.4335894586391
1493 154.3387259575762
1494 154.435560584767
1495 154.3394517429996
1496 154.4341558458414
1497 154.3350023617447
1498 154.4317584181444
1499 154.3384130914103
1500 154.4307882355596
1501 154.333511376418
1502 154.4314921112581
1503 154.3340736356576
1504 154.4326169646802
1505 154.3332485871386
1506 154.4321218311271
1507 154.3365640054908
1508 154.432967132613
1509 154.3346427278633
1510 154.4317876306807
1511 154.3349090499781
1512 154.4311542943064
1513 154.3340475783115
1514 154.431855746668
1515 154.3384345153067
1516 154.4335283912653
1517 154.336904658582
1518 154.4336180286578
1519 154.3370723174446
1520 154.4339686828453
1521 154.3343605875564
1522 154.4323186559218
1523 154.3324636343826
1524 154.4306035835729
1525 154.3322317040968
1526 154.431011725665
1527 154.3336359095061
1528 154.4302647731852
1529 154.3330603744325
1530 154.4334066569175
1531 154.3363295504636
1532 154.4326222999769
1533 154.3350137696421
1534 154.4334143838466
1535 154.3377548480042
1536 154.4333501585159
1537 154.3342772984314
1538 154.4340448907546
1539 154.3395154831268
1540 154.4373231529854
1541 154.339796572596
1542 154.438672225106
1543 154.3385803955939
1544 154.4366495822758
1545 154.3368799027812
1546 154.4370255789211
1547 154.3392266203558
1548 154.4373414666842
1549 154.3398221873031
1550 154.438373563917
1551 154.3400559606559
1552 154.4382599090369
1553 154.3388725904514
1554 154.4398843512037
1555 154.3405591125822
1556 154.43948546349
1557 154.3387982016877
1558 154.4372628332807
1559 154.3414818528828
1560 154.4386518700628
1561 154.3389003072737
1562 154.4344981406019
1563 154.3386954808945
1564 154.4355835271895
1565 154.336235053145
1566 154.4344065678518
1567 154.3379583949482
1568 154.4333289366235
1569 154.3363264932268
1570 154.4331285138111
1571 154.338873375229
1572 154.4365186824411
1573 154.3374863495689
1574 154.4357757160709
1575 154.3412189576168
1576 154.438595515721
1577 154.3398825825433
1578 154.4396331551172
1579 154.3424089685624
1580 154.4403623871553
1581 154.3399990962614
1582 154.4388739490889
1583 154.3431215835947
1584 154.4412640773911
1585 154.3437666693297
1586 154.4405851620934
1587 154.3444587107423
1588 154.4390545023325
1589 154.3410706921088
1590 154.4374577903357
1591 154.3398335803595
1592 154.4346684598967
1593 154.3386809820958
1594 154.4360669900905
1595 154.3427357800144
1596 154.4365501220907
1597 154.3393554175729
1598 154.4350644585044
1599 154.3420606913691
1600 154.4357351898309
1601 154.3382770213033
1602 154.4347400635815
1603 154.3416949754582
1604 154.4333472628252
1605 154.3369306072226
1606 154.4316108513408
1607 154.337501355801
1608 154.4319428618808
1609 154.3371816043387
1610 154.4302800006864
1611 154.3376974908311
1612 154.4317428632326
1613 154.3369950006166
1614 154.4310477109767
1615 154.3363850026579
1616 154.4346796395957
1617 154.3357799613508
1618 154.4370278043736
1619 154.3408716302168
1620 154.4398605400798
1621 154.3390839618502
1622 154.4386934897283
1623 154.3442522418409
1624 154.4409804043364
1625 154.3416894177212
1626 154.4418106275924
1627 154.3437294385124
1628 154.4414799021446
1629 154.3420066510214
1630 154.438499772861
1631 154.3438316193846
1632 154.4405890813811
1633 154.3412825316805
1634 154.4412743463541
1635 154.3431224585426
1636 154.4411363050419
1637 154.3424213568693
1638 154.4412410391179
1639 154.3432595679661
1640 154.4394390133511
1641 154.3396022027608
1642 154.4356727319312
1643 154.3398768517406
1644 154.4349654286137
1645 154.3351484510014
1646 154.4322271724283
1647 154.3377898905039
1648 154.4324002520204
1649 154.3334986737756
1650 154.431320466985
1651 154.336901303068
1652 154.4310494503575
1653 154.3339186240112
1654 154.4283825142307
1655 154.3363803362211
1656 154.4295049962736
1657 154.3358788094087
1658 154.4278590038096
1659 154.3361607082841
1660 154.4298805657325
1661 154.3363217739893
1662 154.4327089990583
1663 154.3380642180283
1664 154.433784081412
1665 154.337713517156
1666 154.4334676389414
1667 154.3401347445366
1668 154.4351044098217
1669 154.3378262331674
1670 154.432048229113
1671 154.3386192968535
1672 154.434301871462
1673 154.3386997694332
1674 154.4339644007553
1675 154.3374891378294
1676 154.4304667741022
1677 154.3337382628943
1678 154.4290349983298
1679 154.3337796782362
1680 154.427965105656
1681 154.3314293944092
1682 154.4255652205368
1683 154.3318910121508
1684 154.4259907367868
1685 154.331365125528
1686 154.4275324041072
1687 154.3288725328052
1688 154.4261719053696
1689 154.3272661928266
1690 154.4264322975376
1691 154.3294301447355
1692 154.4258385160588
1693 154.3284992391976
1694 154.4270044446074
1695 154.3319251568813
1696 154.4271087424247
1697 154.330746157593
1698 154.4273236127983
1699 154.3364428491099
1700 154.4292186213285
1701 154.3347581614744
1702 154.4308679289008
1703 154.3369644236765
1704 154.4322834396168
1705 154.3338488736488
1706 154.4334901376528
1707 154.3344531218896
1708 154.4315493949763
1709 154.3317442520194
1710 154.4325747179041
1711 154.3344648255828
1712 154.4310296031402
1713 154.3356347715109
1714 154.434122931449
1715 154.3359178049363
1716 154.4340073140177
1717 154.3356328045973
1718 154.4366878777676
1719 154.339883423561
1720 154.4363840368575
1721 154.3365976358215
1722 154.4360575125483
1723 154.3404145900114
1724 154.434337282943
1725 154.337719790552
1726 154.4340100573747
1727 154.34289726631
1728 154.4344153247162
1729 154.3404375544788
1730 154.4354524577053
1731 154.3435629441934
1732 154.4361215762182
1733 154.3399183695034
1734 154.4347269244265
1735 154.3400687071726
1736 154.4314947060664
1737 154.3375664058267
1738 154.4310151428206
1739 154.338477776425
1740 154.4322332994729
1741 154.339935616929
1742 154.4356424568135
1743 154.34412053798
1744 154.4382856876225
1745 154.3428500277122
1746 154.4412482062751
1747 154.3429079282678
1748 154.4390419540025
1749 154.3390621905173
1750 154.4363133568792
1751 154.3409173598285
1752 154.4350169389116
1753 154.3412738610437
1754 154.4379713051197
1755 154.3433169873513
1756 154.4386446289192
1757 154.3389374816327
1758 154.4374903043602
1759 154.3389748372715
1760 154.4342381969774
1761 154.3365330808249
1762 154.4337033176477
1763 154.3384498041404
1764 154.4326474255637
1765 154.3347321248847
1766 154.4329457628893
1767 154.3351182454234
1768 154.4323165518167
1769 154.3327151625587
1770 154.4316665196155
1771 154.3349420664731
1772 154.4316440393407
1773 154.3351977510519
1774 154.4344156675988
1775 154.3403422517436
1776 154.4366388320281
1777 154.3410944401515
1778 154.4360598237601
1779 154.3415067784031
1780 154.4344697477891
1781 154.3408686946693
1782 154.4353055484693
1783 154.3428149359097
1784 154.4353640074
1785 154.3432639643205
1786 154.4357849102642
1787 154.3440720216041
1788 154.4373964370264
1789 154.342246878874
1790 154.4392519072536
1791 154.3441887257901
1792 154.4375077114628
1793 154.3414062653831
1794 154.4380844860005
1795 154.3418541645581
1796 154.4363806103078
1797 154.339344645965
1798 154.4353107681393
1799 154.3430528614005
1800 154.435833182224
1801 154.3417120134553
1802 154.4340281643994
1803 154.3434408753476
1804 154.4358040837361
1805 154.3432375474861
1806 154.4371860884211
1807 154.3437824702717
1808 154.4371023731255
1809 154.3423575042791
1810 154.4372524190092
1811 154.3439785242619
1812 154.4391953064892
1813 154.3446694479802
1814 154.4383718645782
1815 154.3451039435554
1816 154.4385869891474
1817 154.3442945983392
1818 154.4394093690104
1819 154.3468030605259
1820 154.4399485099202
1821 154.34338325374
1822 154.4389357606519
1823 154.3451104675909
1824 154.4380969964769
1825 154.3417175332696
1826 154.4347783820254
1827 154.3411641095482
1828 154.4356515940603
1829 154.3369406280987
1830 154.4345827149853
1831 154.3388992902553
1832 154.4356377814171
1833 154.3375060366191
1834 154.4350672064061
1835 154.3357570610096
1836 154.4350383266086
1837 154.3314122776231
1838 154.4326053397416
1839 154.3293889263921
1840 154.4310804265396
1841 154.3296690576092
1842 154.4336181376158
1843 154.3349026617574
1844 154.4341306438566
1845 154.3312333741723
1846 154.434089531987
1847 154.3360259540382
1848 154.434040296434
1849 154.3322728078828
1850 154.432469243823
1851 154.3347641601768
1852 154.4330641433879
1853 154.3324274809809
1854 154.4332216929211
1855 154.3334354959569
1856 154.431487434917
1857 154.3337631149134
1858 154.431758491168
1859 154.3358617650357
1860 154.4350195714031
1861 154.3352028789722
1862 154.43553866043
1863 154.3363286398755
1864 154.432446513848
1865 154.3338280007777
1866 154.43101985389
1867 154.3363522345721
1868 154.4319095610514
1869 154.3355656664537
1870 154.4313581955114
1871 154.3378252943592
1872 154.4319854748641
1873 154.3360302961089
1874 154.4300909682041
1875 154.3342736245608
1876 154.4294574032801
1877 154.3300930912224
1878 154.4295073206009
1879 154.3310742176223
1880 154.4304002065732
1881 154.3310218921194
1882 154.4318612525024
1883 154.3358963479494
1884 154.434421068462
1885 154.3335863113468
1886 154.4333570011862
1887 154.3369561454815
1888 154.4338733263897
1889 154.3363283150565
1890 154.4339949370474
1891 154.3379109887773
1892 154.4353099482629
1893 154.3369192141377
1894 154.436036737862
1895 154.3388467397614
1896 154.436145609452
1897 154.3379832628202
1898 154.437801586435
1899 154.3401321549044
1900 154.4376033594404
1901 154.3406169613727
1902 154.4384595485804
1903 154.3395446606979
1904 154.4361538946742
1905 154.3366684494685
1906 154.4359083305366
1907 154.33845819556
1908 154.4350518657372
1909 154.33335807691
1910 154.4331283304452
1911 154.3346303061286
1912 154.4293998017762
1913 154.3317325192262
1914 154.4325180408723
1915 154.3342936005841
1916 154.4318737534575
1917 154.331438619236
1918 154.4314416706249
1919 154.335120296652
1920 154.4319605217083
1921 154.3332448202397
1922 154.4332852261384
1923 154.3378053826834
1924 154.4340787373308
1925 154.3384458570292
1926 154.436760269738
1927 154.3403261951009
1928 154.4357684182035
1929 154.338286367836
1930 154.4366400291479
1931 154.3405202131214
1932 154.4356053256209
1933 154.3386484901552
1934 154.4370933497342
1935 154.3425774813538
1936 154.4379000789503
1937 154.3397691574503
1938 154.4362545384432
1939 154.3400688733355
1940 154.4353989362228
1941 154.338464469806
1942 154.4343991723489
1943 154.3391436260654
1944 154.4332222927727
1945 154.3378728512606
1946 154.4319953549375
1947 154.3384817012696
1948 154.4308438696833
1949 154.3369821224426
1950 154.4320985573121
1951 154.3373849188267
1952 154.4318468653516
1953 154.3396819258764
1954 154.4357403180069
1955 154.3401103358559
1956 154.4354045985965
1957 154.3407786418559
1958 154.4388233174051
1959 154.3453763639341
1960 154.4387357097878
1961 154.3424275606986
1962 154.4416141297043
1963 154.3464613129651
1964 154.4398786968727
1965 154.3451121895004
1966 154.4399646858292
1967 154.3457805598969
1968 154.4390140285429
1969 154.342652638981
1970 154.440415017032
1971 154.3430685832801
1972 154.4392246681175
1973 154.3411927006894
1974 154.4400983855727
1975 154.3441826758576
1976 154.4406954945031
1977 154.3434193872044
1978 154.4428469427642
1979 154.3481100309766
1980 154.4441070247289
1981 154.3437459178068
1982 154.442841638478
1983 154.3454148030722
1984 154.4417196257453
1985 154.3427940101056
1986 154.4424293275919
1987 154.343043832507
1988 154.4387470933319
1989 154.3410189997292
1990 154.4371439654961
1991 154.3416227337171
1992 154.4348696322671
1993 154.3384558810312
1994 154.4322583183587
1995 154.337749181787
1996 154.4309309337413
1997 154.3374570721437
1998 154.4307814923977
1999 154.3398817413616
2000 154.4329554965356
2001 154.3371640877168
2002 154.4333387551237
2003 154.3380611117628
2004 154.4337833036226
2005 154.3380408971904
2006 154.4361526015351
2007 154.3422119312647
2008 154.4375723146598
2009 154.3403020185224
2010 154.4377390885068
2011 154.3406108249759
2012 154.4365123856763
2013 154.3400822366465
2014 154.4384652025195
2015 154.3451671642455
2016 154.4391487817608
2017 154.3443475625701
2018 154.4400175004924
2019 154.3442628347234
2020 154.4363181078471
2021 154.3385019573498
2022 154.4344531432784
2023 154.338085333044
2024 154.4325813009473
2025 154.3337768511388
2026 154.4315239200917
2027 154.336871178192
2028 154.4308906714092
2029 154.3323704130673
2030 154.4283723842926
2031 154.3329305029682
2032 154.4297318053858
2033 154.332548670404
2034 154.4306322971198
2035 154.3350861698795
2036 154.4317685048179
2037 154.3331972794423
2038 154.4306740699146
2039 154.3373662811098
2040 154.4323986345059
2041 154.336455475764
2042 154.433244520288
2043 154.3405778170687
2044 154.434873872961
2045 154.3400454486298
2046 154.4364954880592
2047 154.3403421366899
2048 154.435433592254
2049 154.3380108095914
2050 154.4329976012099
2051 154.3396195690509
2052 154.4338035531714
2053 154.3399305240878
2054 154.4340458923838
2055 154.3424049665807
2056 154.4343861041384
2057 154.3386823437435
2058 154.4333909808678
2059 154.3395885327901
2060 154.4308926394166
2061 154.3355847624678
2062 154.4282462211561
2063 154.3338331737679
2064 154.4264351424345
2065 154.3286125644163
2066 154.4252121291829
2067 154.3329572279965
2068 154.4272301738604
2069 154.3296904082528
2070 154.4278238226994
2071 154.3327679906624
2072 154.4268333152489
2073 154.3306793065423
2074 154.4270504634904
2075 154.3314972879021
2076 154.4293559331612
2077 154.3319849270336
2078 154.4317075578816
2079 154.3347570756359
2080 154.432323198818
2081 154.3325112834805
2082 154.4331212129379
2083 154.3345000278544
2084 154.4307600577946
2085 154.3321961572627
2086 154.4303898815413
2087 154.3362048465227
2088 154.4308647625331
2089 154.3338018716533
2090 154.431685760472
2091 154.3363924583451
2092 154.4331568721632
2093 154.336668599391
2094 154.4360977975742
2095 154.340687191111
2096 154.435851824613
2097 154.3374951478053
2098 154.4354066606169
2099 154.3391156035856
2100 154.4347031749353
2101 154.3361295574284
2102 154.4331106230245
2103 154.3365800595824
2104 154.4309661511383
2105 154.3313733114156
2106 154.4297517890087
2107 154.3300723368061
2108 154.4272897788939
2109 154.3312929525013
2110 154.4297463384457
2111 154.3326850584799
2112 154.4296581212376
2113 154.3337965695124
2114 154.4302641927688
2115 154.3353509518872
2116 154.4307175940947
2117 154.333800927456
2118 154.433033904731
2119 154.3392471125842
2120 154.4341892963409
2121 154.3396802014041
2122 154.4376920635768
2123 154.3451358117443
2124 154.4395726409017
2125 154.3425394356464
2126 154.4391715735275
2127 154.344085217956
2128 154.4392866457869
2129 154.3446017891481
2130 154.4406270384199
2131 154.3446984956687
2132 154.4391957503833
2133 154.3453967374591
2134 154.4410194241329
2135 154.3450825610438
2136 154.4382623023303
2137 154.3410286963837
2138 154.4372411050137
2139 154.3403095069821
2140 154.4367202303134
2141 154.3378055441137
2142 154.4348162447264
2143 154.334564218368
2144 154.4330758083648
2145 154.3329765497489
2146 154.4348950105621
2147 154.3361077972886
2148 154.4361568700338
2149 154.3337113637781
2150 154.4368396306162
2151 154.3378277289175
2152 154.4385442359193
2153 154.3343616927647
2154 154.4361288601256
2155 154.3361908570111
2156 154.4353825854509
2157 154.3341793170114
2158 154.4356927645348
2159 154.3414983851166
2160 154.4384973973339
2161 154.3390195646387
2162 154.4406879812916
2163 154.3395979080256
2164 154.4386738552827
2165 154.3373097704733
2166 154.4372978785361
2167 154.3395824078277
2168 154.4350926761084
2169 154.3386232126715
2170 154.4370763852639
2171 154.3387238391927
2172 154.4370732734724
2173 154.3373413990241
2174 154.4386238027081
2175 154.339859874841
2176 154.4352296672932
2177 154.3365897713688
2178 154.4344331603047
2179 154.3396549640554
2180 154.4340640639125
2181 154.3349611476571
2182 154.4339766461598
2183 154.3394994454548
2184 154.4346929952415
2185 154.3372261089702
2186 154.4334749574526
2187 154.3373677483732
2188 154.4336550529797
2189 154.3360940836806
2190 154.4359580259877
2191 154.3391465661822
2192 154.4345248984341
2193 154.3393482734776
2194 154.4348278254125
2195 154.3412582518528
2196 154.4373257190616
2197 154.3401067792557
2198 154.4366925235645
2199 154.3407782428892
2200 154.4388712815754
2201 154.3429503246535
2202 154.4408819737028
2203 154.345307837442
2204 154.4408412037769
2205 154.3434278612841
2206 154.4399647328646
2207 154.3437652851431
2208 154.4401066013988
2209 154.3457048070705
2210 154.4413243657405
2211 154.3470365288163
2212 154.4418261634564
2213 154.3436795496021
2214 154.4414147183225
2215 154.3428290914908
2216 154.4386219428466
2217 154.3380523423274
2218 154.4365726534143
2219 154.3384126393306
2220 154.4354090883318
2221 154.3333946159193
2222 154.4323435538318
2223 154.3326762977883
2224 154.4311062583923
2225 154.3322713800681
2226 154.4310759069594
2227 154.334415794892
2228 154.4311102077287
2229 154.3327718853992
2230 154.4285028171599
2231 154.3347823016844
2232 154.4308612402634
2233 154.3336256388151
2234 154.4317330727261
2235 154.3340868840975
2236 154.4320356949752
2237 154.3322074531472
2238 154.4330790664974
2239 154.3331053712887
2240 154.4330977412724
2241 154.3320541244998
2242 154.4318039578652
2243 154.3340849897471
2244 154.4347906118911
2245 154.3328905854551
2246 154.4340746495685
2247 154.339060544011
2248 154.4336012817541
2249 154.3341914505811
2250 154.4335294874588
2251 154.3350480349717
2252 154.4330436373088
2253 154.3334953937076
2254 154.429092447672
2255 154.3332101001185
2256 154.4271305353915
2257 154.3299589417196
2258 154.4241151515498
2259 154.3316581669453
2260 154.4245252945523
2261 154.329832879633
2262 154.4247883376327
2263 154.3303579824826
2264 154.4223232285318
2265 154.3302312728395
2266 154.4241697841382
2267 154.3303642580835
2268 154.4249374701931
2269 154.330138769403
2270 154.4257415007033
2271 154.333314045339
2272 154.4275351001934
2273 154.3361630435064
2274 154.4316510459513
2275 154.3381176634706
2276 154.4321955710747
2277 154.3377638279928
2278 154.4346844766041
2279 154.3388914889462
2280 154.4327776518596
2281 154.3383419809514
2282 154.4334637587272
2283 154.3418736827548
2284 154.4350278761103
2285 154.3396436235132
2286 154.4371550077256
2287 154.3406219056505
2288 154.4372536385265
2289 154.3407788453391
2290 154.4360326954975
2291 154.3416945656026
2292 154.4363108964016
2293 154.3384912913585
2294 154.4357589929173
2295 154.3388666268089
2296 154.435090877366
2297 154.3372364817169
2298 154.4347598842418
2299 154.3377508586304
2300 154.4325997380936
2301 154.3361765050844
2302 154.4354623189948
2303 154.3393953424663
2304 154.4348426246268
2305 154.3392814800248
2306 154.4349341011194
2307 154.3402053494553
2308 154.4335732071742
2309 154.3379993172922
2310 154.4339110858285
2311 154.3377151628745
2312 154.4308908306324
2313 154.3373927543318
2314 154.4310031182693
2315 154.3389139000677
2316 154.4318585619559
2317 154.3379983338447
2318 154.4335094302102
2319 154.3430627663337
2320 154.435059070105
2321 154.3409462650634
2322 154.4366830844821
2323 154.3419176029606
2324 154.4357599851194
2325 154.3398670760828
2326 154.4341143418333
2327 154.3411075772522
2328 154.4338425235083
2329 154.3393408138428
2330 154.4338469407182
2331 154.342117232885
2332 154.4343369437932
2333 154.3401185555053
2334 154.4332028809742
2335 154.338404178434
2336 154.4295418435247
2337 154.3353652692869
2338 154.4318169520421
2339 154.3372845356257
2340 154.4323095137753
2341 154.3356306265025
2342 154.4330045457923
2343 154.3363239400675
2344 154.4339886880526
2345 154.3339157296414
2346 154.4342306086625
2347 154.3344609633009
2348 154.4324328139666
2349 154.332741109113
2350 154.4314902086971
2351 154.3370141408151
2352 154.4323718476608
2353 154.3377581050961
2354 154.433806210682
2355 154.3421611057711
2356 154.4373196986716
2357 154.3409027187164
2358 154.4387396883228
2359 154.3447211667882
2360 154.4396285479684
2361 154.3413071922936
2362 154.4392639087609
2363 154.3440742228869
2364 154.4401174260135
2365 154.3434869144502
2366 154.444296509529
2367 154.3465178191987
2368 154.4432459190149
2369 154.3445964901025
2370 154.4450819100075
2371 154.3437259689699
2372 154.4413055782079
2373 154.3403891050293
2374 154.4395253946038
2375 154.34054927038
2376 154.4350815348677
2377 154.3392818358992
2378 154.4330948029883
2379 154.3411571469173
2380 154.4319795415159
2381 154.3390579613807
2382 154.4346516853268
2383 154.3399166995171
2384 154.434553712908
2385 154.3379573863381
2386 154.4344425926001
2387 154.3407097588201
2388 154.434825073449
2389 154.3370896926886
2390 154.4352350350414
2391 154.3394550948579
2392 154.4349862220641
2393 154.3386170163502
2394 154.4362052650691
2395 154.3399968448461
2396 154.4345447856014
2397 154.3379512306858
2398 154.4349070636572
2399 154.3406007884217
2400 154.4362595670753
2401 154.3399927359208
2402 154.4368902225451
2403 154.3416682524797
2404 154.4359276904786
2405 154.3388379652092
2406 154.435001588164
2407 154.3390845650179
2408 154.4329456064674
2409 154.3353056490429
2410 154.4310553683768
2411 154.3360921307829
2412 154.4323398362017
2413 154.3329092344467
2414 154.4310912784501
2415 154.3356503713918
2416 154.4314326637821
2417 154.3317005615064
2418 154.4295752560522
2419 154.3308119593318
2420 154.4276681882627
2421 154.3289331946951
2422 154.4265614789353
2423 154.3312487892611
2424 154.4262207758966
2425 154.3294379249996
2426 154.4256776114496
2427 154.3290428196165
2428 154.4265574375145
2429 154.3270245193301
2430 154.4286857740692
2431 154.3299667982791
2432 154.43136889422
2433 154.3289929695092
2434 154.4330470073322
2435 154.3351706491031
2436 154.434656509736
2437 154.3343960663374
2438 154.4332280431188
2439 154.3366081897051
2440 154.4332930241492
2441 154.3381888639435
2442 154.4374000423427
2443 154.3394580670021
2444 154.4364138159614
2445 154.3394820243534
2446 154.4349141108977
2447 154.3440362745247
2448 154.4354189981109
2449 154.3402735669945
2450 154.4318106774915
2451 154.3402337756776
2452 154.4324395014087
2453 154.3372201671266
2454 154.4321008794333
2455 154.3366235502772
2456 154.4312551365722
2457 154.3329088422972
2458 154.4302283561674
2459 154.3334961449483
2460 154.4303892201266
2461 154.3303464080178
2462 154.4300839853235
2463 154.3325113693873
2464 154.4308931642431
2465 154.3317579126878
2466 154.4311536058557
2467 154.3358777910718
2468 154.4330290188291
2469 154.3338084986134
2470 154.4365884146468
2471 154.3355096333333
2472 154.4379598952341
2473 154.33808295202
2474 154.440178075113
2475 154.3410525499006
2476 154.4404228063572
2477 154.3400265027461
2478 154.4417838767097
2479 154.3421043471933
2480 154.4411901757814
2481 154.3411665737379
2482 154.440636431007
2483 154.343288848411
2484 154.438833896025
2485 154.3404981983888
2486 154.4369167439071
2487 154.3405817318358
2488 154.4367453833329
2489 154.3393922700396
2490 154.4360587554594
2491 154.3375790823408
2492 154.4328097870602
2493 154.3363910976377
2494 154.4314759879014
2495 154.334618391297
2496 154.4310830589282
2497 154.3329888258478
2498 154.4336898015362
2499 154.3342455534904
2500 154.4321007705624
2501 154.3326718770128
2502 154.4323033689728
2503 154.3351101722442
2504 154.434317562698
2505 154.3348366361199
2506 154.4368296001057
2507 154.3376163303998
2508 154.4371846884546
2509 154.3354707655578
2510 154.4381263532013
2511 154.3418381928956
2512 154.4390356564965
2513 154.3396058353132
2514 154.43901826345
2515 154.3439114444705
2516 154.4376098326721
2517 154.3418555473696
2518 154.4373777351869
2519 154.344321871167
2520 154.4371139879318
2521 154.3417014686368
2522 154.4391305882682
2523 154.343593859958
2524 154.438710764839
2525 154.3412816076595
2526 154.4389860302072
2527 154.34282691304
2528 154.4369190678082
2529 154.3409478759968
2530 154.4372551541559
2531 154.3419900501262
2532 154.4364136159882
2533 154.3416428554902
2534 154.4380325121773
2535 154.3420440956928
2536 154.4369264558729
2537 154.3409919664182
2538 154.4354383205964
2539 154.3396949966079
2540 154.4360413562634
2541 154.3389551180304
2542 154.4382124703551
2543 154.3404499066116
2544 154.4390434794272
2545 154.3411712560255
2546 154.4391715396426
2547 154.342851070329
2548 154.4390789115143
2549 154.3400738619443
2550 154.4381667682706
2551 154.3439591222211
2552 154.4397346042902
2553 154.3428198698259
2554 154.4398220878158
2555 154.3451425914582
2556 154.4413906836449
2557 154.3392245509087
2558 154.4403767406777
2559 154.3402662239067
2560 154.4394028264767
2561 154.3385535551362
2562 154.4389538837119
2563 154.340458372138
2564 154.4379294442378
2565 154.3380185863663
2566 154.436921114628
2567 154.3409902513484
2568 154.4374433296993
2569 154.3374178143209
2570 154.4346099582061
2571 154.337620795935
2572 154.433551209256
2573 154.3358318899881
2574 154.4317589825113
2575 154.3380268253552
2576 154.431149518105
2577 154.3357901752227
2578 154.4315788948195
2579 154.3351663995561
2580 154.430031342549
2581 154.3332015920939
2582 154.4303337002524
2583 154.3351931361106
2584 154.4308224101711
2585 154.3361530924678
2586 154.4351786966229
2587 154.3405909375738
2588 154.4344671529551
2589 154.341833884551
2590 154.4369706844093
2591 154.3453100483857
2592 154.4369878262226
2593 154.3434148826678
2594 154.4361511724293
2595 154.3431275762011
2596 154.4366675218936
2597 154.3387962490189
2598 154.4364068550996
2599 154.3397138473399
2600 154.4340773014567
2601 154.3365000365269
2602 154.4366490169472
2603 154.3391436879101
2604 154.4333448373952
2605 154.3327533260294
2606 154.4304221421048
2607 154.3333583525325
2608 154.4285373359551
2609 154.3305799078401
2610 154.4255570003731
2611 154.3333298294856
2612 154.4285722025047
2613 154.3310584669724
2614 154.4274068637046
2615 154.3342512692979
2616 154.4292642303452
2617 154.3342078789607
2618 154.4301851250292
2619 154.3388317597209
2620 154.4324071917715
2621 154.3357926142467
2622 154.43162040108
2623 154.3375759504188
2624 154.4315528577602
2625 154.3343845275193
2626 154.4329297548979
2627 154.336683167533
2628 154.4346741618332
2629 154.3361435937377
2630 154.4358922597649
2631 154.3384042288645
2632 154.4341081436536
2633 154.3363127270293
2634 154.4332525223645
2635 154.3373455659778
2636 154.4307528299366
2637 154.3336464273429
2638 154.4309608661126
2639 154.3338763310671
2640 154.4292259594208
2641 154.3325542425761
2642 154.4302333015888
2643 154.3342914089896
2644 154.4293515686522
2645 154.333711981174
2646 154.4289037630403
2647 154.3320543887611
2648 154.4259808535949
2649 154.3298795001387
2650 154.4247340636406
2651 154.32887766634
2652 154.4231295657513
2653 154.3290636145759
2654 154.426779910273
2655 154.3315366415297
2656 154.426341593659
2657 154.3328370081461
2658 154.4278732158433
2659 154.3348604792996
2660 154.4258502170802
2661 154.3329111291899
2662 154.4250091198371
2663 154.3351412762294
2664 154.4270118585238
2665 154.3341706648118
2666 154.4285930136527
2667 154.3378726001403
2668 154.4307566755114
2669 154.3353071331632
2670 154.433313027783
2671 154.3375636711942
2672 154.4352882136279
2673 154.3361338323296
2674 154.4349900363047
2675 154.3375455100671
2676 154.4357759101175
2677 154.3375018223655
2678 154.4336904101628
2679 154.3381243390576
2680 154.4334577538298
2681 154.337536175147
2682 154.4352903659546
2683 154.3407796019165
2684 154.4354099945485
2685 154.3371714129582
2686 154.4321306926513
2687 154.3374240064106
2688 154.4306613345065
2689 154.3328767783983
2690 154.428741042041
2691 154.3350443968457
2692 154.4284228165863
2693 154.3350893379845
2694 154.429727877151
2695 154.3349594930225
2696 154.4279561654382
2697 154.3347587206602
2698 154.4306788722177
2699 154.3354387084654
2700 154.4326549744606
2701 154.3349491941142
2702 154.4330741587045
2703 154.3378974981655
2704 154.432404969431
2705 154.3396913150272
2706 154.4356802999414
2707 154.3441272644556
2708 154.4402702739116
2709 154.3451969052554
2710 154.4417076106398
2711 154.3477301623109
2712 154.4412866112752
2713 154.3440334570419
2714 154.4403901867312
2715 154.3471463548222
2716 154.4396419863726
2717 154.3428329130284
2718 154.4377822497178
2719 154.3399139357743
2720 154.4337474216198
2721 154.3394887767566
2722 154.4331395301028
2723 154.3370516666546
2724 154.4306158417779
2725 154.3352674926629
2726 154.4323257432911
2727 154.3346623538351
2728 154.4307003412165
2729 154.3342014697404
2730 154.4325446006142
2731 154.3384915206192
2732 154.4327850025999
2733 154.3364267780929
2734 154.4323009569518
2735 154.3404429852119
2736 154.4342361088211
2737 154.3383344100689
2738 154.436787808988
2739 154.3436147065072
2740 154.4380642616191
2741 154.3408344861625
2742 154.4408483746809
2743 154.342062261984
2744 154.4384781499818
2745 154.3427702061134
2746 154.4398093611792
2747 154.343798565625
2748 154.4396528323294
2749 154.345953126405
2750 154.4417874264627
2751 154.3464154539245
2752 154.4418255213881
2753 154.3436413081656
2754 154.4408557550339
2755 154.3441792884704
2756 154.4380206641227
2757 154.3424056523824
2758 154.4366941005953
2759 154.3414604245533
2760 154.436395666775
2761 154.3395463686015
2762 154.4362586813781
2763 154.3406293620253
2764 154.4357395130315
2765 154.3389703537623
2766 154.4367686621334
2767 154.3414830047784
2768 154.4374723645287
2769 154.3396276780066
2770 154.4376768011059
2771 154.3429284886841
2772 154.4379395660958
2773 154.3411081993357
2774 154.4399059248613
2775 154.3463152835225
2776 154.4418906656847
2777 154.3428189903496
2778 154.441074490564
2779 154.3423477990236
2780 154.4402320309995
2781 154.338272823572
2782 154.4392033657099
2783 154.3409658089362
2784 154.4400035394514
2785 154.3393942164199
2786 154.4387801780523
2787 154.34175299875
2788 154.4391162646363
2789 154.3373086127944
2790 154.4380019283633
2791 154.3389139058709
2792 154.433137605793
2793 154.3354487122388
2794 154.4342076948836
2795 154.3346343410217
2796 154.4338724958387
2797 154.3326947680241
2798 154.4337059444127
2799 154.3349724438141
2800 154.4319292544388
2801 154.3361546761788
2802 154.4321876523333
2803 154.3361637645547
2804 154.4292673391213
2805 154.3326024451097
2806 154.4279415615114
2807 154.332575545984
2808 154.4265741715154
2809 154.3294068252216
2810 154.4256929081843
2811 154.3320883928278
2812 154.4267855070898
2813 154.3288814678483
2814 154.4292173378528
2815 154.3317968713102
2816 154.4288093743072
2817 154.3314483318532
2818 154.4296144818571
2819 154.3336661891541
2820 154.4310266697194
2821 154.3354308352131
2822 154.4335975511169
2823 154.335716751328
2824 154.4308693109971
2825 154.3336585202374
2826 154.4332884401902
2827 154.3373179762538
2828 154.4316009680795
2829 154.3328857331926
2830 154.4321153420296
2831 154.3354672671213
2832 154.4320952175509
2833 154.3329244707491
2834 154.4321186967791
2835 154.3334136603602
2836 154.4303736975605
2837 154.3299593757873
2838 154.4297205182905
2839 154.3315927003632
2840 154.4285325520779
2841 154.3290809432405
2842 154.4288628425115
2843 154.331154215994
2844 154.4281638237272
2845 154.3303137399766
2846 154.4278109633165
2847 154.3323824926842
2848 154.4304329709977
2849 154.3331785812287
2850 154.4337537840005
2851 154.3394288611528
2852 154.4363327098565
2853 154.3376581166688
2854 154.4363492158004
2855 154.3427366267054
2856 154.4370211095546
2857 154.3394297445897
2858 154.4375493999523
2859 154.3431836942163
2860 154.4398053652606
2861 154.3421699055714
2862 154.4401010013309
2863 154.3415226967445
2864 154.4383125608826
2865 154.3385208844703
2866 154.4388141613238
2867 154.339325592359
2868 154.4377408245061
2869 154.3392267561428
2870 154.437513399663
2871 154.3385845678762
2872 154.4352331453948
2873 154.3379488946996
2874 154.4359078445188
2875 154.3381651125161
2876 154.4325777614439
2877 154.3364261549728
2878 154.4330090387968
2879 154.3417849847874
2880 154.4312039284215
2881 154.3393854426083
2882 154.4326263534915
2883 154.3405238103505
2884 154.4314264634768
2885 154.3371170055035
2886 154.4317386452533
2887 154.3367939337468
2888 154.4316668546675
2889 154.3361138047073
2890 154.4340159550946
2891 154.3376448825967
2892 154.4330422729918
2893 154.3374634009781
2894 154.435829584828
2895 154.3388308454109
2896 154.4334007487638
2897 154.3386642575284
2898 154.4357194271613
2899 154.3399260688922
2900 154.4346816686083
2901 154.3405975126146
2902 154.4374064588861
2903 154.3406141444749
2904 154.4360886156032
2905 154.3401664946162
2906 154.4385920548266
2907 154.3436036477943
2908 154.4388137014096
2909 154.3413563022749
2910 154.4395074985807
2911 154.3437469839027
2912 154.4375833084903
2913 154.3406145177336
2914 154.4379285253321
2915 154.3405139460505
2916 154.4377488031678
2917 154.3380402090102
2918 154.4365126242079
2919 154.3356223455156
2920 154.4336840875011
2921 154.3355213109142
2922 154.4327345603345
2923 154.3344322367679
2924 154.4301207735757
2925 154.3353120192163
2926 154.4344907317236
2927 154.3395794383872
2928 154.4338848544602
2929 154.337868713223
2930 154.4343061724609
2931 154.3426100143109
2932 154.4334953139371
2933 154.3404968958889
2934 154.4346470218853
2935 154.3432426487585
2936 154.4336319059277
2937 154.3398843711282
2938 154.4339884587767
2939 154.3424943820185
2940 154.4376035391192
2941 154.3427172515624
2942 154.4404523516621
2943 154.3451524556019
2944 154.4403947681472
2945 154.3453546056257
2946 154.4407051654061
2947 154.347358606914
2948 154.4389621164477
2949 154.345438280846
2950 154.4373960423879
2951 154.3459194437782
2952 154.4367634232268
2953 154.3426182659393
2954 154.437715316224
2955 154.3430454243794
2956 154.437280508272
2957 154.339175867343
2958 154.4355347043237
2959 154.3398357268209
2960 154.4367001272017
2961 154.3378797553571
2962 154.4380362399388
2963 154.3387282786886
2964 154.436471611279
2965 154.3369817778847
2966 154.4359311452059
2967 154.3397652716601
2968 154.4354149925718
2969 154.3416683578634
2970 154.4384159586636
2971 154.3462829919248
2972 154.44082693082
2973 154.3457887624229
2974 154.441754120538
2975 154.346967924233
2976 154.4397121139449
2977 154.3440477818986
2978 154.438953909937
2979 154.3455999535813
2980 154.4395096584452
2981 154.3431723041332
2982 154.4393468846762
2983 154.3448796012752
2984 154.4400940254186
2985 154.341611177573
2986 154.4383332787668
2987 154.3416888537823
2988 154.4386279328412
2989 154.3391617910825
2990 154.4382897505508
2991 154.3376113566739
2992 154.4358720159016
2993 154.3374190672066
2994 154.4366764330454
2995 154.3392613952908
2996 154.4371258752025
2997 154.3380770872151
2998 154.4375358458734
2999 154.3376572215066
3000 154.4364662298848
3001 154.3402811484423
3002 154.4386609048435
3003 154.3449733788614
3004 154.4383779071346
3005 154.3419637064768
3006 154.4397726624345
3007 154.345795298813
3008 154.4388489527929
3009 154.344624411197
3010 154.4389843822309
3011 154.3470568834387
3012 154.4376885193404
3013 154.3458520696926
3014 154.4384590137938
3015 154.344229246633
3016 154.4348821307528
3017 154.3428670427428
3018 154.4374494815121
3019 154.3450611567989
3020 154.4359568503068
3021 154.3447109881177
3022 154.4389864293521
3023 154.3487532638637
3024 154.4417767408365
3025 154.3451612384102
3026 154.4400021641526
3027 154.3461645399994
3028 154.4396249554026
3029 154.3402514692831
3030 154.4393010215796
3031 154.3425982674991
3032 154.4397209229646
3033 154.3388973839502
3034 154.4382459801919
3035 154.3418092384279
3036 154.4379406730133
3037 154.3403809992085
3038 154.4373809507742
3039 154.3422329218307
3040 154.4374807204978
3041 154.34000161458
3042 154.4373319012785
3043 154.3402943552712
3044 154.4351676952298
3045 154.340621785795
3046 154.4352662318323
3047 154.3408269546499
3048 154.4357810244111
3049 154.3399459093972
3050 154.4381782202795
3051 154.3436691039995
3052 154.4396931378391
3053 154.3454892316121
3054 154.4420772034987
3055 154.3478291824002
3056 154.440444555902
3057 154.3446215235391
3058 154.4421130832639
3059 154.3435902450872
3060 154.4403429033546
3061 154.3436046410908
3062 154.4417339133365
3063 154.3438668398318
3064 154.4383588342253
3065 154.3438298105237
3066 154.4399637960456
3067 154.3429343075982
3068 154.4364075783463
3069 154.3382247180787
3070 154.4350972083674
3071 154.3413593288868
3072 154.4348043703656
3073 154.3362203742164
3074 154.4309985439427
3075 154.3383373968857
3076 154.4323278784003
3077 154.3365890607898
3078 154.4349606014182
3079 154.3397017379527
3080 154.433908092576
3081 154.3357763407122
3082 154.4338517653819
3083 154.3405250348801
3084 154.4367439327651
3085 154.3382410468508
3086 154.4371356936568
3087 154.3400513247158
3088 154.4383300432677
3089 154.3413020480106
3090 154.4406663697588
3091 154.3419522321514
3092 154.4398999418405
3093 154.3392571155238
3094 154.4384282105718
3095 154.3400096477817
3096 154.4390593836373
3097 154.3422816139511
3098 154.4396840426699
3099 154.3427488492069
3100 154.4416702506879
3101 154.3436173348177
3102 154.4421139083356
3103 154.3441099995808
3104 154.4420120196427
3105 154.3421187624264
3106 154.440832382855
3107 154.3445053823428
3108 154.4424440100663
3109 154.3430837004844
3110 154.4393494932409
3111 154.3428947726395
3112 154.4394896677212
3113 154.339769660449
3114 154.4403738583867
3115 154.3396141344261
3116 154.4378608979687
3117 154.3378726259508
3118 154.4398163699163
3119 154.341400706297
3120 154.4376973379968
3121 154.3387751236886
3122 154.4371698840497
3123 154.3409483634474
3124 154.4374772912609
3125 154.3407218974185
3126 154.4376480251122
3127 154.3434576562633
3128 154.4408442308481
3129 154.3404832674964
3130 154.4418475626429
3131 154.3426462439113
3132 154.4409505617007
3133 154.3390029318817
3134 154.4387458053668
3135 154.3412272004944
3136 154.4392595335087
3137 154.3411279184084
3138 154.4402320374755
3139 154.34163330006
3140 154.4399574274209
3141 154.3414320577414
3142 154.438177311067
3143 154.34247913062
3144 154.4359916467436
3145 154.3436693413104
3146 154.4382897861628
3147 154.346701308005
3148 154.4372975057386
3149 154.3435934913643
3150 154.438714587998
3151 154.3452372753578
3152 154.4366530047804
3153 154.3435151773731
3154 154.4389606656865
3155 154.3439253477762
3156 154.4388635904147
3157 154.339289242608
3158 154.4389233589468
3159 154.3413607551763
3160 154.4384533877152
3161 154.3372241026339
3162 154.4369093481578
3163 154.3388491774239
3164 154.4344894869956
3165 154.3380936438516
3166 154.4369757491904
3167 154.3413240994999
3168 154.4382644996238
3169 154.3418251014745
3170 154.4383885361704
3171 154.34314377259
3172 154.4399245477827
3173 154.3444871272313
3174 154.4417679435974
3175 154.3467102834884
3176 154.4435036087594
3177 154.3445922236177
3178 154.4431825394716
3179 154.3458059888036
3180 154.4432736586005
3181 154.3407382355018
3182 154.4418140233913
3183 154.3432802595759
3184 154.4416355443296
3185 154.3413951417818
3186 154.4413789633511
3187 154.3423408712529
3188 154.4379981775968
3189 154.3406202787251
3190 154.4364665699275
3191 154.3423293633978
3192 154.4364636990348
3193 154.3400451200297
3194 154.4360235572287
3195 154.343972419573
3196 154.4360321975132
3197 154.3450044485426
3198 154.4366183786134
3199 154.3453152602788
3200 154.4378265969273
3201 154.3431929375329
3202 154.4398411822418
3203 154.3435989505509
3204 154.4392991584875
3205 154.3430854327897
3206 154.4402370698543
3207 154.3455731641073
3208 154.4388048157918
3209 154.3452727127918
3210 154.4415314725647
3211 154.3475644961094
3212 154.440344013708
3213 154.345776609717
3214 154.4371220279263
3215 154.3470515568213
3216 154.4374727072477
3217 154.3442560697904
3218 154.4364184489596
3219 154.3466503273709
3220 154.4374971020205
3221 154.3420946910669
3222 154.4335643352228
3223 154.3393380187577
3224 154.4326746815348
3225 154.3375307887242
3226 154.4344686264116
3227 154.3391536436796
3228 154.4362202114114
3229 154.3399197288568
3230 154.4375868297282
3231 154.3435439547447
3232 154.4359107117938
3233 154.3428807442027
3234 154.4375675680448
3235 154.3454672312801
3236 154.4400777582604
3237 154.3436167245017
3238 154.4410815062294
3239 154.3485518454416
3240 154.4432731664215
3241 154.3448682084277
3242 154.442408388801
3243 154.343297175317
3244 154.4410121870915
3245 154.3438078253624
3246 154.4438584451414
3247 154.3458612879932
3248 154.44109526304
3249 154.3444154756317
3250 154.4414058458478
3251 154.3448840270568
3252 154.442381264696
3253 154.3437788456285
3254 154.4431551237322
3255 154.3479858788156
3256 154.4441317349967
3257 154.3451202339939
3258 154.4426443441735
3259 154.3500409978544
3260 154.4426485342814
3261 154.3467944724567
3262 154.4407570078165
3263 154.346473103259
3264 154.4404756688063
3265 154.3415842677303
3266 154.4386067052694
3267 154.3412457267181
3268 154.4383845864459
3269 154.3392289608665
3270 154.4394207867119
3271 154.3397988273248
3272 154.4407492169155
3273 154.3413658433141
3274 154.4396490726095
3275 154.3442129653441
3276 154.4405178863465
3277 154.3421822898684
3278 154.4390336616433
3279 154.3460531237311
3280 154.4403061434614
3281 154.343359981225
3282 154.4408303272695
3283 154.3496118231944
3284 154.4436355337593
3285 154.3484122514587
3286 154.4421909677606
3287 154.3500266758462
3288 154.4442772512269
3289 154.3486603856452
3290 154.4409987964639
3291 154.3472382006458
3292 154.4392792313437
3293 154.3432429861063
3294 154.43693050616
3295 154.3436863520929
3296 154.4378662835637
3297 154.3396288579612
3298 154.4371449679849
3299 154.3416717239016
3300 154.4379814763289
3301 154.3381126953677
3302 154.4333813225969
3303 154.3385669331282
3304 154.4317306885189
3305 154.3337810546987
3306 154.4300236087183
3307 154.3353611793746
3308 154.4312337599314
3309 154.3326568097211
3310 154.4321141310232
3311 154.3348227700977
3312 154.4324379084341
3313 154.3351110936199
3314 154.4332800296441
3315 154.3361252302109
3316 154.4341275491929
3317 154.3362230474853
3318 154.4365377602223
3319 154.3388326159703
3320 154.4365392101594
3321 154.3402990274155
3322 154.4394529691504
3323 154.3443729017631
3324 154.4414510599474
3325 154.344134849908
3326 154.4409007754705
3327 154.3457214097571
3328 154.4390232773361
3329 154.3419122188663
3330 154.4368519757371
3331 154.3430414006606
3332 154.4337774374961
3333 154.3384132443394
3334 154.43103872583
3335 154.3362344631637
3336 154.4293573423473
3337 154.333811732833
3338 154.4282189697724
3339 154.3344107073423
3340 154.4280929188084
3341 154.3322698238735
3342 154.4290159209403
3343 154.3336071137469
3344 154.4298095203446
3345 154.3332874708389
3346 154.4318570758195
3347 154.3378728164889
3348 154.4333133490018
3349 154.3355312042955
3350 154.4356869137814
3351 154.3405660072615
3352 154.4389270353543
3353 154.3403609703869
3354 154.4397805311939
3355 154.3432334624047
3356 154.439738538854
3357 154.3396953592349
3358 154.4395275492604
3359 154.3407672133543
3360 154.4375512239745
3361 154.3398438016727
3362 154.4367318147332
3363 154.3437275777151
3364 154.4370325226322
3365 154.3430654923086
3366 154.4391660734816
3367 154.3459981289572
3368 154.4411296344572
3369 154.3432980419252
3370 154.4397612824903
3371 154.345901666413
3372 154.4410872526385
3373 154.3431617331303
3374 154.4393962618798
3375 154.3431166415849
3376 154.4391408028686
3377 154.3394131903425
3378 154.4373489164788
3379 154.3403366063949
3380 154.436572583607
3381 154.3373911808976
3382 154.4331023369831
3383 154.3362671860084
3384 154.4327291536677
3385 154.3357621495028
3386 154.4320977560988
3387 154.3368985201009
3388 154.4331870416952
3389 154.3361976613595
3390 154.4322000275287
3391 154.3359740134971
3392 154.4323158894538
3393 154.3364417999373
3394 154.4334604160948
3395 154.3403458383698
3396 154.4364510634504
3397 154.3395758317528
3398 154.4384937016976
3399 154.3437332958075
3400 154.4419230173791
3401 154.3452252580896
3402 154.4434532495318
3403 154.347728148171
3404 154.443875338154
3405 154.3458917782635
3406 154.443735029923
3407 154.3457341983724
3408 154.4417879132435
3409 154.3450455024038
3410 154.4411490622618
3411 154.3447245213243
3412 154.4379585205157
3413 154.3408311608547
3414 154.4385905228199
3415 154.3407044952974
3416 154.4379441276125
3417 154.3395054409799
3418 154.4364552170217
3419 154.3380623200936
3420 154.4358555983178
3421 154.3371340614268
3422 154.4358994321032
3423 154.337993468991
3424 154.4348198440793
3425 154.3368040223837
3426 154.436080129679
3427 154.3380689980852
3428 154.4365491505268
3429 154.3375852147536
3430 154.4387765999321
3431 154.341750738953
3432 154.4399637744222
3433 154.3426390730803
3434 154.4405662993917
3435 154.343330797092
3436 154.4400071920424
3437 154.3426328475947
3438 154.4413230523299
3439 154.3444821988293
3440 154.4410210559031
3441 154.3436380481461
3442 154.44279058858
3443 154.3456578094341
3444 154.4444595611637
3445 154.3440216720423
3446 154.4438298736941
3447 154.3440467701459
3448 154.4421517912853
3449 154.3441119053213
3450 154.4410637160545
3451 154.3455142534257
3452 154.4394642386629
3453 154.3432885123421
3454 154.4395974073045
3455 154.3442516014566
3456 154.4376792229365
3457 154.3431830240296
3458 154.4366071222188
3459 154.3457872835514
3460 154.4379187726784
3461 154.3418843116395
3462 154.436288872319
3463 154.3388360696487
3464 154.4360334847277
3465 154.3371230503063
3466 154.4372978183796
3467 154.3388482188183
3468 154.4357138335554
3469 154.339305873242
3470 154.4387890651311
3471 154.3442339769794
3472 154.4384730753092
3473 154.3411898737196
3474 154.4389428058255
3475 154.3415284912896
3476 154.4390609544664
3477 154.3400442333579
3478 154.4395602720102
3479 154.3442293143484
3480 154.4417174730446
3481 154.34303744146
3482 154.4440081907825
3483 154.3447438225121
3484 154.4467302932176
3485 154.3450162665481
3486 154.4465364246565
3487 154.3457496643079
3488 154.4458734578673
3489 154.3424067396035
3490 154.4461139856296
3491 154.3438845020213
3492 154.4436586675386
3493 154.3435660678245
3494 154.4437145960748
3495 154.345068231421
3496 154.4416073147174
3497 154.3440414524238
3498 154.4410724978903
3499 154.3435720488417
3500 154.438696172378
3501 154.3410168035588
3502 154.4385630501032
3503 154.3424278089176
3504 154.4371307054764
3505 154.3411272301873
3506 154.4374024336948
3507 154.3432915111066
3508 154.438181795139
3509 154.3409091526573
3510 154.4391629215792
3511 154.3428474785432
3512 154.4392998117432
3513 154.3411517668067
3514 154.4384589214897
3515 154.3441234973825
3516 154.438982551878
3517 154.3437152069056
3518 154.4420317636438
3519 154.3478391524455
3520 154.4432766367518
3521 154.3470070735612
3522 154.4437377397502
3523 154.3502961075961
3524 154.4455944407964
3525 154.3499235453081
3526 154.4450613372866
3527 154.3497966780172
3528 154.4437593242462
3529 154.3463238287136
3530 154.4418844708053
3531 154.3460714759214
3532 154.4399790840121
3533 154.340389530456
3534 154.4384918287941
3535 154.3378423634564
3536 154.4355362500168
3537 154.338103274536
3538 154.4344747536147
3539 154.3393955469289
3540 154.4356431110178
3541 154.3380206000165
3542 154.4356762079743
3543 154.3421653063497
3544 154.4370409105711
3545 154.3390965975215
3546 154.4374404844013
3547 154.3430937458376
3548 154.4390693633429
3549 154.3430664472845
3550 154.4388938300718
3551 154.3483251145749
3552 154.4409403581405
3553 154.3462286142836
3554 154.4426208425497
3555 154.3469300755839
3556 154.4427191916498
3557 154.342434557659
3558 154.4404487889529
3559 154.3419814510015
3560 154.4390199527017
3561 154.341010726973
3562 154.4394385351887
3563 154.3414493514472
3564 154.4390820370572
3565 154.3416859689887
3566 154.4394795597956
3567 154.3414281662372
3568 154.4380291615642
3569 154.3403997808745
3570 154.4383182788876
3571 154.3395362387313
3572 154.4363224733698
3573 154.3388655609849
3574 154.4358935176146
3575 154.3403384585139
3576 154.4358626906575
3577 154.3393415335138
3578 154.4342831749961
3579 154.3438236007091
3580 154.4364072589797
3581 154.3430058287139
3582 154.4396704123021
3583 154.3450369582187
3584 154.4379679713152
3585 154.340961057732
3586 154.4403878423637
3587 154.3449308204772
3588 154.4411019082818
3589 154.3414131163121
3590 154.4419915437188
3591 154.3444900350435
3592 154.4389461722449
3593 154.3422511448822
3594 154.4392963104233
3595 154.342758671402
3596 154.4402064650448
3597 154.3432472246312
3598 154.441208783634
3599 154.3450011746894
3600 154.4415191954817
3601 154.3431068548462
3602 154.440068425927
3603 154.3454466975839
3604 154.4388911134718
3605 154.3433308694161
3606 154.4380085425047
3607 154.3445224613341
3608 154.4389475475292
3609 154.3415207558759
3610 154.4375072034843
3611 154.3420096377238
3612 154.4373183194863
3613 154.3380695425455
3614 154.4363096376113
3615 154.3368669026197
3616 154.4345806980428
3617 154.3353715545522
3618 154.4346305110415
3619 154.3366967684478
3620 154.4316661365345
3621 154.3340028426665
3622 154.432156544453
3623 154.3352235767042
3624 154.4342315625098
3625 154.3347801719763
3626 154.4347183111385
3627 154.3371342343655
3628 154.4363651639126
3629 154.3372148029823
3630 154.4365566649106
3631 154.3398356828868
3632 154.4378316356088
3633 154.3397483927807
3634 154.4388281274313
3635 154.3429220825697
3636 154.439806552347
3637 154.3420509897898
3638 154.4399980741346
3639 154.3440307052863
3640 154.440658289711
3641 154.3414213881006
3642 154.4403538968921
3643 154.3399475980245
3644 154.437183533376
3645 154.3368210142747
3646 154.4364283502696
3647 154.3367633197689
3648 154.4326120976652
3649 154.3323730219489
3650 154.4299132169044
3651 154.3352073992216
3652 154.4299546658374
3653 154.3338565144898
3654 154.4303627618997
3655 154.3366400052075
3656 154.4306594850362
3657 154.3350221376034
3658 154.4314126102915
3659 154.3360813796474
3660 154.4323186608055
3661 154.3339750207237
3662 154.4309869558456
3663 154.3347851630717
3664 154.43026171388
3665 154.3347321466053
3666 154.4337097874819
3667 154.3380580850911
3668 154.4353117091847
3669 154.3376693248253
3670 154.4350964064096
3671 154.3367419551063
3672 154.4352504144264
3673 154.3365277789409
3674 154.4355525498285
3675 154.3389120591926
3676 154.4368808624372
3677 154.3369905329257
3678 154.4350656586185
3679 154.3408104122611
3680 154.4359799237667
3681 154.3372724439581
3682 154.4339415424256
3683 154.3374384453492
3684 154.433707165456
3685 154.3342822836011
3686 154.4323976054048
3687 154.3360330968023
3688 154.4321702246894
3689 154.333897922021
3690 154.4333768560087
3691 154.3339664161268
3692 154.4316553185428
3693 154.3336059200843
3694 154.4339386436881
3695 154.3366968249164
3696 154.4350530029711
3697 154.3338241100681
3698 154.4345574996772
3699 154.3351849455138
3700 154.4346248696134
3701 154.3344111227504
3702 154.4346424293589
3703 154.3364467756774
3704 154.4351456501687
3705 154.3363396454706
3706 154.4387985971752
3707 154.3397471449958
3708 154.4389975338913
3709 154.3345674994954
3710 154.4352248107451
3711 154.3345283234493
3712 154.4343340536815
3713 154.3362779678608
3714 154.4378141602794
3715 154.3392262972443
3716 154.4363129591413
3717 154.3376806441857
3718 154.4345032931764
3719 154.3380566349806
3720 154.4341526054629
3721 154.3358335297701
3722 154.433488735549
3723 154.3384781471768
3724 154.4344969184523
3725 154.3371954042742
3726 154.4362104086789
3727 154.3409570908348
3728 154.4383820792662
3729 154.3381390413818
3730 154.4395109627914
3731 154.3386976335814
3732 154.4380046008252
3733 154.3360989812979
3734 154.4385331016823
3735 154.3360886389611
3736 154.4361205992878
3737 154.3372039710152
3738 154.4386886118751
3739 154.3402085012268
3740 154.4369968724806
3741 154.3416891575619
3742 154.4394147304939
3743 154.3441629942714
3744 154.441077951531
3745 154.3434233948534
3746 154.4436733244772
3747 154.3456838700215
3748 154.4432126965049
3749 154.3428077549302
3750 154.4408140807518
3751 154.3432680522194
3752 154.4420169646966
3753 154.3408090930864
3754 154.4437876914762
3755 154.3439567089425
3756 154.44524869204
3757 154.3419572293461
3758 154.4437164807686
3759 154.3424501212479
3760 154.4421629511314
3761 154.3389470616716
3762 154.4380523436872
3763 154.341368949854
3764 154.437569794331
3765 154.3376582093861
3766 154.4361641117677
3767 154.3412957989148
3768 154.4369808730621
3769 154.3406031932812
3770 154.437785227975
3771 154.3434900817614
3772 154.4379768031462
3773 154.338650692399
3774 154.4352287938497
3775 154.3400486268404
3776 154.4365666810201
3777 154.3399164663331
3778 154.4362098301891
3779 154.340003066652
3780 154.4382633467565
3781 154.3410854857026
3782 154.4403697240542
3783 154.3435827847747
3784 154.4407831541563
3785 154.3425129695204
3786 154.4417477073851
3787 154.3418461560871
3788 154.4370425951077
3789 154.3395977070585
3790 154.4358062523887
3791 154.3420842736773
3792 154.4359932801559
3793 154.3424754163213
3794 154.4351446538939
3795 154.3435403214175
3796 154.4368411193037
3797 154.3407371630414
3798 154.437422744715
3799 154.3407560321649
3800 154.434597968575
3801 154.3351553348104
3802 154.4352630373256
3803 154.337272642131
3804 154.4369478944558
3805 154.3379529353125
3806 154.4393007696657
3807 154.3397745800787
3808 154.4393090137907
3809 154.3387705512551
3810 154.4389695326615
3811 154.3397147685612
3812 154.4344125965395
3813 154.3392849850195
3814 154.4347394248449
3815 154.3432824735712
3816 154.4376018600472
3817 154.3417995433604
3818 154.4387694002396
3819 154.3460313864939
3820 154.4401125744921
3821 154.3432648331759
3822 154.4384132445923
3823 154.343067942705
3824 154.4381825952947
3825 154.3438693982161
3826 154.4394529591654
3827 154.3462115039085
3828 154.44095289007
3829 154.3437188483326
3830 154.43998319774
3831 154.345034715071
3832 154.4389051684543
3833 154.344099347677
3834 154.4397544220961
3835 154.3426322082076
3836 154.4400851547524
3837 154.3454622323463
3838 154.4430586321857
3839 154.3471500604749
3840 154.4425842376182
3841 154.3452371450438
3842 154.440795842066
3843 154.3459712363189
3844 154.4389975409499
3845 154.3424727455147
3846 154.438655958958
3847 154.3443572284067
3848 154.4346520013252
3849 154.3423415678228
3850 154.4368156182323
3851 154.3431046192968
3852 154.4350783907484
3853 154.3420979544433
3854 154.4348508421718
3855 154.3411495824989
3856 154.4328974717017
3857 154.3398453068645
3858 154.4331135738082
3859 154.3416747435938
3860 154.4336498984335
3861 154.3423603389215
3862 154.4385848083128
3863 154.3456981079337
3864 154.4406257040436
3865 154.3422226177798
3866 154.4403297116395
3867 154.3469484551103
3868 154.4400186586447
3869 154.3448685854609
3870 154.4404960012999
3871 154.348385104251
3872 154.4410593103372
3873 154.3437102845443
3874 154.4406591018496
3875 154.3449156056675
3876 154.4391498065472
3877 154.3420934176077
3878 154.4382670898981
3879 154.3405876637953
3880 154.437910765588
3881 154.3376479111395
3882 154.4364656379888
3883 154.3375615865777
3884 154.4353708879919
3885 154.337551671715
3886 154.4351578505798
3887 154.3397271371172
3888 154.4378113240911
3889 154.3394200461721
3890 154.4390712817931
3891 154.3429751766269
3892 154.4388687150769
3893 154.3402880604191
3894 154.4399109364761
3895 154.3436698733633
3896 154.4421261419005
3897 154.3439315605123
3898 154.4409764830251
3899 154.3478838179435
3900 154.4434416384095
3901 154.3474060746137
3902 154.4427767885805
3903 154.3464842459366
3904 154.4411322119591
3905 154.3433958170718
3906 154.4417669706708
3907 154.3437114705823
3908 154.4416119203572
3909 154.3430978399961
3910 154.440989532583
3911 154.3455591932795
3912 154.4417419923311
3913 154.3435142900522
3914 154.4400193740836
3915 154.3436351036008
3916 154.4378722240104
3917 154.3426144259368
3918 154.439590658055
3919 154.3449909468449
3920 154.4390274871796
3921 154.3428587337184
3922 154.4403675211071
3923 154.3443251733663
3924 154.440372365314
3925 154.3405274680005
3926 154.4380733363391
3927 154.3426086996822
3928 154.4374799106639
3929 154.3434222004231
3930 154.4387056551215
3931 154.3418041186867
3932 154.4364143684686
3933 154.3415289156467
3934 154.4385392534302
3935 154.3434900793337
3936 154.4379129073038
3937 154.3415293355179
3938 154.4392917943244
3939 154.3430055950002
3940 154.4386058314389
3941 154.3412242224108
3942 154.4410152882805
3943 154.3441686833187
3944 154.4409550557595
3945 154.3431919823148
3946 154.4422106116905
3947 154.3437767189274
3948 154.4406256354982
3949 154.3407443885116
3950 154.441306176207
3951 154.3396341953521
3952 154.4416912930318
3953 154.3418970651255
3954 154.442763888624
3955 154.3427161275097
3956 154.4401320551488
3957 154.3418920216677
3958 154.4401744546141
3959 154.3411728955741
3960 154.4378960911357
3961 154.3400082570102
3962 154.4371926944309
3963 154.3418029539451
3964 154.4375233720761
3965 154.3410336404476
3966 154.442027292792
3967 154.3443142633215
3968 154.4410407761044
3969 154.3425367497188
3970 154.4396654061305
3971 154.3407389870009
3972 154.4365896217261
3973 154.338435046436
3974 154.4360327321804
3975 154.3395223254951
3976 154.4364185381208
3977 154.3396169197378
3978 154.4392514434432
3979 154.3433828019559
3980 154.441623430653
3981 154.3444528836494
3982 154.4421795260576
3983 154.3493608605312
3984 154.4439848548067
3985 154.347969408624
3986 154.4436712166202
3987 154.3533709652804
3988 154.4453496603515
3989 154.3503401572502
3990 154.4429368474787
3991 154.3492449668936
3992 154.4439900707164
3993 154.3465887207669
3994 154.4426085376907
3995 154.3435508117974
3996 154.4414660439564
3997 154.3410927667243
3998 154.4396893847224
3999 154.3409860582699
4000 154.4380070550465
4001 154.3396805250762
4002 154.4380226363417
4003 154.3408930391376
4004 154.4370385408076
4005 154.3393415048283
4006 154.4353983721484
4007 154.3406448798938
4008 154.4359883961711
4009 154.3404467564598
4010 154.4380390715423
4011 154.3418761035693
4012 154.4389918043602
4013 154.3403290238795
4014 154.4404008278986
4015 154.3445054310768
4016 154.4400264019859
4017 154.3402742190269
4018 154.4421516970703
4019 154.3421112254632
4020 154.44459640197
4021 154.3418094270815
4022 154.4447819012086
4023 154.343332394519
4024 154.4432924011511
4025 154.3403245886955
4026 154.4410194276259
4027 154.341256053264
4028 154.4391899247976
4029 154.3380894739993
4030 154.4383112827631
4031 154.340474307853
4032 154.4363453730853
4033 154.3383117539927
4034 154.4362779878714
4035 154.3400741142032
4036 154.4379585628744
4037 154.339128560991
4038 154.440339751849
4039 154.3418885189165
4040 154.4409015709786
4041 154.3381824572345
4042 154.4395131299025
4043 154.3420045231824
4044 154.4394381573136
4045 154.3381993947531
4046 154.4390271561124
4047 154.3415026283249
4048 154.439400716722
4049 154.3405042500195
4050 154.4389728084251
4051 154.3410040460325
4052 154.4365450100303
4053 154.3393546533966
4054 154.4372631137843
4055 154.3392205673823
4056 154.4367027220248
4057 154.340634910156
4058 154.4401640359282
4059 154.3413365395108
4060 154.4423548611297
4061 154.3431807702993
4062 154.4433753830756
4063 154.3431596108558
4064 154.4425914486287
4065 154.3440252392367
4066 154.4449365473047
4067 154.3483713108828
4068 154.4437346502851
4069 154.3441838757765
4070 154.4433394716291
4071 154.3466161827602
4072 154.4447893937983
4073 154.3464529534945
4074 154.4454872001856
4075 154.3480774788466
4076 154.4431928008532
4077 154.3430898357229
4078 154.441952684236
4079 154.3437391111499
4080 154.4391551191132
4081 154.3387125842828
4082 154.4376309528482
4083 154.3414834345758
4084 154.4396401089984
4085 154.3395100790512
4086 154.4410243202966
4087 154.3422907730214
4088 154.4404781997424
4089 154.3396571627601
4090 154.4405722068444
4091 154.3398413038289
4092 154.4411838847145
4093 154.3411156118262
4094 154.4424084784696
4095 154.3432979792197
4096 154.4408214653791
4097 154.3409785752353
4098 154.4417983875691
4099 154.3435970335148
4100 154.4415964420457
4101 154.3421580229291
4102 154.4396959020337
4103 154.3423850840968
4104 154.4395271542594
4105 154.3413910157952
4106 154.4406808132731
4107 154.3421363481108
4108 154.4396378878459
4109 154.3406424860123
4110 154.4392757743616
4111 154.3425743741349
4112 154.4356755382751
4113 154.337636283907
4114 154.4340323463906
4115 154.3389354375877
4116 154.4358403852241
4117 154.3372427288359
4118 154.437388288989
4119 154.3416180105184
4120 154.4393245775637
4121 154.3401211049351
4122 154.438134612869
4123 154.3401888654036
4124 154.4374209896788
4125 154.3416119012527
4126 154.4390607191475
4127 154.3440266571989
4128 154.440075961067
4129 154.3430331245023
4130 154.4404875410672
4131 154.343449430285
4132 154.4403609056185
4133 154.3412628243017
4134 154.4397956667834
4135 154.3425286323483
4136 154.4395506560079
4137 154.3435168846751
4138 154.4391297370039
4139 154.3462803466582
4140 154.440128782993
4141 154.3433204218591
4142 154.438642178483
4143 154.3456570587801
4144 154.4399479568107
4145 154.3448994688869
4146 154.4414555755469
4147 154.3455023867605
4148 154.4412552461575
4149 154.3405328952514
4150 154.4400242292373
4151 154.3398080676954
4152 154.4387238480083
4153 154.3401369065704
4154 154.4395379954167
4155 154.3420353479003
4156 154.4396494867951
4157 154.3424956160138
4158 154.4422880266284
4159 154.3452040893922
4160 154.4400429843733
4161 154.3419367921965
4162 154.441450849005
4163 154.3460553774349
4164 154.4436600768916
4165 154.3439117192464
4166 154.4435850170076
4167 154.3472988971884
4168 154.4429441008057
4169 154.3440682193458
4170 154.4424266252027
4171 154.3473823921708
4172 154.4418352548697
4173 154.3450228692407
4174 154.4391776752171
4175 154.347646709288
4176 154.4413326930836
4177 154.3454208223277
4178 154.4397226468913
4179 154.3474506084663
4180 154.4388418759609
4181 154.3426938222488
4182 154.4378306204408
4183 154.3439115780909
4184 154.4394428821515
4185 154.3415585185662
4186 154.441485930954
4187 154.3456651467271
4188 154.4432209297326
4189 154.3442899878636
4190 154.4415123464265
4191 154.3450142808874
4192 154.4413689262396
4193 154.3425448864798
4194 154.4410696209921
4195 154.3448360949577
4196 154.4399600734321
4197 154.3415276780002
4198 154.4378886761933
4199 154.3443453108096
4200 154.4389185028461
4201 154.3420414736673
4202 154.4382135012753
4203 154.341856662731
4204 154.43879650126
4205 154.3421953278157
4206 154.4395211245978
4207 154.3437417759687
4208 154.4410917345667
4209 154.3436966032469
4210 154.4420694602796
4211 154.3485828109374
4212 154.4444665940796
4213 154.345938812458
4214 154.4427144882205
4215 154.3463340731358
4216 154.4442397686988
4217 154.3442449739218
4218 154.4442747063393
4219 154.344698580899
4220 154.443556741614
4221 154.3434428207055
4222 154.4415448661844
4223 154.3433459084498
4224 154.4409122426816
4225 154.3410528290138
4226 154.4401934026474
4227 154.3440696627718
4228 154.4407382461701
4229 154.3424078194622
4230 154.4403299300846
4231 154.3416544737492
4232 154.4403482457053
4233 154.3418123295511
4234 154.4402702978441
4235 154.341746833233
4236 154.4424945123869
4237 154.3415775013317
4238 154.4419181764013
4239 154.3449467677775
4240 154.4444789698489
4241 154.347630286222
4242 154.4464372477518
4243 154.3489439313078
4244 154.4443238496684
4245 154.346662434467
4246 154.4435698875727
4247 154.3462805823816
4248 154.4410200971928
4249 154.3461767964642
4250 154.4417380926699
4251 154.347505341341
4252 154.4419005378043
4253 154.3494423956533
4254 154.4430456638983
4255 154.3481213466121
4256 154.4424064323371
4257 154.3462517314786
4258 154.4428609547804
4259 154.3469899610493
4260 154.4416195045613
4261 154.3418341169714
4262 154.4401185490789
4263 154.3416531670218
4264 154.4371323661182
4265 154.3401681226865
4266 154.4386760661954
4267 154.3450754270875
4268 154.4389010310459
4269 154.3415003023668
4270 154.4380163295047
4271 154.3425430605236
4272 154.4387246289102
4273 154.3387823840636
4274 154.4372755425651
4275 154.3396934292217
4276 154.4359710909739
4277 154.3396914039999
4278 154.4378659616488
4279 154.3421079103
4280 154.4391374849805
4281 154.3418872675338
4282 154.439830098922
4283 154.3384946765808
4284 154.4400962835765
4285 154.3388506303697
4286 154.4401348302486
4287 154.3420118124361
4288 154.4388947049921
4289 154.3399040638963
4290 154.4390874744541
4291 154.3422945447413
4292 154.4402811436746
4293 154.3431973223075
4294 154.4427256233923
4295 154.3465732640057
4296 154.4413618466584
4297 154.3429949048028
4298 154.4383108875722
4299 154.3426754505418
4300 154.4376087638409
4301 154.3386605647856
4302 154.4383266461217
4303 154.33985436841
4304 154.4360597158485
4305 154.3390693199357
4306 154.437491594936
4307 154.3440254139365
4308 154.4394087884565
4309 154.341567687873
4310 154.4382435557766
4311 154.343057337236
4312 154.4374857491922
4313 154.3409563756033
4314 154.4368176719346
4315 154.3417562973784
4316 154.4357173929228
4317 154.3394576098528
4318 154.4366519990701
4319 154.3438646830463
4320 154.4405059266562
4321 154.342624951364
4322 154.4401598827957
4323 154.3442433794408
4324 154.4389714011747
4325 154.3406560750009
4326 154.4396458774584
4327 154.3411728916229
4328 154.439599749129
4329 154.3415220331358
4330 154.4419465015576
4331 154.3443821689615
4332 154.4414926584747
4333 154.3453234843377
4334 154.4422017490455
4335 154.3442999763243
4336 154.4409491011793
4337 154.3402537747533
4338 154.4403758374516
4339 154.3408581264664
4340 154.4392977356178
4341 154.3383428599227
4342 154.4373955707246
4343 154.3392862563672
4344 154.4370210073696
4345 154.3344963480423
4346 154.4351939200671
4347 154.3372819029067
4348 154.4352858469458
4349 154.33385945498
4350 154.4330397321619
4351 154.3337414792963
4352 154.4318790468611
4353 154.3297780662407
4354 154.4336092785453
4355 154.329147754334
4356 154.4326583061205
4357 154.3286584572747
4358 154.4326828156559
4359 154.3326465351427
4360 154.4337267590927
4361 154.3346159279446
4362 154.4357319279662
4363 154.3352209862945
4364 154.4349116963058
4365 154.3338774126164
4366 154.4361072237394
4367 154.3359192741845
4368 154.4368997832901
4369 154.3337824558809
4370 154.4374988169615
4371 154.3371111686188
4372 154.4382455056584
4373 154.3348593390887
4374 154.4380935572665
4375 154.3390316020841
4376 154.4353038503685
4377 154.3341175292853
4378 154.4332776104439
4379 154.3326979232351
4380 154.4305959184476
4381 154.3289873100691
4382 154.4295167961945
4383 154.3301300334689
4384 154.4293013688614
4385 154.3330268769645
4386 154.4331761950748
4387 154.3371606972983
4388 154.4343459057884
4389 154.3360904110035
4390 154.4340172902437
4391 154.3382640528393
4392 154.433456754267
4393 154.3379941311099
4394 154.4349476678446
4395 154.341590884661
4396 154.4369706733372
4397 154.3388199776064
4398 154.4372758561183
4399 154.3386546960584
4400 154.437485461335
4401 154.3363145750729
4402 154.4363580610223
4403 154.3373287128145
4404 154.4365833353316
4405 154.3354313680833
4406 154.43792863958
4407 154.3404743629989
4408 154.4386928906229
4409 154.3402410108013
4410 154.4390711872126
4411 154.341384155299
4412 154.4395720851729
4413 154.339989463843
4414 154.4383324875373
4415 154.3408967658101
4416 154.4398428099058
4417 154.3377252991519
4418 154.4370490275161
4419 154.3410233588929
4420 154.4382925315115
4421 154.338955960956
4422 154.4378832042958
4423 154.340458972863
4424 154.437916676006
4425 154.3391332955912
4426 154.4362222673671
4427 154.3383441706905
4428 154.435242321489
4429 154.3356966531665
4430 154.4338639664984
4431 154.3369405328703
4432 154.4351836706079
4433 154.3354778721811
4434 154.436889073548
4435 154.3365277349214
4436 154.4359235592361
4437 154.3366028309189
4438 154.4351451757012
4439 154.3393749180103
4440 154.4351418671826
4441 154.3373748291243
4442 154.4348120541385
4443 154.3381193066259
4444 154.4353471237475
4445 154.3388788666398
4446 154.4370309931403
4447 154.3408001593707
4448 154.4366560224525
4449 154.3388110645205
4450 154.437817767078
4451 154.3427118798765
4452 154.4383004045872
4453 154.3431631738784
4454 154.4398904104289
4455 154.3460292385158
4456 154.4393403351226
4457 154.3408533786568
4458 154.4389364827319
4459 154.3397858603105
4460 154.4342066263953
4461 154.3369107789036
4462 154.434705426365
4463 154.340949570085
4464 154.4330522343309
4465 154.3375786107422
4466 154.4327669666692
4467 154.3387656129218
4468 154.4331371150662
4469 154.3373402759497
4470 154.4366409452923
4471 154.3393734322188
4472 154.4361978961878
4473 154.3398253318401
4474 154.4385509434
4475 154.3424664124943
4476 154.4420017554806
4477 154.3424118804034
4478 154.4452681920317
4479 154.346705157563
4480 154.4449868109493
4481 154.3457513066416
4482 154.4474224350897
4483 154.3525118344729
4484 154.44744529256
4485 154.3505054170516
4486 154.4458792623461
4487 154.3494825717185
4488 154.4445278539059
4489 154.3456351257671
4490 154.4414925214248
4491 154.3471270798944
4492 154.4396582782284
4493 154.3441774303835
4494 154.4381067092817
4495 154.3438871905964
4496 154.4354821944868
4497 154.3406820541707
4498 154.433871749278
4499 154.3426347209773
4500 154.4357463716689
4501 154.3399158017736
4502 154.4358683129166
4503 154.3403363726381
4504 154.4374762868885
4505 154.3390445849141
4506 154.4381942458819
4507 154.3402940734258
4508 154.4368644709943
4509 154.3377429598902
4510 154.4359153661516
4511 154.3400467882835
4512 154.4371050829115
4513 154.3403331697222
4514 154.4366203871277
4515 154.3422511320417
4516 154.4377678755589
4517 154.3439756265937
4518 154.4390336244394
4519 154.3433982267239
4520 154.4389852232831
4521 154.3434975027009
4522 154.4399013153435
4523 154.3439895400369
4524 154.4360806229652
4525 154.343725498535
4526 154.4396516430226
4527 154.3460694657976
4528 154.4397102383836
4529 154.3441513420523
4530 154.4412495806505
4531 154.3442883708463
4532 154.4394848232468
4533 154.3442513088966
4534 154.4394296372502
4535 154.3454525097441
4536 154.4379292232599
4537 154.3426312430629
4538 154.4367915319085
4539 154.342253059072
4540 154.4337229406229
4541 154.3383252161555
4542 154.4354314970785
4543 154.3383256066408
4544 154.4357839347772
4545 154.3376166505498
4546 154.4379422402531
4547 154.339191768851
4548 154.4385463679291
4549 154.3393292801931
4550 154.4407109283234
4551 154.343190848339
4552 154.4404117835941
4553 154.3429782949925
4554 154.442070872438
4555 154.3460641834749
4556 154.4422029358059
4557 154.3441367736395
4558 154.4431153644882
4559 154.3468966041625
4560 154.4417229524693
4561 154.3454409204372
4562 154.4427018592892
4563 154.3469539918383
4564 154.4422367763616
4565 154.3459727754271
4566 154.4423583813993
4567 154.3493556199393
4568 154.4415172839826
4569 154.3472309811208
4570 154.4425276441316
4571 154.3489169948435
4572 154.4415255543541
4573 154.3429728988703
4574 154.4396743289687
4575 154.3432093549887
4576 154.4374880008215
4577 154.3407810722479
4578 154.4344654806929
4579 154.3419339640144
4580 154.4347969196614
4581 154.3394668777738
4582 154.4347637641692
4583 154.338232941312
4584 154.4347644361839
4585 154.3380531768629
4586 154.4347782980654
4587 154.3391153268823
4588 154.4353475786239
4589 154.338621817018
4590 154.4373143204197
4591 154.3418236318028
4592 154.4396382915305
4593 154.3408473259639
4594 154.4403935254174
4595 154.3450029707719
4596 154.4413789562909
4597 154.3434883369395
4598 154.442364743189
4599 154.3452463950854
4600 154.4423675672737
4601 154.3432270735625
4602 154.4420161099408
4603 154.3438218606133
4604 154.437736795256
4605 154.3408877796576
4606 154.4372814191543
4607 154.3395782261143
4608 154.4332081047518
4609 154.3381009146983
4610 154.4320655149919
4611 154.3372535273103
4612 154.4321497691225
4613 154.3380086380558
4614 154.4341119464588
4615 154.337855627014
4616 154.4346163359148
4617 154.3367493341738
4618 154.4373196905863
4619 154.3398221409462
4620 154.4380844415448
4621 154.3387588886575
4622 154.4380751168664
4623 154.3415118417597
4624 154.4404897532106
4625 154.3413649822037
4626 154.4402831182185
4627 154.3438681298386
4628 154.4382320085012
4629 154.3438141867228
4630 154.4386294463491
4631 154.3473813483164
4632 154.4431718445657
4633 154.3460754338029
4634 154.4427271671786
4635 154.3492297258296
4636 154.4457799533577
4637 154.3459174499947
4638 154.4444987359012
4639 154.3498609199769
4640 154.4437061433006
4641 154.3437407147126
4642 154.441590515373
4643 154.3457343371919
4644 154.4426168210833
4645 154.3417192980216
4646 154.4399488962311
4647 154.3442241371474
4648 154.4395989177309
4649 154.3403658728347
4650 154.4376734027549
4651 154.3420684128035
4652 154.4382841141004
4653 154.3400566719219
4654 154.4369373232432
4655 154.3415123402682
4656 154.4365982697835
4657 154.3396200130937
4658 154.435629509312
4659 154.3404085722896
4660 154.4374056103842
4661 154.3414025630241
4662 154.4419520472332
4663 154.3426132516497
4664 154.4430462278325
4665 154.3420349420429
4666 154.4436529587826
4667 154.3444206577745
4668 154.4432397306927
4669 154.3433716694841
4670 154.444466049187
4671 154.3453750509699
4672 154.4431719540976
4673 154.3420650544442
4674 154.4432851757675
4675 154.3418236510515
4676 154.4424247771966
4677 154.3407100289531
4678 154.4407648795998
4679 154.3384944675772
4680 154.4385476149662
4681 154.3375046155623
4682 154.4385799895482
4683 154.3388335446182
4684 154.4372825414996
4685 154.3354933856133
4686 154.4358891519527
4687 154.3364041645261
4688 154.4336613502494
4689 154.3306569641686
4690 154.4306992778137
4691 154.3344451582066
4692 154.4327727381371
4693 154.3310365542676
4694 154.4320561218249
4695 154.3356522496944
4696 154.4330329153508
4697 154.3339859010034
4698 154.4313580302664
4699 154.3334693844605
4700 154.4318332998496
4701 154.3342985421054
4702 154.4334742740328
4703 154.3376429535293
4704 154.4347701499366
4705 154.3350437117421
4706 154.4355944258768
4707 154.3382280710239
4708 154.43606979499
4709 154.3379676365576
4710 154.4381618625536
4711 154.3382538863254
4712 154.4383919839529
4713 154.340862389182
4714 154.4420518733278
4715 154.3418903552364
4716 154.4413947936796
4717 154.3422713767919
4718 154.4419351807044
4719 154.3435063498128
4720 154.4386795192805
4721 154.3377051883549
4722 154.4409648807693
4723 154.3413964538739
4724 154.4389327568036
4725 154.3368991180414
4726 154.4361121138
4727 154.3377491632793
4728 154.4325018042379
4729 154.3337063671553
4730 154.431213533351
4731 154.332997517664
4732 154.4279500430302
4733 154.3287009000445
4734 154.428479198302
4735 154.3309563080065
4736 154.4299870836871
4737 154.3310720178721
4738 154.4306859552167
4739 154.3348018888379
4740 154.4332206876391
4741 154.3353247196695
4742 154.4335527083561
4743 154.3358817831841
4744 154.4335152729703
4745 154.3361246913953
4746 154.4346502137479
4747 154.3385585532309
4748 154.4345918106508
4749 154.336775726532
4750 154.4368849300869
4751 154.3383974097116
4752 154.4355399999922
4753 154.3367337254643
4754 154.4360461948666
4755 154.3389807432615
4756 154.4333103293897
4757 154.3382656199282
4758 154.436570447288
4759 154.3400582020229
4760 154.4360856761203
4761 154.3353415318384
4762 154.4352391573154
4763 154.3387020021237
4764 154.436153075814
4765 154.336626037356
4766 154.4366316674471
4767 154.3420078580714
4768 154.4374971034374
4769 154.3397167161327
4770 154.4373249093204
4771 154.3399762031162
4772 154.4336151205962
4773 154.3375540988791
4774 154.4346558192536
4775 154.3392016978131
4776 154.4337772676376
4777 154.3367519720655
4778 154.4333880500497
4779 154.3393303157666
4780 154.433217669086
4781 154.3390863209845
4782 154.4352068254233
4783 154.3432445055535
4784 154.4375798676225
4785 154.3396119436511
4786 154.4373928029771
4787 154.3437327244157
4788 154.4402671273436
4789 154.3428251586038
4790 154.4406721023275
4791 154.3430876443629
4792 154.4397912175049
4793 154.3407619035701
4794 154.441017288596
4795 154.3438561834714
4796 154.4414987406379
4797 154.3430966517205
4798 154.4406494628794
4799 154.3456772052991
4800 154.4396208917435
4801 154.3429994650956
4802 154.4393708231017
4803 154.3468907335708
4804 154.4406088593097
4805 154.345039095158
4806 154.4410981828125
4807 154.3467768360153
4808 154.4392091832007
4809 154.3398992471058
4810 154.4369305293354
4811 154.3400028809577
4812 154.4365105545439
4813 154.3379715982211
4814 154.4349149321312
4815 154.3379595128448
4816 154.4344722278316
4817 154.3376240139436
4818 154.4353521857048
4819 154.3391632004567
4820 154.4347277523678
4821 154.3385671632163
4822 154.4347477312245
4823 154.3412061041305
4824 154.4366101281023
4825 154.3399254244804
4826 154.4354417581595
4827 154.3424035837845
4828 154.438053673794
4829 154.3409413356215
4830 154.4398141711506
4831 154.3422262054022
4832 154.4405726459903
4833 154.3429482923044
4834 154.4407993249776
4835 154.344930530983
4836 154.4416984708052
4837 154.3424086428928
4838 154.4403069248083
4839 154.3418975871596
4840 154.4358651587015
4841 154.3380070221318
4842 154.4353238269997
4843 154.3397569488083
4844 154.4315185788689
4845 154.3382062082784
4846 154.4324999598164
4847 154.3399024558018
4848 154.4321464413123
4849 154.3394784920472
4850 154.4325104293311
4851 154.3398520866419
4852 154.4340295037385
4853 154.3388167454915
4854 154.4373408148869
4855 154.3415189105878
4856 154.4387373710252
4857 154.3426856906447
4858 154.4401987695902
4859 154.3440211212988
4860 154.4416088224559
4861 154.3442134500386
4862 154.4436427547398
4863 154.3471601156872
4864 154.4435636012419
4865 154.3453849596451
4866 154.4448437920378
4867 154.3474629134104
4868 154.4447005028708
4869 154.3453563693751
4870 154.4445646754414
4871 154.3474539317276
4872 154.4443045192556
4873 154.3443970880101
4874 154.4416165226039
4875 154.3448991298031
4876 154.4407611502298
4877 154.3426745258066
4878 154.4406936243686
4879 154.3473658602176
4880 154.4406925093361
4881 154.3427559699284
4882 154.4404098374197
4883 154.3427112927785
4884 154.4387730144381
4885 154.3400814655568
4886 154.4359237398336
4887 154.3384938419248
4888 154.4350924612882
4889 154.3388036126186
4890 154.4372281129415
4891 154.3420657187899
4892 154.4385550408864
4893 154.3403794248816
4894 154.4370867282876
4895 154.3430867078399
4896 154.4406248929129
4897 154.3421084568012
4898 154.4414935087242
4899 154.345535752488
4900 154.4424899342935
4901 154.3434683068597
4902 154.4425418011246
4903 154.3426595751787
4904 154.4411617342616
4905 154.3437583095347
4906 154.4436095516836
4907 154.3441341290025
4908 154.4416545451741
4909 154.3429196843322
4910 154.441166454168
4911 154.3432187927311
4912 154.4379987987815
4913 154.340974357187
4914 154.4369264697659
4915 154.3418988809591
4916 154.4350910276051
4917 154.3423787385685
4918 154.436925731956
4919 154.3443236355934
4920 154.4373024575931
4921 154.3409693905134
4922 154.4370279800687
4923 154.3405251883648
4924 154.4354777919814
4925 154.3400193786878
4926 154.4372707987982
4927 154.3391349559937
4928 154.4341939075717
4929 154.3381260004505
4930 154.4346103989729
4931 154.3378706717014
4932 154.4342013830172
4933 154.3377150838606
4934 154.4379662963566
4935 154.3386684406987
4936 154.4359580793155
4937 154.3375511131036
4938 154.4366907281393
4939 154.3424523375238
4940 154.4383415298701
4941 154.341470439653
4942 154.4431223887335
4943 154.3474889621363
4944 154.4458152816937
4945 154.3466924343084
4946 154.4471617060918
4947 154.3502523543557
4948 154.4448166301839
4949 154.3482490247432
4950 154.4437882883981
4951 154.3464675023861
4952 154.442350856346
4953 154.3440689541652
4954 154.4412770898333
4955 154.3424466332488
4956 154.4407248238227
4957 154.3406372489308
4958 154.4403704731431
4959 154.3395119740306
4960 154.439928850665
4961 154.3388557723005
4962 154.4423713516743
4963 154.3391411425379
4964 154.4393819418962
4965 154.3397715462942
4966 154.4393964608951
4967 154.3396076930147
4968 154.4372903572761
4969 154.3400788241396
4970 154.441086710052
4971 154.3416769546816
4972 154.4409972645624
4973 154.3429373797289
4974 154.4413067188704
4975 154.343985462496
4976 154.4400166582286
4977 154.3413456781857
4978 154.4407152900024
4979 154.3445673512744
4980 154.4402893522449
4981 154.3428300620234
4982 154.4413056788882
4983 154.3475417774589
4984 154.4421281094779
4985 154.3434580803414
4986 154.4433928876929
4987 154.3438962088694
4988 154.4407831119451
4989 154.3428484310786
4990 154.4418928008854
4991 154.3437498099901
4992 154.4404930356024
4993 154.3419687812828
4994 154.4391270916737
4995 154.3417621498521
4996 154.4391634648775
4997 154.3407275348539
4998 154.4406659970359
4999 154.3425558556395
5000 154.4411145279294
5001 154.3390998233925
5002 154.4397177970845
5003 154.3389853437539
5004 154.4374056842456
5005 154.3359860515486
5006 154.4370288217121
5007 154.3398128103355
5008 154.4363407403369
5009 154.3367627032728
5010 154.4374224145321
5011 154.3412048601777
5012 154.4377553052906
5013 154.3388716030104
5014 154.4371252184787
5015 154.3392973890813
5016 154.4334947857665
5017 154.3380302613594
5018 154.4345336956078
5019 154.3423312472147
5020 154.4370413905782
5021 154.3428991747025
5022 154.4410714514221
5023 154.3432382765986
5024 154.4416923277774
5025 154.3446312344852
5026 154.4439952923882
5027 154.3470172145217
5028 154.4448899923544
5029 154.3446663295664
5030 154.4456756773997
5031 154.346168274808
5032 154.4439125306339
5033 154.3418282776648
5034 154.44284474035
5035 154.3409630215943
5036 154.4394441659801
5037 154.3387191110119
5038 154.4384288811212
5039 154.3383523985333
5040 154.4355297405932
5041 154.3350955227082
5042 154.4361139080422
5043 154.3370131627101
5044 154.4320487943538
5045 154.3339928391787
5046 154.430873204226
5047 154.3340775985594
5048 154.4317311324835
5049 154.3325863267194
5050 154.4316543558291
5051 154.3371369832719
5052 154.4356210481378
5053 154.3390549132941
5054 154.4360656058803
5055 154.3414432108542
5056 154.4375795598494
5057 154.3389841510288
5058 154.4367902127686
5059 154.3426982404929
5060 154.4370059252745
5061 154.3413199664772
5062 154.4367476627014
5063 154.3413667902943
5064 154.4362489100241
5065 154.3387630449092
5066 154.4360991982956
5067 154.3375779354341
5068 154.4360675012002
5069 154.3375943757026
5070 154.4355184304493
5071 154.335398514938
5072 154.4334443485408
5073 154.333879383778
5074 154.4338134314763
5075 154.335487753372
5076 154.4310024958081
5077 154.3317463802675
5078 154.4324820279019
5079 154.3353253451576
5080 154.4330514672508
5081 154.3339497777511
5082 154.4326747012823
5083 154.3327356922242
5084 154.4294069800419
5085 154.3319665269799
5086 154.4300166174229
5087 154.3348137111464
5088 154.4299456700293
5089 154.3343783497978
5090 154.4325944039313
5091 154.3400262538089
5092 154.434885676605
5093 154.340166693881
5094 154.438320202145
5095 154.3406809628104
5096 154.4359545785479
5097 154.3374947208278
5098 154.435924305151
5099 154.3400866327296
5100 154.4334808170463
5101 154.3376694492676
5102 154.4364431464195
5103 154.3392307439979
5104 154.4358071179555
5105 154.3376277463267
5106 154.4375131052186
5107 154.3437930199998
5108 154.4372839007478
5109 154.3400581483198
5110 154.4361164326035
5111 154.3415315806121
5112 154.4364779375019
5113 154.3398671663868
5114 154.433802126771
5115 154.3400834050267
5116 154.433451265283
5117 154.3366053963825
5118 154.4350111211398
5119 154.3395841521985
5120 154.4349798982111
5121 154.3376451933225
5122 154.4352888568012
5123 154.3380780685305
5124 154.4333608710862
5125 154.3367347530499
5126 154.4338299303259
5127 154.3370394553495
5128 154.4337347117671
5129 154.3387090955955
5130 154.4363080915474
5131 154.3400542846862
5132 154.4368723205347
5133 154.3399037222724
5134 154.4375933531512
5135 154.3429025989557
5136 154.4384343484094
5137 154.3408013934649
5138 154.4374939716646
5139 154.3441333605894
5140 154.4391874980215
5141 154.3416414078459
5142 154.4410780916385
5143 154.3423352435653
5144 154.4429092663665
5145 154.3419541454375
5146 154.4427695161045
5147 154.3406920561887
5148 154.4402774100542
5149 154.3390623167568
5150 154.4372946722224
5151 154.3397705885729
5152 154.4364743666339
5153 154.3357606547899
5154 154.4345596090897
5155 154.3369573971615
5156 154.4333483703243
5157 154.3359825437628
5158 154.4330814863335
5159 154.3380486880563
5160 154.4337934799539
5161 154.3341905392626
5162 154.4337067934133
5163 154.3363954834861
5164 154.4334832877205
5165 154.3360142297043
5166 154.4351102155134
5167 154.3399429556089
5168 154.4357855874626
5169 154.3396833515469
5170 154.4378288099997
5171 154.3414220760649
5172 154.4386056318844
5173 154.3414229105424
5174 154.4403140133607
5175 154.3442501537682
5176 154.4389365785678
5177 154.3435242379927
5178 154.4395234736171
5179 154.344852607904
5180 154.4390756872774
5181 154.3448480848378
5182 154.4402089234741
5183 154.3471329143984
5184 154.4391339490104
5185 154.3431140080822
5186 154.4396391235014
5187 154.3448619254421
5188 154.4378281736955
5189 154.3383594864828
5190 154.4367946037731
5191 154.3400537688962
5192 154.4347229313456
5193 154.3385818975171
5194 154.4362939237215
5195 154.3406051373077
5196 154.4347727110554
5197 154.3365845790823
5198 154.4364297579525
5199 154.3389877727223
5200 154.4369018109572
5201 154.3389987207768
5202 154.4373717909125
5203 154.3428871566906
5204 154.4370814672788
5205 154.3403259490884
5206 154.4388997438849
5207 154.3430058054656
5208 154.4391765332379
5209 154.3417671338978
5210 154.4402428219846
5211 154.3426128418324
5212 154.438706834696
5213 154.343586965138
5214 154.4429653509332
5215 154.343775532747
5216 154.4416327251294
5217 154.3440240135556
5218 154.4445796355611
5219 154.3466704949355
5220 154.4435199128075
5221 154.3449258947764
5222 154.4441007761903
5223 154.3475146585482
5224 154.4430740677519
5225 154.3439882281197
5226 154.4419073244449
5227 154.3449321462636
5228 154.4405123184607
5229 154.3421266101564
5230 154.4396629316486
5231 154.3451398733579
5232 154.438559117137
5233 154.3405643986215
5234 154.4359978155927
5235 154.3427021532547
5236 154.4351115237612
5237 154.3386236100848
5238 154.4334721436274
5239 154.3401155090979
5240 154.4326410431082
5241 154.337182662518
5242 154.4329687267665
5243 154.3396951299281
5244 154.4353777055599
5245 154.3394837369601
5246 154.4375695283683
5247 154.33981585215
5248 154.4367934163873
5249 154.3390189948625
5250 154.4394704835538
5251 154.3421271761381
5252 154.4388382811002
5253 154.3417110702696
5254 154.4390886875267
5255 154.3468130053151
5256 154.440304331728
5257 154.3454576318552
5258 154.4422733487543
5259 154.3465385982591
5260 154.4426537251351
5261 154.3459706947579
5262 154.4451486248782
5263 154.3488288891426
5264 154.4459881895915
5265 154.3481857270089
5266 154.4459147365559
5267 154.3466725319033
5268 154.4440165541899
5269 154.3441670216118
5270 154.4441567565269
5271 154.3448289069858
5272 154.4412151216223
5273 154.3424007115781
5274 154.4414810812588
5275 154.3439436365367
5276 154.4410539675378
5277 154.3403842298851
5278 154.4398179971253
5279 154.341514725238
5280 154.4384199599381
5281 154.3385028464909
5282 154.4375828362014
5283 154.3402029303419
5284 154.4378579893101
5285 154.3369000439793
5286 154.4381397943722
5287 154.3405422616975
5288 154.4401445273965
