"x-rfile"
"Iteration" "x"
("Iteration" "x")
1 2275.07014305715
2 2034.006357708595
3 1469.069603606247
4 1189.16833898748
5 907.8902777007152
6 733.2907203862243
7 584.2718380185096
8 479.7493510571491
9 368.1586453735413
10 271.102299794019
11 197.5633430539306
12 126.5179572244124
13 83.72849411294021
14 48.30048350074914
15 31.17312098322097
16 18.16597567634281
17 16.00188328177278
18 14.9529751658453
19 19.62811670680574
20 23.37412412984563
21 31.60601937988308
22 37.18146364892326
23 44.95457300370826
24 50.33879630956763
25 56.46187774249051
26 59.76213309703435
27 64.67317650675167
28 67.16871709897248
29 70.5087385430426
30 72.03272318565452
31 74.22142760288693
32 75.09159861835596
33 76.77468304236579
34 77.35847189533452
35 78.56451107263015
36 78.99378360860293
37 79.85557594410085
38 79.75625020289466
39 79.94131319736491
40 79.3283443181892
41 79.00268762120112
42 78.0647714738291
43 77.40226643427427
44 76.3888564616104
45 75.61552938037572
46 74.64571015734363
47 73.89157159793393
48 72.8245669529755
49 72.01954012775171
50 70.75773499028861
51 69.99374604454044
52 68.8529036906321
53 67.99038195379119
54 67.00420744056798
55 66.2650563267201
56 65.448241412356
57 64.83912412329458
58 64.23511622902429
59 63.75458724852081
60 63.20548154464814
61 62.77612121703795
62 62.2905557479977
63 61.90158818029002
64 61.50192564598757
65 61.13451730429306
66 60.75604724248987
67 60.41822628347539
68 60.05260593786563
69 59.74736634060668
70 59.41630247289432
71 59.13102933554787
72 58.82348434919788
73 58.55366962599873
74 58.26865632726177
75 58.0084595015803
76 57.73789263422584
77 57.49481025755703
78 57.24294056769144
79 57.01412156087127
80 56.78235437167218
81 56.56545301326681
82 56.34655884044268
83 56.13957630618219
84 55.93308204322323
85 55.73890676054063
86 55.54584515916403
87 55.36343457196254
88 55.18277493865055
89 55.00468172273857
90 54.83721019524344
91 54.67572426747383
92 54.51911168462061
93 54.35792128037269
94 54.21375248234837
95 54.07095836933632
96 53.93417349334367
97 53.79878714542228
98 53.67321891070886
99 53.53832002861252
100 53.42647691265496
101 53.31368034896435
102 53.21039266791374
103 53.10457332392691
104 53.00752296558727
105 52.91405181643469
106 52.83217598357029
107 52.74358982869123
108 52.67526040800781
109 52.59968687225297
110 52.53911375449588
111 52.47369411327532
112 52.42501233795649
113 52.36871472389251
114 52.32895371309861
115 52.2797240681632
116 52.24169508784912
117 52.20597611315768
118 52.17604413458267
119 52.14707337320745
120 52.1214868445043
121 52.09656934098868
122 52.0758519926498
123 52.05231225677641
124 52.03550895926093
125 52.01576494539624
126 52.00260690060487
127 51.98357776886841
128 51.97238085062735
129 51.95527374809378
130 51.9455515007956
131 51.92841356636407
132 51.91938577581024
133 51.90168229652417
134 51.89342579319976
135 51.87361131891774
136 51.86615750168222
137 51.84656374798552
138 51.84010109206446
139 51.81916205890286
140 51.81333595958105
141 51.79283133158608
142 51.78807512192162
143 51.7639651467108
144 51.75962585817906
145 51.73482698926263
146 51.72823367745927
147 51.70282781222318
148 51.69794245371907
149 51.67509667357725
150 51.66865511285768
151 51.64416438479601
152 51.63787356111392
153 51.61437965730936
154 51.60826771236879
155 51.58424937354459
156 51.57847036918599
157 51.55607890976452
158 51.55165479011973
159 51.53063210016052
160 51.52644632533908
161 51.50206177214964
162 51.49767100226962
163 51.4771379174676
164 51.47295167952036
165 51.45165080586233
166 51.44788578867996
167 51.42809593885
168 51.42508654156875
169 51.40564066141482
170 51.40243185118254
171 51.37869898169847
172 51.37644871760575
173 51.35803422848132
174 51.35523909930562
175 51.33666779559287
176 51.3352698133937
177 51.31757062953584
178 51.31265454627412
179 51.2948950707158
180 51.29252693971536
181 51.27589048246413
182 51.27426105768256
183 51.25252960307414
184 51.25221694729674
185 51.23530921569422
186 51.22836507020003
187 51.20952038867769
188 51.20764849907677
189 51.19109728520552
190 51.18622506987442
191 51.1699318841172
192 51.16846710483747
193 51.15263152755783
194 51.14771929480583
195 51.13172665890936
196 51.13040099507606
197 51.10972366821818
198 51.11063751076379
199 51.09618767266163
200 51.0923755359936
201 51.07728744087152
202 51.07785152350272
203 51.06392080177982
204 51.06276731386813
205 51.04920266735221
206 51.050943361363
207 51.03728232720695
208 51.03978242552158
209 51.02134684979919
210 51.02451341305246
211 51.01077326504461
212 51.01225776366981
213 50.99655205531168
214 50.99869178327816
215 50.98429864530284
216 50.98738881277031
217 50.97321421826673
218 50.97574334532924
219 50.96091813954423
220 50.96279187803881
221 50.94757084207571
222 50.94932554824184
223 50.93459118668862
224 50.93705226874188
225 50.9227653657864
226 50.92543135327345
227 50.91177198001934
228 50.91430891426617
229 50.90032993317151
230 50.90225005313442
231 50.88853816670891
232 50.89130032944456
233 50.87781988214661
234 50.88061160652641
235 50.86770499788178
236 50.87127450742946
237 50.8581979883201
238 50.86149245381382
239 50.84883325266544
240 50.85248630171765
241 50.83978824715415
242 50.84360595030218
243 50.83151285140816
244 50.83525201722527
245 50.82314343893108
246 50.82677420781619
247 50.81561898448732
248 50.82011747641791
249 50.80855334339458
250 50.81247303315567
251 50.80100547775181
252 50.8043657167612
253 50.79167965920377
254 50.79486926337892
255 50.78293377718568
256 50.78658424244898
257 50.77401622296455
258 50.77754343222133
259 50.76498159869289
260 50.76806418274862
261 50.75486879526114
262 50.75827597480256
263 50.74592041805641
264 50.74986902151053
265 50.73680318038996
266 50.74040750889697
267 50.72741218256299
268 50.73168822293161
269 50.71900089469278
270 50.72386071812003
271 50.71182100134214
272 50.71729333346366
273 50.70543193487854
274 50.71141374732758
275 50.70019224155767
276 50.70687135186023
277 50.69598761516917
278 50.70311063733565
279 50.69241130174607
280 50.69937885310014
281 50.68847952771191
282 50.69511596160025
283 50.68372849659347
284 50.68971306078785
285 50.67766081512775
286 50.68336215485074
287 50.67170483460981
288 50.67748785023865
289 50.66577480481187
290 50.67160456104637
291 50.66074345921511
292 50.66614482131018
293 50.65450707405773
294 50.65978774269045
295 50.64815616222153
296 50.65364345935124
297 50.64259603949862
298 50.64898765155894
299 50.63825383185937
300 50.64491742285727
301 50.63446746161685
302 50.64108263293127
303 50.63209888965532
304 50.63922552192915
305 50.63009407212266
306 50.63713208821947
307 50.62769863426681
308 50.63490267745455
309 50.62572478143741
310 50.63253798937235
311 50.62291987832248
312 50.62983474250311
313 50.61957520419409
314 50.62595710235239
315 50.61524692965284
316 50.62124033133738
317 50.60979302752492
318 50.61486787160192
319 50.60322361587374
320 50.60849702420862
321 50.5979290020085
322 50.603985478963
323 50.59351640889702
324 50.59965823323708
325 50.58824046609536
326 50.59437958053788
327 50.58359849113094
328 50.59030554092977
329 50.57892572855118
330 50.58519564074499
331 50.57387841728679
332 50.58055257257817
333 50.57001028600401
334 50.57742592799453
335 50.56843532834603
336 50.57674248517212
337 50.56762595596977
338 50.57542071168382
339 50.56617790462904
340 50.57354695353257
341 50.5636041947847
342 50.57096735658904
343 50.56125966762072
344 50.56842777267985
345 50.55800638954265
346 50.56470739364821
347 50.55459144783219
348 50.56125019863674
349 50.55042189658876
350 50.55605068909897
351 50.54498350070283
352 50.5513148104027
353 50.53996234986266
354 50.54579964623039
355 50.53443108872084
356 50.54043056942132
357 50.52849291616994
358 50.53444838967455
359 50.52385223719118
360 50.53095687598721
361 50.52094105224988
362 50.52815588730087
363 50.51828023313612
364 50.52578574174019
365 50.51556271255484
366 50.52253298380683
367 50.51292368676467
368 50.52083842936069
369 50.51098457234156
370 50.51834601375869
371 50.50883232424361
372 50.51617809193842
373 50.50623948214918
374 50.51332611454405
375 50.50384861498417
376 50.51051684226254
377 50.49964202113729
378 50.50597702195859
379 50.4952118125027
380 50.50172522296589
381 50.49045674565681
382 50.49708295124783
383 50.4863191125711
384 50.49293875380216
385 50.48201370517377
386 50.48865933016047
387 50.47911231428381
388 50.48682466265408
389 50.47705270652033
390 50.48507474742403
391 50.47642149965024
392 50.48484997511598
393 50.47566648207941
394 50.48357806221802
395 50.47431920748663
396 50.48196062267647
397 50.47183572374544
398 50.47880458474882
399 50.46876985696296
400 50.47640021254248
401 50.46572983083174
402 50.47268197431485
403 50.4616555491754
404 50.4681824844061
405 50.45676250547003
406 50.46291421055535
407 50.45123424749782
408 50.45740325281514
409 50.44567675493385
410 50.45235903828809
411 50.44177866368589
412 50.4493038930848
413 50.43851642109404
414 50.4455875419189
415 50.43492501288912
416 50.44159546526244
417 50.43079302999379
418 50.43740916896373
419 50.42651207320317
420 50.43368894667326
421 50.4230486528932
422 50.43089353970569
423 50.42184585784637
424 50.4311535635386
425 50.42241722256477
426 50.43118577242137
427 50.42208750665242
428 50.4304573302955
429 50.420787443873
430 50.42847377567595
431 50.41908798365742
432 50.42786561067381
433 50.41871276118452
434 50.42707918150148
435 50.41829790310563
436 50.42679038963789
437 50.41755421886362
438 50.42515590058118
439 50.41481042767042
440 50.42147853858378
441 50.41015202613944
442 50.41615366623316
443 50.4050602550325
444 50.41138402476482
445 50.40076852958555
446 50.406984766152
447 50.39731945855893
448 50.40478983173941
449 50.39594321064389
450 50.40394780432475
451 50.39526946773297
452 50.40398968527997
453 50.39510406714268
454 50.40306005149098
455 50.39350321342145
456 50.40166500463936
457 50.39178948671391
458 50.39944843417093
459 50.38965494279461
460 50.39720563715674
461 50.38692666227013
462 50.39476033072179
463 50.3849836509058
464 50.39283808882898
465 50.38313669038503
466 50.39141164379714
467 50.3821592762772
468 50.39079663521295
469 50.38101915447442
470 50.38985380671694
471 50.38090577366581
472 50.38896269363816
473 50.37900873323922
474 50.38655682173399
475 50.37657288972337
476 50.38427765232236
477 50.37392815929793
478 50.38166659138012
479 50.37232306076929
480 50.38102917774546
481 50.37144747240259
482 50.37949448018191
483 50.36996074141259
484 50.3783961875629
485 50.36835945848173
486 50.3751007870577
487 50.36484058737317
488 50.37233977180183
489 50.36222611561188
490 50.36957473338325
491 50.35994352862832
492 50.36803459219782
493 50.35759621556072
494 50.36524132914715
495 50.35422717073351
496 50.36203280686052
497 50.35151498224161
498 50.35961319167493
499 50.34978539921338
500 50.35790336411733
501 50.34783683041211
502 50.35562625271723
503 50.34552049238782
504 50.35334595507936
505 50.34282546590371
506 50.35058118405505
507 50.34120121848712
508 50.35041215564776
509 50.34185161335548
510 50.35145522586274
511 50.34342942604982
512 50.35361244989376
513 50.34535500878305
514 50.35552136501082
515 50.34740759357691
516 50.35742556479191
517 50.34889908973334
518 50.35847852278337
519 50.3496062386353
520 50.35899834128892
521 50.34975346757623
522 50.35910073139201
523 50.34967128248792
524 50.35800910749014
525 50.34760179214429
526 50.35533241505912
527 50.34479270043049
528 50.35247720122306
529 50.34172511182528
530 50.34872750722125
531 50.33714830820509
532 50.34397015072653
533 50.3322318172779
534 50.33903708774993
535 50.32821021469577
536 50.33665584130373
537 50.32729541646273
538 50.33590505014858
539 50.32693415246261
540 50.33682149840959
541 50.32787077486564
542 50.33741494960992
543 50.32868733387316
544 50.33843633380456
545 50.32943193126776
546 50.33908981513213
547 50.33015733054429
548 50.3402060921222
549 50.33112162458337
550 50.34087193701031
551 50.33166857087729
552 50.34099713950629
553 50.3311834922701
554 50.33976267101015
555 50.33010100382111
556 50.33894645877628
557 50.3293275158407
558 50.33846723612328
559 50.32889107391473
560 50.33828501454711
561 50.32889977511697
562 50.33772569611553
563 50.32785117950942
564 50.33617860077429
565 50.32541401024251
566 50.33319267437667
567 50.32261800142896
568 50.33066147303435
569 50.32080177234697
570 50.32915801575378
571 50.31981937047252
572 50.32856696337623
573 50.31901988917135
574 50.32740011647871
575 50.31787312498578
576 50.32604031427709
577 50.31625419437052
578 50.32432620428997
579 50.31490937890803
580 50.32319205205209
581 50.31345562888087
582 50.32141102704005
583 50.31244361198345
584 50.32108139483805
585 50.31236174574003
586 50.32171881225857
587 50.31371366586637
588 50.32302061536859
589 50.31367234302312
590 50.32280153667092
591 50.31380659899128
592 50.3228040394516
593 50.31352946094982
594 50.32204852471808
595 50.31302723852256
596 50.32261542560589
597 50.31448945445656
598 50.3246358395478
599 50.31702082017863
600 50.3277083945427
601 50.31878434605806
602 50.32821404129131
603 50.31935347380252
604 50.32854867113556
605 50.31904337942839
606 50.3271300203525
607 50.31750583954919
608 50.32473982061786
609 50.31403405652655
610 50.32122896644808
611 50.31012859695466
612 50.3169121791011
613 50.30515814362627
614 50.31242295863107
615 50.30160599703362
616 50.30998619482888
617 50.29955867780482
618 50.30732033842275
619 50.29684269213751
620 50.30566657207929
621 50.29587570505236
622 50.30455021583133
623 50.29594180536174
624 50.30551347666667
625 50.29721727704738
626 50.3072112701017
627 50.29937233158932
628 50.3100577292045
629 50.30230586812618
630 50.31356998952269
631 50.30629042836272
632 50.3174532440278
633 50.30942666242349
634 50.31968358408474
635 50.31179689543988
636 50.32212379930004
637 50.31328328104511
638 50.322880616855
639 50.31375674438004
640 50.32254920045762
641 50.31167601614635
642 50.31928129235135
643 50.30823273275934
644 50.31588883753813
645 50.30503917556601
646 50.3129730133132
647 50.30343104947039
648 50.31148926542701
649 50.30137880300379
650 50.30866524545939
651 50.29828534808351
652 50.30591338318249
653 50.29513431388533
654 50.30310170536342
655 50.29276119331556
656 50.30165352364919
657 50.29230625467708
658 50.30180673323017
659 50.29324138660743
660 50.3030896729968
661 50.29488994874328
662 50.30455737818721
663 50.29663214373895
664 50.30696811528655
665 50.29851006602092
666 50.30786692134079
667 50.29878109548672
668 50.30798917677721
669 50.2993688689537
670 50.30868699926739
671 50.30019632542837
672 50.31017342416619
673 50.30217123309832
674 50.31203053523883
675 50.3038834953839
676 50.3139292861668
677 50.30465706902179
678 50.31321805526859
679 50.30279681314676
680 50.31106663441074
681 50.30051498365656
682 50.30863442297457
683 50.2987645877087
684 50.30724208819843
685 50.29778063520856
686 50.30688680017531
687 50.29802905199214
688 50.30675370048846
689 50.29700609893936
690 50.30496414724551
691 50.29508664657067
692 50.30262385749928
693 50.29236766857333
694 50.30047809848712
695 50.29101751481975
696 50.29964422676961
697 50.28976977712502
698 50.29841783633611
699 50.28897204317879
700 50.29808232699406
701 50.28858674041317
702 50.29790924243485
703 50.28986792368364
704 50.2999615990004
705 50.29151120473467
706 50.30091842100548
707 50.2924595610313
708 50.30211390944186
709 50.2935847050112
710 50.30309327580568
711 50.29490570474506
712 50.30512452403371
713 50.29640154209548
714 50.30610798522467
715 50.29797562701565
716 50.3082097927346
717 50.30003214583141
718 50.30895587035921
719 50.30015319906395
720 50.30901992146896
721 50.29962859573055
722 50.30814121565909
723 50.29850904891216
724 50.30685059745011
725 50.29672706560508
726 50.30474580968185
727 50.29420190757607
728 50.30158187050998
729 50.2909097406098
730 50.29850050836986
731 50.28876876885763
732 50.29617938367402
733 50.28648061662818
734 50.29432807994037
735 50.28483353224166
736 50.29250918087892
737 50.28261636377844
738 50.29124990597279
739 50.28207231486555
740 50.29073819182371
741 50.2814437636814
742 50.29047742360105
743 50.28188985065484
744 50.29179061810004
745 50.28412021346205
746 50.29480628875545
747 50.28802146630898
748 50.29914634789738
749 50.29196771925187
750 50.30304406976131
751 50.2953920061263
752 50.30553496974067
753 50.29699631321149
754 50.30654676722502
755 50.29759306343757
756 50.30603787310159
757 50.29593304387261
758 50.30414419592197
759 50.29519303873267
760 50.30459848084308
761 50.29599840218584
762 50.30482612350394
763 50.29556399302547
764 50.30400055948293
765 50.29379480242179
766 50.3016058235549
767 50.29172634778602
768 50.29985203263669
769 50.28964253839339
770 50.29813811835002
771 50.28842263069217
772 50.29700754475284
773 50.28706879374573
774 50.29597758383428
775 50.28689293346834
776 50.29656507286727
777 50.28796883726254
778 50.29740734611181
779 50.28854285929048
780 50.2979204163592
781 50.28919099595574
782 50.29867227801471
783 50.29004418882931
784 50.29952350603633
785 50.29072194130045
786 50.299854742727
787 50.29115093706943
788 50.30039229114124
789 50.29117821974813
790 50.30048468254879
791 50.29214741550676
792 50.3020773791165
793 50.29339195586319
794 50.30264022203059
795 50.29357670656167
796 50.30215528722847
797 50.29240118268762
798 50.29999103251998
799 50.29025975565809
800 50.29812806978331
801 50.28850272136685
802 50.29669275372589
803 50.28749584409422
804 50.29614855992283
805 50.28672657859369
806 50.2951947949757
807 50.28653261568906
808 50.29546715585814
809 50.28630368542404
810 50.29571189332626
811 50.28677327078404
812 50.29599255523456
813 50.28622751433342
814 50.29498792330351
815 50.28530867272491
816 50.29365455951167
817 50.28478086687097
818 50.29380296824378
819 50.2858485230888
820 50.29537753776735
821 50.28681201882283
822 50.2962242532551
823 50.28804738027523
824 50.29777579064114
825 50.28859031664214
826 50.29714699052532
827 50.28767499207201
828 50.29649200701028
829 50.28725899740417
830 50.29603433217495
831 50.28777548324612
832 50.29766795918199
833 50.29007574397513
834 50.30016941685236
835 50.29274545969201
836 50.30292944532522
837 50.29395737336479
838 50.3030634505139
839 50.2937067523423
840 50.30238090398287
841 50.29248743404828
842 50.30056866657506
843 50.29048122538507
844 50.29799016741034
845 50.28754470469953
846 50.29485273063907
847 50.28481136603445
848 50.29318482449538
849 50.28367009087439
850 50.29206436221131
851 50.28217054328552
852 50.29073665887464
853 50.28085480613127
854 50.28979881072813
855 50.28062902051771
856 50.28933291973033
857 50.28092292851276
858 50.29025993677487
859 50.28270956936323
860 50.29242902957013
861 50.28499687753178
862 50.2957489035798
863 50.28853129560414
864 50.29905430624646
865 50.2912187697974
866 50.30117907285212
867 50.29292913200044
868 50.30202223181038
869 50.29348745617627
870 50.30298477271863
871 50.29456088948945
872 50.30355437174681
873 50.29404120375803
874 50.30230647700127
875 50.29212519296568
876 50.30025097022721
877 50.29007873967636
878 50.29786732676219
879 50.28730176660166
880 50.2946594533978
881 50.28418799441452
882 50.29164797148414
883 50.28146796096027
884 50.2893779204181
885 50.27936709369784
886 50.28764989386359
887 50.27861461415707
888 50.28772876433994
889 50.27870250857868
890 50.28791195142506
891 50.27956022113418
892 50.28945378343436
893 50.28079491594932
894 50.29033192028283
895 50.28202493932115
896 50.29174895042834
897 50.28381339325622
898 50.29338982439629
899 50.28580524396286
900 50.29551571630959
901 50.28721745845297
902 50.29683089400361
903 50.28809844062957
904 50.29746306733976
905 50.28788843001901
906 50.2960698074546
907 50.28689850951545
908 50.29530017353717
909 50.28677008861592
910 50.29573816731789
911 50.28737820095002
912 50.2965080537735
913 50.28767636265891
914 50.29690157609171
915 50.28765523992023
916 50.2962739761641
917 50.28630583885874
918 50.29471756204499
919 50.28485242026706
920 50.29378715822786
921 50.28442336898701
922 50.29364190381452
923 50.2842748838714
924 50.29304900797406
925 50.28348844301493
926 50.29166429844496
927 50.28239820512037
928 50.29132267322161
929 50.28236937729819
930 50.29117927002269
931 50.2825099104459
932 50.29173003229551
933 50.28324068014225
934 50.2930426293209
935 50.28519191126487
936 50.29523946004036
937 50.28643571443429
938 50.29634639889635
939 50.28781870908899
940 50.29784921287536
941 50.28872259855511
942 50.29814154889165
943 50.28897109358817
944 50.29807556430923
945 50.28899886368534
946 50.29823275410896
947 50.28943717745717
948 50.29903918616903
949 50.28992460574264
950 50.29960751565441
951 50.29025983776938
952 50.29935733969064
953 50.28922138577893
954 50.297807345438
955 50.28755050042389
956 50.29573289089299
957 50.28608225343395
958 50.29412456369413
959 50.28412665111473
960 50.29243480485981
961 50.2823965259786
962 50.29027522478733
963 50.27978982975151
964 50.28787749682369
965 50.27822558806288
966 50.28663126541839
967 50.27708609263966
968 50.28605113885513
969 50.27723528124008
970 50.28643394616035
971 50.27748357990686
972 50.28703167795691
973 50.27905112284743
974 50.28870410458106
975 50.28129594759363
976 50.29139979016038
977 50.28337659523638
978 50.29353165311693
979 50.28610952894928
980 50.29658977594332
981 50.28873656611562
982 50.29900463679135
983 50.29131776917124
984 50.30134850554189
985 50.29325214300356
986 50.30260459308606
987 50.29410424896676
988 50.30279841889285
989 50.29294057061426
990 50.30075934645335
991 50.29083866185942
992 50.29810813045177
993 50.28774844022466
994 50.29519108790246
995 50.28482126700124
996 50.29241986103986
997 50.28188095259397
998 50.28995244056952
999 50.28044859171873
1000 50.28961384651654
1001 50.2805254313552
1002 50.28977294486695
1003 50.28035787200104
1004 50.28942837782125
1005 50.27978998044843
1006 50.2891391603436
1007 50.28065852605682
1008 50.29088727420275
1009 50.28313716043432
1010 50.29351065789247
1011 50.28576202019171
1012 50.29587165111617
1013 50.28793805552402
1014 50.29814166263316
1015 50.28972294620377
1016 50.29883802003041
1017 50.28931244388352
1018 50.29802062448658
1019 50.28849430757587
1020 50.29704994868447
1021 50.28747097909621
1022 50.29657766712089
1023 50.28755347474213
1024 50.29638328721547
1025 50.28705604053078
1026 50.29599172912262
1027 50.28679329983409
1028 50.29540445592884
1029 50.28543163918071
1030 50.29415870239684
1031 50.2845752688469
1032 50.29285019677656
1033 50.28318733189262
1034 50.29225094988596
1035 50.2836102758142
1036 50.2924805282486
1037 50.28354296259723
1038 50.29213523453751
1039 50.28294541825404
1040 50.29097782197245
1041 50.28159211904299
1042 50.28968926130967
1043 50.28043098792503
1044 50.2888475770236
1045 50.28026861706029
1046 50.28990244527788
1047 50.28164056345027
1048 50.29121056147147
1049 50.28199861995169
1050 50.29104821530402
1051 50.28204875192184
1052 50.29115033008302
1053 50.28244770713565
1054 50.29169424974422
1055 50.28322388411822
1056 50.2931537115316
1057 50.28511260127114
1058 50.29513473613727
1059 50.2874748867694
1060 50.29759252969644
1061 50.28897744050736
1062 50.29788333481088
1063 50.28925618991637
1064 50.29858621821909
1065 50.28988184415126
1066 50.29888695232462
1067 50.29004662038808
1068 50.29899294403123
1069 50.28921511465165
1070 50.29781875830624
1071 50.28816257918878
1072 50.2969778621639
1073 50.28746279019416
1074 50.29532454625199
1075 50.28510163525227
1076 50.29269946676713
1077 50.28232548188407
1078 50.2899413861767
1079 50.27964440886897
1080 50.28752926277997
1081 50.27776952057225
1082 50.28579269299608
1083 50.27600986578581
1084 50.28415408456691
1085 50.27474246854648
1086 50.28448759543157
1087 50.27647365817779
1088 50.28694728470428
1089 50.27921505389403
1090 50.28951681128913
1091 50.28175068002528
1092 50.29214979677178
1093 50.28444541352065
1094 50.29477619570032
1095 50.2868995715984
1096 50.29679066794031
1097 50.28887875420762
1098 50.29879571690699
1099 50.29167431241881
1100 50.30187582681233
1101 50.29411057526659
1102 50.30375229171992
1103 50.29498881195773
1104 50.30420134899325
1105 50.29478374623805
1106 50.30279554800598
1107 50.29265843761323
1108 50.30008796078373
1109 50.28936235666907
1110 50.29665811218688
1111 50.28549212008074
1112 50.29306643500864
1113 50.28229164502401
1114 50.29011350030753
1115 50.27954316873458
1116 50.28734352554363
1117 50.27669174806447
1118 50.28461519245014
1119 50.27408574976943
1120 50.28288587961021
1121 50.27342213677139
1122 50.2828637292704
1123 50.27457619381229
1124 50.28507010206915
1125 50.27757363550751
1126 50.28784492876146
1127 50.27982404333279
1128 50.29049191581605
1129 50.28269499900084
1130 50.29307721440451
1131 50.28459150213742
1132 50.29441393670044
1133 50.28586678199665
1134 50.2954780457961
1135 50.28723068614313
1136 50.29691327659329
1137 50.28879015134738
1138 50.29785365785349
1139 50.28928456964434
1140 50.2982706138791
1141 50.28919493619719
1142 50.29795538049399
1143 50.28893489979173
1144 50.29700289368253
1145 50.28758341727291
1146 50.29565006427284
1147 50.28635632642047
1148 50.29486713213676
1149 50.28592180372451
1150 50.2945598915726
1151 50.28558853251853
1152 50.29475918056486
1153 50.2860847668065
1154 50.29507808877474
1155 50.28651233908317
1156 50.29508753004569
1157 50.2854980767441
1158 50.29313376356347
1159 50.28347903789521
1160 50.29150608885243
1161 50.28168605905961
1162 50.28922239480128
1163 50.27894524344502
1164 50.28657441649898
1165 50.27687618391765
1166 50.28555109353767
1167 50.27675832009042
1168 50.2859968571383
1169 50.27804641120225
1170 50.28749743948729
1171 50.27911990459994
1172 50.28862047148049
1173 50.28088063973802
1174 50.29096539927575
1175 50.28315807908001
1176 50.292837983167
1177 50.28513049827281
1178 50.29481642363978
1179 50.28694881726286
1180 50.2971169538021
1181 50.28963882384909
1182 50.29902420938858
1183 50.29053859088536
1184 50.29941369299507
1185 50.29077094043851
1186 50.29916514164621
1187 50.29032190725168
1188 50.29818855578339
1189 50.28831800618541
1190 50.2959422260811
1191 50.2862893715085
1192 50.2942244923905
1193 50.28423854316192
1194 50.29191443349755
1195 50.28243216953907
1196 50.29006124007062
1197 50.27989009429673
1198 50.28751192255503
1199 50.2783564465344
1200 50.28744804274449
1201 50.2785793655058
1202 50.28792657565168
1203 50.27945280812141
1204 50.28891836233242
1205 50.28008587402647
1206 50.28945867722642
1207 50.28148106200879
1208 50.29109621685734
1209 50.2832586593318
1210 50.29302735987269
1211 50.28567786846681
1212 50.29578476636529
1213 50.28832541913594
1214 50.29866426369671
1215 50.29127441977547
1216 50.30135458196062
1217 50.29321281464536
1218 50.30252531740158
1219 50.29396479759386
1220 50.30292639240164
1221 50.29359558520076
1222 50.30211557796654
1223 50.29299892407271
1224 50.30152653397609
1225 50.29212085065274
1226 50.30053238494877
1227 50.29115448448584
1228 50.29906565759423
1229 50.28871936104109
1230 50.29660937795678
1231 50.28607091055394
1232 50.29400329243685
1233 50.28326746763724
1234 50.29108644847351
1235 50.28091525649243
1236 50.28916513165363
1237 50.27861132257897
1238 50.28675120445866
1239 50.27726427635586
1240 50.28669929425173
1241 50.27800737739761
1242 50.28839678798644
1243 50.28017260584929
1244 50.29092535967848
1245 50.28238309714697
1246 50.29268385683454
1247 50.28453768884504
1248 50.2946111055733
1249 50.28582757648068
1250 50.29509901505117
1251 50.28629404524553
1252 50.29574245319809
1253 50.28650492456482
1254 50.29559107216939
1255 50.28639838843144
1256 50.29527096117153
1257 50.28553142231663
1258 50.29488712217116
1259 50.28611763252419
1260 50.29635542439084
1261 50.28731586033071
1262 50.29684932887359
1263 50.28781619415091
1264 50.29699885003562
1265 50.28684876603181
1266 50.29522982060946
1267 50.28533711516383
1268 50.29407001098316
1269 50.28538733996772
1270 50.29493876211153
1271 50.28648471043926
1272 50.29610129518948
1273 50.28673517059357
1274 50.29592217470487
1275 50.28669450627009
1276 50.29557600003402
1277 50.28550440581915
1278 50.29342731884626
1279 50.28319253508414
1280 50.29111512235458
1281 50.28103310816454
1282 50.2895228990566
1283 50.28040241587731
1284 50.28940738741377
1285 50.28020524027343
1286 50.28948459528476
1287 50.28045546115601
1288 50.28988630191731
1289 50.28119618435765
1290 50.29127382010857
1291 50.28355993463438
1292 50.29343565088514
1293 50.28520384975316
1294 50.29461742869501
1295 50.28666046600656
1296 50.29580400173484
1297 50.28765019976527
1298 50.29684563220637
1299 50.28790670996497
1300 50.29681178721203
1301 50.2878966831125
1302 50.29700965171646
1303 50.28788033003646
1304 50.29673783302964
1305 50.28699305771077
1306 50.29558716912931
1307 50.28598591852393
1308 50.29417137897823
1309 50.28425050472378
1310 50.29284658916804
1311 50.28372716266423
1312 50.29259517452851
1313 50.28271961627444
1314 50.29133526343376
1315 50.2811031124624
1316 50.28943860998859
1317 50.27939921679006
1318 50.28763289198852
1319 50.27824782760093
1320 50.2870084841102
1321 50.27764566151525
1322 50.28652037219295
1323 50.27838192599754
1324 50.28891556657651
1325 50.28174119780343
1326 50.29260220903613
1327 50.28582312189639
1328 50.29655782180328
1329 50.28872805544184
1330 50.298967428464
1331 50.29082815809646
1332 50.30022936500902
1333 50.2914197281618
1334 50.30086125004576
1335 50.29226288091044
1336 50.30111980992638
1337 50.2921139419322
1338 50.30125001590698
1339 50.29199202370044
1340 50.29998363129529
1341 50.28944278938066
1342 50.2964022650316
1343 50.28549904509597
1344 50.29208055209137
1345 50.28130839884365
1346 50.28908699946565
1347 50.27948190927593
1348 50.28792901325109
1349 50.27839850400975
1350 50.28750817065252
1351 50.27886166001232
1352 50.28764234799095
1353 50.27900299187982
1354 50.28803545717042
1355 50.2796877912734
1356 50.28865846550297
1357 50.27972690936546
1358 50.28972209191473
1359 50.2824227776476
1360 50.2924804013925
1361 50.28465430888259
1362 50.29478708794802
1363 50.2872542038109
1364 50.29657806018508
1365 50.28780908630555
1366 50.29716412487797
1367 50.28897917333801
1368 50.29854760790737
1369 50.28938690007637
1370 50.29851933172463
1371 50.2892512218131
1372 50.29794664003857
1373 50.28834399332644
1374 50.29701516731581
1375 50.28760840626514
1376 50.29601981804419
1377 50.28633971839911
1378 50.29488604500853
1379 50.28617175892118
1380 50.29505939606234
1381 50.28569500905564
1382 50.29411297881992
1383 50.2838201591679
1384 50.2923786193544
1385 50.28303328924622
1386 50.29201559348598
1387 50.28328816077706
1388 50.29293723937773
1389 50.28475371345303
1390 50.29388502817922
1391 50.28560589678604
1392 50.29464817710768
1393 50.28571392454446
1394 50.29394669297749
1395 50.28446871569354
1396 50.29287697062062
1397 50.28393194442584
1398 50.2928775283121
1399 50.28464317886233
1400 50.29403150003463
1401 50.28555707087605
1402 50.29450017294262
1403 50.28551463293961
1404 50.29412461168828
1405 50.28505255655105
1406 50.29379765944738
1407 50.28572971791512
1408 50.29488950232397
1409 50.28633422858564
1410 50.29546840887281
1411 50.28725992693576
1412 50.29662165898672
1413 50.28818736199901
1414 50.29786546039183
1415 50.28998423280173
1416 50.2989482411898
1417 50.28977326222215
1418 50.29809619919031
1419 50.28877871798271
1420 50.29695489099661
1421 50.28683743253784
1422 50.29486697790709
1423 50.28515137996428
1424 50.29324865251511
1425 50.28312818018573
1426 50.29109666269125
1427 50.28101606280062
1428 50.28948948185251
1429 50.27956685190805
1430 50.28761623634998
1431 50.27825635518383
1432 50.28692784295804
1433 50.27794553457654
1434 50.28679022307271
1435 50.27850996516321
1436 50.28799173499709
1437 50.27940263608741
1438 50.2890915424125
1439 50.28096538835415
1440 50.29116551843768
1441 50.28288169694003
1442 50.29291226779075
1443 50.28467074029899
1444 50.29455389374139
1445 50.28631697305899
1446 50.29663175311484
1447 50.28972697724989
1448 50.30004682220978
1449 50.29212158267498
1450 50.30169294465149
1451 50.29379111580064
1452 50.30280757137088
1453 50.29337221698483
1454 50.3019049489934
1455 50.29277964036168
1456 50.30061861463564
1457 50.29042045459042
1458 50.2981887123792
1459 50.28807558692864
1460 50.29536549218911
1461 50.28492263330761
1462 50.29273106115462
1463 50.28329826569851
1464 50.29143424376975
1465 50.28178675051489
1466 50.29005781646688
1467 50.28078228436723
1468 50.28855725916916
1469 50.27872375526599
1470 50.286892110627
1471 50.2776792901271
1472 50.28663875212801
1473 50.27806070116109
1474 50.28802321112649
1475 50.28063244911679
1476 50.29127442121029
1477 50.28352838160466
1478 50.29384951273719
1479 50.28606991911475
1480 50.29558798470048
1481 50.28675227379113
1482 50.29581344077182
1483 50.28696547295968
1484 50.29638704915463
1485 50.28752250488742
1486 50.29634666874797
1487 50.28747604154778
1488 50.29629768888923
1489 50.28748785335183
1490 50.29670541212619
1491 50.28842779384322
1492 50.29766189715705
1493 50.28914404312022
1494 50.29848705362819
1495 50.28990426879064
1496 50.29937543726729
1497 50.28972556780885
1498 50.29854279411794
1499 50.28868058605887
1500 50.29628716412474
1501 50.28632399494587
1502 50.29424173732959
1503 50.28502326710618
1504 50.29357193296985
1505 50.28476523082997
1506 50.29305869311271
1507 50.2841243713188
1508 50.29304007552024
1509 50.28389165723795
1510 50.29315441110063
1511 50.2840017431554
1512 50.29352746297226
1513 50.28451334573688
1514 50.29382649885986
1515 50.2850037111244
1516 50.29453752172749
1517 50.28557258111146
1518 50.29448145955833
1519 50.28518671580539
1520 50.29370469220184
1521 50.28401036575899
1522 50.29335258057796
1523 50.28418357921647
1524 50.29415220929915
1525 50.28515246933104
1526 50.29529904427568
1527 50.28647009495168
1528 50.29599765241135
1529 50.28721502271988
1530 50.29668883461046
1531 50.28826687806818
1532 50.29749813161437
1533 50.28851893022587
1534 50.29796887946005
1535 50.28965207256802
1536 50.29977184440246
1537 50.29077073455809
1538 50.29974036329594
1539 50.29016973803233
1540 50.29767258153073
1541 50.2866721584775
1542 50.29387818863094
1543 50.28342215017121
1544 50.29078411723095
1545 50.27998302256653
1546 50.28772331564915
1547 50.27757621835912
1548 50.28569606458933
1549 50.27561787368847
1550 50.28422849736204
1551 50.27531073451532
1552 50.2854345211505
1553 50.27664963696301
1554 50.2867629519718
1555 50.27844992669538
1556 50.28870093609385
1557 50.28044134526175
1558 50.29095420680746
1559 50.28318724245274
1560 50.29434618494128
1561 50.28626931811023
1562 50.2963860075736
1563 50.28813767789492
1564 50.29869739902615
1565 50.29082926166747
1566 50.30097053470201
1567 50.29275432608515
1568 50.30276807420353
1569 50.29399895546248
1570 50.30312567892573
1571 50.2937950455526
1572 50.30218035340295
1573 50.29193169968813
1574 50.29932004651074
1575 50.28886051093442
1576 50.29609051520939
1577 50.2853115922148
1578 50.29308058275293
1579 50.28336999109849
1580 50.29173404151001
1581 50.28185807010219
1582 50.29067857392668
1583 50.28154900703932
1584 50.29097433338615
1585 50.28190525046148
1586 50.29115635328456
1587 50.28196613165256
1588 50.29082981161105
1589 50.28180643205513
1590 50.29119769552314
1591 50.28357048239161
1592 50.2928615728384
1593 50.28436524370368
1594 50.29360198919852
1595 50.28480945799814
1596 50.29410130861731
1597 50.28549556688379
1598 50.29520373626487
1599 50.28730443775297
1600 50.29724350416729
1601 50.28924833480858
1602 50.29889066754302
1603 50.29075003940901
1604 50.30004980233061
1605 50.29098766153367
1606 50.29893808623805
1607 50.28910572284566
1608 50.2973480081408
1609 50.28799761830398
1610 50.29625882432693
1611 50.28775142924722
1612 50.29715366480336
1613 50.28817290562483
1614 50.29650292449167
1615 50.28695315559594
1616 50.29533645405514
1617 50.28507289862323
1618 50.29284447012774
1619 50.28289005988761
1620 50.29166720752071
1621 50.28159497227171
1622 50.29047186686751
1623 50.28113772500669
1624 50.2902581296715
1625 50.28052114792789
1626 50.28950744371109
1627 50.2796582564574
1628 50.28817280674677
1629 50.27827949510559
1630 50.28716062166569
1631 50.27872690098809
1632 50.28878627450809
1633 50.28068004362916
1634 50.2911190789393
1635 50.28337112185636
1636 50.29399388087743
1637 50.28617259131685
1638 50.29672931839642
1639 50.28895160417624
1640 50.29929928295003
1641 50.29104428531672
1642 50.30106657332336
1643 50.29344976549873
1644 50.30306151545417
1645 50.29432579760918
1646 50.30366510508932
1647 50.29514712474324
1648 50.30457621646769
1649 50.29559169953584
1650 50.30466064441401
1651 50.29501575201337
1652 50.30302166282501
1653 50.29256793331759
1654 50.29985121650098
1655 50.28894976771667
1656 50.29597284424358
1657 50.28551919814051
1658 50.29269062494713
1659 50.28308686416322
1660 50.29101034692324
1661 50.28120523313989
1662 50.28893294847774
1663 50.27908440026594
1664 50.28646465835225
1665 50.27628978109213
1666 50.28405371264748
1667 50.27503724724988
1668 50.2836118844777
1669 50.27449811923594
1670 50.28362502448922
1671 50.27592106695793
1672 50.28645841204207
1673 50.27926921942949
1674 50.2897880043437
1675 50.28225477448994
1676 50.29288050558971
1677 50.28559180095141
1678 50.29570522148317
1679 50.28815107911574
1680 50.29788329782491
1681 50.29013332818792
1682 50.29961372660901
1683 50.29149049964993
1684 50.30033492347789
1685 50.29156229878834
1686 50.30089710804293
1687 50.29163569522753
1688 50.3003865586584
1689 50.29069705877098
1690 50.29948613854076
1691 50.2892821961395
1692 50.29694502040835
1693 50.28586818302031
1694 50.29322722299815
1695 50.28234683353244
1696 50.29008067346375
1697 50.28036654322103
1698 50.28840775905316
1699 50.27926793769781
1700 50.28804364909837
1701 50.2783834992128
1702 50.2867107237313
1703 50.27744319952343
1704 50.28639706641832
1705 50.27760128058226
1706 50.28744787844472
1707 50.27931343750676
1708 50.28979079376232
1709 50.28160605855398
1710 50.29237420663392
1711 50.2847086830763
1712 50.29539460001864
1713 50.28732975060964
1714 50.29746652652294
1715 50.28938419881025
1716 50.2987093970022
1717 50.28976424467474
1718 50.29855293276687
1719 50.28931751430129
1720 50.29760759879681
1721 50.28845537424213
1722 50.29689943248862
1723 50.28802521288591
1724 50.29667373241191
1725 50.2878369809609
1726 50.29627621762352
1727 50.28705816962921
1728 50.29568982840377
1729 50.28617460407285
1730 50.29433627743023
1731 50.28485023283952
1732 50.29326607793536
1733 50.28368718233078
1734 50.29198843070886
1735 50.28332628279193
1736 50.29278993150147
1737 50.28504664597565
1738 50.29435030132346
1739 50.28630052503025
1740 50.29512583892529
1741 50.28599511308961
1742 50.29424274950352
1743 50.28491898341971
1744 50.29289996272505
1745 50.28334377676901
1746 50.29159473262422
1747 50.28223301716496
1748 50.29195649054247
1749 50.28353461623121
1750 50.29259141827058
1751 50.28368762854252
1752 50.29238246051871
1753 50.28309023642304
1754 50.29179838313903
1755 50.28267237824782
1756 50.29162347520625
1757 50.2825149358148
1758 50.29217770653553
1759 50.28368369505397
1760 50.29342054016742
1761 50.28533346725503
1762 50.29512997828907
1763 50.28696348432557
1764 50.29634320033471
1765 50.28754340116762
1766 50.29669587519137
1767 50.28752776393389
1768 50.29626998930406
1769 50.28682971150724
1770 50.29510076164595
1771 50.28551802161407
1772 50.2943782967786
1773 50.28470675758201
1774 50.29288281342514
1775 50.28343618474211
1776 50.29268070816359
1777 50.28362525189962
1778 50.2922544248602
1779 50.28300428042506
1780 50.29177015864634
1781 50.28192955342188
1782 50.28945627396384
1783 50.28043886462557
1784 50.28932962583279
1785 50.28076106542942
1786 50.29034446727369
1787 50.28288823483329
1788 50.29321413738659
1789 50.28587284921838
1790 50.29600850492634
1791 50.28865853171587
1792 50.29851354835114
1793 50.29075757923661
1794 50.2998305504577
1795 50.29164450011519
1796 50.30107434230706
1797 50.29299928803972
1798 50.30254557389731
1799 50.29392347565364
1800 50.30247720811641
1801 50.2930923351604
1802 50.30067103974047
1803 50.29117160625474
1804 50.29828249819603
1805 50.28836213252609
1806 50.29506670747307
1807 50.28500167724646
1808 50.29210689069018
1809 50.28221106381589
1810 50.28972761659305
1811 50.27989367206049
1812 50.28770656864965
1813 50.27835250827258
1814 50.28687834900337
1815 50.27818393623441
1816 50.28750939433089
1817 50.27945954000834
1818 50.2883961045691
1819 50.28021757157868
1820 50.28961337016446
1821 50.28175551879125
1822 50.29133463050021
1823 50.28385792937806
1824 50.2942420367696
1825 50.28679300351504
1826 50.29640831610428
1827 50.28841265276873
1828 50.29869045567884
1829 50.29045014388532
1830 50.2999509754348
1831 50.2910359711852
1832 50.29999196465302
1833 50.29045133080293
1834 50.29886265829361
1835 50.28938917634107
1836 50.29914772045434
1837 50.28952418084008
1838 50.29868499854825
1839 50.2880524869061
1840 50.29655071586254
1841 50.2858066683526
1842 50.29384590944392
1843 50.28332249678572
1844 50.2919885975716
1845 50.28196587555752
1846 50.29053492016607
1847 50.28097472359801
1848 50.28968803493162
1849 50.27964990877035
1850 50.28826150063073
1851 50.27865451246553
1852 50.28795739273765
1853 50.27849369317983
1854 50.28778751776786
1855 50.27915281553424
1856 50.28877616239355
1857 50.28022593128511
1858 50.28951782493757
1859 50.28113131479265
1860 50.29191762641497
1861 50.28387294322249
1862 50.29427972506385
1863 50.28619972506866
1864 50.29667110488474
1865 50.28843969006763
1866 50.29778110253995
1867 50.28927176653019
1868 50.2989159781055
1869 50.29003147341034
1870 50.29922921431906
1871 50.29046506631141
1872 50.30010463096436
1873 50.29109897228033
1874 50.29991593735421
1875 50.29066398416551
1876 50.29983939934831
1877 50.28980255776575
1878 50.29812299452946
1879 50.28826864732444
1880 50.29753012097338
1881 50.28839007479528
1882 50.29774513174242
1883 50.2889044020728
1884 50.297758795194
1885 50.28774158776406
1886 50.2959495220709
1887 50.28659429305711
1888 50.29455457558216
1889 50.28448738356441
1890 50.29255624345117
1891 50.2832512805148
1892 50.29149569770287
1893 50.28230258303232
1894 50.2913199074689
1895 50.28245039935605
1896 50.29104245804294
1897 50.28144522735236
1898 50.29006783918706
1899 50.28097978490779
1900 50.29035954939457
1901 50.2819252082852
1902 50.29218762201981
1903 50.28400337015044
1904 50.29465556167249
1905 50.28625324231457
1906 50.29627396693315
1907 50.28809592566497
1908 50.29868263187437
1909 50.29091016399351
1910 50.30109426502202
1911 50.29272079377553
1912 50.3029292545957
1913 50.29425236311875
1914 50.30351001448409
1915 50.29383278574906
1916 50.30232730930435
1917 50.29105251675537
1918 50.29793142929926
1919 50.2865695128224
1920 50.29417659038218
1921 50.28387674855895
1922 50.29197777353869
1923 50.28157296953565
1924 50.29014553689611
1925 50.28065787741168
1926 50.28852888520601
1927 50.2785349298844
1928 50.28660338047035
1929 50.27682051821733
1930 50.28509692204993
1931 50.27578697887493
1932 50.28470644815656
1933 50.27623535463279
1934 50.28552869225999
1935 50.27810046245497
1936 50.28785310534501
1937 50.28020587402652
1938 50.2898656945793
1939 50.28209704279976
1940 50.29185241846063
1941 50.28421509441487
1942 50.29423240356458
1943 50.28644735181214
1944 50.29693909436418
1945 50.28965366891672
1946 50.30008300566249
1947 50.29335795211053
1948 50.30335767555479
1949 50.29533219755321
1950 50.3039855430661
1951 50.29519710891445
1952 50.30333726176533
1953 50.29411726661973
1954 50.30200584331384
1955 50.2923277251277
1956 50.2998540955662
1957 50.2896830961754
1958 50.29773541001813
1959 50.28816103360023
1960 50.29627187826933
1961 50.28638616330178
1962 50.2944703795489
1963 50.28475619269139
1964 50.2926162540182
1965 50.28236816351809
1966 50.2900035052668
1967 50.28048986584086
1968 50.2885705855952
1969 50.27951743906976
1970 50.28775613474879
1971 50.27858628414139
1972 50.28724285981365
1973 50.27821388770448
1974 50.2870511204136
1975 50.27834727474376
1976 50.28743266330736
1977 50.27835404044596
1978 50.28745580889962
1979 50.27905850292201
1980 50.28899039728195
1981 50.28055814271801
1982 50.2901253081645
1983 50.28207018836977
1984 50.29190298697087
1985 50.28393042501898
1986 50.29383997764762
1987 50.28572801835075
1988 50.29527689737778
1989 50.28690395888609
1990 50.29665807170317
1991 50.28881054983845
1992 50.29871035954073
1993 50.29072781351201
1994 50.29980730526047
1995 50.29139389283709
1996 50.300150588577
1997 50.29177282792851
1998 50.3000935485545
1999 50.29163029749586
2000 50.3005067013837
2001 50.29157111961078
2002 50.29998807060024
2003 50.29023937020632
2004 50.29756726870321
2005 50.2870354302965
2006 50.29395745954051
2007 50.28351460076756
2008 50.29117585316307
2009 50.2812512270876
2010 50.2891420685375
2011 50.27930083616106
2012 50.28759656043889
2013 50.2776110521637
2014 50.28569674523189
2015 50.27660582017092
2016 50.2852542299371
2017 50.27690234515769
2018 50.286697140346
2019 50.27909939222118
2020 50.28972400475038
2021 50.28310074992489
2022 50.2941567839956
2023 50.28749812570633
2024 50.29765096659921
2025 50.28979800586199
2026 50.29885282067502
2027 50.29025146558785
2028 50.29900005030545
2029 50.29004908396253
2030 50.29869433193091
2031 50.28998543776325
2032 50.29932137944134
2033 50.29052364614176
2034 50.29918319441727
2035 50.29006751930617
2036 50.29914436336895
2037 50.28889389866528
2038 50.29703118553685
2039 50.28712141832084
2040 50.29527070931211
2041 50.28482096245899
2042 50.29248536780593
2043 50.28187283816413
2044 50.28939344513324
2045 50.27854410573152
2046 50.286708395298
2047 50.27753718718531
2048 50.28647556896581
2049 50.27754969676337
2050 50.28685954732405
2051 50.27832977818232
2052 50.28753741782163
2053 50.27867987443884
2054 50.28771668379324
2055 50.27941132160677
2056 50.28861550778822
2057 50.28028502300423
2058 50.28964948315996
2059 50.28213230437898
2060 50.29234908270561
2061 50.2851951673567
2062 50.29529054911859
2063 50.28736207959717
2064 50.29710498738874
2065 50.28868176458343
2066 50.29803039469527
2067 50.28934442662993
2068 50.2988708680155
2069 50.29013435594067
2070 50.29948017615263
2071 50.29018463220212
2072 50.29862307626497
2073 50.28911784408862
2074 50.29754129021978
2075 50.28885287488266
2076 50.29730283730436
2077 50.28782923751622
2078 50.29669782570519
2079 50.287593171902
2080 50.29630529005103
2081 50.28643857511089
2082 50.29506936331909
2083 50.28515606403387
2084 50.29352696910695
2085 50.2838861057622
2086 50.29281822412206
2087 50.28365444612179
2088 50.29275384033966
2089 50.28324134651673
2090 50.29229215695361
2091 50.28306855543686
2092 50.29260090769748
2093 50.28354690604434
2094 50.29314905724525
2095 50.28429933636927
2096 50.29355146559555
2097 50.28414588937661
2098 50.29273017346769
2099 50.28371362030138
2100 50.2924917753359
2101 50.28346112387958
2102 50.29189651478736
2103 50.28325917146263
2104 50.29212181000601
2105 50.28329475202236
2106 50.29292819563264
2107 50.28461896378602
2108 50.29433265246877
2109 50.28576374558344
2110 50.29530428022845
2111 50.28658177892478
2112 50.29544725057317
2113 50.28676169791357
2114 50.2955100646951
2115 50.28600066860653
2116 50.29424326622751
2117 50.28435365722844
2118 50.29261731729835
2119 50.28288516042809
2120 50.29159820765077
2121 50.28206028245985
2122 50.29048237687539
2123 50.28081044842399
2124 50.28893063493896
2125 50.2791981432715
2126 50.28750637493236
2127 50.27852686193716
2128 50.28711716010729
2129 50.27822068939277
2130 50.2868712119927
2131 50.27818351861426
2132 50.28701638616527
2133 50.27880249214292
2134 50.28915229918771
2135 50.28249904369645
2136 50.29307032809496
2137 50.28568242891536
2138 50.29615838071069
2139 50.28908011437283
2140 50.2994606349802
2141 50.29089288405099
2142 50.3005692070307
2143 50.29225366315352
2144 50.30203757168746
2145 50.29347839388851
2146 50.30340680720177
2147 50.29521678265181
2148 50.30508753504748
2149 50.29574359917488
2150 50.30469952297502
2151 50.2941281175056
2152 50.30213477745524
2153 50.29092046837187
2154 50.29868916399005
2155 50.28786847852443
2156 50.29485512281578
2157 50.28384570006727
2158 50.29147076211344
2159 50.28096511967215
2160 50.28906868741108
2161 50.27848092209867
2162 50.28618053183416
2163 50.27562341268561
2164 50.28444975153728
2165 50.2753047370345
2166 50.28515943284344
2167 50.27742149018548
2168 50.28777944980887
2169 50.28025085271985
2170 50.29083686456841
2171 50.28317876618201
2172 50.29332287949544
2173 50.28506531729794
2174 50.29539578511366
2175 50.28677361732969
2176 50.2967411468871
2177 50.28849183531189
2178 50.29829217329877
2179 50.28964319532718
2180 50.29932895642948
2181 50.29043236772516
2182 50.29989999659887
2183 50.29066596047506
2184 50.29993699466196
2185 50.29105465566185
2186 50.30008154700614
2187 50.29129139570373
2188 50.2998558291816
2189 50.29038493274507
2190 50.29866764520295
2191 50.2891513423692
2192 50.29714035169719
2193 50.28718897622783
2194 50.29528874425481
2195 50.28540548192326
2196 50.29362117794665
2197 50.28381575193061
2198 50.29243867446181
2199 50.2833835792641
2200 50.29202298604555
2201 50.28245657895765
2202 50.29049588086745
2203 50.28094061177008
2204 50.28892921568509
2205 50.27911306726355
2206 50.28801955075654
2207 50.2797420385162
2208 50.28902672195886
2209 50.28069535140575
2210 50.29026545633756
2211 50.28265508015816
2212 50.29263930388202
2213 50.28487033318298
2214 50.29459665235272
2215 50.28601514097365
2216 50.29491609029208
2217 50.28571241385883
2218 50.29422425726416
2219 50.2851772109945
2220 50.29522173012337
2221 50.28624523381684
2222 50.29588654340609
2223 50.28808464315274
2224 50.29873200166103
2225 50.2908135808676
2226 50.30082520315881
2227 50.29220753400877
2228 50.30125361062996
2229 50.2914782703989
2230 50.3002147764694
2231 50.29090406029973
2232 50.29988514166965
2233 50.28979277341191
2234 50.29769967988839
2235 50.28689322352312
2236 50.29413998588998
2237 50.28320962145408
2238 50.29077519634161
2239 50.28067817645737
2240 50.28854205043143
2241 50.27870432842128
2242 50.28727542619155
2243 50.27777698214941
2244 50.28651704781755
2245 50.27730051309504
2246 50.28664458248664
2247 50.27758591567524
2248 50.28655356935751
2249 50.27758367386539
2250 50.28694043553565
2251 50.2785638386778
2252 50.28869142432088
2253 50.28047087632788
2254 50.29126508035558
2255 50.28374995204286
2256 50.29469064725492
2257 50.28672194610298
2258 50.29643408048857
2259 50.28861624198214
2260 50.29778939444233
2261 50.28899342537262
2262 50.29805546270102
2263 50.29001918689723
2264 50.29913163170421
2265 50.2901419176908
2266 50.29929194045502
2267 50.29040501963553
2268 50.29918567930753
2269 50.28935021877891
2270 50.29853623268356
2271 50.28994320160636
2272 50.29876390949423
2273 50.2893373100911
2274 50.29742196120585
2275 50.28793838281069
2276 50.29533070798804
2277 50.28487491968345
2278 50.29247878253742
2279 50.28271827251434
2280 50.29113911120826
2281 50.2816203041325
2282 50.29085633354664
2283 50.2822135489261
2284 50.29177023638577
2285 50.28324655005882
2286 50.29300988218107
2287 50.28482399869453
2288 50.29428429995249
2289 50.2860394337641
2290 50.29528899238348
2291 50.28732960945857
2292 50.29641546510312
2293 50.28775055997792
2294 50.29695869586757
2295 50.28845481407061
2296 50.29786355196654
2297 50.28955815637432
2298 50.29877551793935
2299 50.29062297474562
2300 50.2996739672672
2301 50.29028025836987
2302 50.29896194983601
2303 50.2894944236138
2304 50.29737465168072
2305 50.28683107126422
2306 50.29468453278773
2307 50.28470399155001
2308 50.29285774734791
2309 50.28250831273272
2310 50.29095759380275
2311 50.28142221852573
2312 50.29028052038476
2313 50.28132161453133
2314 50.29067972972595
2315 50.28242667024392
2316 50.29151158956651
2317 50.28217476469953
2318 50.29081788136292
2319 50.28242899350426
2320 50.29083107679257
2321 50.28203736303615
2322 50.29112900643006
2323 50.28317602001786
2324 50.29263205767194
2325 50.2837919248519
2326 50.29320961654491
2327 50.28481750510041
2328 50.2942967563046
2329 50.28634273508973
2330 50.29570566474261
2331 50.28767767647276
2332 50.29630206315963
2333 50.28758299373797
2334 50.29566752511519
2335 50.28693113012834
2336 50.29530867155572
2337 50.28609510503199
2338 50.29422684955379
2339 50.28486642109173
2340 50.2933926263029
2341 50.28412726829301
2342 50.29305340388473
2343 50.28463892835764
2344 50.29443089679901
2345 50.28580824061497
2346 50.29494045630681
2347 50.28582494852471
2348 50.29478786629264
2349 50.28507633744001
2350 50.29338234961168
2351 50.28380582941993
2352 50.29231132026159
2353 50.28241883749102
2354 50.29051036032508
2355 50.2809736754717
2356 50.28945907301314
2357 50.28022036093912
2358 50.28925605061105
2359 50.28016589538923
2360 50.28931554338082
2361 50.28104537328228
2362 50.29089006684902
2363 50.28283845800359
2364 50.29237170297151
2365 50.28408820917146
2366 50.2938991332165
2367 50.28586780140223
2368 50.2956946299177
2369 50.28809767537189
2370 50.29881821104134
2371 50.29058250951157
2372 50.3006840709894
2373 50.29239128771958
2374 50.30213018913087
2375 50.29334973279681
2376 50.30253444941351
2377 50.29338305234168
2378 50.30190670677848
2379 50.29299606166237
2380 50.3007282909837
2381 50.29114870301078
2382 50.2986233086155
2383 50.28868435473643
2384 50.29654532773434
2385 50.28678658521829
2386 50.2942701048724
2387 50.28469461832698
2388 50.29260571084478
2389 50.28261074327029
2390 50.28966724282618
2391 50.27915096905282
2392 50.28654821930498
2393 50.27637322904465
2394 50.28394718729671
2395 50.27402651633467
2396 50.2824794184261
2397 50.27288748757226
2398 50.28208224919727
2399 50.27409661163994
2400 50.28459060702788
2401 50.27743254862593
2402 50.28779323216303
2403 50.28034210983175
2404 50.29031032180306
2405 50.28261336234903
2406 50.29252625875232
2407 50.28497245752308
2408 50.2950252713799
2409 50.28761724849697
2410 50.29835870407954
2411 50.29102566657692
2412 50.30150052843823
2413 50.29335793529081
2414 50.30298787621158
2415 50.29435481104463
2416 50.30374145346131
2417 50.29482834830485
2418 50.3028622558055
2419 50.2926768165504
2420 50.30001489030952
2421 50.28989140310518
2422 50.29762587617227
2423 50.28772116618004
2424 50.29569716910521
2425 50.28615951063191
2426 50.29456010197837
2427 50.28542379930721
2428 50.29412752883005
2429 50.28435088925323
2430 50.29248189338166
2431 50.28227191471675
2432 50.29054674013788
2433 50.27966684818201
2434 50.28817414128861
2435 50.27835738420743
2436 50.28707874958003
2437 50.27728376307972
2438 50.28641157419402
2439 50.27713462602834
2440 50.28612249448416
2441 50.27679892798029
2442 50.28617361102397
2443 50.27770849875971
2444 50.28755426549546
2445 50.27926867555986
2446 50.28963718501021
2447 50.28275667615586
2448 50.29377658394036
2449 50.28664763642067
2450 50.29716418987489
2451 50.2898972169619
2452 50.30025681874555
2453 50.29178812083896
2454 50.30101127940945
2455 50.29251456010502
2456 50.30218029768738
2457 50.29415375792495
2458 50.30403101896589
2459 50.29589821612861
2460 50.30602000721942
2461 50.29736294140437
2462 50.30610887367452
2463 50.29658788382032
2464 50.30475535300997
2465 50.29466931893167
2466 50.3015872218313
2467 50.2908165276264
2468 50.29857971351983
2469 50.28826813108179
2470 50.29595893299386
2471 50.28501432693903
2472 50.29274748801098
2473 50.2821347590004
2474 50.29009519279052
2475 50.27969037930744
2476 50.28754440042304
2477 50.27764963194279
2478 50.28629657399455
2479 50.2765791506249
2480 50.28577139396366
2481 50.27665276930977
2482 50.28600730315203
2483 50.27751097862505
2484 50.28738438420508
2485 50.2791639629686
2486 50.28922336936938
2487 50.28193598031749
2488 50.29272079198344
2489 50.28549116789642
2490 50.29680470410505
2491 50.29036384143129
2492 50.3010866611139
2493 50.29296564995308
2494 50.30225916626294
2495 50.29361716194759
2496 50.30246506210092
2497 50.29281027914541
2498 50.30148551233601
2499 50.29177501708672
2500 50.30039378750057
2501 50.29017041682187
2502 50.29890362570302
2503 50.28896527117801
2504 50.29720279238837
2505 50.2862965701546
2506 50.29350157404693
2507 50.28254079166931
2508 50.29002629685273
2509 50.27927765986519
2510 50.28679711510998
2511 50.27616615443512
2512 50.28419506917464
2513 50.27463387149083
2514 50.2829356763035
2515 50.27417613541219
2516 50.28388256094385
2517 50.27602875663246
2518 50.28607809235893
2519 50.27867836385099
2520 50.28908294365908
2521 50.28124776923293
2522 50.29204958731918
2523 50.28490136947185
2524 50.29584800233165
2525 50.28781154419055
2526 50.29790871858603
2527 50.28948020321727
2528 50.29848300092901
2529 50.2894392408311
2530 50.2983163458869
2531 50.28980307724193
2532 50.29890104779674
2533 50.29008618569222
2534 50.29933201921914
2535 50.29097260236578
2536 50.30006867533753
2537 50.29137131556796
2538 50.2997441705658
2539 50.29022088323494
2540 50.2978051237569
2541 50.28794185038007
2542 50.29606418195819
2543 50.28661061209493
2544 50.29497075567167
2545 50.28559820370857
2546 50.29436221763515
2547 50.28557112482693
2548 50.29469650718288
2549 50.28612307830036
2550 50.29544786584562
2551 50.28681807517933
2552 50.29565982139226
2553 50.28657135600609
2554 50.29515260098398
2555 50.28571062794632
2556 50.29491316286335
2557 50.28562949543428
2558 50.2940492742633
2559 50.284160927082
2560 50.29276760239389
2561 50.28368365954629
2562 50.29293523961003
2563 50.2842943161342
2564 50.29433573046253
2565 50.28595711600185
2566 50.29530820642497
2567 50.28699387798564
2568 50.29657705529693
2569 50.28783968562445
2570 50.29672046919496
2571 50.28784977918724
2572 50.29721140261402
2573 50.28812799790347
2574 50.29692940238858
2575 50.28788198445051
2576 50.29680116007445
2577 50.28788338567508
2578 50.29683342576632
2579 50.28761337045204
2580 50.29589231741072
2581 50.28594781777797
2582 50.29376298889523
2583 50.28422373684693
2584 50.29259190358552
2585 50.28360123335057
2586 50.29233639390335
2587 50.2836014299109
2588 50.29281815646495
2589 50.2839018487798
2590 50.29322474872157
2591 50.28414256613945
2592 50.29317903165433
2593 50.28386721906186
2594 50.29221315749992
2595 50.28321930792508
2596 50.29201660541703
2597 50.28359789640262
2598 50.2927714553137
2599 50.28419717458927
2600 50.29388237017537
2601 50.28533971663698
2602 50.29506959856145
2603 50.28732016790077
2604 50.29692504718207
2605 50.2882206412645
2606 50.2975921876064
2607 50.28945657810764
2608 50.29884700983286
2609 50.29031867384078
2610 50.29912336807823
2611 50.29089558486608
2612 50.30009159462083
2613 50.29060813797247
2614 50.29903800119464
2615 50.28956327983258
2616 50.29839174688826
2617 50.28811443475441
2618 50.29587069317536
2619 50.28576443456267
2620 50.29346972053573
2621 50.28339071428259
2622 50.29086715596404
2623 50.28156700830515
2624 50.28988637717971
2625 50.28044301488048
2626 50.28872253460594
2627 50.27917118016781
2628 50.28785467455704
2629 50.27857963107656
2630 50.2872978546384
2631 50.278327220614
2632 50.28759595446764
2633 50.278881598426
2634 50.28876183176109
2635 50.28108844322215
2636 50.29171689158037
2637 50.28434093265659
2638 50.2945493530609
2639 50.28722786400848
2640 50.29762798039862
2641 50.2893677001387
2642 50.29868557864353
2643 50.28984618993042
2644 50.29907016773487
2645 50.29067099538008
2646 50.30008125323846
2647 50.29149221476758
2648 50.30048840800877
2649 50.29128628776969
2650 50.30025335612305
2651 50.2914932082432
2652 50.2996990434573
2653 50.29003719702597
2654 50.29817662455497
2655 50.28881053626682
2656 50.29679513984286
2657 50.2865203953772
2658 50.29383675414606
2659 50.28388078061032
2660 50.29132821326816
2661 50.2812598662305
2662 50.28960016547938
2663 50.28051638481775
2664 50.28884246520407
2665 50.27887496083989
2666 50.28651143597151
2667 50.27731561807933
2668 50.28612106292784
2669 50.27728254892753
2670 50.28646571575252
2671 50.27833305527077
2672 50.28823683702643
2673 50.27959972535238
2674 50.28877783286179
2675 50.28005773331344
2676 50.28940683919918
2677 50.28100318879892
2678 50.29060130011501
2679 50.28283135674071
2680 50.29309502553323
2681 50.28468907500186
2682 50.29437369152789
2683 50.28611032378711
2684 50.29553301308098
2685 50.28667060507306
2686 50.2957769365461
2687 50.28733943923495
2688 50.29697899583957
2689 50.28883312429619
2690 50.29897387897837
2691 50.29155839877507
2692 50.30163776625258
2693 50.29377245957883
2694 50.30295557594285
2695 50.29424964838721
2696 50.30212446451908
2697 50.29275456542603
2698 50.3002959756143
2699 50.29120028468677
2700 50.29916763495519
2701 50.2896089195852
2702 50.29700653476068
2703 50.28753584808987
2704 50.29548147451491
2705 50.28563758733075
2706 50.29287342280403
2707 50.2824780069614
2708 50.28934353136814
2709 50.27863550326494
2710 50.28654137085293
2711 50.27722189612103
2712 50.28658467234052
2713 50.2780062324103
2714 50.28729935426171
2715 50.27841597937606
2716 50.2881719747518
2717 50.27969343399479
2718 50.2896112546324
2719 50.28172889504967
2720 50.29241332212802
2721 50.28503646946294
2722 50.29548931145238
2723 50.2884219196409
2724 50.29915844651214
2725 50.29170521417536
2726 50.30146060044395
2727 50.29365106508642
2728 50.30310772923766
2729 50.29448954244261
2730 50.3028229410691
2731 50.29374202867831
2732 50.30206994653209
2733 50.29233249968537
2734 50.30003073960934
2735 50.29037538838907
2736 50.29786684728886
2737 50.28773520179146
2738 50.29452808973203
2739 50.28387009586232
2740 50.29070645611581
2741 50.27963480769804
2742 50.28761068934293
2743 50.27792187803187
2744 50.28602192010321
2745 50.27637813785795
2746 50.28535061917083
2747 50.27717500989819
2748 50.28663312920833
2749 50.2786893924744
2750 50.28866738560289
2751 50.28115309779956
2752 50.29149996950517
2753 50.28351012469293
2754 50.2935430047506
2755 50.28523758481789
2756 50.29483356913182
2757 50.28624590185762
2758 50.29583857076219
2759 50.28760317253865
2760 50.29739945388203
2761 50.28890525140152
2762 50.29816050853429
2763 50.28966320579181
2764 50.29858452658612
2765 50.28937362918877
2766 50.2976028792576
2767 50.28840177533937
2768 50.297090829524
2769 50.28742151986102
2770 50.29559014207149
2771 50.28625178152978
2772 50.29546494049851
2773 50.28649675355683
2774 50.29571161748301
2775 50.28705315474726
2776 50.29610794765516
2777 50.28736366863444
2778 50.29582969697432
2779 50.28687449740427
2780 50.29567379929332
2781 50.28696266976307
2782 50.29588848472629
2783 50.28698808151132
2784 50.29607014439652
2785 50.28716838692261
2786 50.29614213794684
2787 50.28722336922148
2788 50.29637330399302
2789 50.28680906175364
2790 50.29549984427247
2791 50.28557329186521
2792 50.29404852192208
2793 50.28430747520861
2794 50.29290124481379
2795 50.28316725147462
2796 50.29259165402773
2797 50.28332603455479
2798 50.29298694853624
2799 50.28448932889238
2800 50.29451695587218
2801 50.28647702723311
2802 50.29612897997765
2803 50.28770062742779
2804 50.29653201323825
2805 50.28707640300337
2806 50.29499313732572
2807 50.28523759449826
2808 50.29423185767337
2809 50.28542926940214
2810 50.29488633638121
2811 50.28626776560109
2812 50.29561287023592
2813 50.28563344301703
2814 50.29372158445662
2815 50.28374048773814
2816 50.29196632568521
2817 50.28184435261036
2818 50.28976223521464
2819 50.28019156598365
2820 50.28888502602138
2821 50.27929635467533
2822 50.28818542690194
2823 50.27956349018931
2824 50.28891300530663
2825 50.28002837627112
2826 50.28941375064792
2827 50.28065190528848
2828 50.29014421520539
2829 50.28167444710263
2830 50.29078792366731
2831 50.28253194141211
2832 50.2920695251157
2833 50.28357897205971
2834 50.29310867223221
2835 50.28523800917243
2836 50.29613927106195
2837 50.2882665477927
2838 50.29852316937777
2839 50.29003414259024
2840 50.30017357164643
2841 50.29155698607778
2842 50.30088129238404
2843 50.29195172848502
2844 50.30046928097303
2845 50.29021324036905
2846 50.29861885065325
2847 50.28927108150057
2848 50.29823210551153
2849 50.28857689317054
2850 50.29706107293717
2851 50.28671346647445
2852 50.29443897633689
2853 50.28317281839591
2854 50.29035207915587
2855 50.27965629962584
2856 50.28750244356103
2857 50.27742294688302
2858 50.28551224560491
2859 50.27651398790998
2860 50.28610754876649
2861 50.27758706556759
2862 50.28729179233221
2863 50.27897389791681
2864 50.28888482341243
2865 50.28059592487611
2866 50.29059920270153
2867 50.28273081601586
2868 50.2932264746002
2869 50.28500022832637
2870 50.29533285072216
2871 50.28807945335356
2872 50.29854805938032
2873 50.29100960812841
2874 50.30139759566077
2875 50.29348217007843
2876 50.30313826313086
2877 50.29427593739288
2878 50.30371955997032
2879 50.29505453935066
2880 50.30390090154216
2881 50.29423849136992
2882 50.3021946766305
2883 50.29201860372182
2884 50.29947230679093
2885 50.28918359023145
2886 50.29676463913283
2887 50.28708817253244
2888 50.29515395474659
2889 50.28544413989315
2890 50.29338849872317
2891 50.28353417611331
2892 50.29168402241804
2893 50.28155410281221
2894 50.28939903620432
2895 50.27941016331819
2896 50.28818308061587
2897 50.27914181667752
2898 50.28806851570042
2899 50.27897919716839
2900 50.28784956498486
2901 50.27830851578391
2902 50.28656083672728
2903 50.27709814678185
2904 50.28625635507381
2905 50.27698157458159
2906 50.28651864900625
2907 50.27811363666179
2908 50.2883004766543
2909 50.28095640420337
2910 50.29190113287751
2911 50.28522113575849
2912 50.29601404845133
2913 50.28885233340085
2914 50.29865438327581
2915 50.29059166768559
2916 50.29968585297561
2917 50.29061438990732
2918 50.29996061033528
2919 50.29159087646693
2920 50.30116483927173
2921 50.29230568985567
2922 50.30132325786585
2923 50.29280567444779
2924 50.30180578257544
2925 50.29233302142556
2926 50.30067644443909
2927 50.29101224323987
2928 50.29936489338498
2929 50.28918365025415
2930 50.29724844057451
2931 50.28712359637593
2932 50.29504210420862
2933 50.28423605139278
2934 50.29195544442798
2935 50.28212948904569
2936 50.29074760446949
2937 50.281486259754
2938 50.2896147272441
2939 50.28024402194458
2940 50.28889530866275
2941 50.27931835376267
2942 50.28743005396637
2943 50.27857821276688
2944 50.28825809738075
2945 50.28014553088843
2946 50.28965636301239
2947 50.28215179896248
2948 50.29229613638848
2949 50.28512359956157
2950 50.29532136729281
2951 50.28855911572848
2952 50.29933078188238
2953 50.29209716813447
2954 50.30205091810176
2955 50.29430128441569
2956 50.30409353935281
2957 50.29592973544617
2958 50.30528568876814
2959 50.29692117705559
2960 50.30555174869156
2961 50.29577476639182
2962 50.30395883334228
2963 50.29428603060625
2964 50.30180622861032
2965 50.29142894380622
2966 50.29895482175062
2967 50.28862692246601
2968 50.29569692580539
2969 50.28500814093139
2970 50.2923023076868
2971 50.28142232968495
2972 50.28911165969647
2973 50.27909445983848
2974 50.28732588191559
2975 50.27751495904808
2976 50.2856072448692
2977 50.27597559274766
2978 50.28435201702046
2979 50.27559008780626
2980 50.28488834400983
2981 50.2769548446465
2982 50.28686402802383
2983 50.27932492059732
2984 50.2904827447832
2985 50.28364637736067
2986 50.29468724654981
2987 50.28723743525518
2988 50.29753598124748
2989 50.28912628265664
2990 50.29836411944131
2991 50.28964033724102
2992 50.2985956934156
2993 50.28920840582667
2994 50.2976992534911
2995 50.28902100159345
2996 50.29835617959663
2997 50.28949947224028
2998 50.29898309718255
2999 50.2900971738336
3000 50.29875885966805
3001 50.28922061470146
3002 50.29751044986122
3003 50.28785992344137
3004 50.29611433381729
3005 50.28594864741424
3006 50.29372539521759
3007 50.28367759750916
3008 50.29135019981081
3009 50.28123829755232
3010 50.28919619271958
3011 50.27994879088695
3012 50.28842179964921
3013 50.2796327947414
3014 50.289047302659
3015 50.28099527198501
3016 50.29043045900539
3017 50.28146675356113
3018 50.29048053772328
3019 50.28151704837934
3020 50.29009308951054
3021 50.28101994665361
3022 50.29036829191392
3023 50.28295460938282
3024 50.29323687318675
3025 50.28605071201262
3026 50.29568328859589
3027 50.28790167418779
3028 50.29761887408542
3029 50.28918010828883
3030 50.29810304983118
3031 50.2886825537266
3032 50.29776180056487
3033 50.28841289210231
3034 50.29759501931157
3035 50.28990121951031
3036 50.30026117583359
3037 50.29245451547986
3038 50.30128981033639
3039 50.29254686178904
3040 50.30101669729552
3041 50.29149284230927
3042 50.30006726993041
3043 50.29098322616191
3044 50.29957522785416
3045 50.29024808625773
3046 50.29852137255739
3047 50.28905724181829
3048 50.29735947931631
3049 50.28762607779834
3050 50.29539845332889
3051 50.28529242992855
3052 50.29261954232007
3053 50.28234154798376
3054 50.2899749640649
3055 50.28014675843618
3056 50.28779744451484
3057 50.27797384187462
3058 50.2865092373999
3059 50.27724493057735
3060 50.28633026074401
3061 50.27772745955338
3062 50.28734920325264
3063 50.27892436100689
3064 50.28836884098374
3065 50.28008592999677
3066 50.28985251082172
3067 50.28178044235918
3068 50.29228421584882
3069 50.28507680291447
3070 50.29585842472832
3071 50.28859998741522
3072 50.2990591918208
3073 50.29132237736433
3074 50.30076888944259
3075 50.29225645509888
3076 50.30144406202997
3077 50.29205892376655
3078 50.30017798727977
3079 50.28976094775665
3080 50.29789963354608
3081 50.28777500528363
3082 50.29592013039964
3083 50.28604355417669
3084 50.29372733047428
3085 50.28390310493366
3086 50.29166039311152
3087 50.28194977107936
3088 50.29005934051439
3089 50.28123382787984
3090 50.2907357693056
3091 50.28197361542005
3092 50.29100177321764
3093 50.2817756401212
3094 50.29068627837928
3095 50.28126782625832
3096 50.29033659585861
3097 50.28155698728619
3098 50.29212247124857
3099 50.28432585141807
3100 50.29488621691747
3101 50.28721459920281
3102 50.29810793073415
3103 50.29040878617221
3104 50.30060382556699
3105 50.29171119073371
3106 50.30078031427493
3107 50.29094535826933
3108 50.29930686516064
3109 50.28912787256822
3110 50.29782067360242
3111 50.28865580558681
3112 50.29810474465909
3113 50.2889702172706
3114 50.29754281077039
3115 50.28770642625383
3116 50.29620936484135
3117 50.28597274896359
3118 50.29425178372249
3119 50.2838320440377
3120 50.29229724576468
3121 50.28250628658516
3122 50.29168329247179
3123 50.28260260108307
3124 50.29200150968126
3125 50.28313531766351
3126 50.29198917662173
3127 50.28297682217105
3128 50.29213495663095
3129 50.28312236009503
3130 50.29282371980716
3131 50.28437210520727
3132 50.29419386816294
3133 50.2855958836541
3134 50.2950298321519
3135 50.2866257101633
3136 50.29574318869066
3137 50.2867705103832
3138 50.29520437049304
3139 50.2857620143151
3140 50.29375637491541
3141 50.28398792848649
3142 50.29262950789962
3143 50.28373777503658
3144 50.29207702168394
3145 50.28308373477888
3146 50.29224542052447
3147 50.28371184565622
3148 50.2929293574549
3149 50.28402183430778
3150 50.2938621836923
3151 50.28543512462758
3152 50.29543907896885
3153 50.28711149307687
3154 50.29692745909177
3155 50.28831048984306
3156 50.29735440245911
3157 50.28819593286522
3158 50.29695190163014
3159 50.28803322647497
3160 50.29684226144705
3161 50.28754664721907
3162 50.29612800449547
3163 50.28626756703503
3164 50.29410679434736
3165 50.2833513888496
3166 50.29054882355271
3167 50.28035156311221
3168 50.28876495001287
3169 50.27915524948698
3170 50.28811137110804
3171 50.27942382443042
3172 50.28904315656079
3173 50.2803625033547
3174 50.29009451517596
3175 50.28174125913387
3176 50.29102824795298
3177 50.28241408272032
3178 50.29205004738966
3179 50.28382704904669
3180 50.29436195391524
3181 50.28606453394034
3182 50.29637603509234
3183 50.28821462298745
3184 50.29866517518627
3185 50.29050430844992
3186 50.30034148168287
3187 50.29169951511739
3188 50.30104733770497
3189 50.29253076974573
3190 50.30193953041162
3191 50.29322524295162
3192 50.3018716693044
3193 50.29223380077804
3194 50.2997582414447
3195 50.28913627748093
3196 50.29654835594808
3197 50.2864681547117
3198 50.29383338577878
3199 50.28385508413001
3200 50.29119010694109
3201 50.28041693806017
3202 50.2879893666807
3203 50.27764908374955
3204 50.28551559042117
3205 50.27562720055751
3206 50.28441627359118
3207 50.27551417243195
3208 50.28516211769737
3209 50.27676387225115
3210 50.28676620205218
3211 50.27879790240681
3212 50.28843637704156
3213 50.28073140533007
3214 50.29082928775186
3215 50.28365304218848
3216 50.29373707369367
3217 50.28661448824959
3218 50.29645271197746
3219 50.28910433743789
3220 50.29897042041452
3221 50.29105204114743
3222 50.30054797991266
3223 50.29258414710391
3224 50.30163731568367
3225 50.29352417319481
3226 50.30241722663192
3227 50.29342434928522
3228 50.30142992454312
3229 50.29176022586294
3230 50.29946174639183
3231 50.28939436742706
3232 50.2967996737343
3233 50.28712090052055
3234 50.29554965540227
3235 50.28634696503876
3236 50.29462526548797
3237 50.28489720927512
3238 50.29291710120072
3239 50.28326723252389
3240 50.29143793929632
3241 50.28192068286192
3242 50.29000812238841
3243 50.28015810365424
3244 50.28902585145501
3245 50.27978815128098
3246 50.28911644057504
3247 50.28105968042796
3248 50.29073436723674
3249 50.28255804143243
3250 50.29241750653103
3251 50.28439565268545
3252 50.29388988320571
3253 50.28477124312675
3254 50.29411058477923
3255 50.28476090997717
3256 50.29395340005566
3257 50.28522462501868
3258 50.29466647991543
3259 50.28633057878243
3260 50.2960002785419
3261 50.2875563260789
3262 50.2963343083477
3263 50.28691996558582
3264 50.29526732977034
3265 50.28602366684276
3266 50.2946754774799
3267 50.2860152122879
3268 50.29589571527463
3269 50.28800554837334
3270 50.29826462210971
3271 50.28969999739149
3272 50.29895818529777
3273 50.28945620837074
3274 50.29846810275868
3275 50.28889797298726
3276 50.29775053336683
3277 50.28848359191561
3278 50.29673032441379
3279 50.28753727458186
3280 50.2958793745853
3281 50.28627139769654
3282 50.29407076470002
3283 50.28473203106337
3284 50.29324832284356
3285 50.2837119765452
3286 50.29170673995534
3287 50.28232445833517
3288 50.29075633446024
3289 50.28162732038871
3290 50.29038475711273
3291 50.28172544080739
3292 50.29090357781467
3293 50.28176028444435
3294 50.29051453985393
3295 50.28179231156319
3296 50.29184339971025
3297 50.28410725040819
3298 50.29448583929457
3299 50.28657268470221
3300 50.2966550425359
3301 50.28814938196842
3302 50.29728267456022
3303 50.28857340603476
3304 50.29766063495624
3305 50.28921394636826
3306 50.29852054231521
3307 50.29002589830993
3308 50.29920746754386
3309 50.29046353956949
3310 50.30001775656385
3311 50.29035610089086
3312 50.29863484667387
3313 50.28826347721282
3314 50.29586018460452
3315 50.28533154380424
3316 50.29255694000928
3317 50.28223469725001
3318 50.29024576751785
3319 50.27985010534485
3320 50.28747093192636
3321 50.27715892518588
3322 50.28581319302837
3323 50.27681272655915
3324 50.28660456527401
3325 50.27853714799031
3326 50.2886178046605
3327 50.28089204558442
3328 50.29054265053375
3329 50.28243979084956
3330 50.29196183401666
3331 50.28446280650529
3332 50.29435085838861
3333 50.28657954132203
3334 50.29618076202307
3335 50.28840654232589
3336 50.29829819819896
3337 50.28944068164063
3338 50.29930902688522
3339 50.29110895198061
3340 50.300563174464
3341 50.29167265785246
3342 50.30048522359077
3343 50.29149657585538
3344 50.30039308281473
3345 50.29121078985322
3346 50.29902935706201
3347 50.28925159605741
3348 50.29726455711417
3349 50.28724255186284
3350 50.29495892488487
3351 50.28446431765776
3352 50.29217596927224
3353 50.28201552030846
3354 50.28975148303339
3355 50.27971608407494
3356 50.2875052895331
3357 50.2779015931376
3358 50.28633019351319
3359 50.27710578373969
3360 50.28591514875865
3361 50.27721724311374
3362 50.28665328071502
3363 50.27894369455794
3364 50.2892376393894
3365 50.28206765675984
3366 50.29220720383056
3367 50.28460679023075
3368 50.29511579449603
3369 50.28717641974399
3370 50.29677101292434
3371 50.2881749791995
3372 50.29720112041539
3373 50.28776631965334
3374 50.29676706554574
3375 50.28813089499795
3376 50.29742098981914
3377 50.28873191392118
3378 50.29758575141165
3379 50.28909226124262
3380 50.2984130287478
3381 50.28955556354371
3382 50.29893009337642
3383 50.29044236942216
3384 50.2998390508306
3385 50.29091414218495
3386 50.30041711048697
3387 50.29178478698964
3388 50.30039549649765
3389 50.29062161732876
3390 50.29898567380526
3391 50.28945831157306
3392 50.29730546736238
3393 50.28741018372499
3394 50.29558983768532
3395 50.28596776464493
3396 50.29411181168029
3397 50.28401228196109
3398 50.29169117309932
3399 50.28138151103681
3400 50.28874542681923
3401 50.27865636406064
3402 50.28664828148508
3403 50.2774457788021
3404 50.28589942146102
3405 50.27689094628116
3406 50.28647808916802
3407 50.27837844555096
3408 50.28829598909312
3409 50.28016052200527
3410 50.2897334301975
3411 50.28207013616314
3412 50.29216594134977
3413 50.28419669810392
3414 50.29528084558556
3415 50.28842967924595
3416 50.29957836090652
3417 50.29190150819787
3418 50.30292987295182
3419 50.29493122558466
3420 50.30513975408991
3421 50.29606115183734
3422 50.30559303780441
3423 50.29645280311016
3424 50.30557155645186
3425 50.29616424202476
3426 50.30473281248502
3427 50.29395893820984
3428 50.30138800270122
3429 50.28962452116504
3430 50.29673742403493
3431 50.28567436346388
3432 50.2936050828333
3433 50.28254537489281
3434 50.28974196156199
3435 50.278413338837
3436 50.28542756191413
3437 50.27450006236952
3438 50.28226140323402
3439 50.27251503358634
3440 50.28094371401802
3441 50.27200555429408
3442 50.28100694529544
3443 50.27283784557168
3444 50.28291700381647
3445 50.27550006738124
3446 50.2870266749054
3447 50.28076699427743
3448 50.29240438692744
3449 50.28594368790679
3450 50.29690219861933
3451 50.29046313569103
3452 50.30164257168992
3453 50.29460866700151
3454 50.30549547268495
3455 50.29826094750086
3456 50.30804620376583
3457 50.29916494449783
3458 50.30768962372753
3459 50.29880469994215
3460 50.30764202875545
3461 50.29771886128665
3462 50.30534216043314
3463 50.29505473946304
3464 50.30325116236356
3465 50.2928727737683
3466 50.30068128534352
3467 50.2902066967527
3468 50.29824917613854
3469 50.28747015980893
3470 50.29538999156346
3471 50.28570090587242
3472 50.2939129756458
3473 50.28358006380336
3474 50.29107206922662
3475 50.28127983690026
3476 50.28962410499262
3477 50.28000606466708
3478 50.28851489134141
3479 50.27940009033921
3480 50.28893604278382
3481 50.27965126341008
3482 50.28870885630672
3483 50.27946699911703
3484 50.28877780169609
3485 50.27980649558137
3486 50.2898231310549
3487 50.28156011573252
3488 50.29130882932791
3489 50.28278078629917
3490 50.29248643033619
3491 50.28378503372338
3492 50.29351461807638
3493 50.28457578188889
3494 50.29455959946005
3495 50.28640269991427
3496 50.29671850263618
3497 50.28839223932805
3498 50.29869462712571
3499 50.2910019658646
3500 50.30153418038482
3501 50.29350472870478
3502 50.30346386822641
3503 50.29506503459653
3504 50.30487533178109
3505 50.29566237715425
3506 50.3045045722707
3507 50.2948517531567
3508 50.30350708768091
3509 50.29345573719336
3510 50.30162967812129
3511 50.29163671109132
3512 50.29975036497712
3513 50.28933623080658
3514 50.29646010967907
3515 50.28576305402146
3516 50.29259463584311
3517 50.281752441689
3518 50.28904560600534
3519 50.27916149661282
3520 50.28670374813373
3521 50.2766457271861
3522 50.28490270757177
3523 50.27557079740796
3524 50.28464705331259
3525 50.27576924096034
3526 50.28517199780944
3527 50.27743609910223
3528 50.28777710972379
3529 50.28040171342946
3530 50.29055679166804
3531 50.28346193956413
3532 50.29443820097128
3533 50.28774416290573
3534 50.29839482597827
3535 50.29145522580738
3536 50.30179134503337
3537 50.29433805383102
3538 50.30366827096571
3539 50.29550523038375
3540 50.30464533812272
3541 50.29589195316358
3542 50.30441830128194
3543 50.29495954010943
3544 50.30350087109566
3545 50.29349689615015
3546 50.30130033512678
3547 50.29102379289419
3548 50.29902055329701
3549 50.28852906260016
3550 50.29593503584583
3551 50.28600472803637
3552 50.29381155386008
3553 50.2840960924041
3554 50.29140962524081
3555 50.28090598068325
3556 50.28841873707022
3557 50.27784960500748
3558 50.28645352103717
3559 50.27739567468163
3560 50.28669101840248
3561 50.27845189769047
3562 50.28841978316677
3563 50.28054873807336
3564 50.29039356435605
3565 50.28209784506075
3566 50.2920207733185
3567 50.28354974878018
3568 50.29324000775758
3569 50.28468126065914
3570 50.29461282434865
3571 50.2866537855363
3572 50.29642185458626
3573 50.28815234377105
3574 50.29727615045141
3575 50.2888221757399
3576 50.29773040266004
3577 50.2889485861728
3578 50.29741730252013
3579 50.2887708409753
3580 50.29736576175483
3581 50.28846723686932
3582 50.29672094090764
3583 50.28679993246828
3584 50.2951178908722
3585 50.2853049979964
3586 50.29345642772276
3587 50.28413035974302
3588 50.29255722546875
3589 50.28270131634763
3590 50.2909614890443
3591 50.28187910121318
3592 50.29116324362323
3593 50.282995471881
3594 50.29220470250678
3595 50.28337296738778
3596 50.29212486132239
3597 50.28238225829998
3598 50.29139214194102
3599 50.28284178927808
3600 50.29211368111302
3601 50.28349290386827
3602 50.2933378121752
3603 50.28543365389583
3604 50.29521606827986
3605 50.28653163919373
3606 50.29604612994037
3607 50.28820475562738
3608 50.29778173290576
3609 50.2889538292406
3610 50.29806813871139
3611 50.28904791340615
3612 50.29814464118389
3613 50.28937211477047
3614 50.29816461628722
3615 50.2897222152109
3616 50.29876847604029
3617 50.29007887530089
3618 50.29876596668885
3619 50.28987348106828
3620 50.29860976252455
3621 50.28911968960762
3622 50.29676897371
3623 50.28672878429914
3624 50.29487347082152
3625 50.28513918978498
3626 50.29343139942783
3627 50.28392557258043
3628 50.29242472111265
3629 50.28250367854456
3630 50.290432036905
3631 50.28077247642869
3632 50.28970422496504
3633 50.28041719948531
3634 50.28943623267102
3635 50.28070245035254
3636 50.29109641344431
3637 50.28273976790555
3638 50.29264863910787
3639 50.2845098482873
3640 50.29405036404975
3641 50.28509759871704
3642 50.29408852401194
3643 50.28499299407201
3644 50.29378305418783
3645 50.28448684729118
3646 50.29405517063941
3647 50.28627913542555
3648 50.29669899513294
3649 50.28850534923048
3650 50.29846943446128
3651 50.29014192252779
3652 50.29969224513779
3653 50.29062208020997
3654 50.29935085028593
3655 50.29043718795327
3656 50.29898203960343
3657 50.28965146957981
3658 50.29812885332489
3659 50.28924395533436
3660 50.29812761822061
3661 50.28846963693777
3662 50.29603783139694
3663 50.28649725132241
3664 50.29424659487225
3665 50.28392867367734
3666 50.29078978150628
3667 50.28076575671763
3668 50.28813073817935
3669 50.27774935033666
3670 50.2853823563746
3671 50.27599371479921
3672 50.28498430265581
3673 50.27640989452001
3674 50.28640134451491
3675 50.27895087500842
3676 50.29018687696777
3677 50.28285547943463
3678 50.29336716796961
3679 50.28658352570612
3680 50.29746592156658
3681 50.29015453365308
3682 50.29982134825832
3683 50.29218766015705
3684 50.30198903554076
3685 50.29377873940813
3686 50.30254605144951
3687 50.29401875783806
3688 50.302646120477
3689 50.29376792391521
3690 50.30286998626175
3691 50.29374745019283
3692 50.30224950377368
3693 50.29170394867527
3694 50.29891910101606
3695 50.28824380600429
3696 50.29501966012783
3697 50.28395486554371
3698 50.29122398990529
3699 50.28110588483517
3700 50.2890499802795
3701 50.27931467252048
3702 50.28763767465174
3703 50.27841911200332
3704 50.28733335312999
3705 50.27809090884649
3706 50.28685667566702
3707 50.27729668900869
3708 50.28658852140659
3709 50.27668411634398
3710 50.2863005257004
3711 50.27830379787223
3712 50.28876306045145
3713 50.28072047037791
3714 50.29072189242782
3715 50.28276143162687
3716 50.29254578400732
3717 50.28372315070186
3718 50.29290626940442
3719 50.28504093318645
3720 50.29476303140437
3721 50.28642294340362
3722 50.29610939100808
3723 50.28804720807861
3724 50.29786670349637
3725 50.28962318730696
3726 50.29934247551391
3727 50.29130580283926
3728 50.30013997401693
3729 50.290881567555
3730 50.29929833441573
3731 50.2901077490418
3732 50.29846994124112
3733 50.28867544273565
3734 50.29709490069371
3735 50.28818716321238
3736 50.29756246366286
3737 50.28851610147638
3738 50.29793930189376
3739 50.28901783384336
3740 50.29803090048092
3741 50.28846008675117
3742 50.29702285092391
3743 50.28745239962251
3744 50.29580542062748
3745 50.28584646761202
3746 50.29419650642292
3747 50.28458525313485
3748 50.2936604309496
3749 50.28415962617056
3750 50.29259204660819
3751 50.28289073762402
3752 50.29117836434478
3753 50.28125309508756
3754 50.28965490986535
3755 50.28014924985304
3756 50.28847128120669
3757 50.2788151244908
3758 50.28736633773084
3759 50.27916774589799
3760 50.28930744808011
3761 50.28149564503057
3762 50.29208297130238
3763 50.28467694388561
3764 50.29579799558188
3765 50.28835724234941
3766 50.29879291902986
3767 50.29148945624773
3768 50.30166415619357
3769 50.29352540912512
3770 50.30281027638597
3771 50.29435418506386
3772 50.3033780129286
3773 50.29408882457196
3774 50.30246583234784
3775 50.29287087182467
3776 50.30103785192274
3777 50.29053765143301
3778 50.29797837014614
3779 50.28750107284359
3780 50.29523614688194
3781 50.28459809502331
3782 50.2915252459494
3783 50.28112645796944
3784 50.28848539472766
3785 50.27802261495241
3786 50.28560953863767
3787 50.27574713195938
3788 50.28473346404821
3789 50.27588898436127
3790 50.28540740488408
3791 50.27799984666633
3792 50.2883567817427
3793 50.28106030660893
3794 50.29103798469772
3795 50.28367106594089
3796 50.29376534669467
3797 50.28635898211483
3798 50.29627873356117
3799 50.28843188390503
3800 50.29819905663032
3801 50.28966450091767
3802 50.29909740721478
3803 50.29092451282185
3804 50.30046331918788
3805 50.29187645270856
3806 50.30110051373979
3807 50.29221016443658
3808 50.30065029988855
3809 50.29066635040771
3810 50.29874517985558
3811 50.28883504212403
3812 50.29645232806224
3813 50.28665712992895
3814 50.29436852629644
3815 50.28459846124942
3816 50.2923289021253
3817 50.28252386625308
3818 50.29064320973333
3819 50.28166867710937
3820 50.28983693134213
3821 50.28048299574937
3822 50.28935584982982
3823 50.28137261434194
3824 50.29060802528705
3825 50.28191926748264
3826 50.29128759389476
3827 50.28370162756924
3828 50.29327341638124
3829 50.28506024364297
3830 50.29395603533617
3831 50.28554149062943
3832 50.29379762405751
3833 50.28499499670504
3834 50.29347701476371
3835 50.28527383568411
3836 50.29508766173048
3837 50.28743116288069
3838 50.29727306082299
3839 50.28927149759136
3840 50.29784103222845
3841 50.28805500759668
3842 50.29510260741426
3843 50.28549600342242
3844 50.29348340157277
3845 50.28483584597915
3846 50.29369041772856
3847 50.2853432687888
3848 50.29469290171851
3849 50.28625500558189
3850 50.29587725138802
3851 50.2881872802923
3852 50.29764449504074
3853 50.28884306410021
3854 50.29736027410694
3855 50.28895212869778
3856 50.29693287465874
3857 50.28783097453966
3858 50.29541145491291
3859 50.2867226692822
3860 50.29410192798971
3861 50.28505933706045
3862 50.2929395758611
3863 50.28345392630941
3864 50.29152692347142
3865 50.28184696634398
3866 50.29034171823641
3867 50.2815088152334
3868 50.29005151516856
3869 50.28100401232587
3870 50.28926888046152
3871 50.28078302128235
3872 50.28983957625763
3873 50.2817366444616
3874 50.29087472752924
3875 50.28255420337249
3876 50.29201255396283
3877 50.28405166938187
3878 50.29349193143799
3879 50.28554253045372
3880 50.29542665745796
3881 50.28728577002871
3882 50.29669444659388
3883 50.28896064006598
3884 50.29864240281388
3885 50.29038266630521
3886 50.29942555938394
3887 50.29123004757717
3888 50.30047472886787
3889 50.29107697170899
3890 50.2991812383807
3891 50.28963093021265
3892 50.29765410096311
3893 50.28759765391464
3894 50.29490777381488
3895 50.28501734837835
3896 50.29284029132423
3897 50.28314196293911
3898 50.29052915484228
3899 50.28109422909863
3900 50.2891253763314
3901 50.27907049160619
3902 50.28728909235154
3903 50.27793182041129
3904 50.28670656994617
3905 50.27786985405037
3906 50.28672349167417
3907 50.27794534662607
3908 50.28798591274735
3909 50.28018909904046
3910 50.29114877630828
3911 50.28435164560366
3912 50.29587401568563
3913 50.28905758361955
3914 50.30038944852203
3915 50.29308962594213
3916 50.30299554263948
3917 50.29476558879119
3918 50.30426240348562
3919 50.29579153550998
3920 50.30439174977094
3921 50.29515662949476
3922 50.30399436542668
3923 50.29539378769164
3924 50.30427265959526
3925 50.29543008352773
3926 50.30344928614017
3927 50.29375774981732
3928 50.30094951951908
3929 50.29070700242004
3930 50.29754834747377
3931 50.28712936284066
3932 50.29350484815195
3933 50.28267740155128
3934 50.2895026751681
3935 50.27951923891381
3936 50.28720827081445
3937 50.2780875815365
3938 50.28663186840335
3939 50.27724705910104
3940 50.28561724727072
3941 50.27585483003601
3942 50.28435842503503
3943 50.27570976398689
3944 50.28494290185001
3945 50.27634788752192
3946 50.28630520041625
3947 50.2787272959776
3948 50.28823396186965
3949 50.2802082584932
3950 50.29070750365526
3951 50.28353421219923
3952 50.2945073631959
3953 50.28700980623017
3954 50.2975032486377
3955 50.28907752305071
3956 50.29799691338577
3957 50.28900508643142
3958 50.29858298145108
3959 50.28979791189336
3960 50.2996274772829
3961 50.29100831351892
3962 50.3005264907024
3963 50.29166187156088
3964 50.30068604064976
3965 50.29157368628566
3966 50.30013159857456
3967 50.29071926634616
3968 50.29900625724759
3969 50.29007950996539
3970 50.29877944455786
3971 50.29022228288885
3972 50.29909029940622
3973 50.28977537522415
3974 50.297640434725
3975 50.28811543507844
3976 50.29553130686766
3977 50.28547453865032
3978 50.29261082190082
3979 50.28209115945245
3980 50.28964667995256
3981 50.27971379054368
3982 50.28791851424168
3983 50.27907560573566
3984 50.28782128182593
3985 50.27913562400506
3986 50.28751541750287
3987 50.27889875935234
3988 50.28806575104495
3989 50.27982323500479
3990 50.28909891679129
3991 50.28087571207154
3992 50.2908814763962
3993 50.2835026642737
3994 50.29392786716802
3995 50.28644275787328
3996 50.29692643609882
3997 50.28981096369076
3998 50.30087996299802
3999 50.29455800628222
4000 50.30557219903007
4001 50.29824496937065
4002 50.30786806313053
4003 50.2993797985367
4004 50.30761997333366
4005 50.2982396158342
4006 50.30619141374024
4007 50.29692031675904
4008 50.30426375324832
4009 50.29389069428019
4010 50.30106405669753
4011 50.29149380737816
4012 50.2993156866721
4013 50.28911126239893
4014 50.29669566370028
4015 50.28664257286387
4016 50.29396147677019
4017 50.2832694838106
4018 50.28970091307106
4019 50.27878459802466
4020 50.28605624992531
4021 50.27561151840511
4022 50.28370627181243
4023 50.27424685287116
4024 50.28356140117049
4025 50.27524318354888
4026 50.2851134150137
4027 50.27730987184791
4028 50.28751103840629
4029 50.27986159877562
4030 50.29040494142837
4031 50.2827831523613
4032 50.29297332084325
4033 50.28532281858092
4034 50.29542157505195
4035 50.28749986479475
4036 50.29723461354303
4037 50.2893008941113
4038 50.29919587271434
4039 50.29042195464739
4040 50.29965937211212
4041 50.29033956686646
4042 50.29944870561568
4043 50.28968112320157
4044 50.29801845169953
4045 50.28824424904793
4046 50.29661401672175
4047 50.28715693391779
4048 50.29551162913054
4049 50.28602659116463
4050 50.29438524823061
4051 50.28495245683303
4052 50.29320091077258
4053 50.28362630597985
4054 50.29198051686467
4055 50.28287819578811
4056 50.29104175702693
4057 50.28177837582876
4058 50.29074534208157
4059 50.2823506695301
4060 50.29231420605731
4061 50.28403031100522
4062 50.29395673232187
4063 50.28540722125539
4064 50.29444342692442
4065 50.28497000538446
4066 50.29347716108908
4067 50.28441777614316
4068 50.29354591186512
4069 50.28460065498166
4070 50.2939123962443
4071 50.28557577738322
4072 50.29523080339542
4073 50.28667121415346
4074 50.29555875206945
4075 50.28648932454371
4076 50.29494586695655
4077 50.28541213073721
4078 50.29354433392265
4079 50.2840546389909
4080 50.29266494624777
4081 50.28351829144746
4082 50.2925147096468
4083 50.28391920021354
4084 50.29427772009515
4085 50.28631756857413
4086 50.29668605446826
4087 50.28825245894619
4088 50.29878877271162
4089 50.29031722280647
4090 50.30017226537571
4091 50.29083692060345
4092 50.29978166950588
4093 50.28975850294335
4094 50.297653816362
4095 50.28764394918205
4096 50.29617042872634
4097 50.28714450387456
4098 50.29628674202736
4099 50.28767573453065
4100 50.29662201815645
4101 50.28647727064291
4102 50.29421500517341
4103 50.28452611398026
4104 50.29270046794926
4105 50.28231677923753
4106 50.29071089570925
4107 50.28122242671957
4108 50.29015057263531
4109 50.28135111566176
4110 50.29097162813
4111 50.28288370217103
4112 50.29186584594206
4113 50.28354341025207
4114 50.29294530736967
4115 50.28534153511838
4116 50.29550207084537
4117 50.28703620793032
4118 50.29665698787336
4119 50.28754025272124
4120 50.29632678277965
4121 50.28599914216788
4122 50.29447185573441
4123 50.28444892503887
4124 50.29299450370017
4125 50.28352007174431
4126 50.29201206969289
4127 50.28284953189221
4128 50.29178174315151
4129 50.2823871071131
4130 50.29073145916517
4131 50.28093622730198
4132 50.28937587739947
4133 50.27934358660846
4134 50.28787875194574
4135 50.27943888154324
4136 50.28934322190455
4137 50.28173267924096
4138 50.29162150486476
4139 50.28432910985564
4140 50.29430772268939
4141 50.28701420094946
4142 50.29656254119349
4143 50.28900134140104
4144 50.29870450768025
4145 50.29124941829454
4146 50.3006100433733
4147 50.29316206214352
4148 50.3033888278561
4149 50.29581774581554
4150 50.30527600761211
4151 50.29575135526419
4152 50.30441737999814
4153 50.29454582386521
4154 50.30237869285838
4155 50.29174312590639
4156 50.2993088153971
4157 50.28902225411262
4158 50.29712034213303
4159 50.28759279531394
4160 50.29590988240743
4161 50.28667734130253
4162 50.29467466774162
4163 50.28469825866719
4164 50.29270891774092
4165 50.28199970433399
4166 50.29003957574599
4167 50.27972417189306
4168 50.28857989379871
4169 50.27926889683854
4170 50.28896375855337
4171 50.28052392082746
4172 50.29069825525956
4173 50.28284272398328
4174 50.29276723790515
4175 50.28508061705191
4176 50.29463068801423
4177 50.28649742078343
4178 50.29520496629424
4179 50.28690969298573
4180 50.29551162926069
4181 50.28680001236816
4182 50.29544296970733
4183 50.2868123010468
4184 50.2962522867186
4185 50.28796821991116
4186 50.29739819792509
4187 50.28905189086318
4188 50.29854461873104
4189 50.28960026405584
4190 50.29792673213046
4191 50.28845083847601
4192 50.29736543943157
4193 50.28799931715007
4194 50.29644523888672
4195 50.28677957346559
4196 50.29565456446841
4197 50.28649815087676
4198 50.294956995447
4199 50.28575564462763
4200 50.29481615214053
4201 50.28550592939191
4202 50.29417975497874
4203 50.28455907244225
4204 50.29318465518018
4205 50.28416516594977
4206 50.29252978722048
4207 50.28300994091828
4208 50.29137618302337
4209 50.28168900267681
4210 50.29005852548983
4211 50.28048518203629
4212 50.2886687823633
4213 50.27949104978125
4214 50.28832581783428
4215 50.27963174749623
4216 50.28951520378853
4217 50.28112923727083
4218 50.2909025031682
4219 50.28225371593475
4220 50.2917634596444
4221 50.2835848314208
4222 50.29364874637389
4223 50.28611095254496
4224 50.29655005086835
4225 50.28874690823945
4226 50.2986386233836
4227 50.29044883574344
4228 50.29990522907231
4229 50.2912795515516
4230 50.30058525085245
4231 50.29188595628329
4232 50.30126696059519
4233 50.29216018414385
4234 50.3010407147444
4235 50.29182841307368
4236 50.30065161641247
4237 50.2904709158534
4238 50.29794396088566
4239 50.28781643763455
4240 50.29555730287508
4241 50.28522134790325
4242 50.29228993385611
4243 50.28163514159847
4244 50.28945064850022
4245 50.27987754668925
4246 50.2881590856724
4247 50.27933924079218
4248 50.2879822233465
4249 50.27909032139101
4250 50.28774647454442
4251 50.27896097527091
4252 50.28771767077173
4253 50.27937507066383
4254 50.28893696682776
4255 50.28114813440288
4256 50.29089853480109
4257 50.28377234447932
4258 50.29405177447756
4259 50.28692447995859
4260 50.29739908647957
4261 50.29028726716243
4262 50.30037746474533
4263 50.29201470534819
4264 50.30177673366439
4265 50.29354303954853
4266 50.30263198341022
4267 50.29386141564304
4268 50.30233904524758
4269 50.2926661115165
4270 50.30060631604213
4271 50.29080924859986
4272 50.29935144053565
4273 50.29016239585063
4274 50.2983559129464
4275 50.2884109535544
4276 50.29620944133251
4277 50.28620820053786
4278 50.29328848183115
4279 50.28292591050485
4280 50.29051764979149
4281 50.28013821070141
4282 50.28784047468501
4283 50.27739537395249
4284 50.28561489877299
4285 50.2761396244364
4286 50.28499122829767
4287 50.27683721569328
4288 50.2861143358729
4289 50.27836161181926
4290 50.28802324284207
4291 50.28062590608381
4292 50.29037333200711
4293 50.28248279585875
4294 50.29256599602292
4295 50.28464695834447
4296 50.29503325954752
4297 50.28727696726944
4298 50.29771338924335
4299 50.2898494297707
4300 50.29948552303756
4301 50.29141591296602
4302 50.30122960222213
4303 50.29277239190174
4304 50.30147608437105
4305 50.29219082770028
4306 50.29986762212647
4307 50.29018448833281
4308 50.29874259946916
4309 50.28934848017586
4310 50.29799900660437
4311 50.28912184822754
4312 50.2978965296348
4313 50.28924597376506
4314 50.29730849985734
4315 50.28752767694071
4316 50.29479224464829
4317 50.28434371086827
4318 50.2916811725792
4319 50.28211817806125
4320 50.29056072717172
4321 50.28159363789146
4322 50.29032400236313
4323 50.28194979845324
4324 50.29198248336394
4325 50.28377236032196
4326 50.29244108711132
4327 50.28350903861757
4328 50.29209580461741
4329 50.28316337032086
4330 50.29200660787478
4331 50.28356139187332
4332 50.29260170064631
4333 50.28399963711156
4334 50.29308520671332
4335 50.28428507855164
4336 50.29309593613651
4337 50.28380650871672
4338 50.29303611925352
4339 50.28400712670393
4340 50.29338928857293
4341 50.28489353122539
4342 50.29406659880571
4343 50.28548816625765
4344 50.29525252883143
4345 50.28725087597143
4346 50.29725015700567
4347 50.2891998182926
4348 50.29953147422587
4349 50.29111153879777
4350 50.30024150537582
4351 50.29070000858988
4352 50.29930973504662
4353 50.28910458714453
4354 50.29732497101718
4355 50.28646343730853
4356 50.29461865831556
4357 50.28366090095654
4358 50.29213720528984
4359 50.28230880457047
4360 50.29154745319791
4361 50.28167306810577
4362 50.29051200800934
4363 50.28077951962106
4364 50.28900546273395
4365 50.2786314232135
4366 50.28735292938806
4367 50.27815247089011
4368 50.28799149030156
4369 50.27896177341124
4370 50.28841761848243
4371 50.27969199094517
4372 50.28994620940931
4373 50.28201365658026
4374 50.29208804649164
4375 50.28421103791027
4376 50.29451857788591
4377 50.2873135432533
4378 50.29768221944376
4379 50.28988422902761
4380 50.29960835846457
4381 50.29121614868222
4382 50.300848324315
4383 50.29243457823864
4384 50.30155382016492
4385 50.29269095947661
4386 50.30141790466999
4387 50.29194301097714
4388 50.30053466600366
4389 50.29088935736825
4390 50.29935666863606
4391 50.28931458980298
4392 50.2969564952588
4393 50.28658510023538
4394 50.29405713062754
4395 50.28256333803108
4396 50.2891619391096
4397 50.27770317748147
4398 50.28496164768366
4399 50.27543683877219
4400 50.2845003573386
4401 50.27591386129794
4402 50.28545659533801
4403 50.27722150322816
4404 50.28769706464674
4405 50.27982414959308
4406 50.28984570662303
4407 50.28182886663298
4408 50.29252322553735
4409 50.28495063928486
4410 50.29487028319014
4411 50.28739876496463
4412 50.29751795374074
4413 50.28911525254269
4414 50.29858622919839
4415 50.29037305800716
4416 50.2998601057631
4417 50.291029598438
4418 50.29957592890445
4419 50.29067052807682
4420 50.29968308528263
4421 50.29089978723837
4422 50.29989174095484
4423 50.29068274165156
4424 50.29891777115021
4425 50.28926744706653
4426 50.29757110231546
4427 50.28812640298851
4428 50.29665318772439
4429 50.28692204068767
4430 50.29524592368642
4431 50.28575316442818
4432 50.2945982632877
4433 50.28537377306375
4434 50.2941515931455
4435 50.28489296834807
4436 50.29407525856745
4437 50.28504103082225
4438 50.2940978116424
4439 50.2844847455322
4440 50.29303916657433
4441 50.28305290741116
4442 50.29120766859628
4443 50.28104857185863
4444 50.28928456944949
4445 50.27960955131913
4446 50.28826496869539
4447 50.27926114523938
4448 50.28901039435917
4449 50.28065367752346
4450 50.2901376201041
4451 50.2824286211168
4452 50.29192382013388
4453 50.2843327245529
4454 50.29386273696757
4455 50.28634909857861
4456 50.29623968592063
4457 50.28889430771209
4458 50.29920960749668
4459 50.29171179486253
4460 50.30214469765377
4461 50.29467362565136
4462 50.30382810931061
4463 50.29489633831727
4464 50.30334247489876
4465 50.29431815326102
4466 50.30257680422518
4467 50.29297019277053
4468 50.30101793609987
4469 50.29136423276203
4470 50.29881575990957
4471 50.28827465168153
4472 50.29553585812949
4473 50.28502859428864
4474 50.29242155955365
4475 50.28182577767709
4476 50.28964215950805
4477 50.2794086794391
4478 50.28757246276808
4479 50.27762192507098
4480 50.28649844649356
4481 50.27708901391249
4482 50.28616908005328
4483 50.27695356403115
4484 50.28638966648371
4485 50.27809326223992
4486 50.28774042226059
4487 50.27934535564528
4488 50.28921489828394
4489 50.28099990102859
4490 50.29112885963843
4491 50.28346132260806
4492 50.29393212718068
4493 50.28656391025808
4494 50.29665990047943
4495 50.28914446495606
4496 50.29937140938785
4497 50.29201203251089
4498 50.3014392185727
4499 50.29349028245701
4500 50.30245764477565
4501 50.29377571287418
4502 50.30198360944136
4503 50.29292788798688
4504 50.30105882521291
4505 50.29156553574563
4506 50.29898128864151
4507 50.28849477392659
4508 50.29572654886197
4509 50.28578112162141
4510 50.29316793304644
4511 50.28322835660394
4512 50.29130982637873
4513 50.28172805473231
4514 50.29009157599202
4515 50.28108298138488
4516 50.2899119237877
4517 50.28124191848626
4518 50.28966514802114
4519 50.28047274514835
4520 50.28959420893986
4521 50.28139966183439
4522 50.29078059937397
4523 50.28295336089009
4524 50.29261956308632
4525 50.28480360065738
4526 50.29464342952379
4527 50.28669713825966
4528 50.29670913257593
4529 50.28834779441099
4530 50.29811185236838
4531 50.28961025299681
4532 50.29876646486077
4533 50.28937028518793
4534 50.29857259151528
4535 50.28999919111165
4536 50.29904174931023
4537 50.29017119878994
4538 50.29907956476004
4539 50.29041779039014
4540 50.29877049778255
4541 50.28934813446737
4542 50.29741557645703
4543 50.28869444449568
4544 50.29696749405861
4545 50.28750016860887
4546 50.2958286624013
4547 50.28709572572661
4548 50.29618999017885
4549 50.28746613643621
4550 50.29722078516124
4551 50.28904226666166
4552 50.2982999835007
4553 50.28879071652937
4554 50.29763417733518
4555 50.28841912040472
4556 50.29687584767844
4557 50.28683743636439
4558 50.29499000231458
4559 50.28525623802883
4560 50.29300133606905
4561 50.2827411925115
4562 50.29066416635031
4563 50.28115375994919
4564 50.28975701290306
4565 50.28060027678476
4566 50.28970879353252
4567 50.28118849974333
4568 50.2908620989635
4569 50.28296923268854
4570 50.29191947741066
4571 50.28323173332546
4572 50.29208043668132
4573 50.2832039868564
4574 50.29193660915271
4575 50.28384183693181
4576 50.29286471242566
4577 50.28442706066239
4578 50.29267003160038
4579 50.28421923635562
4580 50.29258910228501
4581 50.28415675241331
4582 50.29252179825191
4583 50.28430745088593
4584 50.2935084664165
4585 50.28466553700088
4586 50.29362742781649
4587 50.28476655161305
4588 50.29379265625722
4589 50.28484223876892
4590 50.29371974784592
4591 50.2847471628692
4592 50.29361030943931
4593 50.28467340178543
4594 50.29365424705549
4595 50.28485080304922
4596 50.29357973829401
4597 50.28481249688687
4598 50.29383295281391
4599 50.28499415647316
4600 50.29398554006367
4601 50.28495875708036
4602 50.2944341604913
4603 50.28598748806574
4604 50.29518138730811
4605 50.28666585280003
4606 50.29621956296932
4607 50.28798051932154
4608 50.29744783401596
4609 50.28912390980351
4610 50.29862649052906
4611 50.29035256451513
4612 50.29972460588608
4613 50.29116921879877
4614 50.30078950870652
4615 50.29272533219948
4616 50.30183012497042
4617 50.29238804259334
4618 50.30072570285073
4619 50.29114733939064
4620 50.29967157126391
4621 50.2896135204012
4622 50.29749453420696
4623 50.28704168267352
4624 50.29408196674518
4625 50.28320374923548
4626 50.28991927204243
4627 50.27937310023046
4628 50.28647011276534
4629 50.27671102414379
4630 50.28433748818401
4631 50.27528080398754
4632 50.28413282641424
4633 50.27559105468132
4634 50.28522341045846
4635 50.27792198509987
4636 50.28858672722718
4637 50.28139713508558
4638 50.29239717186277
4639 50.28550698815003
4640 50.29614393845169
4641 50.28879900578592
4642 50.29900694526764
4643 50.2914376911589
4644 50.3013414028241
4645 50.2932097940413
4646 50.30250062564664
4647 50.29451524326876
4648 50.3033994240233
4649 50.29492924467522
4650 50.30370967677467
4651 50.29482157895956
4652 50.30332742466429
4653 50.29413156943271
4654 50.30266508486439
4655 50.29312285535092
4656 50.30060130495824
4657 50.29030660948574
4658 50.29737164611777
4659 50.28715355649955
4660 50.29489552312916
4661 50.28427757114348
4662 50.29245540164133
4663 50.2822658525096
4664 50.29021490048025
4665 50.27946179830642
4666 50.28762511611898
4667 50.27752630233488
4668 50.28575660171686
4669 50.27572172638303
4670 50.28491855449417
4671 50.27616720658123
4672 50.2856188875768
4673 50.27677657419604
4674 50.28663353375099
4675 50.27887605416635
4676 50.28942315737599
4677 50.281076001263
4678 50.29141675057251
4679 50.28357003291922
4680 50.29381013470746
4681 50.28555212545972
4682 50.29620194294058
4683 50.28871260562885
4684 50.29939864637853
4685 50.29129361504577
4686 50.30097943980768
4687 50.29205905600596
4688 50.30096054094545
4689 50.29176834578924
4690 50.30029928211685
4691 50.29139275408758
4692 50.30135392528558
4693 50.29242611752703
4694 50.30164777213931
4695 50.29252466718479
4696 50.30178105617105
4697 50.2924726344891
4698 50.30095795857807
4699 50.29090055706276
4700 50.29882666504258
4701 50.28855803350605
4702 50.29623079902967
4703 50.28619770790201
4704 50.29378528002681
4705 50.28337146951764
4706 50.29119192337007
4707 50.28107343898871
4708 50.2887231791377
4709 50.27803254604166
4710 50.28591162032568
4711 50.27596575219722
4712 50.28436467095787
4713 50.27481433313427
4714 50.28407436814135
4715 50.27544297785425
4716 50.28459412340951
4717 50.27561036189109
4718 50.28531159460297
4719 50.27787896274121
4720 50.28857138794592
4721 50.28138683550021
4722 50.29275583040544
4723 50.28651423431661
4724 50.29748117418389
4725 50.29060657452046
4726 50.30217222360224
4727 50.29605731717965
4728 50.3070774983931
4729 50.29954313488432
4730 50.30887296969637
4731 50.30023108652597
4732 50.308879464858
4733 50.29905105216435
4734 50.30601423204135
4735 50.2957552729947
4736 50.30370781157201
4737 50.29323321891455
4738 50.30039303003122
4739 50.28937335513488
4740 50.29644232541199
4741 50.28516746770129
4742 50.2915018950964
4743 50.28065876921047
4744 50.28766595265905
4745 50.27647916731647
4746 50.28397708818808
4747 50.27385418743572
4748 50.28224830538659
4749 50.27226282653677
4750 50.28147221877889
4751 50.27272485310849
4752 50.2827524677907
4753 50.27434547466689
4754 50.28452335692887
4755 50.27652664170506
4756 50.28656313147369
4757 50.27854447262699
4758 50.28863819727469
4759 50.28100622446168
4760 50.29139220905179
4761 50.2834762215854
4762 50.29402335979833
4763 50.28625364187616
4764 50.29648674332404
4765 50.28819141405085
4766 50.29826746967355
4767 50.29043760127089
4768 50.30039916962808
4769 50.29240359948231
4770 50.30177618949055
4771 50.29329751181647
4772 50.30237456831077
4773 50.29375284360177
4774 50.30248076686783
4775 50.29362321855609
4776 50.3019625414852
4777 50.29241287773147
4778 50.30001879467245
4779 50.29038036219683
4780 50.29839005338062
4781 50.28876930012758
4782 50.2962407557186
4783 50.28641182535991
4784 50.29375424249218
4785 50.2833517954268
4786 50.29069871847568
4787 50.28118378812301
4788 50.2893954901655
4789 50.2800246266811
4790 50.28838176992912
4791 50.27940470914427
4792 50.28866018988602
4793 50.27920708914296
4794 50.28788727524833
4795 50.27859705217593
4796 50.2876243434988
4797 50.27869042204355
4798 50.28805081122543
4799 50.28058794758881
4800 50.29117929741998
4801 50.28374054552658
4802 50.29389356226101
4803 50.28608381820488
4804 50.29564456868285
4805 50.28721894032455
4806 50.2960458241612
4807 50.28764915253884
4808 50.29712461197209
4809 50.28874547825021
4810 50.29811095908298
4811 50.29010310630196
4812 50.29989995058152
4813 50.29192540380014
4814 50.30156938572445
4815 50.29358086792875
4816 50.30257416588384
4817 50.29369541436731
4818 50.3018715702238
4819 50.29183847061167
4820 50.29923353896062
4821 50.2889823046856
4822 50.29626774830869
4823 50.28606984720948
4824 50.29367773740795
4825 50.28324278831887
4826 50.2906385124594
4827 50.27990691700789
4828 50.28712673021295
4829 50.27677934519944
4830 50.28486592255752
4831 50.27563291947385
4832 50.28417191419637
4833 50.27538347477148
4834 50.2846172664418
4835 50.27691232283417
4836 50.28729995308208
4837 50.27974166124687
4838 50.29029734028246
4839 50.28309102605947
4840 50.2940504270077
4841 50.28724759766565
4842 50.29787269669877
4843 50.29076930939491
4844 50.30085329272286
4845 50.29286615111719
4846 50.30200081216221
4847 50.29396206391229
4848 50.30229507488303
4849 50.29273604713025
4850 50.30069865765573
4851 50.29110768222934
4852 50.29907467942758
4853 50.28860122086289
4854 50.29655791749333
4855 50.28650937198635
4856 50.29435916394561
4857 50.2847500405645
4858 50.29284011340151
4859 50.283382476977
4860 50.2917528725383
4861 50.28245153827724
4862 50.29087122286585
4863 50.2822222853308
4864 50.29106239013458
4865 50.28236619500588
4866 50.29128707669173
4867 50.28257886612715
4868 50.29226731215458
4869 50.28391613001832
4870 50.29378183048586
4871 50.28559667061207
4872 50.29561126518681
4873 50.28752627032169
4874 50.29723146445128
4875 50.28913451749121
4876 50.29933968536378
4877 50.29116175763755
4878 50.30101602200234
4879 50.29290051194878
4880 50.3026614801536
4881 50.29357122737591
4882 50.30223066511596
4883 50.29264073387807
4884 50.30090496513156
4885 50.29104027974218
4886 50.29913152148861
4887 50.28985435360773
4888 50.29820329193797
4889 50.28892200973088
4890 50.2977175307827
4891 50.28820633914189
4892 50.29579603020863
4893 50.2850773139314
4894 50.292507312545
4895 50.28229413814174
4896 50.2904585251237
4897 50.28020040308513
4898 50.288347412932
4899 50.2789353389423
4900 50.2875963118543
4901 50.27823133781487
4902 50.28750220266416
4903 50.27884865283438
4904 50.28870135212831
4905 50.28073298349558
4906 50.29028047918931
4907 50.2821793326431
4908 50.29211050019706
4909 50.28415615597629
4910 50.29403169956664
4911 50.28601483680612
4912 50.2955115855662
4913 50.28694325225085
4914 50.29577755576842
4915 50.28745507498525
4916 50.29644954953494
4917 50.28775158774565
4918 50.29637332688812
4919 50.28733235187838
4920 50.29594670867115
4921 50.28654823433123
4922 50.29568351940687
4923 50.28666376561381
4924 50.29617268098696
4925 50.28759580231533
4926 50.29685485301256
4927 50.28836271030995
4928 50.29757365106983
4929 50.28883393949573
4930 50.2978266649665
4931 50.28872686737745
4932 50.29688816819294
4933 50.28685339701347
4934 50.29452637757854
4935 50.28419899053426
4936 50.29199880193991
4937 50.28246105863197
4938 50.29062240095174
4939 50.28102655833066
4940 50.2893256505693
4941 50.27990314342681
4942 50.28812899588422
4943 50.27877208656058
4944 50.28784916296995
4945 50.27916194522216
4946 50.28876714690685
4947 50.28076138461107
4948 50.2913834898243
4949 50.28420325902412
4950 50.29404542169205
4951 50.28652400581793
4952 50.2964574336834
4953 50.28856527817342
4954 50.2976902986139
4955 50.289211146903
4956 50.29824477800443
4957 50.28930115734492
4958 50.29867656975546
4959 50.29105065793308
4960 50.3014510239714
4961 50.29375772627368
4962 50.30371405987394
4963 50.29539028491355
4964 50.30491573591441
4965 50.29559459365002
4966 50.30409806607998
4967 50.29461725635721
4968 50.30318909527529
4969 50.29291846622863
4970 50.30061111198678
4971 50.29017814147831
4972 50.29750475127298
4973 50.28645012259692
4974 50.29359925536549
4975 50.28323134140045
4976 50.29077000510873
4977 50.280879491912
4978 50.28873314203563
4979 50.27902431474914
4980 50.28704631022192
4981 50.27704636458566
4982 50.28518593155798
4983 50.27564163760233
4984 50.28450631285229
4985 50.27575511125987
4986 50.28532449096908
4987 50.27721615259233
4988 50.28731043701395
4989 50.28017196199438
4990 50.29036306735306
4991 50.28267493085539
4992 50.29250698433538
4993 50.28449091900915
4994 50.293752521042
4995 50.28551930648857
4996 50.29488345938792
4997 50.28686489311745
4998 50.29630612355127
4999 50.28842709869472
5000 50.29838595317775
5001 50.29001142194942
5002 50.29969717254043
5003 50.29125721435678
5004 50.30052250338343
5005 50.29149259430225
5006 50.30072585195045
5007 50.29179495351925
5008 50.30087630432843
5009 50.29141354343088
5010 50.29982194019835
5011 50.29025954419666
5012 50.29906169925248
5013 50.28956479359925
5014 50.2982218907377
5015 50.28897387209616
5016 50.29708611150335
5017 50.28738253384502
5018 50.29583664870431
5019 50.28596865163575
5020 50.29401056231787
5021 50.28404311537545
5022 50.29301090845198
5023 50.28404245449742
5024 50.29301172884364
5025 50.2836272709205
5026 50.2923514241727
5027 50.28288811406808
5028 50.2915765537278
5029 50.28187403980012
5030 50.29003170951509
5031 50.28023123208411
5032 50.28869015567732
5033 50.27974838063312
5034 50.28925434079631
5035 50.28049330593191
5036 50.29023648055515
5037 50.28168578481948
5038 50.29115529357867
5039 50.28259218375504
5040 50.29214535187209
5041 50.28399815132612
5042 50.29367068699968
5043 50.28597370675416
5044 50.29596561433038
5045 50.28818037970589
5046 50.29757679194852
5047 50.28934216489144
5048 50.29921248516266
5049 50.29076863143499
5050 50.29991551410297
5051 50.29095465687048
5052 50.29963790643379
5053 50.29000305598426
5054 50.29785725567703
5055 50.28772579420079
5056 50.29575413540187
5057 50.28560777150637
5058 50.29308202028029
5059 50.2827087128198
5060 50.2899576061109
5061 50.27942973217817
5062 50.28712725527713
5063 50.27789304705744
5064 50.28673404343513
5065 50.27823985611668
5066 50.28791757940678
5067 50.27986220540074
5068 50.28959461983883
5069 50.28139722259611
5070 50.29184583937006
5071 50.28378639308447
5072 50.29379254550479
5073 50.28503620178347
5074 50.29504991240221
5075 50.28727507900027
5076 50.29744414619437
5077 50.28926274415927
5078 50.29842075972661
5079 50.28963372968298
5080 50.29894798905763
5081 50.28954044479573
5082 50.2979937436075
5083 50.28801392877271
5084 50.29623849250736
5085 50.28636665754701
5086 50.2946797592063
5087 50.28547537594388
5088 50.29383850247295
5089 50.28377882204924
5090 50.29227606844479
5091 50.28262224325108
5092 50.29139303267919
5093 50.2817181431267
5094 50.29007593138846
5095 50.28032409294279
5096 50.28935158778826
5097 50.2806882101326
5098 50.2903749884153
5099 50.28212955803514
5100 50.29081576598988
5101 50.28241477369188
5102 50.2916847491746
5103 50.28352121809937
5104 50.29312620241564
5105 50.28534183743263
5106 50.29537973616797
5107 50.28715483040764
5108 50.29674761087031
5109 50.28841802414714
5110 50.29787986142014
5111 50.2889702046986
5112 50.29777460580836
5113 50.28896136117525
5114 50.29823552732526
5115 50.28988134195719
5116 50.29868177533428
5117 50.2893551751136
5118 50.29743521865689
5119 50.28754405777448
5120 50.2953281480665
5121 50.28560630873423
5122 50.29435496827588
5123 50.2859614006175
5124 50.29542103741461
5125 50.28639090162182
5126 50.29472288530085
5127 50.2852939273556
5128 50.29347306553927
5129 50.28423717187146
5130 50.29238942571008
5131 50.282882079704
5132 50.2913423409797
5133 50.28197559679227
5134 50.29042999134487
5135 50.28160070885833
5136 50.29084072378963
5137 50.28290071556673
5138 50.29175052601982
5139 50.28324834739966
5140 50.29263232715904
5141 50.28423862956437
5142 50.2935665348485
5143 50.2845477673791
5144 50.29437879956598
5145 50.28456571618857
5146 50.29331188411788
5147 50.28392522914734
5148 50.29364739662517
5149 50.284890299838
5150 50.29507882239788
5151 50.28696130968824
5152 50.29700069378927
5153 50.28807496153805
5154 50.29739634230044
5155 50.28873075943744
5156 50.29776307386654
5157 50.28910179089581
5158 50.29789297484929
5159 50.28899535342443
5160 50.29813060050708
5161 50.2886704930438
5162 50.29778846455502
5163 50.28854557126442
5164 50.297225206147
5165 50.28696340775111
5166 50.29428465470935
5167 50.2838242557911
5168 50.29118287487471
5169 50.28104833260992
5170 50.28908416249585
5171 50.27963010646383
5172 50.28747059571282
5173 50.27786595114135
5174 50.28544987796772
5175 50.27625275140336
5176 50.28420943742084
5177 50.27524308709779
5178 50.2839044203084
5179 50.275377165821
5180 50.28476477212463
5181 50.27719959600433
5182 50.28788399147478
5183 50.28174821734112
5184 50.29290419222379
5185 50.28610528850529
5186 50.2965719881375
5187 50.28896449457133
5188 50.29913660647121
5189 50.29173336914638
5190 50.3020669906339
5191 50.29460133780825
5192 50.30413141663686
5193 50.29599683344222
5194 50.30495109412887
5195 50.29595749131387
5196 50.30450312238265
5197 50.29505595189583
5198 50.30379283738194
5199 50.29470738819084
5200 50.30303517171977
5201 50.29368933421189
5202 50.30168944753618
5203 50.2916244587095
5204 50.29888502454699
5205 50.28802573022416
5206 50.29488057167219
5207 50.28390225966982
5208 50.29069715781015
5209 50.28013038922991
5210 50.28768155450837
5211 50.27819462255964
5212 50.28661235998079
5213 50.27741355489947
5214 50.28637147438778
5215 50.27706739650871
5216 50.28522478822144
5217 50.27551133824928
5218 50.28430197994693
5219 50.27545116974139
5220 50.28504803047134
5221 50.27644280451989
5222 50.28660339889294
5223 50.27920298416623
5224 50.29000809731984
5225 50.28265883470308
5226 50.29331223164088
5227 50.28622802899674
5228 50.29698222206436
5229 50.28977681227477
5230 50.29994874491861
5231 50.29220919951354
5232 50.30190794684587
5233 50.29357827292448
5234 50.30262647667649
5235 50.29351701208295
5236 50.30257952223711
5237 50.29343423474054
5238 50.30172011851411
5239 50.29234869166359
5240 50.30070290644591
5241 50.29137239827513
5242 50.29914908796308
5243 50.28991830147606
5244 50.2974459953973
5245 50.28811834271182
5246 50.29571061448885
5247 50.28622748499782
5248 50.29492527157159
5249 50.28550543348715
5250 50.29380639655008
5251 50.28411623848569
5252 50.29225893747646
5253 50.28194951981472
5254 50.28930423297547
5255 50.27971957827532
5256 50.28802989605967
5257 50.27888693018475
5258 50.28750897823528
5259 50.2788282516568
5260 50.28849854454167
5261 50.27987897707895
5262 50.28869978410009
5263 50.28003547724489
5264 50.28902870199976
5265 50.28027892694183
5266 50.2893550839381
5267 50.28129063872673
5268 50.29110938678797
5269 50.28368043675821
5270 50.29407984492104
5271 50.28702688817193
5272 50.2976314008407
5273 50.29051828042812
5274 50.30095484738771
5275 50.29331513782616
5276 50.30334418036002
5277 50.29462798009453
5278 50.30373113373778
5279 50.29454959616453
5280 50.30331759216119
5281 50.29384708303824
5282 50.30208397739484
5283 50.29232792631186
5284 50.3008421621855
5285 50.29061011003259
5286 50.29817555104138
5287 50.28727867132837
5288 50.29491669562147
5289 50.28413638584892
5290 50.29142237426982
