"y-rfile"
"Iteration" "y"
("Iteration" "y")
1 -3591.988429709078
2 -3392.280899802863
3 -2841.967303550642
4 -2454.949573295588
5 -2018.429448690506
6 -1669.827946746874
7 -1338.500739442878
8 -1069.062331837188
9 -781.0853260077365
10 -418.3070147301293
11 -134.3032203339734
12 204.7991775178157
13 375.4882732355037
14 539.7282654225818
15 571.95619524941
16 608.8816181911687
17 564.2140823972742
18 526.5643916373706
19 443.5708533496089
20 379.634247516981
21 257.9481753890268
22 169.9656202481472
23 55.64538546052302
24 -26.23929961544758
25 -115.606758316449
26 -154.1273267715363
27 -217.2479126417118
28 -228.7360593158506
29 -263.7843842074107
30 -253.7248200747611
31 -273.5676905123792
32 -254.1286028525018
33 -264.3729660275672
34 -240.1475089639409
35 -244.1146089615483
36 -215.0573267264489
37 -215.1382511001022
38 -186.5483920308891
39 -187.361711241314
40 -161.8933501368383
41 -164.5759205375214
42 -142.6047508180587
43 -147.2392021955663
44 -131.0687336061638
45 -137.5394091389219
46 -125.9050765152481
47 -132.5495729363648
48 -123.9366310397913
49 -129.8480233047674
50 -123.0138365783741
51 -128.5618038477548
52 -123.3835153085011
53 -128.7481315096664
54 -124.5227351065088
55 -129.5282597281941
56 -125.7525719145997
57 -130.1177562793144
58 -126.9228581962957
59 -130.449317375669
60 -127.7773714299863
61 -130.5131492919192
62 -128.0553343498102
63 -130.0656069900638
64 -127.7828223769228
65 -129.048751635137
66 -126.7762738665052
67 -127.3310935402192
68 -124.5390759803565
69 -124.5547896499107
70 -121.540037690035
71 -121.238151416862
72 -118.0394978307068
73 -117.5751091482995
74 -114.9507230595311
75 -114.2564333953053
76 -111.6197977605123
77 -111.3715388451799
78 -107.9623766796115
79 -107.5764469599477
80 -105.0420765086324
81 -104.4878732148142
82 -101.980048195697
83 -101.3366189422143
84 -98.89567437951501
85 -98.16140900215544
86 -95.80833325324619
87 -95.04730547094567
88 -92.79672955018998
89 -91.31602723729986
90 -89.2327463331377
91 -88.56039654956874
92 -86.63469530276342
93 -85.37701841153716
94 -83.62350293158676
95 -83.04836836136593
96 -81.43138820558681
97 -80.87018824237708
98 -79.36689837339662
99 -78.32521309457951
100 -76.9283912090886
101 -76.40828366399455
102 -75.07396489173078
103 -74.53839745840412
104 -72.7867922456241
105 -72.2687221873353
106 -71.04234268310756
107 -70.09305647829422
108 -68.90578918815339
109 -68.37313483195817
110 -66.78244100241255
111 -66.24332906984961
112 -64.70755086280758
113 -64.19803161380054
114 -62.7359021243127
115 -62.22425696857465
116 -61.19125705180971
117 -60.29565836808024
118 -59.29114597265544
119 -58.39406972982567
120 -57.41093704653724
121 -56.54220484158856
122 -55.58662113464709
123 -54.74774024961835
124 -53.82644608425755
125 -53.02684641367478
126 -52.12688351657306
127 -51.37221394694285
128 -50.50434454278218
129 -49.7751349449677
130 -48.94259186217215
131 -48.27748994671526
132 -47.47589699617038
133 -46.84997929320213
134 -46.08712163500542
135 -45.54079259559984
136 -44.80697038044264
137 -44.30450178038387
138 -43.60494237878601
139 -43.16936585533131
140 -42.52032177353857
141 -42.12162470289508
142 -41.49657294151058
143 -41.35658912888414
144 -40.60525582786573
145 -40.48498353165309
146 -39.94528208435753
147 -39.76027333155201
148 -39.25605147670694
149 -39.22879194273548
150 -38.64357158619862
151 -38.66241654815303
152 -38.24478928873111
153 -38.30682339470138
154 -37.84737355617426
155 -37.9500509769328
156 -37.61042476296245
157 -37.7433580312013
158 -37.44598825356229
159 -37.62007809574129
160 -37.35948413335018
161 -37.56204818243702
162 -37.32902681829773
163 -37.58354337455069
164 -37.39614676282616
165 -37.68207969120931
166 -37.53092045996937
167 -37.84350612744805
168 -37.73423728432999
169 -38.09352131680942
170 -38.01347346044565
171 -38.49696273609675
172 -38.43573196268994
173 -38.87030415899727
174 -38.83659219280855
175 -39.29516523638603
176 -39.29211568333898
177 -39.79044319986525
178 -39.9316146946681
179 -40.44751942952973
180 -40.48445100536782
181 -41.03482186617936
182 -41.09917091457851
183 -41.82722989035824
184 -41.89647323478692
185 -42.4688878477665
186 -42.7087696346
187 -43.2917273887947
188 -43.39060924962183
189 -43.99105345631318
190 -44.27904822008207
191 -44.87603534607109
192 -44.99161296738157
193 -45.60337476024472
194 -45.90642942492713
195 -46.50997121125363
196 -46.64014424457952
197 -47.44928845775252
198 -47.55720886247531
199 -48.16980496185863
200 -48.45764545445059
201 -49.06366174586316
202 -49.17122008829915
203 -49.76947813216935
204 -50.05129946466576
205 -50.64459002708384
206 -50.73940355234504
207 -51.33959863821156
208 -51.44975064954076
209 -52.21201378891277
210 -52.30044647609412
211 -52.87201986295736
212 -52.96363371742933
213 -53.51151961418157
214 -53.60902329300018
215 -54.15688181913453
216 -54.26559227498046
217 -54.80524170123846
218 -54.90674143970807
219 -55.43697744380137
220 -55.54174785414017
221 -56.05537296010186
222 -56.14639146165649
223 -56.65580571649787
224 -56.74152025625835
225 -57.23092460084814
226 -57.30828160074026
227 -57.78576491202045
228 -57.85216849884142
229 -58.31060836171912
230 -58.36498938026415
231 -58.80808163025091
232 -58.85563233244125
233 -59.28720677519522
234 -59.32034132267398
235 -59.7340147107451
236 -59.75979952622305
237 -60.16004257791519
238 -60.17079012966775
239 -60.55567385096532
240 -60.55780506609955
241 -60.9405852437547
242 -60.92779600484289
243 -61.29950499667126
244 -61.28208582302807
245 -61.64384384490478
246 -61.62035741240436
247 -61.97443664805661
248 -61.94334352627573
249 -62.29335500849339
250 -62.25722493867841
251 -62.59643214947107
252 -62.55490332435556
253 -62.88869358856442
254 -62.84556767136064
255 -63.17151641993979
256 -63.1303669912603
257 -63.45274904264988
258 -63.40986003250782
259 -63.726768228992
260 -63.68236319801912
261 -63.99493761736932
262 -63.95140252404519
263 -64.26152631877517
264 -64.21798530268177
265 -64.52720821373975
266 -64.48001179458777
267 -64.78923616475947
268 -64.74095280454111
269 -65.04449103384644
270 -64.99633370871214
271 -65.30048908972338
272 -65.25181097806836
273 -65.55304856296988
274 -65.49616188579233
275 -65.79530502932528
276 -65.73713093306549
277 -66.03345685258415
278 -65.97242992991556
279 -66.26672882770907
280 -66.21299987494638
281 -66.50805459282884
282 -66.44744255629433
283 -66.74206713150045
284 -66.6826170579227
285 -66.97370064431067
286 -66.90843032881298
287 -67.1926256990505
288 -67.13229809878396
289 -67.41303668141654
290 -67.35112609605864
291 -67.63150372315721
292 -67.57362343037829
293 -67.85438514709597
294 -67.79310452556831
295 -68.08133922297463
296 -68.02247984719304
297 -68.3042044990965
298 -68.23802213815617
299 -68.52177083262131
300 -68.46055742012697
301 -68.73769350902143
302 -68.67617091213566
303 -68.95171374190119
304 -68.89379604969338
305 -69.17118344270483
306 -69.10425258193271
307 -69.38270005144642
308 -69.32176342747687
309 -69.59835082977975
310 -69.53283522568324
311 -69.81019635957676
312 -69.74455193844256
313 -70.02351794158096
314 -69.95064127058725
315 -70.22779394988493
316 -70.15591024029618
317 -70.4322212216137
318 -70.3555964207888
319 -70.63203716389887
320 -70.56114547863183
321 -70.82751265291887
322 -70.75941045818018
323 -71.02949827622047
324 -70.96495591597738
325 -71.23464341386921
326 -71.16889691598607
327 -71.437476382912
328 -71.37428217420086
329 -71.64002348254155
330 -71.57014230881452
331 -71.83546716936723
332 -71.76956903616411
333 -72.03470119358303
334 -71.96906465688249
335 -72.22911680803526
336 -72.16791120135849
337 -72.42792069483744
338 -72.36029985093018
339 -72.61536563484674
340 -72.55050069034274
341 -72.80073714161847
342 -72.73346703414978
343 -72.99035316229401
344 -72.92216117351131
345 -73.17565982975981
346 -73.10276363468034
347 -73.35992499089878
348 -73.28622023191843
349 -73.53920688654966
350 -73.4624113178923
351 -73.70971389056251
352 -73.63933659051213
353 -73.88433790189009
354 -73.80955359884433
355 -74.05300323015996
356 -73.97617878233109
357 -74.21587151444322
358 -74.14273962563504
359 -74.38288628819737
360 -74.31152334009744
361 -74.55178736627732
362 -74.48035392789262
363 -74.71544400333511
364 -74.64229075263677
365 -74.8772469021032
366 -74.79839920883211
367 -75.03239289433174
368 -74.95299952840554
369 -75.18366797734041
370 -75.101900507869
371 -75.33626288535032
372 -75.25305802022564
373 -75.4827303490257
374 -75.39916265278646
375 -75.62884545629993
376 -75.545458979084
377 -75.77649559551003
378 -75.68287711200776
379 -75.91494871242287
380 -75.82176930548093
381 -76.05406157664379
382 -75.95699374150547
383 -76.18611314054084
384 -76.09094653355072
385 -76.32088948008061
386 -76.22660488848038
387 -76.45424580417762
388 -76.36247507925225
389 -76.58731365561988
390 -76.49347481980931
391 -76.7151133015289
392 -76.62301956924244
393 -76.84275827187975
394 -76.74806241455946
395 -76.96978200807422
396 -76.87384275131399
397 -77.09219957681273
398 -76.99371973172799
399 -77.21316349544315
400 -77.1125938699621
401 -77.33396266882187
402 -77.22396107083745
403 -77.44571227225191
404 -77.34044422403264
405 -77.55275119456979
406 -77.44725481023221
407 -77.65643422791743
408 -77.5532099244931
409 -77.76390579127235
410 -77.65997131313725
411 -77.8758045701681
412 -77.76819848415624
413 -77.97990056968473
414 -77.86801039639715
415 -78.07969277595498
416 -77.97356433300081
417 -78.1802879472155
418 -78.06835093805711
419 -78.27856891686497
420 -78.16633992237172
421 -78.37522837324309
422 -78.2610695944195
423 -78.47157635934371
424 -78.36230053039571
425 -78.57371646774067
426 -78.45964764633175
427 -78.66860335355727
428 -78.554394387358
429 -78.7598486693405
430 -78.64238455097956
431 -78.84208245517306
432 -78.72857152633156
433 -78.92905127534721
434 -78.81515917955272
435 -79.0161670158584
436 -78.90383678005179
437 -79.09725074777714
438 -78.97972361243592
439 -79.17604424982886
440 -79.05738999501676
441 -79.25352460631558
442 -79.13567348591749
443 -79.33009534744434
444 -79.21254474403366
445 -79.40669506520436
446 -79.28851912830504
447 -79.47768872003252
448 -79.36213828158162
449 -79.55183721967268
450 -79.43146555837586
451 -79.62313310860065
452 -79.50779634829479
453 -79.70081137367941
454 -79.58239167815611
455 -79.77468921464435
456 -79.65359876944962
457 -79.84272222312649
458 -79.71858767915921
459 -79.90729669377072
460 -79.78413062759284
461 -79.96867155834275
462 -79.8440273955157
463 -80.03186983981641
464 -79.90695769636051
465 -80.09039814987347
466 -79.96054619332688
467 -80.14766463606117
468 -80.01813443186433
469 -80.20600887205376
470 -80.07491548257963
471 -80.26163346552676
472 -80.13214676791415
473 -80.32300871026979
474 -80.18929542944988
475 -80.38406716988612
476 -80.25301916054462
477 -80.44444138760076
478 -80.31180179048152
479 -80.50051998573139
480 -80.36822462742145
481 -80.55704423122376
482 -80.42254784341497
483 -80.61024620427747
484 -80.47173979356137
485 -80.66315804094779
486 -80.5216563107852
487 -80.70962512608088
488 -80.569432458265
489 -80.75715783262746
490 -80.61462280830784
491 -80.80292703203963
492 -80.65674445813841
493 -80.84115997147933
494 -80.69592477942729
495 -80.88467678127245
496 -80.73935134592608
497 -80.92563799302417
498 -80.77892189415337
499 -80.96961088427355
500 -80.82446461559095
501 -81.0096416170054
502 -80.86540621429202
503 -81.04647083336096
504 -80.90631873238164
505 -81.08184174399787
506 -80.94501381697688
507 -81.11977722281244
508 -80.98597670670102
509 -81.16756396052597
510 -81.02959213616458
511 -81.20964344042932
512 -81.07203525253669
513 -81.25621023855786
514 -81.11391605630183
515 -81.30115496563604
516 -81.15462348390901
517 -81.33873948013508
518 -81.19140206017755
519 -81.37421785306901
520 -81.23110029106277
521 -81.40967054816451
522 -81.26204856459975
523 -81.44519302830014
524 -81.29915797202506
525 -81.47681339269241
526 -81.32399477937207
527 -81.50402912655363
528 -81.35397878772386
529 -81.53696865407034
530 -81.38252400071167
531 -81.56274145000111
532 -81.4116977751591
533 -81.59553004373129
534 -81.4396022011021
535 -81.62064841488296
536 -81.47248583855338
537 -81.6530571250953
538 -81.50042714406987
539 -81.68772454906872
540 -81.5324678234274
541 -81.71644557650126
542 -81.55901048704396
543 -81.7439070778579
544 -81.59001103549082
545 -81.76863046550284
546 -81.61545978861074
547 -81.7948481011839
548 -81.64471489842651
549 -81.82241397796173
550 -81.66941115778639
551 -81.84825775926436
552 -81.69631518550995
553 -81.87387504621728
554 -81.71850412916825
555 -81.89955120541288
556 -81.74739910552086
557 -81.92827984651416
558 -81.76882067141992
559 -81.95633462485119
560 -81.79882819546538
561 -81.98256011255529
562 -81.82011713107624
563 -82.00262866979978
564 -81.84701985700411
565 -82.02589043761998
566 -81.86950706458788
567 -82.04639058694136
568 -81.89472764321954
569 -82.0701488057984
570 -81.91656334428257
571 -82.089005375863
572 -81.93879294074804
573 -82.10599160785529
574 -81.95766736655713
575 -82.11962410024483
576 -81.97519137882057
577 -82.13477175074706
578 -81.99134019696794
579 -82.15379338575855
580 -82.01072572949977
581 -82.17543268565987
582 -82.02711568788601
583 -82.19693095466073
584 -82.0445796397475
585 -82.2160303132012
586 -82.05840551830528
587 -82.23341448234174
588 -82.07633189806103
589 -82.25290263234649
590 -82.09581329481489
591 -82.26722527135405
592 -82.11632839506376
593 -82.29047209313666
594 -82.13877289892577
595 -82.31260929761083
596 -82.15817602133762
597 -82.33431595808196
598 -82.18277299174184
599 -82.3578492271173
600 -82.20032312894278
601 -82.37662758790049
602 -82.21967964542637
603 -82.39299031574808
604 -82.23587308925931
605 -82.40822352803372
606 -82.24705849436009
607 -82.42148909913277
608 -82.26211231612479
609 -82.43359923138593
610 -82.27297904897983
611 -82.44687080192807
612 -82.2861343885732
613 -82.45969900176311
614 -82.29204110167535
615 -82.46341275718413
616 -82.29764095480169
617 -82.47044100885898
618 -82.30273401501353
619 -82.47617235774464
620 -82.31518725108799
621 -82.48871661611923
622 -82.32890470759605
623 -82.50438931054174
624 -82.34369501653788
625 -82.5209818613128
626 -82.35874090926779
627 -82.53571175342609
628 -82.37150297633013
629 -82.55480288305614
630 -82.38716570689439
631 -82.56588838278492
632 -82.4025571474034
633 -82.57843495841894
634 -82.42010156385271
635 -82.59439027290381
636 -82.43461522607282
637 -82.61104958713594
638 -82.45231029267882
639 -82.62548633643001
640 -82.46575737333512
641 -82.63845487289518
642 -82.47359426679128
643 -82.64266277593254
644 -82.48551828054406
645 -82.64850150135447
646 -82.49637728277355
647 -82.65556594874704
648 -82.5065884134321
649 -82.66602414148588
650 -82.51544713130113
651 -82.6739466322216
652 -82.52148929624758
653 -82.68503684310809
654 -82.5253683194432
655 -82.69452304272414
656 -82.53257591854498
657 -82.70774906718975
658 -82.54341871490146
659 -82.71473763760883
660 -82.55068167640513
661 -82.71892587664132
662 -82.55347930850371
663 -82.72478958355646
664 -82.5615426617556
665 -82.73817589220283
666 -82.56944383874264
667 -82.74687005480411
668 -82.58236859771677
669 -82.75597391732816
670 -82.59331803113747
671 -82.76720136493714
672 -82.60686854898836
673 -82.77767910299144
674 -82.61277138927272
675 -82.78451026212389
676 -82.62240336040526
677 -82.79442488065189
678 -82.63178557561713
679 -82.80192549164258
680 -82.64400482979113
681 -82.81172893621647
682 -82.65534062810036
683 -82.8202950899589
684 -82.66359110178252
685 -82.83509345408407
686 -82.67482664666113
687 -82.84236737027533
688 -82.68215329117015
689 -82.84617569194245
690 -82.68357242591924
691 -82.84701264113778
692 -82.68411512221172
693 -82.85395700521735
694 -82.68694491018613
695 -82.86061054537322
696 -82.69064264509683
697 -82.86533804882458
698 -82.69376994537726
699 -82.86945953395468
700 -82.69462313583892
701 -82.87027124235357
702 -82.69653586831026
703 -82.86933490664234
704 -82.70080550022442
705 -82.87475611442841
706 -82.70865191634601
707 -82.87647559228691
708 -82.71419916017317
709 -82.88798227100216
710 -82.72767940722525
711 -82.89977113261915
712 -82.73937373310946
713 -82.91341025698398
714 -82.7517580248724
715 -82.91808518604307
716 -82.76313255992545
717 -82.92965791095645
718 -82.77410608095073
719 -82.93748782722179
720 -82.78024290049552
721 -82.94450523749839
722 -82.78607729433804
723 -82.94426635833179
724 -82.79254000870844
725 -82.95246096220649
726 -82.79340722855954
727 -82.95344661562564
728 -82.79469858190942
729 -82.95625438785476
730 -82.79472909497287
731 -82.95403814801921
732 -82.79327390882241
733 -82.9591330984091
734 -82.79248944187128
735 -82.95466117650682
736 -82.7966627314309
737 -82.96203966678985
738 -82.79703689085625
739 -82.96553211356076
740 -82.80038803642117
741 -82.96815545600481
742 -82.80707619817946
743 -82.97682046714959
744 -82.81547349131546
745 -82.98691909057703
746 -82.82163491725834
747 -82.98892571869624
748 -82.83050338328798
749 -82.99941945564615
750 -82.83422015233884
751 -83.00503721361474
752 -82.84237347864405
753 -83.0091713416503
754 -82.84247560746115
755 -83.01344461403397
756 -82.84420937562112
757 -83.01691100198394
758 -82.8492251267707
759 -83.02440844827083
760 -82.85789740158987
761 -83.02627057673766
762 -82.86260429501431
763 -83.03205049066383
764 -82.86590160719123
765 -83.03213716589471
766 -82.8638925087613
767 -83.02955776596866
768 -82.86509847280507
769 -83.0323206657514
770 -82.86409739274814
771 -83.03173744517022
772 -82.86854853557128
773 -83.03731367927969
774 -82.87186615272645
775 -83.04036639455694
776 -82.87907736478348
777 -83.04279735672179
778 -82.88059933149287
779 -83.04712620001527
780 -82.88282500343888
781 -83.04510565631091
782 -82.87855768535161
783 -83.04697400661797
784 -82.88449789781487
785 -83.04908370341718
786 -82.88552922452595
787 -83.05039261960678
788 -82.89130544993276
789 -83.0548116957558
790 -82.8905137322306
791 -83.05412477425591
792 -82.89082028671282
793 -83.05770373040502
794 -82.89604518839934
795 -83.06134272457518
796 -82.90031489884711
797 -83.06751185637631
798 -82.90239469335739
799 -83.07070958351215
800 -82.90548525420513
801 -83.0752864513089
802 -82.90865431985821
803 -83.08349143232243
804 -82.91764068945952
805 -83.0886276775571
806 -82.91877033548207
807 -83.08562006895721
808 -82.9198583475906
809 -83.08563776514472
810 -82.91969500853503
811 -83.08689490128364
812 -82.92251511674453
813 -83.08705930375896
814 -82.92177778454914
815 -83.08351550598582
816 -82.92258669470442
817 -83.08767699331747
818 -82.92386935357661
819 -83.07945848723148
820 -82.91749194485686
821 -83.08223874928836
822 -82.91631402934428
823 -83.08063864487337
824 -82.91656942818389
825 -83.09016791959584
826 -82.92450895067861
827 -83.09474397759675
828 -82.92594612608121
829 -83.10165598025048
830 -82.93203337903952
831 -83.10397466597573
832 -82.9351112869129
833 -83.11022479264579
834 -82.9396179254498
835 -83.11416966729428
836 -82.94325042739536
837 -83.12018502981078
838 -82.95248867407054
839 -83.11928723476791
840 -82.95539833212405
841 -83.11899354163228
842 -82.95410219792859
843 -83.11484485353952
844 -82.94977287427162
845 -83.11482050551263
846 -82.95238116160442
847 -83.11208126290126
848 -82.94871211471207
849 -83.11245635223446
850 -82.94716644665601
851 -83.10446185469516
852 -82.94583860697782
853 -83.10937210691179
854 -82.94513384530006
855 -83.10834945141113
856 -82.94973284684255
857 -83.11345575258741
858 -82.9542291429957
859 -83.11665316347433
860 -82.95649236895019
861 -83.12307841365197
862 -82.96017400100999
863 -83.12387204505569
864 -82.95629268777509
865 -83.12590171294704
866 -82.95964839555393
867 -83.12845944363738
868 -82.96366448100019
869 -83.13612895049471
870 -82.96528480046322
871 -83.14004612052128
872 -82.96704926771139
873 -83.13713270273445
874 -82.9622492241482
875 -83.13250959640777
876 -82.95611086183447
877 -83.13165722177223
878 -82.9575180749971
879 -83.13236122445016
880 -82.96332745503616
881 -83.13801339480801
882 -82.96835566991746
883 -83.13819892297903
884 -82.97340140701743
885 -83.1402702129501
886 -82.97260750602305
887 -83.14017006408466
888 -82.97507044176695
889 -83.13979563075281
890 -82.97416700719606
891 -83.14030782645762
892 -82.97422266725135
893 -83.14510636521413
894 -82.97705992298825
895 -83.15211244941605
896 -82.98497638888279
897 -83.15481441558984
898 -82.98962538886718
899 -83.15572477361775
900 -82.99040095843782
901 -83.15353444165038
902 -82.98596138697002
903 -83.1488035983536
904 -82.98346339341987
905 -83.15402172567099
906 -82.9852092843642
907 -83.15008271425063
908 -82.98666713760815
909 -83.15285505167799
910 -82.9882097194922
911 -83.15458425759027
912 -82.98600775619019
913 -83.15861744400098
914 -82.98929613153848
915 -83.16248442819784
916 -82.99037273185678
917 -83.16536029229007
918 -82.99268903643809
919 -83.16745209547207
920 -82.9989455897167
921 -83.17354661890755
922 -83.00091753193465
923 -83.16703895921847
924 -83.00049116425805
925 -83.17044330795966
926 -83.00086039827164
927 -83.16371197943238
928 -82.99710840089313
929 -83.16838345259094
930 -82.99494895829889
931 -83.16241572440248
932 -82.99064987107022
933 -83.16173159546793
934 -82.99081960054104
935 -83.1585771409446
936 -82.992096954695
937 -83.1666247550973
938 -82.99433458063271
939 -83.16562037948717
940 -82.99392205715418
941 -83.16924912253563
942 -82.99804129401008
943 -83.16692883391272
944 -82.99846037417331
945 -83.17308054831148
946 -83.00360922544041
947 -83.17419813938096
948 -83.00321025773593
949 -83.1811522841918
950 -83.0076831563656
951 -83.17631122808558
952 -83.00625860321816
953 -83.18202799362058
954 -83.00689538472557
955 -83.17228601941594
956 -83.00586274144484
957 -83.17763464362497
958 -83.00375824914539
959 -83.17904204930755
960 -83.00213719487391
961 -83.17797770475772
962 -83.00064693352135
963 -83.17137764122089
964 -82.99681414828916
965 -83.16594050930485
966 -82.99260952865126
967 -83.16177668497983
968 -82.99559719784583
969 -83.16687330013337
970 -82.99989879133159
971 -83.16331652629611
972 -83.00377578308002
973 -83.16822297369299
974 -83.00892213706015
975 -83.16941785750799
976 -83.00764387315235
977 -83.17477183308824
978 -83.01068788668852
979 -83.18083044459308
980 -83.01618550613694
981 -83.18399932961563
982 -83.01792765576465
983 -83.18576253810812
984 -83.01964168169087
985 -83.18389395034956
986 -83.01689681744125
987 -83.18044756340214
988 -83.01537026955418
989 -83.1840200502952
990 -83.01065408910125
991 -83.18112144871992
992 -83.00986160514486
993 -83.1770720148408
994 -83.00415473921316
995 -83.16887965184083
996 -82.99860088694942
997 -83.17005473347245
998 -82.99942405207167
999 -83.16958878633034
1000 -82.99914276078835
1001 -83.16977182658133
1002 -82.99820209304625
1003 -83.17064788265571
1004 -82.99923430271667
1005 -83.17312226094032
1006 -82.99951418254102
1007 -83.17023788842096
1008 -83.00549068586287
1009 -83.1757227910378
1010 -83.00717016462966
1011 -83.17501228950908
1012 -83.00796799498124
1013 -83.17764628495127
1014 -83.00375639778161
1015 -83.1746808775336
1016 -83.00375789729509
1017 -83.1785598834162
1018 -83.00320457859107
1019 -83.17456927303294
1020 -82.99997087714451
1021 -83.17470635857171
1022 -83.00026341890822
1023 -83.17578322858463
1024 -83.00431883485766
1025 -83.17654270620761
1026 -83.00734970459621
1027 -83.17685067623955
1028 -83.01046772603263
1029 -83.17424259002735
1030 -83.00933094146689
1031 -83.17027242125619
1032 -83.01048680242349
1033 -83.16820389331014
1034 -83.01049958845374
1035 -83.1707596683267
1036 -83.0088752522006
1037 -83.17133414071867
1038 -83.00453631387057
1039 -83.16705093137284
1040 -83.00339153619205
1041 -83.17002716249129
1042 -83.00325048327761
1043 -83.16831810136557
1044 -83.00579525533027
1045 -83.17256821476849
1046 -83.00176774407373
1047 -83.17300326024662
1048 -83.00198590662814
1049 -83.17334490890408
1050 -82.99906209768426
1051 -83.16795110476147
1052 -82.9996731862268
1053 -83.17025324731873
1054 -83.00050120088264
1055 -83.16892085669241
1056 -83.00315587553916
1057 -83.17090360830662
1058 -83.00784060108299
1059 -83.16721661082397
1060 -83.00971591692695
1061 -83.17516871537333
1062 -83.01154178772867
1063 -83.1773979190055
1064 -83.01590871381035
1065 -83.18375195363262
1066 -83.01770731802253
1067 -83.18331923723525
1068 -83.01740385380344
1069 -83.18520044377476
1070 -83.01404241745053
1071 -83.18055843304984
1072 -83.01213002262443
1073 -83.17796813187192
1074 -83.00838443584536
1075 -83.17432728529286
1076 -83.00658110436467
1077 -83.1694787943722
1078 -83.00108539658294
1079 -83.16224019825802
1080 -82.99848293189302
1081 -83.16396235124023
1082 -82.99938255602802
1083 -83.16126110029137
1084 -82.99926588925376
1085 -83.16791143578786
1086 -82.99982232362072
1087 -83.16971292674589
1088 -83.00325117258717
1089 -83.17539570753252
1090 -83.00254107010352
1091 -83.17583728403844
1092 -83.00616925289154
1093 -83.17663803891293
1094 -83.01077776771979
1095 -83.18033163437428
1096 -83.01483899578977
1097 -83.18536084450164
1098 -83.02193242454427
1099 -83.18782820591179
1100 -83.02609590875784
1101 -83.19122672030693
1102 -83.02651902495268
1103 -83.18523320044386
1104 -83.02087031883428
1105 -83.18779911911759
1106 -83.01963707048463
1107 -83.17902054197145
1108 -83.01641835313973
1109 -83.18364313064416
1110 -83.01585986070376
1111 -83.18322430572454
1112 -83.01468717731188
1113 -83.18132084633436
1114 -83.01247312275103
1115 -83.18192375445221
1116 -83.01108198067675
1117 -83.1838665927487
1118 -83.00483126363548
1119 -83.17935412569176
1120 -83.00789280827235
1121 -83.18618145451683
1122 -83.01342260968346
1123 -83.18723188646237
1124 -83.0161393730553
1125 -83.18914115202909
1126 -83.01373215134663
1127 -83.17805405098267
1128 -83.00967780054839
1129 -83.1795611276039
1130 -83.01021637910628
1131 -83.18274235695219
1132 -83.01739589278003
1133 -83.18781874538331
1134 -83.02078410241779
1135 -83.19150971331129
1136 -83.0258582118077
1137 -83.19026936953736
1138 -83.02644224735423
1139 -83.1878399885577
1140 -83.02682367699532
1141 -83.18744912168478
1142 -83.02323995609078
1143 -83.18754800226037
1144 -83.02446292666338
1145 -83.18729622161521
1146 -83.02206366929329
1147 -83.18851455748035
1148 -83.02743558180106
1149 -83.19564049485194
1150 -83.02850218538657
1151 -83.19371263380276
1152 -83.03010277844345
1153 -83.19198395377236
1154 -83.02733044405068
1155 -83.18859196215004
1156 -83.02498075515774
1157 -83.19156455553792
1158 -83.02522171074526
1159 -83.19438103753015
1160 -83.02489806681405
1161 -83.19128266405386
1162 -83.02262205493088
1163 -83.18098934660856
1164 -83.01679611917064
1165 -83.17701345360297
1166 -83.01123621399245
1167 -83.16746249003427
1168 -83.00875352845469
1169 -83.17140866655706
1170 -83.01005437855667
1171 -83.17132869034174
1172 -83.01393429906221
1173 -83.17766669744901
1174 -83.01563199479244
1175 -83.18153693068831
1176 -83.01922091137021
1177 -83.18785156469056
1178 -83.01991631799893
1179 -83.18727790211852
1180 -83.02369735684283
1181 -83.19413765994994
1182 -83.02409088910366
1183 -83.19737224903372
1184 -83.02792074991123
1185 -83.1991348853212
1186 -83.02813079340103
1187 -83.20035537789153
1188 -83.02921609277752
1189 -83.19987986682469
1190 -83.02672299256625
1191 -83.19124805895478
1192 -83.02285230570124
1193 -83.18481921537574
1194 -83.01665515198459
1195 -83.17935823208461
1196 -83.01852902071562
1197 -83.18123940433304
1198 -83.01698185412266
1199 -83.17764019129373
1200 -83.01535571216198
1201 -83.18142213017813
1202 -83.01614369664941
1203 -83.18121620038062
1204 -83.01863558755826
1205 -83.18019388202049
1206 -83.01507075800583
1207 -83.17873843180047
1208 -83.02074055493256
1209 -83.18031945387207
1210 -83.02144987925698
1211 -83.18427383456691
1212 -83.02371420240894
1213 -83.18535771831671
1214 -83.0202166996616
1215 -83.18520420444008
1216 -83.02554067893243
1217 -83.18824157678
1218 -83.02281347564235
1219 -83.18638828609215
1220 -83.01905005451385
1221 -83.18764759191561
1222 -83.01632373606429
1223 -83.18406132859803
1224 -83.01637340337442
1225 -83.1848736538073
1226 -83.01719924241405
1227 -83.18862561771039
1228 -83.01855947953885
1229 -83.18888841455424
1230 -83.0086026620624
1231 -83.18745189555017
1232 -83.01117968194018
1233 -83.18812318079887
1234 -83.0067786563564
1235 -83.18404031509618
1236 -83.01011781390849
1237 -83.18538548762422
1238 -83.01043515046814
1239 -83.18615716469697
1240 -83.01356887631192
1241 -83.18593004290256
1242 -83.01131115192157
1243 -83.18191653363039
1244 -83.01227269704316
1245 -83.18100887612729
1246 -83.00960527126801
1247 -83.18115178702658
1248 -83.01047696521476
1249 -83.18022044942938
1250 -83.00978466781987
1251 -83.18190175344057
1252 -83.01048889794697
1253 -83.18006495019353
1254 -83.00870203267061
1255 -83.18139825764206
1256 -83.00760816836191
1257 -83.17821239374041
1258 -83.00636597742528
1259 -83.1765459972508
1260 -83.00653862989799
1261 -83.18291266140221
1262 -83.0098629296898
1263 -83.18252686665261
1264 -83.01140922005555
1265 -83.18632729760043
1266 -83.01195191868925
1267 -83.18618976465018
1268 -83.01760641209245
1269 -83.18829788233717
1270 -83.02043621395342
1271 -83.18601709050148
1272 -83.02145115976447
1273 -83.18934036690285
1274 -83.02068142361662
1275 -83.19081488259104
1276 -83.02393981039558
1277 -83.19225243828231
1278 -83.0221742052031
1279 -83.18921317360872
1280 -83.02132329064483
1281 -83.1907116317866
1282 -83.01601440329881
1283 -83.18070696515991
1284 -83.0097021817873
1285 -83.18101412497015
1286 -83.01018587590966
1287 -83.17992243618204
1288 -83.01760319097889
1289 -83.1848736581677
1290 -83.0165111706084
1291 -83.18133222805108
1292 -83.01828620220999
1293 -83.18810492710611
1294 -83.0230542050943
1295 -83.18968952419596
1296 -83.02665667905649
1297 -83.19586579228422
1298 -83.02905615316666
1299 -83.19793784571306
1300 -83.03297961397971
1301 -83.19874380260671
1302 -83.02909533234498
1303 -83.19795088081321
1304 -83.02632027375756
1305 -83.19729935477181
1306 -83.02302957292693
1307 -83.19713912144738
1308 -83.02054801423355
1309 -83.19390589116637
1310 -83.01139735946134
1311 -83.18844886004831
1312 -83.00946641791495
1313 -83.18505637335812
1314 -83.00545327553994
1315 -83.18441586167671
1316 -83.01076197532865
1317 -83.18655946683975
1318 -83.01456949637566
1319 -83.18696592873727
1320 -83.01811980436577
1321 -83.18901609092501
1322 -83.01942809919694
1323 -83.18731768051089
1324 -83.02382690160061
1325 -83.19327971019993
1326 -83.02576364428177
1327 -83.19454135384456
1328 -83.03258894146666
1329 -83.20028484519543
1330 -83.03557149720291
1331 -83.19749718069284
1332 -83.03531368242091
1333 -83.19853909962683
1334 -83.03231807914796
1335 -83.19754744790924
1336 -83.03414910464022
1337 -83.19496143596274
1338 -83.02677524586431
1339 -83.18795442208989
1340 -83.0276699425998
1341 -83.18617912367409
1342 -83.02008977174847
1343 -83.17891203756272
1344 -83.01834735190067
1345 -83.18271189771201
1346 -83.01664724966827
1347 -83.18550609726111
1348 -83.02089427228015
1349 -83.18661441880272
1350 -83.01682322962108
1351 -83.18439561635745
1352 -83.02067683179337
1353 -83.18645373660024
1354 -83.02017478701111
1355 -83.18505117505578
1356 -83.01667973270048
1357 -83.18980988083354
1358 -83.01769430571181
1359 -83.18596930549575
1360 -83.01970591539418
1361 -83.19170137706595
1362 -83.01940956827582
1363 -83.19451044428649
1364 -83.02291159054596
1365 -83.19292307604655
1366 -83.02220792516391
1367 -83.19326165628291
1368 -83.02409214830186
1369 -83.19468685034707
1370 -83.0215361677482
1371 -83.19377996095267
1372 -83.02427962924929
1373 -83.19112284482537
1374 -83.0188595735342
1375 -83.18784900038713
1376 -83.01832919278775
1377 -83.18872304634795
1378 -83.01616634368008
1379 -83.18618500596881
1380 -83.01708418151395
1381 -83.19282491434473
1382 -83.01730254894795
1383 -83.18564086240713
1384 -83.01899268177323
1385 -83.18742360609451
1386 -83.01739937508245
1387 -83.18183065856823
1388 -83.01674504220938
1389 -83.1817965536834
1390 -83.01702442897101
1391 -83.1780446707794
1392 -83.01330051278757
1393 -83.17585562899575
1394 -83.01037747253997
1395 -83.1761701410872
1396 -83.00847064573765
1397 -83.17468347892265
1398 -83.00156324063414
1399 -83.17020808556941
1400 -83.0007843091214
1401 -83.17427310802219
1402 -83.00147760958055
1403 -83.17578028850016
1404 -83.00274250031072
1405 -83.18101550875582
1406 -83.0116861785404
1407 -83.18526772938679
1408 -83.01458469904497
1409 -83.18726951142327
1410 -83.0207819874181
1411 -83.19055985070236
1412 -83.02333077915318
1413 -83.19173378748127
1414 -83.02286942382142
1415 -83.19109532579762
1416 -83.02622423976567
1417 -83.19280267983703
1418 -83.02305071420494
1419 -83.18636495625731
1420 -83.01884739866784
1421 -83.18603975069954
1422 -83.00894525645072
1423 -83.17751968621855
1424 -83.00422921601563
1425 -83.17225240899688
1426 -82.9972203243284
1427 -83.16677206112774
1428 -82.9964278232805
1429 -83.16849353169755
1430 -82.99718493028826
1431 -83.1662986532744
1432 -83.00211913665356
1433 -83.1676249052847
1434 -82.99591137391997
1435 -83.16874733599042
1436 -83.00273254837418
1437 -83.17918777043781
1438 -83.00732860008247
1439 -83.18264400952495
1440 -83.01044018745728
1441 -83.18848022279906
1442 -83.00994868443161
1443 -83.1872388700321
1444 -83.01537704867616
1445 -83.19176668252356
1446 -83.01617210105701
1447 -83.19315439980761
1448 -83.01710408150166
1449 -83.18974609583398
1450 -83.01265653199664
1451 -83.19066513076137
1452 -83.01725675993345
1453 -83.19146927265143
1454 -83.01419533914287
1455 -83.18869656937801
1456 -83.01756857244669
1457 -83.18674279755777
1458 -83.01396240473491
1459 -83.18151998831877
1460 -83.01367358434129
1461 -83.18098771115012
1462 -83.01531383172534
1463 -83.18050169035092
1464 -83.01625040224798
1465 -83.1795030009186
1466 -83.0135409467631
1467 -83.17498124532779
1468 -83.00951354474216
1469 -83.17767852293559
1470 -83.01099174188522
1471 -83.1757672425515
1472 -83.01382089602038
1473 -83.18382729292972
1474 -83.01758713465438
1475 -83.18812181842515
1476 -83.01703262046664
1477 -83.18978423739918
1478 -83.02057293200232
1479 -83.19303551199181
1480 -83.0249970616776
1481 -83.1939203633039
1482 -83.0218727574433
1483 -83.19036096848839
1484 -83.01996061710577
1485 -83.18843360345056
1486 -83.01534875990683
1487 -83.18150208962641
1488 -83.01397633539932
1489 -83.18146331559439
1490 -83.01372972377885
1491 -83.18108793122099
1492 -83.01629207979278
1493 -83.18319181488482
1494 -83.01387304325374
1495 -83.18353837587256
1496 -83.01516681262422
1497 -83.18891124319003
1498 -83.01909457764015
1499 -83.18472361192352
1500 -83.02151308345907
1501 -83.19320947392367
1502 -83.02114046614986
1503 -83.19505035779156
1504 -83.02026659217836
1505 -83.19718977881087
1506 -83.02182368810458
1507 -83.19402344119101
1508 -83.02064492064949
1509 -83.19526045284891
1510 -83.02108892470528
1511 -83.19391154826678
1512 -83.01978791610094
1513 -83.19157868631112
1514 -83.01643101789654
1515 -83.1839379670061
1516 -83.01306022074647
1517 -83.18567710412083
1518 -83.01416177016836
1519 -83.18759895759348
1520 -83.01545403322166
1521 -83.19140817953593
1522 -83.01937882659456
1523 -83.19732219942171
1524 -83.02382656967222
1525 -83.19818570615308
1526 -83.02443524762208
1527 -83.19786317443601
1528 -83.02673274675766
1529 -83.19816532555996
1530 -83.02109729356062
1531 -83.19503695824397
1532 -83.02371955082157
1533 -83.19551058652723
1534 -83.02197431778546
1535 -83.19186957577398
1536 -83.02303329129228
1537 -83.19710226389361
1538 -83.0204855236712
1539 -83.18830613635538
1540 -83.01322461486615
1541 -83.18453862637693
1542 -83.00844580762293
1543 -83.18640158466599
1544 -83.01071667913135
1545 -83.18686824757992
1546 -83.00917032623636
1547 -83.18394307706296
1548 -83.00876068331485
1549 -83.18235349670266
1550 -83.00742674760926
1551 -83.18371000770532
1552 -83.00916363322597
1553 -83.18583183738627
1554 -83.00715360274893
1555 -83.18486782134153
1556 -83.00914587141727
1557 -83.18754642064545
1558 -83.01541017216243
1559 -83.1864644027624
1560 -83.01491860822586
1561 -83.1905953932615
1562 -83.02177520878035
1563 -83.19241103498587
1564 -83.02049790216648
1565 -83.19584212055679
1566 -83.02251262168556
1567 -83.19399936009927
1568 -83.02388109560633
1569 -83.19537640814821
1570 -83.02283866556422
1571 -83.1898966706018
1572 -83.01427059707333
1573 -83.18897751405848
1574 -83.01323292093741
1575 -83.18201164045115
1576 -83.00708991020309
1577 -83.18178862100518
1578 -83.0037490388944
1579 -83.17762222005473
1580 -83.00138350836988
1581 -83.17993453712461
1582 -83.00544743682082
1583 -83.1767907736035
1584 -83.00310929145371
1585 -83.17707751275424
1586 -83.00702226302013
1587 -83.17808312129853
1588 -83.01095281343243
1589 -83.18352975375518
1590 -83.01383403432266
1591 -83.18603442225458
1592 -83.01880067831547
1593 -83.18652894987599
1594 -83.01538265756221
1595 -83.17929503834745
1596 -83.01359127168593
1597 -83.18504309489578
1598 -83.01682809877343
1599 -83.18198927746522
1600 -83.0162369829157
1601 -83.18790702005964
1602 -83.01822774150412
1603 -83.18288230504572
1604 -83.02004323886297
1605 -83.18883525525189
1606 -83.02150036494231
1607 -83.18736849697706
1608 -83.02079192132578
1609 -83.18745226010248
1610 -83.02405490102444
1611 -83.18933900167741
1612 -83.02199471344301
1613 -83.1905734952623
1614 -83.02321094433916
1615 -83.19265878023663
1616 -83.01676654200782
1617 -83.19251875706544
1618 -83.01329678084767
1619 -83.18545971230935
1620 -83.00872186077419
1621 -83.18762521620476
1622 -83.01228613719621
1623 -83.18070253914959
1624 -83.00796129258322
1625 -83.18261004227674
1626 -83.00497984230799
1627 -83.17668445536799
1628 -83.00179404158774
1629 -83.17532196968818
1630 -83.00405593647173
1631 -83.17169577990813
1632 -82.99911566802319
1633 -83.1750783116857
1634 -82.99847342755686
1635 -83.17499452999886
1636 -83.00100443750068
1637 -83.17761622552075
1638 -83.00325815208242
1639 -83.17840298864058
1640 -83.0073754301892
1641 -83.18414235185202
1642 -83.01461765268562
1643 -83.18599981940434
1644 -83.01725480645939
1645 -83.19330645898549
1646 -83.02243055489151
1647 -83.18952679637738
1648 -83.02268832473521
1649 -83.19659818287414
1650 -83.02508943518973
1651 -83.19196792015504
1652 -83.0247210570991
1653 -83.19482739899126
1654 -83.02784716139718
1655 -83.18925357268836
1656 -83.0229856098934
1657 -83.18770528636713
1658 -83.02537347243072
1659 -83.18896648454393
1660 -83.02239609913107
1661 -83.18707863580192
1662 -83.01740898338221
1663 -83.18471991466583
1664 -83.01440220619997
1665 -83.1820258571841
1666 -83.01408986853301
1667 -83.17850042461362
1668 -83.01047307364485
1669 -83.18075394314434
1670 -83.01667978104933
1671 -83.18167360648187
1672 -83.01405882927281
1673 -83.18186557872758
1674 -83.01676891213242
1675 -83.18572110849198
1676 -83.02252288589983
1677 -83.19133057201111
1678 -83.02432911433459
1679 -83.19202232194408
1680 -83.02464748172088
1681 -83.19388478814926
1682 -83.0280287978826
1683 -83.19432448512163
1684 -83.02772232815613
1685 -83.19462085577857
1686 -83.02507286199767
1687 -83.20071684993775
1688 -83.0276333093372
1689 -83.20224425237348
1690 -83.02594949316097
1691 -83.19832037076031
1692 -83.02740089114207
1693 -83.19900655135086
1694 -83.02557521823366
1695 -83.19537074804788
1696 -83.02761755864299
1697 -83.19899732220762
1698 -83.02938144526229
1699 -83.19262231677567
1700 -83.02845736033782
1701 -83.19612865853901
1702 -83.02688712043062
1703 -83.19359560731084
1704 -83.02434170486674
1705 -83.19722725473196
1706 -83.02047924692579
1707 -83.19685179098951
1708 -83.02372320361667
1709 -83.20044697378268
1710 -83.021573152065
1711 -83.19747370016302
1712 -83.02545984557645
1713 -83.19462908949822
1714 -83.01999339649842
1715 -83.19456207643111
1716 -83.02023994245781
1717 -83.19204853140269
1718 -83.0142238926768
1719 -83.18462416263895
1720 -83.01430380903543
1721 -83.18902225334068
1722 -83.01514197561011
1723 -83.18466992258391
1724 -83.01935223100986
1725 -83.18935987794765
1726 -83.02068439473715
1727 -83.18253805097203
1728 -83.02124692535966
1729 -83.18690415217316
1730 -83.02008318669641
1731 -83.18348054311952
1732 -83.02061463403214
1733 -83.19004580318978
1734 -83.023031406884
1735 -83.19134166082512
1736 -83.02994490824045
1737 -83.19556880796392
1738 -83.03044968300844
1739 -83.19466469736415
1740 -83.02713885300528
1741 -83.18778515515856
1742 -83.0177132892623
1743 -83.17886363803308
1744 -83.01094571127015
1745 -83.17763031855549
1746 -83.002976947825
1747 -83.17691436677114
1748 -83.00605971674094
1749 -83.18189273147811
1750 -83.00990573921223
1751 -83.18049214518834
1752 -83.01349893036928
1753 -83.17883187815085
1754 -83.00802310894755
1755 -83.17732709543702
1756 -83.00919884333013
1757 -83.18518685204077
1758 -83.01225965824528
1759 -83.18758752788978
1760 -83.01824825465684
1761 -83.19109084836157
1762 -83.01956722780164
1763 -83.18927987928862
1764 -83.02216844446099
1765 -83.1941510757195
1766 -83.02042562820304
1767 -83.19442151108257
1768 -83.02176121401317
1769 -83.19697699113709
1770 -83.02202869984546
1771 -83.19393508131378
1772 -83.0233537395178
1773 -83.19272549390536
1774 -83.01831042938926
1775 -83.18458669847934
1776 -83.0139502326108
1777 -83.18096730268036
1778 -83.0131078087694
1779 -83.17932105632639
1780 -83.01436014084538
1781 -83.17852176716639
1782 -83.0117505612842
1783 -83.17592439125241
1784 -83.01255616461663
1785 -83.1759828449874
1786 -83.01484689761963
1787 -83.17949773478341
1788 -83.01495945706296
1789 -83.18418650738693
1790 -83.01263593873472
1791 -83.18160630124606
1792 -83.01545732996851
1793 -83.18471375206701
1794 -83.01366983036138
1795 -83.1852790777142
1796 -83.01757997231311
1797 -83.18883966300626
1798 -83.0203693540501
1799 -83.1848370763642
1800 -83.01980189977706
1801 -83.18391000999884
1802 -83.02240402656315
1803 -83.18132314685744
1804 -83.01798570525881
1805 -83.17821907136448
1806 -83.01388340367589
1807 -83.17794910649559
1808 -83.01338645503068
1809 -83.17706795970162
1810 -83.01284352769994
1811 -83.17534408796041
1812 -83.00838055020705
1813 -83.1735212477692
1814 -83.00984577515993
1815 -83.17495944945381
1816 -83.01116539853723
1817 -83.17728125131333
1818 -83.00934049260513
1819 -83.17478776349355
1820 -83.00973086740493
1821 -83.1810401210106
1822 -83.01057860679583
1823 -83.17878110853309
1824 -83.01211596360974
1825 -83.18287311074749
1826 -83.01564985883499
1827 -83.18312472418199
1828 -83.01337891451544
1829 -83.1885690947226
1830 -83.0143679038822
1831 -83.18671630856602
1832 -83.01199888803518
1833 -83.18637701190164
1834 -83.01155874793818
1835 -83.18839410939887
1836 -83.01133114363904
1837 -83.19474249281063
1838 -83.01456538786346
1839 -83.19826327261421
1840 -83.01649384524632
1841 -83.19601116598039
1842 -83.01105493183547
1843 -83.18858276974339
1844 -83.01209607938205
1845 -83.19486849487237
1846 -83.01300482947448
1847 -83.18907222115462
1848 -83.01482287005103
1849 -83.19301632993006
1850 -83.01588692084971
1851 -83.18972856484316
1852 -83.01524439254354
1853 -83.1921859962971
1854 -83.01327098077218
1855 -83.19086444457611
1856 -83.01644117426849
1857 -83.18870301526516
1858 -83.01503538258163
1859 -83.18636701445848
1860 -83.01014928523529
1861 -83.18756177123356
1862 -83.00998742045647
1863 -83.18705496242205
1864 -83.01676254720309
1865 -83.19081988884039
1866 -83.01983098917117
1867 -83.18789144486061
1868 -83.01906123064839
1869 -83.18930348649121
1870 -83.01999565886132
1871 -83.18768282999235
1872 -83.02197742251968
1873 -83.19235481506649
1874 -83.02684234640037
1875 -83.19816837750295
1876 -83.02821276150331
1877 -83.20490462846482
1878 -83.02698716223875
1879 -83.2031827435269
1880 -83.02624665644066
1881 -83.20223562609272
1882 -83.02436808747927
1883 -83.19636983857345
1884 -83.02081077768986
1885 -83.19838289747685
1886 -83.0219055828295
1887 -83.19340335941808
1888 -83.02072150069233
1889 -83.19117204456683
1890 -83.01847837543903
1891 -83.18699809515954
1892 -83.01339448710206
1893 -83.18506459943052
1894 -83.00956040412433
1895 -83.18149924029063
1896 -83.00835325161927
1897 -83.18198446945399
1898 -83.00566061936462
1899 -83.18004221272628
1900 -83.00773445675435
1901 -83.18060934592137
1902 -83.00652870371295
1903 -83.18444930188093
1904 -83.01138539117409
1905 -83.18946046917421
1906 -83.01303586254261
1907 -83.18997914104312
1908 -83.01737364293945
1909 -83.19943350688021
1910 -83.02233142879771
1911 -83.19914763005579
1912 -83.03077765102046
1913 -83.20407958058985
1914 -83.02589011032586
1915 -83.200050786426
1916 -83.0256925008099
1917 -83.20110185907174
1918 -83.02347146114352
1919 -83.19331020747433
1920 -83.02081354260179
1921 -83.19365485341507
1922 -83.01663084517708
1923 -83.18561071413831
1924 -83.0152059866316
1925 -83.18394180355489
1926 -83.01025854776526
1927 -83.180668267339
1928 -83.0108284749856
1929 -83.18268341567386
1930 -83.00887032304882
1931 -83.17841844384776
1932 -83.01107196889768
1933 -83.18176386160718
1934 -83.00972294529527
1935 -83.1773737622305
1936 -83.0102587022817
1937 -83.18320214697985
1938 -83.01433277871496
1939 -83.18448831208298
1940 -83.01722482532739
1941 -83.18700499229112
1942 -83.02000990759342
1943 -83.18753910781385
1944 -83.02322501300085
1945 -83.18935792448787
1946 -83.02555366704763
1947 -83.1909044238638
1948 -83.02830216112324
1949 -83.1936655955829
1950 -83.02523543313089
1951 -83.19280546918014
1952 -83.02464253859057
1953 -83.18664176574924
1954 -83.01718974860972
1955 -83.18782426714171
1956 -83.01880467410808
1957 -83.1856765301286
1958 -83.01316202471912
1959 -83.18077809825917
1960 -83.01613045375206
1961 -83.18519913176834
1962 -83.01077973706595
1963 -83.17932349480486
1964 -83.01331723062066
1965 -83.17870614234579
1966 -83.01255351758402
1967 -83.17864308582807
1968 -83.01381789727549
1969 -83.18144166442312
1970 -83.0098056440346
1971 -83.18148962419127
1972 -83.01093739561861
1973 -83.18275164634298
1974 -83.00850166976693
1975 -83.17748560025211
1976 -83.00505612318415
1977 -83.17495578174447
1978 -82.99918006190626
1979 -83.16669671940571
1980 -82.99710583127035
1981 -83.17368339598823
1982 -83.00007000590182
1983 -83.17282666797024
1984 -83.00334211590723
1985 -83.17758646490785
1986 -83.00330527539779
1987 -83.17969598455505
1988 -83.0117049866567
1989 -83.18398496914313
1990 -83.01571202029368
1991 -83.18514686857804
1992 -83.0207375609192
1993 -83.19059021594626
1994 -83.02585642118635
1995 -83.19300522337863
1996 -83.02886595476167
1997 -83.19233422716343
1998 -83.02932268045538
1999 -83.18981395413874
2000 -83.02538041672796
2001 -83.192829123303
2002 -83.02293255612551
2003 -83.18977923389559
2004 -83.0183958709822
2005 -83.18509272710833
2006 -83.00980717224775
2007 -83.1751107829233
2008 -83.00536450510077
2009 -83.17734328949621
2010 -83.00461055026528
2011 -83.17727391160514
2012 -83.00736486644371
2013 -83.17754822046231
2014 -83.00375165977829
2015 -83.17072892385772
2016 -83.00447126665
2017 -83.17168025557328
2018 -83.00353598665293
2019 -83.17455806133688
2020 -83.01307887689819
2021 -83.18625303995441
2022 -83.01922097264401
2023 -83.18957208713755
2024 -83.023702456558
2025 -83.1966343091454
2026 -83.02545053952372
2027 -83.19195753844849
2028 -83.02635492566736
2029 -83.19849575975485
2030 -83.02992072318625
2031 -83.19732199151116
2032 -83.0266458810749
2033 -83.19710890805391
2034 -83.02351813690609
2035 -83.19297940507334
2036 -83.02055511446241
2037 -83.19405269614617
2038 -83.02013371382407
2039 -83.18621280687722
2040 -83.01591732513515
2041 -83.18617767086653
2042 -83.01449982393041
2043 -83.18106741376033
2044 -83.01329909765656
2045 -83.18032976769547
2046 -83.0098471670118
2047 -83.18034978056153
2048 -83.01276119080148
2049 -83.18282634134528
2050 -83.01680516889547
2051 -83.18128469100549
2052 -83.01572538926598
2053 -83.17929338684019
2054 -83.01433635030128
2055 -83.17534916646628
2056 -83.01431066838404
2057 -83.18211713221945
2058 -83.01738806850938
2059 -83.18286226935265
2060 -83.02244525203349
2061 -83.19044716329267
2062 -83.02789901364304
2063 -83.19539819056359
2064 -83.03190386149487
2065 -83.20301192509783
2066 -83.03242457876757
2067 -83.19559640127778
2068 -83.02899965713385
2069 -83.20074484555073
2070 -83.0284071093842
2071 -83.19649774852496
2072 -83.02904393368965
2073 -83.19894564923692
2074 -83.02826898651489
2075 -83.20017462481707
2076 -83.02636507392788
2077 -83.19894535177593
2078 -83.02273166162894
2079 -83.19638259003801
2080 -83.02248966656475
2081 -83.19842658879969
2082 -83.02076679487743
2083 -83.1958437476751
2084 -83.02372148243103
2085 -83.19852409707693
2086 -83.02378186855873
2087 -83.19170159445804
2088 -83.02201868723364
2089 -83.19348228582118
2090 -83.01930019207396
2091 -83.18831170454126
2092 -83.01596832988196
2093 -83.1859349574716
2094 -83.0105528581779
2095 -83.17952873439111
2096 -83.01040207556139
2097 -83.18273524805124
2098 -83.01127489688895
2099 -83.18218178928419
2100 -83.01421476875203
2101 -83.18852707660295
2102 -83.01889272635992
2103 -83.19183317244836
2104 -83.02538952826217
2105 -83.20158860961715
2106 -83.0294064973474
2107 -83.20683043243673
2108 -83.03543243986383
2109 -83.20435507634124
2110 -83.03247264893628
2111 -83.20432000844477
2112 -83.03347515933524
2113 -83.20188676951648
2114 -83.03185476172877
2115 -83.19960274747052
2116 -83.02950294539119
2117 -83.19938758819615
2118 -83.02418898990584
2119 -83.18916240566369
2120 -83.02050740172535
2121 -83.18524704255765
2122 -83.01216271799507
2123 -83.17403560494085
2124 -83.00652402071614
2125 -83.175803824642
2126 -83.00611349283355
2127 -83.1735874730457
2128 -83.00682484032313
2129 -83.17211192355569
2130 -83.00443404970565
2131 -83.17389525512732
2132 -83.00730355886139
2133 -83.17106883737574
2134 -83.00366381325773
2135 -83.17411647277891
2136 -83.01076606905673
2137 -83.18301956519349
2138 -83.01283997902186
2139 -83.18647005150723
2140 -83.01410979425214
2141 -83.19201942622959
2142 -83.01811804131177
2143 -83.19995852020207
2144 -83.02338143208516
2145 -83.20323191043292
2146 -83.02023095603784
2147 -83.19921257532593
2148 -83.01853185745108
2149 -83.20152656957032
2150 -83.01623774185117
2151 -83.19275122419953
2152 -83.01181573331058
2153 -83.19443019702948
2154 -83.01412295130052
2155 -83.1909096821945
2156 -83.01458749516433
2157 -83.1922053062433
2158 -83.01343854163105
2159 -83.17982515586709
2160 -83.00850823096164
2161 -83.18239490435349
2162 -83.00228238944385
2163 -83.18034565247342
2164 -83.00481822605479
2165 -83.1841641407479
2166 -83.00722016980308
2167 -83.18227715997801
2168 -83.01160399284191
2169 -83.18376432750711
2170 -83.00910176246896
2171 -83.18546777823707
2172 -83.01036583396001
2173 -83.18723252837464
2174 -83.00792945520004
2175 -83.18371976297163
2176 -83.01445842998498
2177 -83.1892374844499
2178 -83.01713499062924
2179 -83.18594364572863
2180 -83.01879429735607
2181 -83.19390747649175
2182 -83.02041048700499
2183 -83.187446587495
2184 -83.01788755293779
2185 -83.18884801648551
2186 -83.02000733689357
2187 -83.19003737732874
2188 -83.01940456497334
2189 -83.19089027590746
2190 -83.0154860301098
2191 -83.18722585782598
2192 -83.01907682268126
2193 -83.1872500327853
2194 -83.02049997019975
2195 -83.18678460459046
2196 -83.01710129096045
2197 -83.18805963266118
2198 -83.01870263954066
2199 -83.18796859327199
2200 -83.01330503436765
2201 -83.18113849981029
2202 -83.00724087576299
2203 -83.17577838911012
2204 -83.00564284150539
2205 -83.17652407734187
2206 -83.00732594070928
2207 -83.17761520671439
2208 -83.00656894868092
2209 -83.17270648517797
2210 -83.00301150384763
2211 -83.17060497890407
2212 -83.00064970088124
2213 -83.17476829226553
2214 -83.00042533371015
2215 -83.17786346886726
2216 -83.00458080332504
2217 -83.1845527385658
2218 -83.00818020822322
2219 -83.18529068724683
2220 -83.01256913010491
2221 -83.19524842259261
2222 -83.0195971610259
2223 -83.20030375779419
2224 -83.02578091562691
2225 -83.20270474791778
2226 -83.02737379739239
2227 -83.20007110588824
2228 -83.02585593786893
2229 -83.19975229918509
2230 -83.02941187782875
2231 -83.19711974370369
2232 -83.02510200723339
2233 -83.19706367546871
2234 -83.02162932066858
2235 -83.19522828504756
2236 -83.01872934933812
2237 -83.19516500073712
2238 -83.01448254290204
2239 -83.19237104995551
2240 -83.0127415566954
2241 -83.19143126330096
2242 -83.01420589275278
2243 -83.18697086620762
2244 -83.0077026953665
2245 -83.1877552618634
2246 -83.00858095056697
2247 -83.17638405277222
2248 -83.00853232709085
2249 -83.18435053653428
2250 -83.00972977973032
2251 -83.18555793390777
2252 -83.01328053756185
2253 -83.18995583715878
2254 -83.02397826147848
2255 -83.19582753926557
2256 -83.03160964077068
2257 -83.20221443303336
2258 -83.03783202289418
2259 -83.20203643529504
2260 -83.03736658943666
2261 -83.20287758149999
2262 -83.03695226259697
2263 -83.20411513034094
2264 -83.04286804556074
2265 -83.20390316095614
2266 -83.03992943256713
2267 -83.20482205454351
2268 -83.0367361708461
2269 -83.20146408536345
2270 -83.03365686508539
2271 -83.19732025130799
2272 -83.02982297123009
2273 -83.19067276712127
2274 -83.02218847366981
2275 -83.18775961008305
2276 -83.02055294123409
2277 -83.187061450545
2278 -83.01641705790627
2279 -83.18755995490096
2280 -83.0216024537873
2281 -83.18770524961207
2282 -83.02104083823377
2283 -83.18400699582435
2284 -83.01890988296594
2285 -83.18739675936769
2286 -83.01532994301004
2287 -83.18661793536512
2288 -83.0153255021084
2289 -83.18356987422806
2290 -83.01612136665767
2291 -83.18353068980798
2292 -83.01651301929144
2293 -83.18770037461553
2294 -83.01781310135027
2295 -83.18813373910649
2296 -83.01900158129649
2297 -83.19035625967524
2298 -83.0191049911042
2299 -83.19029584693197
2300 -83.0214170313086
2301 -83.19005411623937
2302 -83.01372514144958
2303 -83.18479103929968
2304 -83.01472634269118
2305 -83.1842448715588
2306 -83.01561816760983
2307 -83.18613770887788
2308 -83.02192720941406
2309 -83.190975380731
2310 -83.02347729876033
2311 -83.19390312389305
2312 -83.02959564282577
2313 -83.19389778307897
2314 -83.02980495223488
2315 -83.19123109666697
2316 -83.02692742773559
2317 -83.18971554466088
2318 -83.02076007347131
2319 -83.17890286628699
2320 -83.01574128714987
2321 -83.18024365778712
2322 -83.01170301256815
2323 -83.17898026240823
2324 -83.01278755267901
2325 -83.17994118743638
2326 -83.01325814292619
2327 -83.17675825766679
2328 -83.01323065670181
2329 -83.17772441213856
2330 -83.01225201231574
2331 -83.17377097151592
2332 -83.01186053566954
2333 -83.17596370594788
2334 -83.0135065791099
2335 -83.18169789600813
2336 -83.02255507371342
2337 -83.18852245029404
2338 -83.02020335468774
2339 -83.18848669806835
2340 -83.02220346946217
2341 -83.19282443208709
2342 -83.02306916614629
2343 -83.19592712184539
2344 -83.02341969473821
2345 -83.20010359138303
2346 -83.02381245175877
2347 -83.19960744546665
2348 -83.02557844583106
2349 -83.20040948534154
2350 -83.0248253987541
2351 -83.19305978448841
2352 -83.02380959200445
2353 -83.1911750237345
2354 -83.0204781861309
2355 -83.18390665041755
2356 -83.01417798004172
2357 -83.18568738460687
2358 -83.01142219637006
2359 -83.17966198699162
2360 -83.00877962009685
2361 -83.18349110544011
2362 -83.00727343120133
2363 -83.17812303749469
2364 -83.0055907366737
2365 -83.17646165991943
2366 -82.99680799191952
2367 -83.17097078855033
2368 -82.99923589528629
2369 -83.17443462736702
2370 -82.99881878818036
2371 -83.1798370514561
2372 -83.0083539946969
2373 -83.18629618182314
2374 -83.01311108268948
2375 -83.18792423346264
2376 -83.02115554935955
2377 -83.18777674900218
2378 -83.02320469072731
2379 -83.18471934366215
2380 -83.02533542418507
2381 -83.18660152316829
2382 -83.01943220683785
2383 -83.18621796012849
2384 -83.01930637822733
2385 -83.18766508843294
2386 -83.01922877172404
2387 -83.18462381717507
2388 -83.01863362382363
2389 -83.18855617110347
2390 -83.01502160836975
2391 -83.18398749061885
2392 -83.01459089938982
2393 -83.18390341895105
2394 -83.01164557910636
2395 -83.18292328707133
2396 -83.01465961901431
2397 -83.18449521534251
2398 -83.01255067419692
2399 -83.18014289094992
2400 -83.01104706195474
2401 -83.18059597888106
2402 -83.00908453359455
2403 -83.17719776208571
2404 -83.01017170984164
2405 -83.18084969251822
2406 -83.0099162064169
2407 -83.18101167485344
2408 -83.01461273995926
2409 -83.18687915526704
2410 -83.01760095441045
2411 -83.18727615791693
2412 -83.01629697352098
2413 -83.19159151670613
2414 -83.0174380186927
2415 -83.18666551850612
2416 -83.01760055016723
2417 -83.1923740354369
2418 -83.02089042950627
2419 -83.19569878901353
2420 -83.02536616402989
2421 -83.19999046633467
2422 -83.02922389945883
2423 -83.19929177408579
2424 -83.03176738995148
2425 -83.20377744571317
2426 -83.0347414361317
2427 -83.20723796636855
2428 -83.0345206180948
2429 -83.21053330779705
2430 -83.02877377349336
2431 -83.20464290866414
2432 -83.02237161816964
2433 -83.2037356134644
2434 -83.01791013775187
2435 -83.19316990495702
2436 -83.01567045471188
2437 -83.19274963043523
2438 -83.01592198658994
2439 -83.18816144185973
2440 -83.01548137612053
2441 -83.18289301442678
2442 -83.00606300232482
2443 -83.17867424604322
2444 -83.00746694556506
2445 -83.17590936657473
2446 -83.0083309095595
2447 -83.16957398980236
2448 -83.00953082392579
2449 -83.17680078730302
2450 -83.01765120247683
2451 -83.1815399975244
2452 -83.02055420666147
2453 -83.18731247147923
2454 -83.02180654559913
2455 -83.19088400916371
2456 -83.02570004873274
2457 -83.19863700194406
2458 -83.02916751841849
2459 -83.20104229047928
2460 -83.03176404138281
2461 -83.20808615839439
2462 -83.0329949232663
2463 -83.20622978613005
2464 -83.03177151350184
2465 -83.2066492335577
2466 -83.02905087186531
2467 -83.19818843943051
2468 -83.02508004766003
2469 -83.19936076203953
2470 -83.01606096557242
2471 -83.1951668643506
2472 -83.01098083756949
2473 -83.18711740547735
2474 -83.00395737029731
2475 -83.18170012106106
2476 -83.00275982488432
2477 -83.18112722941942
2478 -82.99851000040428
2479 -83.17647560511335
2480 -82.99881771916961
2481 -83.17615097338756
2482 -83.00046496807494
2483 -83.17489331230064
2484 -83.0055551693066
2485 -83.17991297722523
2486 -83.01022929936573
2487 -83.18290065353386
2488 -83.01343190603046
2489 -83.18553798711355
2490 -83.01553080332963
2491 -83.19220935981133
2492 -83.0229739891189
2493 -83.19416866337764
2494 -83.02436503600546
2495 -83.19701922336071
2496 -83.02406114781473
2497 -83.19850697629772
2498 -83.01909871098951
2499 -83.19819349822575
2500 -83.02381971352219
2501 -83.20074605708885
2502 -83.02355986271795
2503 -83.1984224512442
2504 -83.019503985668
2505 -83.19542421967253
2506 -83.01411920317673
2507 -83.19012180514505
2508 -83.0124202874407
2509 -83.1919118000398
2510 -83.01109360751462
2511 -83.18070789954857
2512 -83.01075330011588
2513 -83.18364657836145
2514 -83.01124069903665
2515 -83.17792453868088
2516 -83.01348155456554
2517 -83.17993208205894
2518 -83.01268247367841
2519 -83.17626246595142
2520 -83.01273097102239
2521 -83.17967209250349
2522 -83.00798982645995
2523 -83.17780103877271
2524 -83.00991450565249
2525 -83.18147990724742
2526 -83.00995661791666
2527 -83.18102709312615
2528 -83.01335749944076
2529 -83.18289008258523
2530 -83.0116960732239
2531 -83.18272216583807
2532 -83.01502011585825
2533 -83.18322638714164
2534 -83.01280752560939
2535 -83.18552340482125
2536 -83.0162696389832
2537 -83.18717625372034
2538 -83.02036009860473
2539 -83.1905193559756
2540 -83.01874932111429
2541 -83.19096229290204
2542 -83.0149803865869
2543 -83.18905557247086
2544 -83.01264161086101
2545 -83.18567724182765
2546 -83.01103074357496
2547 -83.18363398114514
2548 -83.01208353320368
2549 -83.18776047190005
2550 -83.01326277034099
2551 -83.18111667753772
2552 -83.00959541277189
2553 -83.1793891666905
2554 -83.0068367999865
2555 -83.17331570630324
2556 -83.00221104587104
2557 -83.18031394999196
2558 -83.0001481817809
2559 -83.17574249493515
2560 -83.000085778857
2561 -83.17779119044985
2562 -83.00204618800768
2563 -83.17832348103428
2564 -83.00697562775662
2565 -83.18480480862729
2566 -83.0101207451612
2567 -83.182664040041
2568 -83.01250713227995
2569 -83.18987458633751
2570 -83.01777853960738
2571 -83.19147644634751
2572 -83.02102020682241
2573 -83.19376192876945
2574 -83.02479046766621
2575 -83.19215828193234
2576 -83.02786043172148
2577 -83.19532405904135
2578 -83.02677265041854
2579 -83.19680179148617
2580 -83.02970244965746
2581 -83.19748926000943
2582 -83.025620993583
2583 -83.19175467450486
2584 -83.02426518940047
2585 -83.18717677769246
2586 -83.01408889366093
2587 -83.18024971300008
2588 -83.01548346468456
2589 -83.17636897583634
2590 -83.00939663255616
2591 -83.17023025748955
2592 -83.00781675399384
2593 -83.16971854122221
2594 -83.00643817442142
2595 -83.17143223168114
2596 -83.005802348663
2597 -83.17848047475968
2598 -83.00747533214019
2599 -83.18080133385774
2600 -83.01474502234583
2601 -83.18814116030217
2602 -83.01178083640764
2603 -83.18766949958012
2604 -83.0208702965636
2605 -83.19938895109738
2606 -83.0262741170738
2607 -83.20053078797184
2608 -83.03120458830341
2609 -83.20455623570047
2610 -83.03641311653587
2611 -83.20023126708753
2612 -83.03211250851041
2613 -83.20268538231483
2614 -83.03346757042561
2615 -83.19703821114103
2616 -83.02876340005264
2617 -83.19371425702406
2618 -83.02497655017061
2619 -83.18563195172231
2620 -83.02028685736536
2621 -83.18965590396999
2622 -83.01953739939893
2623 -83.18596088652555
2624 -83.01903055646244
2625 -83.18969726020066
2626 -83.014862061065
2627 -83.18653474062569
2628 -83.01284477305592
2629 -83.18743936156568
2630 -83.01067409361087
2631 -83.18472214592873
2632 -83.01375473304779
2633 -83.18668644089854
2634 -83.01338785534216
2635 -83.18654959236278
2636 -83.01925452786878
2637 -83.19231554467848
2638 -83.01925159255444
2639 -83.19314935806375
2640 -83.02438444233456
2641 -83.19458630221368
2642 -83.02256235202373
2643 -83.1922665763372
2644 -83.02418421272927
2645 -83.1910431927343
2646 -83.02548592662248
2647 -83.19549831727267
2648 -83.03180848799644
2649 -83.19896367076205
2650 -83.03435058566015
2651 -83.2029167876924
2652 -83.03848954345523
2653 -83.20268348179087
2654 -83.03322795897003
2655 -83.20028384062135
2656 -83.03478972628261
2657 -83.19781868958893
2658 -83.03208440945048
2659 -83.19599252875457
2660 -83.03592886394676
2661 -83.1988448687319
2662 -83.03697880404417
2663 -83.19705570610557
2664 -83.03428070446137
2665 -83.19692156907848
2666 -83.02921781851273
2667 -83.18981154312257
2668 -83.02461998809696
2669 -83.19356154763381
2670 -83.01910511931317
2671 -83.18776048968596
2672 -83.0128076717387
2673 -83.18667952621678
2674 -83.00940578525535
2675 -83.18299844689432
2676 -83.00720707750196
2677 -83.18239819770071
2678 -83.01220488303539
2679 -83.18480454175358
2680 -83.01629151682653
2681 -83.18696552473506
2682 -83.01506115955726
2683 -83.18352595986022
2684 -83.01635670939851
2685 -83.18899313133664
2686 -83.02281484297674
2687 -83.19159538289443
2688 -83.02814577342713
2689 -83.19945661124649
2690 -83.03242302860326
2691 -83.19969295633371
2692 -83.0362372753292
2693 -83.19970558928571
2694 -83.03413573544668
2695 -83.20181713980844
2696 -83.03748655345038
2697 -83.19996994114871
2698 -83.03085954520128
2699 -83.19933410343623
2700 -83.02653698159958
2701 -83.19707505011871
2702 -83.02413329410876
2703 -83.19149956423377
2704 -83.02410081744506
2705 -83.18485486988772
2706 -83.01444042684398
2707 -83.17495821454111
2708 -83.00274446589833
2709 -83.16906923896329
2710 -82.99911259408202
2711 -83.16654241353177
2712 -83.0010781720938
2713 -83.17327613542778
2714 -83.00388915292996
2715 -83.17006485888396
2716 -83.00708766830246
2717 -83.17794082911411
2718 -83.0116388164293
2719 -83.18679694117742
2720 -83.02151515440471
2721 -83.18808565431692
2722 -83.02447529794568
2723 -83.19546073164872
2724 -83.03121681115437
2725 -83.19808113613487
2726 -83.02807953134101
2727 -83.19986736438221
2728 -83.0302417192176
2729 -83.19831210028082
2730 -83.02425977955573
2731 -83.18896641620262
2732 -83.02045570416169
2733 -83.18938104750117
2734 -83.02042270925438
2735 -83.18409469121895
2736 -83.01698732172065
2737 -83.18622454151017
2738 -83.01118695445695
2739 -83.17818978452192
2740 -83.00968715151646
2741 -83.18124719612871
2742 -83.00424168443681
2743 -83.18027078601602
2744 -83.00905554837533
2745 -83.17888207961147
2746 -83.00846332314933
2747 -83.1802007859776
2748 -83.01145374298659
2749 -83.17693747180016
2750 -83.00749376942633
2751 -83.1766579864339
2752 -83.00820535123222
2753 -83.17941174375807
2754 -83.00844550762804
2755 -83.17912425023178
2756 -83.01302793921462
2757 -83.18118846857891
2758 -83.01443913663053
2759 -83.18475947945802
2760 -83.015760907512
2761 -83.1872509274873
2762 -83.01444726972392
2763 -83.18619064219178
2764 -83.01604645216077
2765 -83.18803882048411
2766 -83.01446686492233
2767 -83.18461087163058
2768 -83.01337343482118
2769 -83.18616178471189
2770 -83.01274607501688
2771 -83.1808368732556
2772 -83.013373150505
2773 -83.18304971379968
2774 -83.0092985348922
2775 -83.17450476251969
2776 -83.00540473674693
2777 -83.17980026971856
2778 -83.00663466337397
2779 -83.18207762576998
2780 -83.00842251413536
2781 -83.18875719825502
2782 -83.00959742644841
2783 -83.18440636503328
2784 -83.0067459996186
2785 -83.1844238269282
2786 -83.0072894743538
2787 -83.180156492533
2788 -83.00548997463159
2789 -83.18593634977663
2790 -83.00614706513198
2791 -83.1831218565149
2792 -83.01391774443169
2793 -83.18812729404885
2794 -83.0120199021386
2795 -83.19137177590562
2796 -83.01413215845076
2797 -83.19418519691629
2798 -83.0158157849894
2799 -83.192767696945
2800 -83.02064994729847
2801 -83.19057738875017
2802 -83.02157467352356
2803 -83.1922847605851
2804 -83.02660590106848
2805 -83.19602626331726
2806 -83.02773847188115
2807 -83.19616981121317
2808 -83.02927702478632
2809 -83.20030644709504
2810 -83.03048504700865
2811 -83.19811378675843
2812 -83.03093878554029
2813 -83.20272800089634
2814 -83.02498827538341
2815 -83.19697889968012
2816 -83.02359955049189
2817 -83.1934243474397
2818 -83.01923567763117
2819 -83.1884768581279
2820 -83.01494167573622
2821 -83.18242078593516
2822 -83.00922593020431
2823 -83.18128808416668
2824 -83.01316631075821
2825 -83.18378086731002
2826 -83.00891083495003
2827 -83.18082242093658
2828 -83.01441830923977
2829 -83.19024884086366
2830 -83.01621970814966
2831 -83.19075963748344
2832 -83.02000100703003
2833 -83.19657973635839
2834 -83.02179220319732
2835 -83.19797663159545
2836 -83.02650080950673
2837 -83.20416721042437
2838 -83.02860206802256
2839 -83.20329555986513
2840 -83.03081834580223
2841 -83.20685624151719
2842 -83.03019749047343
2843 -83.20577911023992
2844 -83.03243610794169
2845 -83.20630618411747
2846 -83.03345705599924
2847 -83.20397114734527
2848 -83.02981763369513
2849 -83.20081224069764
2850 -83.02094349222278
2851 -83.18848982102287
2852 -83.01324513084779
2853 -83.18785954590157
2854 -83.01095255081844
2855 -83.17858786148946
2856 -83.00980038958841
2857 -83.18326889047984
2858 -83.00875480364408
2859 -83.17831579983095
2860 -83.00701612775151
2861 -83.18033230671631
2862 -83.00787887199334
2863 -83.18286143698816
2864 -83.0118845410999
2865 -83.18722032456731
2866 -83.00866573000877
2867 -83.18542971532844
2868 -83.01112344467873
2869 -83.18455341490409
2870 -83.0123431984789
2871 -83.18784291172977
2872 -83.01865102168034
2873 -83.18945951692291
2874 -83.01874571688603
2875 -83.19098394398765
2876 -83.02459870498291
2877 -83.19238987833666
2878 -83.02332159146204
2879 -83.18426432857819
2880 -83.02655100559423
2881 -83.18655057932671
2882 -83.02265295816471
2883 -83.18418018246808
2884 -83.02306383332922
2885 -83.18859946834897
2886 -83.02208094288329
2887 -83.19127319867505
2888 -83.02305216503714
2889 -83.19175297798091
2890 -83.01953816159067
2891 -83.191116379444
2892 -83.0220882178088
2893 -83.19079026109404
2894 -83.01606398281007
2895 -83.18864788005453
2896 -83.02080711142645
2897 -83.18937302436143
2898 -83.01578015502639
2899 -83.18641105671003
2900 -83.01660148644248
2901 -83.18137927920372
2902 -83.01038652725589
2903 -83.18166040812241
2904 -83.01278584267311
2905 -83.17979257085904
2906 -83.00675252211767
2907 -83.1761245333235
2908 -83.00684555378331
2909 -83.17802140621933
2910 -83.00550176729519
2911 -83.17553261578604
2912 -83.0094487138777
2913 -83.18047360724273
2914 -83.00888579162944
2915 -83.18194076154344
2916 -83.00833291282805
2917 -83.1845581279423
2918 -83.0103284817381
2919 -83.19165067964428
2920 -83.01747122124749
2921 -83.19292247007388
2922 -83.02040762850407
2923 -83.19758872481037
2924 -83.02601837803365
2925 -83.19468352270809
2926 -83.01802149990039
2927 -83.18854905046169
2928 -83.02044054402933
2929 -83.18985053870762
2930 -83.01954088585734
2931 -83.1829308658443
2932 -83.02145674086773
2933 -83.18464368790814
2934 -83.01883408401926
2935 -83.17918632143613
2936 -83.02007242539929
2937 -83.18271433953623
2938 -83.01815529539334
2939 -83.17739882900298
2940 -83.00958271666002
2941 -83.17422487228055
2942 -83.00347471411555
2943 -83.17067602831821
2944 -83.00437586067625
2945 -83.17048001597414
2946 -83.00557960748222
2947 -83.17079803198578
2948 -83.01143504794618
2949 -83.17572027127829
2950 -83.01650358704899
2951 -83.17869958245552
2952 -83.01911490224666
2953 -83.18394989731149
2954 -83.0171482185018
2955 -83.18447249298396
2956 -83.01673251402082
2957 -83.18946982789015
2958 -83.01936350090045
2959 -83.18961325899272
2960 -83.01594379065534
2961 -83.1900881866593
2962 -83.01191699958571
2963 -83.18903652643741
2964 -83.01414352202607
2965 -83.18889681864897
2966 -83.01358196803778
2967 -83.1829167489617
2968 -83.01333597629781
2969 -83.17690681589812
2970 -83.00667925200639
2971 -83.16913733788027
2972 -83.00351082544756
2973 -83.17064971897355
2974 -83.00358664582825
2975 -83.17140881666251
2976 -83.0088063052176
2977 -83.17711787686233
2978 -83.00864238079021
2979 -83.17592897406041
2980 -83.00802600100371
2981 -83.17991274828961
2982 -83.00906927851389
2983 -83.17859335882594
2984 -83.00866586920409
2985 -83.18389133303555
2986 -83.01191047569728
2987 -83.18378762825296
2988 -83.01063106229634
2989 -83.18686705240469
2990 -83.01014895675223
2991 -83.1901607555514
2992 -83.01547344699497
2993 -83.1899155031262
2994 -83.01347747071225
2995 -83.18698759762822
2996 -83.01249078357364
2997 -83.18783876354382
2998 -83.01319140730715
2999 -83.19068099790036
3000 -83.01595176761293
3001 -83.18385155938023
3002 -83.00963400679547
3003 -83.17456549953647
3004 -83.00918913056063
3005 -83.17814335539009
3006 -83.00694195913644
3007 -83.17345830955367
3008 -83.01033001739415
3009 -83.17512926072794
3010 -83.01083428409947
3011 -83.17325746307836
3012 -83.01432901846715
3013 -83.17431416597793
3014 -83.01341687559506
3015 -83.17796925073412
3016 -83.01951562769329
3017 -83.17913666547588
3018 -83.01296963363086
3019 -83.17478907040407
3020 -83.01380292900978
3021 -83.17310210569866
3022 -83.00644739593906
3023 -83.16780438460592
3024 -83.00279470315979
3025 -83.1746519217009
3026 -83.00581349601345
3027 -83.17429804824638
3028 -83.00645339797427
3029 -83.18260855451274
3030 -83.00594663116226
3031 -83.17850615906156
3032 -83.00579634475952
3033 -83.18482114646639
3034 -83.01098924078218
3035 -83.18334621894661
3036 -83.01483147888143
3037 -83.18826383045325
3038 -83.0179495224794
3039 -83.18730711255301
3040 -83.01938627465614
3041 -83.19094001409388
3042 -83.02010667756684
3043 -83.19111664663239
3044 -83.02387903478643
3045 -83.18902378753381
3046 -83.0225900509447
3047 -83.18841195112384
3048 -83.01952471182921
3049 -83.18717227364834
3050 -83.01222445627809
3051 -83.17885304665509
3052 -83.00617557025316
3053 -83.17023859627483
3054 -82.99744104198811
3055 -83.16451108717467
3056 -82.99887398406986
3057 -83.16805881739333
3058 -82.99581065299787
3059 -83.17210987623395
3060 -83.00100208971418
3061 -83.17357941527791
3062 -83.00056791346304
3063 -83.17602745170649
3064 -83.00714142805981
3065 -83.17484086143241
3066 -83.00480669051541
3067 -83.17610529105025
3068 -83.00991493591681
3069 -83.18347088080219
3070 -83.01358928039474
3071 -83.18065887974603
3072 -83.01591235589098
3073 -83.19017025585003
3074 -83.02369049284664
3075 -83.18757704445659
3076 -83.02223338714248
3077 -83.1911203857149
3078 -83.01820641107838
3079 -83.185846926978
3080 -83.01852365441044
3081 -83.19056668678121
3082 -83.01752429765747
3083 -83.18244108769346
3084 -83.01207794144324
3085 -83.18498701200252
3086 -83.01093252141681
3087 -83.18308802177569
3088 -83.00933722415618
3089 -83.18155635848404
3090 -83.00706648562971
3091 -83.18379730633592
3092 -83.00888077570391
3093 -83.18725069590499
3094 -83.01036345519645
3095 -83.18563192085821
3096 -83.00799647798164
3097 -83.17958146153546
3098 -83.00721434941221
3099 -83.18091312173351
3100 -83.0047430274991
3101 -83.17833434014858
3102 -83.003933385903
3103 -83.17845816824729
3104 -83.00412582473984
3105 -83.18108465519845
3106 -83.00573616718782
3107 -83.17737271252429
3108 -83.00208162264499
3109 -83.17782115959483
3110 -83.00613352089505
3111 -83.17842952076325
3112 -83.00593480553903
3113 -83.18293719890187
3114 -83.00375664639876
3115 -83.18412123672448
3116 -83.00723918773991
3117 -83.18479170278096
3118 -83.00347799738421
3119 -83.17969230511738
3120 -83.00812414652455
3121 -83.18538290458025
3122 -83.01115666224297
3123 -83.1844960083921
3124 -83.01259224999569
3125 -83.18582564838511
3126 -83.01327492325669
3127 -83.18283861669499
3128 -83.00898516321536
3129 -83.18580606319659
3130 -83.00611927539154
3131 -83.18264709246796
3132 -83.00822007184462
3133 -83.18628293310331
3134 -83.00866341388866
3135 -83.1817527505487
3136 -83.00759661161658
3137 -83.17992361831864
3138 -83.00407478819017
3139 -83.17713890578995
3140 -83.00261460460507
3141 -83.17427001399307
3142 -83.00478348384485
3143 -83.17360968861186
3144 -83.00981156328214
3145 -83.17199100022799
3146 -83.00729330952146
3147 -83.17036872969504
3148 -83.01213638847503
3149 -83.17691483232005
3150 -83.01051693968537
3151 -83.17611788347619
3152 -83.01427869506244
3153 -83.17892435762582
3154 -83.01089198835501
3155 -83.1801615249156
3156 -83.01204098649475
3157 -83.18778824905172
3158 -83.01139254593738
3159 -83.18605031303707
3160 -83.01229186595725
3161 -83.19146634680561
3162 -83.01435670630116
3163 -83.18808388303466
3164 -83.01733918221856
3165 -83.18600398276163
3166 -83.00968840820258
3167 -83.1794115002474
3168 -83.00687939115198
3169 -83.17857024439542
3170 -83.00752333467068
3171 -83.17835501659692
3172 -83.00598619023151
3173 -83.17382377955323
3174 -83.0015957140771
3175 -83.17157613988945
3176 -82.99850928614666
3177 -83.1741186850432
3178 -82.99959854619459
3179 -83.1739053394241
3180 -82.99954387421184
3181 -83.18212181649301
3182 -83.0032085080021
3183 -83.17911964289891
3184 -83.00489993030266
3185 -83.18255365821403
3186 -83.00678970884729
3187 -83.18312919166664
3188 -83.01358621831605
3189 -83.18555892917709
3190 -83.01603850944082
3191 -83.18358093052069
3192 -83.01623213697985
3193 -83.18550305964908
3194 -83.01463364231506
3195 -83.17711576415257
3196 -83.01378968435841
3197 -83.1735650456572
3198 -83.01127737089638
3199 -83.17316423114943
3200 -83.00908618000608
3201 -83.17527096345663
3202 -83.00549239039924
3203 -83.17632640849757
3204 -83.00706530787221
3205 -83.17632860374425
3206 -83.00472094825966
3207 -83.1724444793665
3208 -83.00839785056047
3209 -83.17197880349545
3210 -83.00375498661037
3211 -83.16795941872266
3212 -83.00475762390704
3213 -83.16977197351349
3214 -83.0108634776285
3215 -83.16909248288061
3216 -83.01205628225728
3217 -83.1753207235713
3218 -83.0151438400618
3219 -83.17463079047616
3220 -83.01466774546992
3221 -83.1818217727573
3222 -83.01999969611376
3223 -83.18638977009164
3224 -83.02013667522147
3225 -83.18780141797396
3226 -83.01607347468916
3227 -83.18343461456709
3228 -83.01180936118334
3229 -83.1801910156492
3230 -83.00863639450512
3231 -83.1744747226565
3232 -83.01126558765208
3233 -83.17540632922169
3234 -83.00947533290849
3235 -83.1738830361715
3236 -83.00617579549174
3237 -83.17700064471285
3238 -83.00441096467125
3239 -83.16974786059728
3240 -83.00066718477535
3241 -83.17646710574718
3242 -83.00404541420573
3243 -83.18097713351295
3244 -83.00684590318559
3245 -83.17906377042283
3246 -83.00040664516627
3247 -83.17594822324571
3248 -83.00411687200477
3249 -83.17656861366487
3250 -83.00350165667339
3251 -83.17654223737753
3252 -83.00177390042273
3253 -83.17591383844194
3254 -83.00003256703292
3255 -83.16910648101282
3256 -82.99937484343172
3257 -83.17380594511656
3258 -83.00338942481847
3259 -83.16814628938192
3260 -83.00543572305992
3261 -83.17394282922288
3262 -83.00982478589202
3263 -83.17574292932812
3264 -83.00848593241744
3265 -83.18164322821212
3266 -83.01133675569315
3267 -83.18321294174723
3268 -83.01261227371532
3269 -83.18746625620639
3270 -83.01161084096242
3271 -83.18780195677482
3272 -83.00842464437511
3273 -83.1841661180668
3274 -83.01105816728909
3275 -83.18060423661859
3276 -83.00924395416075
3277 -83.18239591128793
3278 -83.00952282314626
3279 -83.17344974619573
3280 -83.00617453175056
3281 -83.1750416527691
3282 -83.00340580607906
3283 -83.16418051678227
3284 -82.99728044582224
3285 -83.1635962367485
3286 -82.99850500255519
3287 -83.15982163927418
3288 -82.99355947305298
3289 -83.16135053364354
3290 -82.99920246898358
3291 -83.16488354286133
3292 -83.00292259000065
3293 -83.17243513669945
3294 -83.00833172757922
3295 -83.17443781902966
3296 -83.00902350799913
3297 -83.18311898110625
3298 -83.01245988881186
3299 -83.18257385412727
3300 -83.01280438326972
3301 -83.18877284388446
3302 -83.02178987190428
3303 -83.18970098406584
3304 -83.02489453035304
3305 -83.19808836503296
3306 -83.02778885709915
3307 -83.19593500725455
3308 -83.02478556167574
3309 -83.19905203990652
3310 -83.02178073544809
3311 -83.19371252120027
3312 -83.01844891537513
3313 -83.18967252524652
3314 -83.01376008436438
3315 -83.18694523087174
3316 -83.01115514554829
3317 -83.18541434720078
3318 -83.00662372682922
3319 -83.18062944890721
3320 -83.00692093208266
3321 -83.17548834094146
3322 -83.00085336912804
3323 -83.16969497361771
3324 -82.99894423380294
3325 -83.16968350737721
3326 -83.00057490493469
3327 -83.16877452086635
3328 -83.00442768669376
3329 -83.17443995238244
3330 -83.00776986319767
3331 -83.17384145817994
3332 -83.01501442922302
3333 -83.18345253658674
3334 -83.02301569812039
3335 -83.19189252694491
3336 -83.02858239793392
3337 -83.19723397319228
3338 -83.03176858750481
3339 -83.19867006006422
3340 -83.03269830618126
3341 -83.20218627320133
3342 -83.03016013334553
3343 -83.19932833061063
3344 -83.02602011853816
3345 -83.19686332365097
3346 -83.02108009410284
3347 -83.18918713972357
3348 -83.01887472729982
3349 -83.19295298041305
3350 -83.01623771152219
3351 -83.18527928966853
3352 -83.01095348519817
3353 -83.18465607230354
3354 -83.01017699395828
3355 -83.18027129453526
3356 -83.00887012109058
3357 -83.18503784528468
3358 -83.00909801602552
3359 -83.18368600323373
3360 -83.01140178311812
3361 -83.18286741927847
3362 -83.01284461364264
3363 -83.17733130536817
3364 -83.01182343684201
3365 -83.17724519905943
3366 -83.00777644941451
3367 -83.17270284072504
3368 -83.00370189545464
3369 -83.17500900914018
3370 -83.00484504859639
3371 -83.16991528740886
3372 -83.00029837120906
3373 -83.17125438367111
3374 -83.00127907327993
3375 -83.17323041708755
3376 -83.0031254513076
3377 -83.18163963494158
3378 -83.00918072313186
3379 -83.18499268056354
3380 -83.01375217186313
3381 -83.19232715646876
3382 -83.02296712734255
3383 -83.19691011420548
3384 -83.02449934121364
3385 -83.19653715666806
3386 -83.02567532461592
3387 -83.19555337650371
3388 -83.02417761243345
3389 -83.19639338917648
3390 -83.02626036950591
3391 -83.19674826514273
3392 -83.02521548414478
3393 -83.19330089721535
3394 -83.02153874794118
3395 -83.18502383309749
3396 -83.01363895448776
3397 -83.18260957566775
3398 -83.00820154555879
3399 -83.17453000783286
3400 -83.00024044134409
3401 -83.16889861955292
3402 -82.99723169912653
3403 -83.16627028552119
3404 -82.99592947101274
3405 -83.16764919653093
3406 -82.99470013370484
3407 -83.16858541471527
3408 -82.99704308094852
3409 -83.16812564996491
3410 -82.99789502913768
3411 -83.17128141138147
3412 -83.00585979358431
3413 -83.18044266468559
3414 -83.00860511735021
3415 -83.18604967343038
3416 -83.0130969095037
3417 -83.18939494393521
3418 -83.01741279049321
3419 -83.19489352787861
3420 -83.01945932378652
3421 -83.19517437311271
3422 -83.01864959677039
3423 -83.19377158577771
3424 -83.02009731924232
3425 -83.19367359838179
3426 -83.01750685637933
3427 -83.19190638402114
3428 -83.01648449407509
3429 -83.1907051486599
3430 -83.01107761809891
3431 -83.18366101945486
3432 -83.0090803583131
3433 -83.17975319694784
3434 -83.00589445240746
3435 -83.17781095926142
3436 -83.00559133984012
3437 -83.1769528296432
3438 -83.00100244674093
3439 -83.17300224793723
3440 -83.00058935276638
3441 -83.17317118894164
3442 -82.99722359202781
3443 -83.17051610327678
3444 -82.99576664404071
3445 -83.1736735343157
3446 -82.99801398160639
3447 -83.17585636504992
3448 -83.00300769739044
3449 -83.1752520650781
3450 -83.00476203182791
3451 -83.17415997253187
3452 -83.00719875770824
3453 -83.17642391496327
3454 -83.00681635723214
3455 -83.17631661643026
3456 -83.01088855759519
3457 -83.17629157368168
3458 -83.01131825855271
3459 -83.17221141274854
3460 -83.00872909928677
3461 -83.17804584010162
3462 -83.01169361060329
3463 -83.18488538698506
3464 -83.01331571725092
3465 -83.18857279779229
3466 -83.0119603133902
3467 -83.18880009358412
3468 -83.01793690768409
3469 -83.1896386650501
3470 -83.01379018483999
3471 -83.1824292406564
3472 -83.01433667408634
3473 -83.1868089573826
3474 -83.01325945015003
3475 -83.1868816551243
3476 -83.01168868930478
3477 -83.18631727743571
3478 -83.00966893991
3479 -83.18003421226769
3480 -83.00509884041776
3481 -83.17936981160278
3482 -82.99951338609043
3483 -83.17626959700198
3484 -82.99355751815796
3485 -83.17374823034538
3486 -82.99299115136944
3487 -83.17266206764424
3488 -82.99289349073115
3489 -83.17577216297468
3490 -82.99108100335252
3491 -83.17280933139392
3492 -82.99484079076501
3493 -83.17247136455757
3494 -82.99759025840029
3495 -83.17307404950066
3496 -83.00418425816503
3497 -83.1770111344477
3498 -83.0080611961742
3499 -83.18036052263813
3500 -83.01254299357629
3501 -83.18480802296853
3502 -83.01329421553737
3503 -83.18314343105112
3504 -83.01513553554219
3505 -83.18359212654582
3506 -83.01401521471416
3507 -83.18121084856523
3508 -83.01292416567071
3509 -83.18488376312598
3510 -83.01159162755823
3511 -83.18259638855153
3512 -83.01053040233552
3513 -83.18294134006538
3514 -83.01040099047071
3515 -83.17640828985094
3516 -83.00700091648088
3517 -83.17418650703087
3518 -83.00071451104861
3519 -83.16669588094771
3520 -82.99717376813436
3521 -83.16566884867797
3522 -82.99527016674881
3523 -83.15977593716138
3524 -82.99147570452595
3525 -83.15872088482814
3526 -82.9935389507279
3527 -83.16241503973765
3528 -82.99956165693294
3529 -83.17070662103083
3530 -83.00569804082363
3531 -83.17589731714656
3532 -83.01214509329725
3533 -83.18768043395079
3534 -83.01626214723763
3535 -83.19334475319454
3536 -83.0222192535071
3537 -83.19169096500815
3538 -83.02201291768188
3539 -83.18904858964379
3540 -83.0191464917533
3541 -83.18959736785825
3542 -83.01764543441448
3543 -83.18212819987735
3544 -83.01501826672228
3545 -83.18543875142808
3546 -83.0122681568937
3547 -83.17852973965864
3548 -83.00792543344528
3549 -83.17586174824561
3550 -83.00534261776255
3551 -83.16703732218235
3552 -83.00147008979906
3553 -83.16930949380128
3554 -82.99841137552608
3555 -83.1692098824571
3556 -82.99792451088598
3557 -83.17592151805866
3558 -83.00305098168059
3559 -83.17929674726383
3560 -83.00637978968683
3561 -83.18122085610918
3562 -83.00791789875672
3563 -83.18229646298778
3564 -83.0086277141836
3565 -83.17888983305784
3566 -83.00735007988345
3567 -83.18033861771602
3568 -83.01098758762419
3569 -83.18133268143134
3570 -83.01178646728033
3571 -83.18609256138382
3572 -83.01676688000583
3573 -83.18696255396776
3574 -83.01728336979659
3575 -83.18536355142174
3576 -83.01598053638367
3577 -83.18488738605475
3578 -83.01860502658081
3579 -83.17765262534516
3580 -83.01505428496705
3581 -83.17909841551636
3582 -83.01050124745979
3583 -83.17842668874903
3584 -83.01506181383337
3585 -83.18582552870191
3586 -83.01079200047457
3587 -83.17979896488112
3588 -83.00874234925624
3589 -83.18234655960242
3590 -83.00469221566954
3591 -83.17698350304659
3592 -83.00950734097825
3593 -83.17993234192136
3594 -83.00925791055192
3595 -83.18052304213091
3596 -83.00649072757824
3597 -83.17678341680994
3598 -83.00321819336972
3599 -83.17422688669552
3600 -83.00210936549337
3601 -83.17494656892927
3602 -83.00378395567918
3603 -83.17190591370991
3604 -83.00581297134141
3605 -83.17358247453507
3606 -83.0065747030327
3607 -83.17154446303147
3608 -83.00572719165933
3609 -83.17637594336793
3610 -83.00907580493487
3611 -83.17824191669433
3612 -83.01183330167282
3613 -83.1863781584907
3614 -83.01482845489079
3615 -83.19079249260102
3616 -83.02005807859632
3617 -83.1937692671732
3618 -83.01994111657552
3619 -83.19354111215222
3620 -83.02568104742329
3621 -83.19786366736389
3622 -83.02368029212437
3623 -83.19582604965689
3624 -83.02029587183762
3625 -83.19552211313334
3626 -83.01895412181369
3627 -83.19316865843132
3628 -83.01633393154236
3629 -83.1901511792301
3630 -83.01223659912392
3631 -83.18266601459118
3632 -83.00725529693591
3633 -83.17789501963688
3634 -83.0008940868405
3635 -83.17128075036857
3636 -82.9982716897477
3637 -83.17164280931058
3638 -82.9982807182285
3639 -83.17023567830893
3640 -82.99950059369797
3641 -83.17355727123999
3642 -82.99977017661871
3643 -83.17820240557444
3644 -83.00732264876461
3645 -83.18468012284023
3646 -83.0108940060943
3647 -83.18881220815018
3648 -83.02111461215736
3649 -83.19776250792881
3650 -83.02635740939911
3651 -83.19534760864241
3652 -83.02831909759357
3653 -83.19611503273512
3654 -83.0266045951837
3655 -83.19075456030475
3656 -83.02508284391342
3657 -83.19028251499367
3658 -83.02229236706569
3659 -83.18961939997155
3660 -83.02141167662177
3661 -83.19335342143017
3662 -83.02248312107122
3663 -83.19164778829077
3664 -83.02277074058838
3665 -83.18992449963997
3666 -83.0140831675086
3667 -83.1827701107602
3668 -83.01007416451426
3669 -83.18148164999269
3670 -83.01008724485104
3671 -83.18495933046114
3672 -83.01269721287798
3673 -83.18610849371902
3674 -83.01349346407079
3675 -83.18567207637903
3676 -83.0137776799599
3677 -83.18876911175323
3678 -83.01686417529157
3679 -83.18444124063916
3680 -83.01594124639524
3681 -83.19017126141472
3682 -83.01931050637882
3683 -83.19112362308414
3684 -83.01992572935808
3685 -83.19511389666127
3686 -83.02208528687009
3687 -83.19274533190088
3688 -83.02322343295089
3689 -83.19574504343012
3690 -83.01972061473953
3691 -83.1955740201106
3692 -83.0213214828778
3693 -83.19293142928552
3694 -83.01452486570338
3695 -83.18709641448646
3696 -83.0116696554195
3697 -83.19092908066909
3698 -83.01268703153744
3699 -83.19163076880847
3700 -83.01449906807022
3701 -83.19312974767183
3702 -83.01539615699068
3703 -83.1915216082856
3704 -83.01638803990301
3705 -83.19128210935941
3706 -83.0103009902071
3707 -83.18618504503667
3708 -83.01013444769791
3709 -83.19347925255749
3710 -83.01665492597664
3711 -83.19560566245218
3712 -83.01933883360499
3713 -83.19119233488038
3714 -83.01304307193391
3715 -83.18576515504515
3716 -83.01381716523946
3717 -83.18500036246559
3718 -83.01531179785434
3719 -83.18512455395603
3720 -83.01597822153707
3721 -83.18813430410722
3722 -83.01686868398201
3723 -83.18537568897312
3724 -83.01585116215597
3725 -83.18912176455996
3726 -83.01559023600345
3727 -83.18637074420451
3728 -83.01399376165614
3729 -83.19046045874398
3730 -83.01099456410287
3731 -83.19163846349886
3732 -83.01508409165803
3733 -83.19572278690498
3734 -83.01336773073882
3735 -83.19600237255287
3736 -83.01869231989463
3737 -83.19331992726541
3738 -83.01460868710234
3739 -83.18983537182447
3740 -83.01852971718438
3741 -83.18570298959423
3742 -83.01316888392898
3743 -83.18142570146517
3744 -83.00966522340588
3745 -83.18092758986438
3746 -83.00294276574783
3747 -83.1761217947942
3748 -83.00189508228578
3749 -83.17899127028471
3750 -83.00440540604853
3751 -83.17730393153255
3752 -83.00031536836639
3753 -83.17848940459282
3754 -82.99599117001708
3755 -83.17387288706999
3756 -82.99501474637589
3757 -83.17694347056124
3758 -82.99781290719329
3759 -83.17845268066856
3760 -83.00385573048504
3761 -83.18638843448019
3762 -83.01267592940428
3763 -83.18575920306534
3764 -83.01652769422475
3765 -83.19259494540034
3766 -83.01939048930819
3767 -83.18815241122832
3768 -83.01906324041829
3769 -83.18811003851152
3770 -83.0160503559066
3771 -83.18356911862838
3772 -83.01669248348185
3773 -83.19145543887117
3774 -83.02065796268784
3775 -83.18801904093527
3776 -83.01627311846011
3777 -83.18339736566895
3778 -83.01227268095334
3779 -83.18146188931871
3780 -83.00630872091989
3781 -83.17573963068844
3782 -83.00067941201945
3783 -83.17107575884006
3784 -83.00111659515545
3785 -83.17270674408405
3786 -83.00026093102178
3787 -83.17654223161833
3788 -83.01134711115708
3789 -83.18169077389439
3790 -83.01512063721134
3791 -83.18091216864832
3792 -83.01603428653175
3793 -83.17905227364247
3794 -83.01655633202296
3795 -83.17896494227659
3796 -83.01429512725952
3797 -83.18412524983381
3798 -83.01413393181758
3799 -83.18616860310931
3800 -83.01973153810735
3801 -83.19520786906691
3802 -83.01793740582553
3803 -83.19168009946389
3804 -83.01347249487196
3805 -83.18748759480803
3806 -83.00791619556179
3807 -83.18293350779379
3808 -83.00660254471762
3809 -83.18191762363631
3810 -83.00641873795161
3811 -83.18190925707444
3812 -83.01568806330658
3813 -83.18305007970042
3814 -83.01593100127218
3815 -83.17911336355394
3816 -83.01265296024218
3817 -83.1815364331527
3818 -83.01146655988435
3819 -83.17620557720107
3820 -83.00987973254689
3821 -83.17918898721285
3822 -83.012329643231
3823 -83.18249334464082
3824 -83.014795091135
3825 -83.18080546508861
3826 -83.01305787742928
3827 -83.17803511282767
3828 -83.00963272430482
3829 -83.17948079074398
3830 -83.0091144761177
3831 -83.17610732736205
3832 -83.00848015414374
3833 -83.17407679360059
3834 -83.00437047606545
3835 -83.17623193459951
3836 -83.00482840759747
3837 -83.17081564409136
3838 -83.00019687587769
3839 -83.16972245294193
3840 -83.0032115884112
3841 -83.17323955715636
3842 -83.00691676211665
3843 -83.17326750517816
3844 -83.01048811928564
3845 -83.17885499991218
3846 -83.01193723422386
3847 -83.17717009642985
3848 -83.02031825832353
3849 -83.17895343784323
3850 -83.01572144137856
3851 -83.17955333114742
3852 -83.02028028085613
3853 -83.18051054287366
3854 -83.02050764135862
3855 -83.18367100644343
3856 -83.02323877633586
3857 -83.1843322878824
3858 -83.0210819288481
3859 -83.18091241066389
3860 -83.01830595939225
3861 -83.17884588234904
3862 -83.00904124474044
3863 -83.17376435128443
3864 -83.00545481340617
3865 -83.17762727862583
3866 -83.00393389533491
3867 -83.16873413324674
3868 -83.00334012643935
3869 -83.1693397465832
3870 -83.00066631840554
3871 -83.16344638234131
3872 -83.00018189499445
3873 -83.17232506064983
3874 -83.00221037103398
3875 -83.1729917587059
3876 -83.0076558815295
3877 -83.17829287860815
3878 -83.00980787171608
3879 -83.18288790178548
3880 -83.01217614762538
3881 -83.18905019242868
3882 -83.0153073142688
3883 -83.1911755227145
3884 -83.01811284721458
3885 -83.18966025543773
3886 -83.01733887240204
3887 -83.1878751198368
3888 -83.0144096881873
3889 -83.18647256913846
3890 -83.01115197253642
3891 -83.18006177472034
3892 -83.01099111089815
3893 -83.18206351618488
3894 -83.00691986542239
3895 -83.17654426451003
3896 -83.00301335509471
3897 -83.17516577178179
3898 -83.00457595364412
3899 -83.16932231522509
3900 -82.99981730828318
3901 -83.16818582396263
3902 -83.00004742927297
3903 -83.17014904122965
3904 -83.00279237435461
3905 -83.17601811030977
3906 -83.00262786348418
3907 -83.17697796524914
3908 -83.00340463685126
3909 -83.17815299332551
3910 -83.00580587171231
3911 -83.17564477863169
3912 -83.00524314256864
3913 -83.17865463681756
3914 -83.00917838817065
3915 -83.18008104225413
3916 -83.01360390292177
3917 -83.17976978687182
3918 -83.00960702219447
3919 -83.17597176518518
3920 -83.01013583127968
3921 -83.17751401262319
3922 -83.00749309853188
3923 -83.17604697907439
3924 -83.00821986036453
3925 -83.18142085384585
3926 -83.01152668097308
3927 -83.177954130763
3928 -83.01166364142989
3929 -83.17566088013604
3930 -83.00971852989204
3931 -83.17921235848661
3932 -83.01323334010317
3933 -83.17889957191949
3934 -83.00984323163141
3935 -83.17693496280384
3936 -83.01232233123119
3937 -83.18187688889697
3938 -83.01160554772872
3939 -83.18144903366522
3940 -83.01155691667566
3941 -83.18279187529532
3942 -83.00546972209253
3943 -83.17672601552385
3944 -83.00276942825155
3945 -83.17497619321364
3946 -82.99920684288736
3947 -83.17442131662528
3948 -83.0017622696846
3949 -83.17786548398516
3950 -83.0000512708325
3951 -83.18072291668534
3952 -82.99998482934376
3953 -83.17677276860007
3954 -82.99876454444541
3955 -83.17690435228769
3956 -83.00420991663043
3957 -83.17789526021733
3958 -83.00413417468536
3959 -83.18027670742049
3960 -83.00851223606685
3961 -83.18238893044565
3962 -83.01049186891737
3963 -83.18138596538779
3964 -83.01280801297224
3965 -83.18324193243279
3966 -83.00613303096475
3967 -83.17926274984376
3968 -83.00914001916033
3969 -83.18297768161949
3970 -83.01349445994356
3971 -83.1887340528927
3972 -83.02036673554773
3973 -83.19175914288309
3974 -83.01972986586247
3975 -83.18946006509589
3976 -83.01806592785931
3977 -83.18715199973019
3978 -83.01173976023841
3979 -83.17999707636096
3980 -83.00612059287215
3981 -83.17507807038902
3982 -83.00345135798398
3983 -83.16634801794771
3984 -82.99809725263788
3985 -83.16449050542218
3986 -82.99472691540848
3987 -83.15392099541208
3988 -82.99152967301603
3989 -83.15936488783433
3990 -82.99737308293362
3991 -83.16387575261695
3992 -82.99667349809454
3993 -83.16931416843391
3994 -83.00271467928093
3995 -83.17812436247749
3996 -83.00653210486757
3997 -83.18376532350067
3998 -83.01198290401271
3999 -83.1871641996479
4000 -83.01732238307352
4001 -83.19003402903172
4002 -83.0182697970925
4003 -83.18932295878341
4004 -83.01965214721105
4005 -83.18951556669896
4006 -83.02070906432897
4007 -83.18684800868022
4008 -83.01801392624492
4009 -83.18367747751267
4010 -83.0113137750476
4011 -83.18098788348334
4012 -83.00775548103633
4013 -83.18152336472002
4014 -83.00366339456025
4015 -83.1750670952282
4016 -83.00365616790674
4017 -83.18086636706306
4018 -82.99936718001214
4019 -83.17753605637984
4020 -82.99461284993117
4021 -83.17668367729243
4022 -82.99543267494101
4023 -83.17666158569745
4024 -82.99951754692398
4025 -83.18259247430422
4026 -83.00595937620818
4027 -83.18336986423009
4028 -83.00881459481599
4029 -83.18647501251775
4030 -83.00858552504963
4031 -83.18168810313216
4032 -83.00948384126445
4033 -83.18320573341816
4034 -83.00859448330112
4035 -83.180021668064
4036 -83.00639268656624
4037 -83.18213265635018
4038 -83.00338516097275
4039 -83.1783165810362
4040 -83.00227928555859
4041 -83.18399923619285
4042 -83.00469089112818
4043 -83.17899016785725
4044 -83.00621356520321
4045 -83.18528740212776
4046 -83.00787449444539
4047 -83.18105548154796
4048 -83.0084155028913
4049 -83.18168292743616
4050 -83.00968081712654
4051 -83.18348956819557
4052 -83.01636423774431
4053 -83.18711972421147
4054 -83.01651551184619
4055 -83.18965076570754
4056 -83.01867694192981
4057 -83.18677952483949
4058 -83.01200806932559
4059 -83.18547051996853
4060 -83.00733609973764
4061 -83.17997068979275
4062 -83.00322759092461
4063 -83.17950665745639
4064 -83.00219726712288
4065 -83.17478310114984
4066 -82.99725173936054
4067 -83.16814646928856
4068 -82.99925788375947
4069 -83.17453438841773
4070 -82.99908066716807
4071 -83.17053482861837
4072 -82.99602412314977
4073 -83.16953971658364
4074 -82.99430920552982
4075 -83.16829871615084
4076 -82.99735001792124
4077 -83.17528438265322
4078 -82.99898166697898
4079 -83.17590837478986
4080 -83.00586372092698
4081 -83.18626524235532
4082 -83.01207379310398
4083 -83.18660920709891
4084 -83.01183406892977
4085 -83.19137947656867
4086 -83.01026962697739
4087 -83.18703500118113
4088 -83.01088084389346
4089 -83.18920256504583
4090 -83.00970225758601
4091 -83.1879743172193
4092 -83.00697340922318
4093 -83.18213064539259
4094 -83.00311664682897
4095 -83.17802943691885
4096 -83.00468313698832
4097 -83.18032640061034
4098 -83.00198410170361
4099 -83.17680823947705
4100 -83.00291643372003
4101 -83.17618977495761
4102 -83.00412760194024
4103 -83.17618177443433
4104 -83.00456110509811
4105 -83.17657673982228
4106 -83.0030239448659
4107 -83.17851726869844
4108 -83.00763309752551
4109 -83.18195661979138
4110 -83.00933795171073
4111 -83.18003513572262
4112 -83.01523924330542
4113 -83.18717895248511
4114 -83.01713538359525
4115 -83.18565100687312
4116 -83.01402721344908
4117 -83.18784924630734
4118 -83.01081007657115
4119 -83.18046798630979
4120 -83.00685340926435
4121 -83.18120291011331
4122 -83.00806072304169
4123 -83.18162068541125
4124 -83.00902038109876
4125 -83.17733640503786
4126 -83.00563127334857
4127 -83.1728451022056
4128 -83.00299061945015
4129 -83.17347386833995
4130 -83.00286870507256
4131 -83.17405372736027
4132 -83.00531406877616
4133 -83.1789955425009
4134 -83.00802536387033
4135 -83.17966138213029
4136 -83.01020811954595
4137 -83.17834480678744
4138 -83.01226382446532
4139 -83.17631959443094
4140 -83.01030428033101
4141 -83.18051004034771
4142 -83.0124869442663
4143 -83.17689481265688
4144 -83.01054982676749
4145 -83.17762716677851
4146 -83.0073947183148
4147 -83.17682576906492
4148 -83.00687318405414
4149 -83.18509262178543
4150 -83.00858438298314
4151 -83.18533001096694
4152 -83.00892097967318
4153 -83.18202201193753
4154 -83.00531152023149
4155 -83.17776983208108
4156 -83.00367030680525
4157 -83.1749130762264
4158 -82.99943068382481
4159 -83.17139367132927
4160 -83.00421185083809
4161 -83.17746914384242
4162 -83.00365281070674
4163 -83.17215816810506
4164 -83.00036512380905
4165 -83.17520967038848
4166 -83.00194312420047
4167 -83.17117041000398
4168 -83.00412191044461
4169 -83.1771851949494
4170 -83.00688891251474
4171 -83.17472371690536
4172 -83.00957412784373
4173 -83.17880364417562
4174 -83.01439364488289
4175 -83.1746750017283
4176 -83.00942266102498
4177 -83.17570759767017
4178 -83.00983348656524
4179 -83.17048431917317
4180 -83.01059926669649
4181 -83.17780093925853
4182 -83.01118161277009
4183 -83.17524368508526
4184 -83.0065797672367
4185 -83.17682366758999
4186 -83.00063810595816
4187 -83.16834772463534
4188 -82.99709337774289
4189 -83.16944104433526
4190 -82.9991819949314
4191 -83.16813219626306
4192 -82.99926551514346
4193 -83.17227079306542
4194 -83.00047158263766
4195 -83.17143321173074
4196 -83.00467629780422
4197 -83.17850056723103
4198 -83.01118677729409
4199 -83.17693967876397
4200 -83.0112146744944
4201 -83.1803089018693
4202 -83.011833132417
4203 -83.18134279059893
4204 -83.00932794938933
4205 -83.17975548740878
4206 -83.00743583163
4207 -83.1777213730457
4208 -83.00479524352176
4209 -83.1774479382334
4210 -83.00259600331469
4211 -83.16954621622722
4212 -82.99820022447545
4213 -83.1719069517784
4214 -83.00063395448717
4215 -83.17148276454805
4216 -82.99812386463594
4217 -83.17421426831601
4218 -82.99738290917736
4219 -83.17397047617629
4220 -82.99869566799794
4221 -83.17563958184911
4222 -83.00342986177338
4223 -83.17920664878955
4224 -83.00791911147894
4225 -83.18615160902016
4226 -83.01035115746157
4227 -83.18156145088994
4228 -83.00973183640235
4229 -83.1829484606302
4230 -83.00943078560778
4231 -83.18389308499479
4232 -83.00913510360112
4233 -83.18189488050979
4234 -83.0081311596719
4235 -83.18348710733926
4236 -83.00562512325763
4237 -83.18267841779414
4238 -83.00633661038341
4239 -83.17694978130032
4240 -83.00127637080982
4241 -83.16962952283995
4242 -82.99628831166984
4243 -83.16654917677124
4244 -82.99847850073201
4245 -83.16841953634753
4246 -82.99945058007773
4247 -83.17092549474535
4248 -83.00605656143273
4249 -83.17193442406295
4250 -83.00458998643512
4251 -83.17035964224124
4252 -83.0038973410671
4253 -83.16573629011577
4254 -83.00210482313213
4255 -83.16935551465338
4256 -83.00249576657717
4257 -83.17216068900314
4258 -83.00305588726064
4259 -83.17384853442519
4260 -83.00701599213124
4261 -83.18303830172687
4262 -83.0093033374319
4263 -83.18343782331021
4264 -83.01442156931063
4265 -83.18412978304377
4266 -83.01051680874821
4267 -83.17593532652194
4268 -83.00941369959247
4269 -83.18060850884592
4270 -83.01022730164635
4271 -83.17900156590122
4272 -83.00866477513182
4273 -83.18427481351597
4274 -83.01067313100737
4275 -83.18262043077044
4276 -83.01265515764021
4277 -83.18145032286225
4278 -83.00802649719691
4279 -83.17723671989995
4280 -83.00491109517782
4281 -83.17805077175638
4282 -83.00633475975809
4283 -83.18572177003108
4284 -83.00573044263177
4285 -83.18447977082019
4286 -83.00625513217568
4287 -83.18054029209389
4288 -83.00912163929968
4289 -83.18323807299345
4290 -83.00838639542707
4291 -83.17920669547755
4292 -83.00622755858706
4293 -83.17612085838641
4294 -83.00195456869358
4295 -83.17111284795931
4296 -83.00406828823759
4297 -83.17571783766311
4298 -83.00906975694238
4299 -83.17794797400308
4300 -83.00980381862507
4301 -83.18377315914154
4302 -83.00907889982767
4303 -83.18360985371601
4304 -83.012495418713
4305 -83.18323058680522
4306 -83.00906861461783
4307 -83.17537271197949
4308 -83.00778671600057
4309 -83.17961078629742
4310 -83.01171027506012
4311 -83.17904318290709
4312 -83.01365368133435
4313 -83.18336790657014
4314 -83.01659830337667
4315 -83.18536980296415
4316 -83.01986604165376
4317 -83.18903408323206
4318 -83.0188225616721
4319 -83.18363547190086
4320 -83.01258229885894
4321 -83.18420933990564
4322 -83.0120380483765
4323 -83.18169319435856
4324 -83.01407270328707
4325 -83.18576694601808
4326 -83.01029662906342
4327 -83.18270614651902
4328 -83.00656189859961
4329 -83.17639118705051
4330 -82.99884594353091
4331 -83.17058844052843
4332 -82.99866459596745
4333 -83.16832782750896
4334 -82.99735476109311
4335 -83.17222399051064
4336 -83.00134220793058
4337 -83.18048714133477
4338 -83.00363146439582
4339 -83.18124501228704
4340 -83.0054398072657
4341 -83.18490485042378
4342 -83.00818295134678
4343 -83.18424643869702
4344 -83.01081017864345
4345 -83.19252915723672
4346 -83.01354806455299
4347 -83.18972393460552
4348 -83.0149343563063
4349 -83.19620551027288
4350 -83.01945191104267
4351 -83.19846405935766
4352 -83.02317463002544
4353 -83.20342692662337
4354 -83.01836128607408
4355 -83.20311862455213
4356 -83.01706364625034
4357 -83.19956986733115
4358 -83.01500420878125
4359 -83.19356592101815
4360 -83.01380374473416
4361 -83.18914581887157
4362 -83.01035660989618
4363 -83.19000028619587
4364 -83.01231020840203
4365 -83.19088674891555
4366 -83.01001152681471
4367 -83.18894790681003
4368 -83.00835948739905
4369 -83.191531518376
4370 -83.00716314603619
4371 -83.18574922398994
4372 -83.00664057727812
4373 -83.1893781750378
4374 -83.00839615755655
4375 -83.18443400069708
4376 -83.01495994329383
4377 -83.19372440389208
4378 -83.02009170222624
4379 -83.19758226094615
4380 -83.02577832091322
4381 -83.20426929287601
4382 -83.02828912148618
4383 -83.20297240589343
4384 -83.02890306462223
4385 -83.19694557038713
4386 -83.02173891943431
4387 -83.1907891447201
4388 -83.01846410034125
4389 -83.18915009211418
4390 -83.01654496440705
4391 -83.18579111472326
4392 -83.01751945562205
4393 -83.18587418644478
4394 -83.01516968172291
4395 -83.18161698090984
4396 -83.0119066358593
4397 -83.18472887845252
4398 -83.01147598725385
4399 -83.18678314081922
4400 -83.01186106617814
4401 -83.19086592559916
4402 -83.01442733155335
4403 -83.19021293153889
4404 -83.0147863395768
4405 -83.19302545393879
4406 -83.01265440837773
4407 -83.18573498662829
4408 -83.01229907376506
4409 -83.18638298266757
4410 -83.01180948336753
4411 -83.18512699233594
4412 -83.01137413279622
4413 -83.18554660025961
4414 -83.01185196255426
4415 -83.18266327740554
4416 -83.00657477024572
4417 -83.18488669067358
4418 -83.00918033880765
4419 -83.1786870334281
4420 -83.00660967810273
4421 -83.1820437279984
4422 -83.00808033620308
4423 -83.18096907281074
4424 -83.00939266565359
4425 -83.18214936002551
4426 -83.01260868445945
4427 -83.18701275619918
4428 -83.01749406227248
4429 -83.19312694094157
4430 -83.02166586533798
4431 -83.19394939127795
4432 -83.0208148986739
4433 -83.19568811368885
4434 -83.01670076006729
4435 -83.19428935220407
4436 -83.0179613464133
4437 -83.1922621145867
4438 -83.01773286508836
4439 -83.18797716244541
4440 -83.01731054361346
4441 -83.18855319535999
4442 -83.01546487542396
4443 -83.18512743000724
4444 -83.01300886929027
4445 -83.18021688414962
4446 -83.00656686554407
4447 -83.17504129633505
4448 -83.00567590017084
4449 -83.17635825498735
4450 -83.00467204159889
4451 -83.17267253976496
4452 -83.00656186069347
4453 -83.17362985473636
4454 -83.00597693024042
4455 -83.17277523444471
4456 -83.01030705534993
4457 -83.18209254424022
4458 -83.01237111697787
4459 -83.18659151771396
4460 -83.02355008164483
4461 -83.19312688172954
4462 -83.02463081714376
4463 -83.18895613325765
4464 -83.02869270442761
4465 -83.19495728748063
4466 -83.02957094794954
4467 -83.19438193866847
4468 -83.02742038479704
4469 -83.19480352705983
4470 -83.01951406767336
4471 -83.19049951392282
4472 -83.01693539374003
4473 -83.18721287535215
4474 -83.01189706373088
4475 -83.18304734113036
4476 -83.00497686490098
4477 -83.18079789387315
4478 -82.99744196376417
4479 -83.17309015578968
4480 -82.99733694325187
4481 -83.17237911885684
4482 -82.99105364534284
4483 -83.15897658804226
4484 -82.99036432921088
4485 -83.16057275673165
4486 -82.99410767937781
4487 -83.16410941706425
4488 -82.99900886937979
4489 -83.17093391743947
4490 -83.00566099679821
4491 -83.1708722144013
4492 -83.01184584988948
4493 -83.17768808381834
4494 -83.01549837110116
4495 -83.17968454247466
4496 -83.01995794441063
4497 -83.18483041001906
4498 -83.02117693039651
4499 -83.18143299010234
4500 -83.01783344037545
4501 -83.18500574181058
4502 -83.01552951743014
4503 -83.18416295894986
4504 -83.01265129712357
4505 -83.18478956415112
4506 -83.00970355446947
4507 -83.18235788584167
4508 -83.01129398824889
4509 -83.18522993011749
4510 -83.01163755099748
4511 -83.18236609273544
4512 -83.01085798925038
4513 -83.18141453782312
4514 -83.01281095447166
4515 -83.18085761752025
4516 -83.0132728765015
4517 -83.17762600150496
4518 -83.01120744120033
4519 -83.17922645337103
4520 -83.01021739727611
4521 -83.17632013091338
4522 -83.00652843365253
4523 -83.1748912011281
4524 -83.01246294152173
4525 -83.17378276875615
4526 -83.00518969080446
4527 -83.17010772831571
4528 -83.00545931177692
4529 -83.17245240626829
4530 -83.00314079016971
4531 -83.17467817203851
4532 -83.00830645155901
4533 -83.17407177274157
4534 -83.00735732828872
4535 -83.17377883297382
4536 -83.01052561196093
4537 -83.17775020346483
4538 -83.01297613624979
4539 -83.18089713945926
4540 -83.01910598485824
4541 -83.18747756175873
4542 -83.01680850745515
4543 -83.19120590365981
4544 -83.018211436294
4545 -83.19153381936218
4546 -83.01442888590498
4547 -83.19110032256515
4548 -83.01472919323697
4549 -83.19027607413864
4550 -83.01209888784894
4551 -83.18510927699168
4552 -83.01273720039023
4553 -83.18264318642258
4554 -83.00855325519717
4555 -83.17676776634886
4556 -83.00653270503773
4557 -83.17662233609559
4558 -83.00344273461036
4559 -83.17027866410388
4560 -83.00445531471621
4561 -83.17104562315171
4562 -83.00090278479126
4563 -83.16806014825374
4564 -83.00113640987416
4565 -83.16946929340958
4566 -83.00081991832604
4567 -83.16526186222313
4568 -83.00315776967437
4569 -83.16863298454996
4570 -83.00099967611646
4571 -83.16706818745456
4572 -83.00428456078561
4573 -83.17660746915192
4574 -83.00695791853701
4575 -83.17868998341538
4576 -83.01276517961344
4577 -83.18284209650102
4578 -83.01806628411151
4579 -83.18260424265696
4580 -83.01759566234983
4581 -83.18633590708242
4582 -83.01745081394307
4583 -83.19000054376511
4584 -83.01891773078262
4585 -83.19002036031827
4586 -83.01953428597147
4587 -83.18722272529271
4588 -83.01653498272987
4589 -83.18604187753209
4590 -83.0104630307361
4591 -83.17890709519293
4592 -83.00454212262531
4593 -83.1780800844254
4594 -83.0027717841927
4595 -83.17064634558761
4596 -83.00096106880466
4597 -83.17181855203751
4598 -82.99778366352734
4599 -83.1684876489706
4600 -82.9979757726137
4601 -83.17102282496586
4602 -82.99862843285644
4603 -83.17317608753484
4604 -83.00819562723035
4605 -83.18055718007804
4606 -83.0112773865892
4607 -83.18650076455032
4608 -83.02112367292051
4609 -83.19038574733116
4610 -83.02408577507407
4611 -83.19492547432594
4612 -83.02533528845737
4613 -83.19277038792535
4614 -83.02239665678115
4615 -83.19450367374083
4616 -83.02097209337444
4617 -83.19247633660984
4618 -83.01527478925527
4619 -83.18734075033552
4620 -83.01388905669955
4621 -83.18731817506
4622 -83.01336954447476
4623 -83.1824019200422
4624 -83.00683334561222
4625 -83.17958195514154
4626 -83.00648227705341
4627 -83.17536275354786
4628 -83.00942898265743
4629 -83.17484399508356
4630 -83.00920240925973
4631 -83.17057668895643
4632 -83.00111833824428
4633 -83.17105822049825
4634 -83.00189205577567
4635 -83.16759000399713
4636 -82.99652384892994
4637 -83.17301670731075
4638 -83.00002048817566
4639 -83.16705424172636
4640 -83.00006448510766
4641 -83.17710038656566
4642 -83.00536485006143
4643 -83.17620685852103
4644 -83.00572967675265
4645 -83.18310827997055
4646 -83.01128649777343
4647 -83.17929718927428
4648 -83.01062056190887
4649 -83.18345485061894
4650 -83.01254706824068
4651 -83.18076716497086
4652 -83.01066680263085
4653 -83.18283108710625
4654 -83.01378568259281
4655 -83.18409952800818
4656 -83.01572308581041
4657 -83.18733711469554
4658 -83.01732778081652
4659 -83.18844718655987
4660 -83.0161911104492
4661 -83.18594370411506
4662 -83.00768270037719
4663 -83.18474522266257
4664 -83.0044529249617
4665 -83.18236656565779
4666 -83.00168736258968
4667 -83.177136960925
4668 -83.00046815613661
4669 -83.1753789529742
4670 -82.99653646782957
4671 -83.17206637160677
4672 -82.99807092319202
4673 -83.17533682694818
4674 -82.99596425787638
4675 -83.17494019064924
4676 -82.99617645643269
4677 -83.17371990490989
4678 -82.99677325099299
4679 -83.17682916803312
4680 -82.99853589895486
4681 -83.17607363747476
4682 -82.99811873632814
4683 -83.17673023108688
4684 -83.00308829258552
4685 -83.18377706558556
4686 -83.00820248091139
4687 -83.18621937342965
4688 -83.01473131867544
4689 -83.19662021283432
4690 -83.02140741766596
4691 -83.19333474824145
4692 -83.02078466875167
4693 -83.20071758255858
4694 -83.02465143367033
4695 -83.19517917566236
4696 -83.02403265775177
4697 -83.19829417635617
4698 -83.02734379513493
4699 -83.20022207519673
4700 -83.02525308106306
4701 -83.19615995687718
4702 -83.02039686303277
4703 -83.19050978811202
4704 -83.01709618540389
4705 -83.19155361651019
4706 -83.01351318568464
4707 -83.18491326968149
4708 -83.01118591261468
4709 -83.18189735594166
4710 -83.0053171817608
4711 -83.18158857807043
4712 -83.00352288916832
4713 -83.17567089260024
4714 -82.9968490056678
4715 -83.17571584907068
4716 -82.99830670843312
4717 -83.17386292417018
4718 -82.99756782997713
4719 -83.17473174502618
4720 -83.00631953626703
4721 -83.18568362858497
4722 -83.00472025198434
4723 -83.18212890847849
4724 -83.00977535383714
4725 -83.18892814735915
4726 -83.01530156787942
4727 -83.18961437630963
4728 -83.02244002517483
4729 -83.19502071045486
4730 -83.02411100117229
4731 -83.19785529796616
4732 -83.03075770721887
4733 -83.20452204072052
4734 -83.02855077638088
4735 -83.20015606909351
4736 -83.02470999191172
4737 -83.19852627584527
4738 -83.0228858172411
4739 -83.19215506295785
4740 -83.01777075326868
4741 -83.18952714607752
4742 -83.01686369789559
4743 -83.19073062469698
4744 -83.01851941038638
4745 -83.18924479260954
4746 -83.01727436485942
4747 -83.18658935674404
4748 -83.01798829302021
4749 -83.18842656194533
4750 -83.01469693062694
4751 -83.18667404500735
4752 -83.01582441533651
4753 -83.18750820564293
4754 -83.01301570829679
4755 -83.1840657454278
4756 -83.01873330838049
4757 -83.18468355954366
4758 -83.01324971064957
4759 -83.18354238351401
4760 -83.0152379593909
4761 -83.19151190348515
4762 -83.01604504877059
4763 -83.18747908999865
4764 -83.01438682697523
4765 -83.18878278703795
4766 -83.01230486513009
4767 -83.17924021462665
4768 -83.01016566484401
4769 -83.181729626194
4770 -83.01112306397488
4771 -83.18344565875316
4772 -83.01985450324406
4773 -83.18835557687447
4774 -83.02063695142709
4775 -83.18860500107826
4776 -83.02340561878776
4777 -83.19344118021615
4778 -83.02641324630241
4779 -83.19156071115555
4780 -83.02791044720982
4781 -83.19306842856219
4782 -83.02530806410238
4783 -83.18720532965381
4784 -83.01986179278083
4785 -83.19038476001157
4786 -83.01681364629047
4787 -83.18212046542368
4788 -83.00954422215449
4789 -83.18068919004077
4790 -83.00599179531605
4791 -83.17910716799992
4792 -83.00630424246646
4793 -83.18017473050656
4794 -83.00179757838157
4795 -83.17331754920298
4796 -82.9990271904303
4797 -83.17246962900089
4798 -82.99948522086999
4799 -83.16925630695096
4800 -83.00333401828203
4801 -83.17451786336449
4802 -83.0056137244315
4803 -83.17143039185788
4804 -83.0067802857991
4805 -83.17650885250845
4806 -83.00817751509101
4807 -83.17598831784539
4808 -83.01334345250405
4809 -83.18790555164321
4810 -83.01780124937068
4811 -83.1883116464457
4812 -83.01949197551374
4813 -83.19046518109769
4814 -83.02253360030471
4815 -83.19223985998593
4816 -83.02369714905319
4817 -83.19105201643021
4818 -83.01953779681446
4819 -83.18673923855488
4820 -83.01813454321814
4821 -83.18471203115757
4822 -83.01490694079598
4823 -83.17941544420307
4824 -83.01005866318053
4825 -83.17920055227228
4826 -83.01127152524833
4827 -83.17582081860058
4828 -83.00569520759888
4829 -83.1758895651933
4830 -83.00171167746049
4831 -83.17423660251382
4832 -82.99964906061263
4833 -83.17151870401256
4834 -82.99950417954972
4835 -83.17004886416242
4836 -83.00094049399985
4837 -83.17571919334227
4838 -83.00585339590521
4839 -83.17910170994179
4840 -83.01513080274844
4841 -83.18660364266464
4842 -83.01730281332937
4843 -83.18615181241
4844 -83.02513004089542
4845 -83.18716816106894
4846 -83.02208479832052
4847 -83.18595276523325
4848 -83.02352812413585
4849 -83.18608119590129
4850 -83.02307359287954
4851 -83.18685428600332
4852 -83.01920438779717
4853 -83.18616777034845
4854 -83.01301480365919
4855 -83.18374004732055
4856 -83.01118794394506
4857 -83.18086522872511
4858 -83.00919478232009
4859 -83.18082208047036
4860 -83.00729422141177
4861 -83.17907907006708
4862 -83.00261366281308
4863 -83.17442862473479
4864 -83.00242052293487
4865 -83.17481017948
4866 -82.99828291297399
4867 -83.17091948551683
4868 -82.99801412939752
4869 -83.17330289580644
4870 -82.99918917199062
4871 -83.17241118060133
4872 -83.00066338216243
4873 -83.17635768375652
4874 -83.00452621708126
4875 -83.17710711168104
4876 -83.00726057545921
4877 -83.17898240826594
4878 -83.00568981370867
4879 -83.1712999744156
4880 -83.00640943503794
4881 -83.17799918907656
4882 -83.00732484081004
4883 -83.17941219359375
4884 -83.01032852658841
4885 -83.18270141831186
4886 -83.01622252280117
4887 -83.18903568861276
4888 -83.02022292421725
4889 -83.18973820374947
4890 -83.01823984231635
4891 -83.18660407393901
4892 -83.0153414245749
4893 -83.18694444025499
4894 -83.01590371564077
4895 -83.18255092018632
4896 -83.00923312989914
4897 -83.18261735418309
4898 -83.00565903491628
4899 -83.17576061087249
4900 -83.00335349040108
4901 -83.17699406090759
4902 -83.00248479894657
4903 -83.1781419646274
4904 -83.00323444240399
4905 -83.17320697829842
4906 -82.99689311571331
4907 -83.17213555664586
4908 -83.0007736485548
4909 -83.17234954216985
4910 -83.00127234261066
4911 -83.17139775264445
4912 -83.00605278913571
4913 -83.17454281245807
4914 -83.00858072402826
4915 -83.17527404259619
4916 -83.01250730601106
4917 -83.17300350724605
4918 -83.00871238277369
4919 -83.1724645006567
4920 -83.0098138928567
4921 -83.17856205408413
4922 -83.01158080193534
4923 -83.18366150738598
4924 -83.01692329100183
4925 -83.18519689644774
4926 -83.01383507426954
4927 -83.18947983850359
4928 -83.02034992700385
4929 -83.19045924324462
4930 -83.02012107458404
4931 -83.19320355865568
4932 -83.02218019424242
4933 -83.19202850707046
4934 -83.01422508422615
4935 -83.19006703484712
4936 -83.01678433471227
4937 -83.18996234792081
4938 -83.01466053262868
4939 -83.18054505820311
4940 -83.00947413418652
4941 -83.17878392699163
4942 -82.99814317002091
4943 -83.16661846583554
4944 -82.99259143216085
4945 -83.16525378585868
4946 -82.98920976524397
4947 -83.15949609819398
4948 -82.99532167773941
4949 -83.16383239694346
4950 -82.99784434836607
4951 -83.16919920414938
4952 -83.00153052817052
4953 -83.17395538081507
4954 -83.00445345341041
4955 -83.18000389301523
4956 -83.0067521361056
4957 -83.18334565666368
4958 -83.0073046551704
4959 -83.18800609357538
4960 -83.01045893963015
4961 -83.19009197802018
4962 -83.00653104059211
4963 -83.19151139859895
4964 -83.01112906484394
4965 -83.18820217272895
4966 -83.0097695138237
4967 -83.18880702159635
4968 -83.01293928999149
4969 -83.18522300334587
4970 -83.00561429891263
4971 -83.18337746667225
4972 -83.00730673529665
4973 -83.18023347143117
4974 -83.00743563650963
4975 -83.17969578471747
4976 -83.00943012872011
4977 -83.18179177047045
4978 -83.00711870895697
4979 -83.17696656995832
4980 -83.00719562987172
4981 -83.17731388543035
4982 -83.00392508078943
4983 -83.16891309977001
4984 -83.0018122523191
4985 -83.17532070560583
4986 -82.99989154247197
4987 -83.17576729298457
4988 -83.00457906022388
4989 -83.17645162029271
4990 -83.00148589644596
4991 -83.17336379118956
4992 -83.00211308683669
4993 -83.17548941269052
4994 -83.00454442239686
4995 -83.1764188195225
4996 -83.00444509173849
4997 -83.17830553161116
4998 -83.00339042576934
4999 -83.17829790119981
5000 -83.00416672947563
5001 -83.18501793241541
5002 -83.00669825914883
5003 -83.18607815670299
5004 -83.01225242180283
5005 -83.19173684603203
5006 -83.01393638821082
5007 -83.18732915238218
5008 -83.01635445961091
5009 -83.19267856127783
5010 -83.01585735941529
5011 -83.18654786696231
5012 -83.01608274858012
5013 -83.18944374061522
5014 -83.01731146979756
5015 -83.19040346132448
5016 -83.02425775004519
5017 -83.19118733437136
5018 -83.02097262543936
5019 -83.18355509928813
5020 -83.0159943204925
5021 -83.18109224580991
5022 -83.00788094308678
5023 -83.17988006649551
5024 -83.00468779125504
5025 -83.17445164640827
5026 -82.99741057842908
5027 -83.1677492201618
5028 -82.99368310533856
5029 -83.16947145804636
5030 -82.98987264924273
5031 -83.16743269036914
5032 -82.9930253692562
5033 -83.17539894800888
5034 -82.9969221411061
5035 -83.18032609930134
5036 -83.00502907156277
5037 -83.18387357037392
5038 -83.00794807488978
5039 -83.18741875804176
5040 -83.01572878007283
5041 -83.19353501943755
5042 -83.01575841776565
5043 -83.19249932534092
5044 -83.02471468307129
5045 -83.19712623309709
5046 -83.02678488842344
5047 -83.19782877476501
5048 -83.02627769084626
5049 -83.19999440221608
5050 -83.02642398931113
5051 -83.19297026734887
5052 -83.01903110325281
5053 -83.18619584307982
5054 -83.01495642711188
5055 -83.17930242961967
5056 -83.00940587578606
5057 -83.18061457862404
5058 -83.00846139524583
5059 -83.17320607793619
5060 -83.0064225779451
5061 -83.17373241921149
5062 -83.00600763538944
5063 -83.17405258449202
5064 -83.00633275331649
5065 -83.17892308323411
5066 -83.00670365982228
5067 -83.18292801375151
