"mz-rfile"
"Iteration" "mz"
("Iteration" "mz")
1 6299.491355702012
2 6179.638566161177
3 5536.93869715775
4 4893.004830722834
5 4195.548556162954
6 3642.678208541833
7 2959.860438515781
8 2284.122998361445
9 1701.675209662406
10 1154.553050728725
11 750.6613311329032
12 500.3745402614912
13 348.7432192899226
14 290.2051636557156
15 289.8432350150654
16 333.5083772538983
17 408.9446637985489
18 508.5133094619608
19 623.3687366231555
20 746.2159613525642
21 892.5836895011871
22 1027.263245334113
23 1148.394837902812
24 1253.884849482654
25 1331.087839978507
26 1397.147998386106
27 1452.963604962606
28 1491.542810346114
29 1523.6319868541
30 1544.324672336604
31 1561.566227692367
32 1575.651664110911
33 1587.27329932573
34 1596.578693812414
35 1604.072585820895
36 1609.900187056255
37 1614.369669591071
38 1617.960904213427
39 1620.611015848728
40 1622.540198553876
41 1623.908345754798
42 1624.468702100977
43 1625.03074074909
44 1625.499074906072
45 1625.77501368126
46 1626.35144929767
47 1627.04434888158
48 1627.91916229341
49 1628.698470868092
50 1630.123636781351
51 1631.786292208496
52 1633.742853249986
53 1635.807874068169
54 1638.042153226038
55 1640.214403762284
56 1642.481517611847
57 1644.567943178241
58 1646.502239230449
59 1648.193525596633
60 1649.772537104586
61 1650.984912022914
62 1651.934421406281
63 1652.362050448081
64 1652.766548536248
65 1652.80980808876
66 1652.593473966502
67 1652.083806557989
68 1651.32624193576
69 1650.357578626035
70 1649.143779045312
71 1647.729558425431
72 1646.690425300119
73 1644.959308464111
74 1643.102118783235
75 1641.126363411729
76 1639.7775941348
77 1637.668790791484
78 1636.211844601557
79 1633.930294023947
80 1632.411348489097
81 1630.043736452844
82 1628.478558294211
83 1626.053855240663
84 1624.48903371076
85 1622.8771572688
86 1620.493621436927
87 1618.867026280011
88 1617.27617247808
89 1615.63412985107
90 1613.969204430431
91 1612.274058194379
92 1610.604341938952
93 1608.907406148243
94 1607.219033359486
95 1605.453552219723
96 1603.752803151955
97 1602.02867675636
98 1600.321205768543
99 1598.618391141297
100 1596.947500476814
101 1595.314434611774
102 1593.6881198519
103 1592.05740702099
104 1590.495994929181
105 1588.946427013259
106 1587.437414292127
107 1585.946425584593
108 1584.519682641738
109 1583.155881801978
110 1581.857456658669
111 1580.607915888255
112 1579.421168364389
113 1578.283543587612
114 1577.261097815079
115 1576.251796457554
116 1575.330961577747
117 1574.452609462511
118 1573.664503133931
119 1572.915639007006
120 1572.256247819715
121 1571.642367183134
122 1571.097424563611
123 1570.601037724541
124 1570.16157602972
125 1569.765258959737
126 1569.437381115721
127 1569.144898034709
128 1568.922507358104
129 1568.718849156402
130 1568.570033498162
131 1568.440384687245
132 1568.368409859034
133 1568.287336914716
134 1568.270605211199
135 1568.253184979692
136 1568.283647503535
137 1568.314060934037
138 1568.387295922315
139 1568.45115801647
140 1568.556383952745
141 1568.650552192309
142 1568.782626031038
143 1568.89665040255
144 1569.049327531866
145 1569.19764111096
146 1569.382120145905
147 1569.548356392673
148 1569.747751380432
149 1569.928342506196
150 1570.154984510788
151 1570.354278541807
152 1570.595999554355
153 1570.820406603491
154 1571.093927843278
155 1571.323105036619
156 1571.588170212225
157 1571.844200440471
158 1572.130166212094
159 1572.399283248993
160 1572.714655398959
161 1573.001826183233
162 1573.484115670325
163 1573.752192624529
164 1574.055800975013
165 1574.35100943461
166 1574.68983795705
167 1574.986774123757
168 1575.48527698387
169 1575.773208476069
170 1576.122643735633
171 1576.44160145525
172 1576.806527776016
173 1577.309027454077
174 1577.665548017714
175 1578.005308277264
176 1578.393764377955
177 1578.758029470658
178 1579.36387763016
179 1579.727370168812
180 1580.140142190578
181 1580.547435051569
182 1581.206246303115
183 1581.599741802051
184 1582.063237511648
185 1582.503967607317
186 1582.988930446776
187 1583.680268836481
188 1584.158041543029
189 1584.625998150625
190 1585.152875021032
191 1585.885716027853
192 1586.402306243355
193 1586.898263090005
194 1587.444944317424
195 1588.226493752358
196 1588.769723478657
197 1589.300721873379
198 1589.875705063617
199 1590.708663953158
200 1591.281704154895
201 1591.837093750032
202 1592.713897683729
203 1593.262358554708
204 1593.859399997732
205 1594.726065570949
206 1595.320368130177
207 1595.895821920699
208 1596.81226634981
209 1597.385218058209
210 1598.003062230361
211 1598.90358497234
212 1599.526438936632
213 1600.430891908905
214 1601.057210179274
215 1601.668245157024
216 1602.627687728206
217 1603.239047506777
218 1604.195664901825
219 1604.805697996168
220 1605.762920836177
221 1606.377083570369
222 1607.340666166635
223 1607.949210593391
224 1608.902680931358
225 1609.516086519841
226 1610.479098344058
227 1611.385330565281
228 1612.012282900306
229 1612.942129073177
230 1613.580689915704
231 1614.526909098785
232 1615.16018211683
233 1616.116107052506
234 1617.084665129239
235 1618.00259992575
236 1618.634956920527
237 1619.583177095541
238 1620.549953666401
239 1621.168074449244
240 1622.140921373471
241 1623.077177174417
242 1624.020192031024
243 1624.934287246143
244 1625.565034516751
245 1626.501342234268
246 1627.450218947124
247 1628.069927702634
248 1629.046847164595
249 1629.996850816712
250 1630.95273832871
251 1631.861922329357
252 1632.812836014079
253 1633.428459662931
254 1634.39743452062
255 1635.32703271695
256 1636.272826048935
257 1637.180069749455
258 1638.098863073499
259 1638.995116112826
260 1639.604973548446
261 1640.520872816189
262 1641.441244467519
263 1642.329519437114
264 1643.242328269512
265 1644.116731314431
266 1644.98733488897
267 1645.567587778226
268 1646.463091303354
269 1647.328816026308
270 1648.197462762225
271 1649.038207781184
272 1649.890911801353
273 1650.719819922541
274 1651.281105839583
275 1652.128395185028
276 1652.978107339073
277 1653.526704134511
278 1654.390435870829
279 1655.236831432961
280 1656.085110299364
281 1656.893093803577
282 1657.442260226585
283 1658.274598448601
284 1659.103491109358
285 1659.625761652918
286 1660.445302896677
287 1661.231161541711
288 1661.769653312348
289 1662.55611650661
290 1663.09039515707
291 1663.889738986314
292 1664.684168851778
293 1665.202767600209
294 1665.997397584463
295 1666.51037057067
296 1667.293010577887
297 1667.79595607729
298 1668.57931175099
299 1669.08953920491
300 1669.875841015404
301 1670.373888982521
302 1670.896904409926
303 1671.662203454099
304 1672.182209069621
305 1672.930303116688
306 1673.435846276168
307 1673.934062706099
308 1674.715220794788
309 1675.188755659055
310 1675.701359120133
311 1676.436460893658
312 1676.933246255549
313 1677.407342300233
314 1678.157301234349
315 1678.621155301671
316 1679.100729878593
317 1679.576005327295
318 1680.065095685279
319 1680.765758163024
320 1681.233778800326
321 1681.694638135614
322 1682.166359994191
323 1682.63302188117
324 1683.107942866726
325 1683.802233473897
326 1684.255024835011
327 1684.706979005554
328 1685.158137229814
329 1685.609131608026
330 1686.069308039897
331 1686.523496141393
332 1686.983924115321
333 1687.440101646758
334 1687.894330219753
335 1688.346087055874
336 1688.802861040772
337 1689.258172519282
338 1689.717737579423
339 1690.159482769917
340 1690.605851792557
341 1691.048130924828
342 1691.498554086604
343 1691.931695053943
344 1692.369181027815
345 1692.791067451818
346 1693.215632765405
347 1693.628314765665
348 1694.048303132186
349 1694.453974931781
350 1694.860666047445
351 1695.2516007121
352 1695.650378800312
353 1696.036207692936
354 1696.42799032795
355 1696.799004017857
356 1697.183128539914
357 1697.547444396091
358 1697.916482199352
359 1698.2677158263
360 1698.638489452626
361 1698.982297885116
362 1699.345919883102
363 1699.686198412189
364 1700.035798865133
365 1700.370816959182
366 1700.724907709507
367 1701.054682490739
368 1701.397415016578
369 1701.729486012269
370 1702.07157977866
371 1702.394754384956
372 1702.731792805678
373 1703.045449635307
374 1703.378740861927
375 1703.693493062878
376 1704.015256193488
377 1704.325827631143
378 1704.64766279255
379 1704.954051899558
380 1705.264625713908
381 1705.565083773068
382 1705.867496274746
383 1706.158490601689
384 1706.463206334394
385 1706.75046926123
386 1707.049657336989
387 1707.328868439035
388 1707.618659409452
389 1707.890136780573
390 1708.173730791859
391 1708.442851674265
392 1708.725061499086
393 1708.988231314175
394 1709.261404399887
395 1709.51708813266
396 1709.785873675158
397 1710.04048708489
398 1710.301919981394
399 1710.548302804174
400 1710.795681118973
401 1711.039917327446
402 1711.290122902941
403 1711.529152250095
404 1711.767637526294
405 1712.006109011617
406 1712.239742747413
407 1712.468538903466
408 1712.705094686585
409 1712.932324600739
410 1713.164621175189
411 1713.387075804565
412 1713.611018837277
413 1713.831702539166
414 1714.054933279283
415 1714.266575718638
416 1714.49139130417
417 1714.704864670292
418 1714.92372141396
419 1715.131656493661
420 1715.345031832584
421 1715.543281205602
422 1715.756970019349
423 1715.955321909575
424 1716.157572373394
425 1716.355017211514
426 1716.564079412108
427 1716.75545288054
428 1716.950190200504
429 1717.138081512145
430 1717.332690813919
431 1717.510163380699
432 1717.699363115014
433 1717.8818113996
434 1718.067914472718
435 1718.240754657689
436 1718.422378805601
437 1718.590971665353
438 1718.772526283974
439 1718.9387801658
440 1719.115860917471
441 1719.280855673972
442 1719.451898566284
443 1719.609667817669
444 1719.776640861859
445 1719.9349500914
446 1720.101119885071
447 1720.255260536858
448 1720.418442101578
449 1720.567931159609
450 1720.728767064719
451 1720.879146287067
452 1721.032611951237
453 1721.184610591149
454 1721.337655130254
455 1721.477776661009
456 1721.630447978991
457 1721.771259496106
458 1721.924293863013
459 1722.06074166936
460 1722.206731312737
461 1722.338027068965
462 1722.48265891086
463 1722.614330084798
464 1722.757608992404
465 1722.887911365567
466 1723.021712071491
467 1723.142979676699
468 1723.283668427959
469 1723.40960819662
470 1723.54753647
471 1723.670181233535
472 1723.798331040481
473 1723.915410429818
474 1724.047157567826
475 1724.163687469325
476 1724.290711742367
477 1724.406510939017
478 1724.53181350715
479 1724.640803052868
480 1724.769147950683
481 1724.878742171385
482 1725.005678836687
483 1725.11225438115
484 1725.230835670245
485 1725.335508070722
486 1725.457541483136
487 1725.563981646022
488 1725.674159399862
489 1725.780458112209
490 1725.895935182576
491 1725.995709814287
492 1726.108622858398
493 1726.21131303933
494 1726.324035205137
495 1726.422375445372
496 1726.529057644841
497 1726.620969390944
498 1726.731800851074
499 1726.823420601772
500 1726.92758999944
501 1727.020890105573
502 1727.120502538254
503 1727.209581924566
504 1727.313208484283
505 1727.400276175782
506 1727.502851944227
507 1727.587508288655
508 1727.679871885651
509 1727.761819106334
510 1727.864302131362
511 1727.944813812191
512 1728.040950150619
513 1728.120103718488
514 1728.216639072677
515 1728.295037278449
516 1728.384765733972
517 1728.461363011189
518 1728.558257559968
519 1728.635489713626
520 1728.717547804046
521 1728.795242138811
522 1728.891073078005
523 1728.963652746914
524 1729.055661973372
525 1729.124170116438
526 1729.210775650789
527 1729.281436885188
528 1729.364831847339
529 1729.430827715218
530 1729.515878095918
531 1729.585384827269
532 1729.667918162044
533 1729.736337326604
534 1729.819318816396
535 1729.887031517206
536 1729.973381001197
537 1730.036993819107
538 1730.114040274566
539 1730.176706889498
540 1730.256152324981
541 1730.315720827007
542 1730.400166614678
543 1730.456529911143
544 1730.526225558454
545 1730.581816964066
546 1730.654987964856
547 1730.71437716435
548 1730.789693208985
549 1730.846730915151
550 1730.912406098509
551 1730.964657593685
552 1731.037513007529
553 1731.09609935619
554 1731.168042460645
555 1731.222107365622
556 1731.282091345133
557 1731.336070811578
558 1731.403968080146
559 1731.449413258198
560 1731.511976100628
561 1731.565575516321
562 1731.623698925458
563 1731.676791297544
564 1731.737122787015
565 1731.786295284773
566 1731.847556323466
567 1731.900973691425
568 1731.959989532382
569 1732.009917410334
570 1732.073689855079
571 1732.12095670549
572 1732.181762964093
573 1732.228562970168
574 1732.288058579923
575 1732.334277530115
576 1732.393344711458
577 1732.443867935314
578 1732.501250984383
579 1732.549112096464
580 1732.599427459894
581 1732.646304138691
582 1732.703442546726
583 1732.747488155533
584 1732.801493489212
585 1732.844536738808
586 1732.898450068998
587 1732.940103564171
588 1732.992867679831
589 1733.036533116347
590 1733.099738160852
591 1733.133783594162
592 1733.183778322074
593 1733.222942614853
594 1733.276952139352
595 1733.3050457896
596 1733.361791709895
597 1733.397618823443
598 1733.442522739881
599 1733.479816052071
600 1733.529525050125
601 1733.560469869919
602 1733.612576162173
603 1733.647156296109
604 1733.691050496601
605 1733.725046161044
606 1733.775230925056
607 1733.810279799487
608 1733.852061916271
609 1733.887479423091
610 1733.933809253362
611 1733.968369886935
612 1734.011426909753
613 1734.045518901095
614 1734.098152239151
615 1734.123145584196
616 1734.166694106754
617 1734.199294439142
618 1734.244408333052
619 1734.27162345787
620 1734.324328900053
621 1734.351603412232
622 1734.398127129501
623 1734.422593372974
624 1734.470428855621
625 1734.495551347267
626 1734.544136336115
627 1734.562753839945
628 1734.606258266505
629 1734.626775190984
630 1734.672678345772
631 1734.693206620461
632 1734.738396387768
633 1734.764160429764
634 1734.806219044651
635 1734.827041827818
636 1734.868378976775
637 1734.892116913836
638 1734.934865890808
639 1734.957045710199
640 1734.993631420804
641 1735.013336046625
642 1735.05827638766
643 1735.077732824534
644 1735.119733151766
645 1735.138544545695
646 1735.1757120675
647 1735.191251162688
648 1735.23374224551
649 1735.247268358725
650 1735.292498005616
651 1735.30491045896
652 1735.344321268207
653 1735.357626284192
654 1735.399235059157
655 1735.410796550453
656 1735.454341917432
657 1735.471063917129
658 1735.504014155273
659 1735.519300645132
660 1735.564972915029
661 1735.580573330636
662 1735.620175361107
663 1735.633860911465
664 1735.6693250582
665 1735.686292964917
666 1735.731047332968
667 1735.737333673732
668 1735.775255129656
669 1735.789016043601
670 1735.820588773111
671 1735.829483514534
672 1735.867273380297
673 1735.876712964613
674 1735.918014563703
675 1735.925266870464
676 1735.960022011521
677 1735.970369735982
678 1736.003771629617
679 1736.009769213704
680 1736.049001536413
681 1736.055862251413
682 1736.089615422589
683 1736.094847421547
684 1736.129737343755
685 1736.139886271001
686 1736.182799881659
687 1736.187158068077
688 1736.213648594744
689 1736.224574588839
690 1736.262091045229
691 1736.259465677101
692 1736.301144859216
693 1736.308771207061
694 1736.338515357462
695 1736.34094769996
696 1736.375523396992
697 1736.380334492963
698 1736.413836769303
699 1736.418441444325
700 1736.446744054491
701 1736.45399910726
702 1736.487040435811
703 1736.49429625366
704 1736.531356080434
705 1736.535551563199
706 1736.561176127336
707 1736.564671822621
708 1736.591456828772
709 1736.600841697704
710 1736.634944160855
711 1736.63726512767
712 1736.659884917867
713 1736.667233701402
714 1736.70276042049
715 1736.705067338798
716 1736.737660275664
717 1736.745260726582
718 1736.770275793844
719 1736.772319464618
720 1736.805100940857
721 1736.806246002594
722 1736.840608801403
723 1736.841926653181
724 1736.869255533627
725 1736.870942614524
726 1736.900668804899
727 1736.896274330557
728 1736.934723565963
729 1736.936779160637
730 1736.960174820142
731 1736.954229558888
732 1736.984689633281
733 1736.987322053194
734 1737.019370648477
735 1737.017987183296
736 1737.039268156765
737 1737.037608640683
738 1737.068187162967
739 1737.067494371998
740 1737.094062828259
741 1737.094745374822
742 1737.122157657553
743 1737.119409833036
744 1737.148998778712
745 1737.152094591614
746 1737.187423492996
747 1737.18360070639
748 1737.205100896249
749 1737.206137634999
750 1737.236174545843
751 1737.229555881193
752 1737.260601570375
753 1737.260006907806
754 1737.283132308951
755 1737.283222040738
756 1737.311843652875
757 1737.310166180982
758 1737.340541336388
759 1737.336089873963
760 1737.359799964325
761 1737.359071663063
762 1737.38799745963
763 1737.381608774613
764 1737.408428663465
765 1737.403502672828
766 1737.42603100087
767 1737.42290180144
768 1737.448577884409
769 1737.443099057708
770 1737.477156855648
771 1737.469286950897
772 1737.486445063051
773 1737.483518825606
774 1737.513839317046
775 1737.504048548611
776 1737.527995164581
777 1737.5294105219
778 1737.551590446405
779 1737.548895754732
780 1737.571362862032
781 1737.568465832735
782 1737.594049885161
783 1737.590301212584
784 1737.608239201062
785 1737.60237548901
786 1737.630005160248
787 1737.62691334652
788 1737.64848050797
789 1737.649022673949
790 1737.6718311486
791 1737.665515869454
792 1737.687360678589
793 1737.686798529368
794 1737.713519059379
795 1737.710065362782
796 1737.729201877504
797 1737.717430360344
798 1737.74238261798
799 1737.740304556437
800 1737.760650039207
801 1737.754152229034
802 1737.77353436667
803 1737.758832741416
804 1737.781337563127
805 1737.776780558426
806 1737.800351262881
807 1737.790263501707
808 1737.804019480209
809 1737.799002193437
810 1737.825632348881
811 1737.819004295412
812 1737.84054440619
813 1737.833064838857
814 1737.85304712864
815 1737.845763520879
816 1737.861838058384
817 1737.862336660489
818 1737.884525612909
819 1737.878478120277
820 1737.89667757422
821 1737.88882048007
822 1737.910857112473
823 1737.903779771771
824 1737.926270108101
825 1737.912095130386
826 1737.932058933299
827 1737.92671838763
828 1737.946002714032
829 1737.943107588845
830 1737.969865656883
831 1737.960230382783
832 1737.969951175296
833 1737.960637872109
834 1737.985349414769
835 1737.978228985306
836 1737.997809397774
837 1737.996088373186
838 1738.011841315184
839 1738.00676756939
840 1738.025434148332
841 1738.018657559267
842 1738.042534997624
843 1738.036415659786
844 1738.04122679017
845 1738.039750143601
846 1738.062154067714
847 1738.053967544279
848 1738.073111647617
849 1738.067470077917
850 1738.08104945875
851 1738.071393761046
852 1738.091237406635
853 1738.07556921032
854 1738.097390762329
855 1738.090436893419
856 1738.106384830367
857 1738.098259337908
858 1738.119214297847
859 1738.108260939285
860 1738.126439839581
861 1738.116064874505
862 1738.132692345737
863 1738.123145007487
864 1738.142175046472
865 1738.134184731964
866 1738.15679176289
867 1738.149368635361
868 1738.164400932711
869 1738.158016234648
870 1738.178868672273
871 1738.170415100799
872 1738.184254334765
873 1738.179098266222
874 1738.197391972073
875 1738.187436247195
876 1738.202709574648
877 1738.1974535143
878 1738.214815964525
879 1738.203618458493
880 1738.220215418079
881 1738.20360161441
882 1738.229296820645
883 1738.2203913873
884 1738.242539619197
885 1738.230675719224
886 1738.247276895362
887 1738.235621660108
888 1738.256985107326
889 1738.248783385756
890 1738.269623289977
891 1738.257584504429
892 1738.273388509833
893 1738.267054325181
894 1738.286319063697
895 1738.270733125824
896 1738.290464972993
897 1738.284884123342
898 1738.296332592985
899 1738.288491239761
900 1738.307200142458
901 1738.290007330045
902 1738.309325395819
903 1738.297768345732
904 1738.315111063251
905 1738.303689741458
906 1738.319738411986
907 1738.307455807268
908 1738.325483217619
909 1738.31455025181
910 1738.334205329606
911 1738.32103097944
912 1738.34001599626
913 1738.332789738992
914 1738.35317815995
915 1738.344230063478
916 1738.348865084864
917 1738.343622667335
918 1738.357219940112
919 1738.348296651725
920 1738.362165667382
921 1738.35324914057
922 1738.369843304374
923 1738.357243628888
924 1738.373884464648
925 1738.363931065679
926 1738.383176278216
927 1738.372193259349
928 1738.376843216233
929 1738.362760353981
930 1738.383504758614
931 1738.37306111566
932 1738.390826343913
933 1738.381228995561
934 1738.395534422799
935 1738.385123160616
936 1738.402000214269
937 1738.388934712514
938 1738.410926097137
939 1738.402277786633
940 1738.415866290532
941 1738.406815832386
942 1738.427218711049
943 1738.412534233401
944 1738.43251260585
945 1738.419759868676
946 1738.431771413947
947 1738.423933147278
948 1738.439696316738
949 1738.428000834409
950 1738.448149295342
951 1738.436173046127
952 1738.44522560846
953 1738.438882730633
954 1738.459524624259
955 1738.444221679168
956 1738.460047834851
957 1738.449596077613
958 1738.459252528204
959 1738.453369120671
960 1738.465946099254
961 1738.45580545875
962 1738.472061002168
963 1738.465040696507
964 1738.47127575531
965 1738.466179243937
966 1738.481158311268
967 1738.467249174359
968 1738.483856259725
969 1738.479849782819
970 1738.488155131484
971 1738.480734047424
972 1738.493158333766
973 1738.488952542612
974 1738.503528750817
975 1738.494559259199
976 1738.501827716515
977 1738.497320667999
978 1738.509861058415
979 1738.500757189408
980 1738.515390490212
981 1738.5077342714
982 1738.518788533557
983 1738.510552339807
984 1738.522425723247
985 1738.509951384277
986 1738.531784384061
987 1738.518023910198
988 1738.526074854163
989 1738.516234231455
990 1738.532486035144
991 1738.522814086919
992 1738.543952235366
993 1738.531255872043
994 1738.546212593949
995 1738.535541628084
996 1738.548342901729
997 1738.54232249161
998 1738.558732414952
999 1738.548785627302
1000 1738.555352800838
1001 1738.544533663738
1002 1738.563483544405
1003 1738.551466434607
1004 1738.566433593315
1005 1738.555022866039
1006 1738.569014576738
1007 1738.561441938
1008 1738.575855256782
1009 1738.562137086567
1010 1738.576655611264
1011 1738.56445085755
1012 1738.574557718426
1013 1738.565244448662
1014 1738.576469882095
1015 1738.565924237203
1016 1738.581835298979
1017 1738.571249649703
1018 1738.584000942004
1019 1738.572094284583
1020 1738.588169362528
1021 1738.57812739172
1022 1738.596967440787
1023 1738.580725443498
1024 1738.595559833588
1025 1738.583351875398
1026 1738.600832552979
1027 1738.585335443076
1028 1738.611256442636
1029 1738.590906226506
1030 1738.606616424689
1031 1738.591236385547
1032 1738.609987304361
1033 1738.596520813517
1034 1738.618282490512
1035 1738.5990671694
1036 1738.611342311219
1037 1738.594495120491
1038 1738.617036480807
1039 1738.600394290647
1040 1738.619972329096
1041 1738.602667890636
1042 1738.621008355412
1043 1738.599793989484
1044 1738.618419238469
1045 1738.604664638668
1046 1738.627150462553
1047 1738.614480755264
1048 1738.628846272164
1049 1738.614273244501
1050 1738.6337419545
1051 1738.615446729259
1052 1738.634923030299
1053 1738.622398853115
1054 1738.63809321673
1055 1738.621418479702
1056 1738.637667462637
1057 1738.622171685104
1058 1738.644469444024
1059 1738.629371173932
1060 1738.644632501843
1061 1738.627112697914
1062 1738.644356257595
1063 1738.633457466499
1064 1738.652335804038
1065 1738.637167562849
1066 1738.652718862762
1067 1738.637569969456
1068 1738.656350599758
1069 1738.638334311167
1070 1738.661900953049
1071 1738.645612527989
1072 1738.659172550731
1073 1738.643973570933
1074 1738.662185098486
1075 1738.644188189168
1076 1738.66437281651
1077 1738.650356163201
1078 1738.662513528547
1079 1738.64427110033
1080 1738.661267106025
1081 1738.647118037818
1082 1738.669692272704
1083 1738.652469723612
1084 1738.664002389778
1085 1738.647906564955
1086 1738.671594301925
1087 1738.65729287627
1088 1738.674433110428
1089 1738.658681134506
1090 1738.676516585766
1091 1738.664177067638
1092 1738.676193314315
1093 1738.66951999106
1094 1738.686446242549
1095 1738.675593983662
1096 1738.678485507937
1097 1738.669615412436
1098 1738.686710817671
1099 1738.674032074067
1100 1738.687002976176
1101 1738.673590510444
1102 1738.687611975364
1103 1738.672062672599
1104 1738.686800158267
1105 1738.677986175448
1106 1738.694045928392
1107 1738.684671401433
1108 1738.69185289768
1109 1738.678295181037
1110 1738.694427837223
1111 1738.683045729428
1112 1738.694082082098
1113 1738.682961353739
1114 1738.686840810868
1115 1738.674733189255
1116 1738.691848557173
1117 1738.682216655216
1118 1738.693227966945
1119 1738.687478108925
1120 1738.696402748821
1121 1738.684366592511
1122 1738.695610617087
1123 1738.687602899093
1124 1738.702129702256
1125 1738.694598703032
1126 1738.697896629966
1127 1738.68648961967
1128 1738.701280247838
1129 1738.691485397299
1130 1738.707201092023
1131 1738.697769883878
1132 1738.711254793956
1133 1738.693848043641
1134 1738.705219280697
1135 1738.69409479201
1136 1738.709722025131
1137 1738.697837301499
1138 1738.705108672526
1139 1738.695629999115
1140 1738.706717619297
1141 1738.695341503028
1142 1738.709558370181
1143 1738.695953243292
1144 1738.70781972311
1145 1738.692663926472
1146 1738.707123789939
1147 1738.697017985499
1148 1738.709078035806
1149 1738.699126582169
1150 1738.708653633082
1151 1738.693740324705
1152 1738.702966190597
1153 1738.693350903692
1154 1738.709181966746
1155 1738.700622476243
1156 1738.706264288202
1157 1738.695133081564
1158 1738.714115855014
1159 1738.70049104703
1160 1738.712430133379
1161 1738.701699945546
1162 1738.709743412418
1163 1738.698584317734
1164 1738.70807025225
1165 1738.695611177318
1166 1738.71339099535
1167 1738.699109196602
1168 1738.703643268376
1169 1738.694494444691
1170 1738.711420129291
1171 1738.694791526338
1172 1738.706679707929
1173 1738.695591444381
1174 1738.70033546914
1175 1738.691261026929
1176 1738.709221711902
1177 1738.694248098474
1178 1738.709236419505
1179 1738.698895861111
1180 1738.709737634292
1181 1738.699483540751
1182 1738.720021658325
1183 1738.704410654959
1184 1738.719756021837
1185 1738.706344974284
1186 1738.713731657272
1187 1738.698016534406
1188 1738.716026566187
1189 1738.702570892812
1190 1738.719143876795
1191 1738.707316790926
1192 1738.71628741612
1193 1738.704217995833
1194 1738.722289401862
1195 1738.704928358493
1196 1738.717083428909
1197 1738.706208436803
1198 1738.716830847363
1199 1738.704844962979
1200 1738.721879034179
1201 1738.707903734975
1202 1738.726503869661
1203 1738.712354336973
1204 1738.722423724133
1205 1738.710723890049
1206 1738.731020639878
1207 1738.712709048642
1208 1738.727906741017
1209 1738.715475818769
1210 1738.726778240871
1211 1738.711772075065
1212 1738.730225575471
1213 1738.716117800243
1214 1738.73054882219
1215 1738.718144415981
1216 1738.72551310594
1217 1738.714565056036
1218 1738.732224090664
1219 1738.71469001162
1220 1738.73247843098
1221 1738.715987543286
1222 1738.727659991924
1223 1738.715868121174
1224 1738.729379872675
1225 1738.714038750496
1226 1738.727465808368
1227 1738.71688446532
1228 1738.716532062114
1229 1738.706627630452
1230 1738.726658748933
1231 1738.715324403139
1232 1738.722541338248
1233 1738.709840257846
1234 1738.721076023553
1235 1738.712651055005
1236 1738.720034540039
1237 1738.714899838464
1238 1738.722943698516
1239 1738.713569839316
1240 1738.716340766103
1241 1738.705710825285
1242 1738.724957404062
1243 1738.718194000975
1244 1738.724748298566
1245 1738.719796045142
1246 1738.726715618528
1247 1738.713725785075
1248 1738.725027773985
1249 1738.718797755781
1250 1738.736620569948
1251 1738.728402686582
1252 1738.732892322947
1253 1738.720516175591
1254 1738.738764595813
1255 1738.727105394586
1256 1738.739219088829
1257 1738.72769524678
1258 1738.735019730394
1259 1738.723033868571
1260 1738.735640175138
1261 1738.726015393226
1262 1738.744596889573
1263 1738.72974054982
1264 1738.735634258674
1265 1738.727235716133
1266 1738.743697606463
1267 1738.733255413058
1268 1738.744024056728
1269 1738.732337000758
1270 1738.743799181797
1271 1738.730897859738
1272 1738.738915673782
1273 1738.728504774177
1274 1738.749141338407
1275 1738.732455604597
1276 1738.741761924202
1277 1738.729554575892
1278 1738.74427807702
1279 1738.732527701397
1280 1738.750504462204
1281 1738.736476320126
1282 1738.749833163081
1283 1738.735738213483
1284 1738.742614106071
1285 1738.733837279611
1286 1738.749260757794
1287 1738.735256479372
1288 1738.73911128044
1289 1738.728377838154
1290 1738.740079504928
1291 1738.730920586379
1292 1738.7471224981
1293 1738.731140011548
1294 1738.738130518386
1295 1738.725650686903
1296 1738.740450323722
1297 1738.730945961627
1298 1738.742881322383
1299 1738.731979247024
1300 1738.742365211
1301 1738.729417946545
1302 1738.739310569891
1303 1738.72896074051
1304 1738.742482840952
1305 1738.73074293316
1306 1738.737129624944
1307 1738.726603100987
1308 1738.74180600493
1309 1738.73250852767
1310 1738.746066370531
1311 1738.738632274789
1312 1738.748378594608
1313 1738.737848369668
1314 1738.75690109724
1315 1738.745346012473
1316 1738.754503318708
1317 1738.742994875451
1318 1738.749281329718
1319 1738.74040339562
1320 1738.752788789654
1321 1738.736843077221
1322 1738.754871272143
1323 1738.749570323316
1324 1738.754901015946
1325 1738.746273054683
1326 1738.763297020855
1327 1738.751268083263
1328 1738.752685169935
1329 1738.741125731016
1330 1738.751030795685
1331 1738.733727523027
1332 1738.745008493261
1333 1738.734524957719
1334 1738.750597761127
1335 1738.737069730389
1336 1738.745880082694
1337 1738.73666416977
1338 1738.749240727143
1339 1738.737626470693
1340 1738.746981367931
1341 1738.736880362481
1342 1738.748918860617
1343 1738.735343206547
1344 1738.75062900582
1345 1738.742835635472
1346 1738.756747687546
1347 1738.743383743211
1348 1738.753489820474
1349 1738.732720685904
1350 1738.745853559307
1351 1738.73301745672
1352 1738.75044359638
1353 1738.737556824124
1354 1738.744620703233
1355 1738.732335383039
1356 1738.748490314598
1357 1738.735169454233
1358 1738.750573757004
1359 1738.735992694518
1360 1738.744863006895
1361 1738.735562786683
1362 1738.748041788694
1363 1738.73643670365
1364 1738.759972651387
1365 1738.739682735993
1366 1738.748000271433
1367 1738.741059802287
1368 1738.754029356923
1369 1738.743910545903
1370 1738.757332009794
1371 1738.73919067767
1372 1738.750683844964
1373 1738.739607042261
1374 1738.751694435197
1375 1738.741928980577
1376 1738.758733353269
1377 1738.746242988867
1378 1738.752982528365
1379 1738.742370127857
1380 1738.758207730818
1381 1738.74903756718
1382 1738.758129173695
1383 1738.743300790045
1384 1738.751207407395
1385 1738.742651804457
1386 1738.749918867682
1387 1738.740461726941
1388 1738.754560542678
1389 1738.74499862168
1390 1738.751038226868
1391 1738.738269770098
1392 1738.747704871607
1393 1738.738816238046
1394 1738.752398132267
1395 1738.734845809397
1396 1738.742363414493
1397 1738.731708416292
1398 1738.749738703852
1399 1738.739686067326
1400 1738.749919238677
1401 1738.732927787862
1402 1738.748203216037
1403 1738.735850010644
1404 1738.746341572314
1405 1738.732970563892
1406 1738.751053832108
1407 1738.739488207545
1408 1738.741765961947
1409 1738.732035279562
1410 1738.750896274792
1411 1738.736857156593
1412 1738.74724429538
1413 1738.735111157791
1414 1738.745049976862
1415 1738.734465541473
1416 1738.743481190651
1417 1738.731813712426
1418 1738.751620733513
1419 1738.740591362835
1420 1738.745478980706
1421 1738.735305183712
1422 1738.748160277165
1423 1738.736709224134
1424 1738.747535863811
1425 1738.739313781658
1426 1738.743791545423
1427 1738.735511398331
1428 1738.747665874236
1429 1738.735586454535
1430 1738.751580597054
1431 1738.7391694556
1432 1738.738949640956
1433 1738.732831187557
1434 1738.749517211457
1435 1738.739008803229
1436 1738.746749505684
1437 1738.739879883891
1438 1738.748213397403
1439 1738.737803620737
1440 1738.747685636612
1441 1738.739766164395
1442 1738.755848306587
1443 1738.74274598326
1444 1738.742836638289
1445 1738.734832363871
1446 1738.752534051043
1447 1738.740818504235
1448 1738.751962164481
1449 1738.743811909929
1450 1738.749043965269
1451 1738.738520600188
1452 1738.748640351987
1453 1738.73845365088
1454 1738.752667916725
1455 1738.741756148715
1456 1738.74226359609
1457 1738.732689157747
1458 1738.750034837978
1459 1738.734298000183
1460 1738.747457022587
1461 1738.740066454099
1462 1738.751400363254
1463 1738.737809276324
1464 1738.748427317746
1465 1738.737381286561
1466 1738.754666214973
1467 1738.740187454382
1468 1738.743114802115
1469 1738.727980493945
1470 1738.747328905521
1471 1738.732147485165
1472 1738.748979140186
1473 1738.737178922617
1474 1738.746595013548
1475 1738.73555088027
1476 1738.750793487398
1477 1738.737262770528
1478 1738.757352879357
1479 1738.740768901478
1480 1738.748603947419
1481 1738.732726728528
1482 1738.752855632668
1483 1738.739076940048
1484 1738.753642055388
1485 1738.740436179033
1486 1738.75812142381
1487 1738.740133867955
1488 1738.755580253132
1489 1738.744148767561
1490 1738.757208546727
1491 1738.747623756485
1492 1738.757376703368
1493 1738.743138202428
1494 1738.758407736041
1495 1738.746095489535
1496 1738.761732537482
1497 1738.752913446413
1498 1738.764203115764
1499 1738.745527916266
1500 1738.761017109782
1501 1738.751468108411
1502 1738.765282332163
1503 1738.753486547562
1504 1738.767925293537
1505 1738.753451886257
1506 1738.763454701546
1507 1738.749245385905
1508 1738.764989502206
1509 1738.752304739388
1510 1738.763538318396
1511 1738.744993041678
1512 1738.759968216928
1513 1738.752507969853
1514 1738.767804585442
1515 1738.753218488001
1516 1738.763414972627
1517 1738.74749584959
1518 1738.762187010448
1519 1738.749384304439
1520 1738.76733888967
1521 1738.754946106951
1522 1738.766810818395
1523 1738.75005064369
1524 1738.762873508125
1525 1738.749785780337
1526 1738.759255514789
1527 1738.745384886318
1528 1738.760564641162
1529 1738.744817704596
1530 1738.758582733267
1531 1738.749006723029
1532 1738.765284626602
1533 1738.754218891357
1534 1738.759255273698
1535 1738.747699898851
1536 1738.759787156414
1537 1738.753447899159
1538 1738.763327642362
1539 1738.753167827514
1540 1738.761474448642
1541 1738.750238808067
1542 1738.765221128425
1543 1738.755073274557
1544 1738.768562970253
1545 1738.756697749904
1546 1738.764191104627
1547 1738.749655558603
1548 1738.759671147314
1549 1738.751552520035
1550 1738.766796557064
1551 1738.755228046442
1552 1738.760969105321
1553 1738.752395707982
1554 1738.764597991224
1555 1738.756460653324
1556 1738.764732741497
1557 1738.754178709728
1558 1738.762466466225
1559 1738.752667473266
1560 1738.762671628031
1561 1738.756403063862
1562 1738.766907734187
1563 1738.75414209401
1564 1738.761699734797
1565 1738.750760370089
1566 1738.762843517919
1567 1738.751489772975
1568 1738.765353110184
1569 1738.756152576962
1570 1738.760435559084
1571 1738.751142816115
1572 1738.768091958992
1573 1738.754837092881
1574 1738.76635526085
1575 1738.756208119671
1576 1738.7616346169
1577 1738.750916619098
1578 1738.765939859846
1579 1738.756096287406
1580 1738.768909578034
1581 1738.758920839945
1582 1738.771933057097
1583 1738.755909541273
1584 1738.764162930374
1585 1738.752944319391
1586 1738.772627630966
1587 1738.762434156352
1588 1738.769068663016
1589 1738.753445951018
1590 1738.770108620461
1591 1738.756040476484
1592 1738.766871181063
1593 1738.755824739904
1594 1738.771878057236
1595 1738.755695215488
1596 1738.765941766638
1597 1738.758150510145
1598 1738.775518363828
1599 1738.763944385821
1600 1738.768051347064
1601 1738.758871767128
1602 1738.773949130474
1603 1738.759723615254
1604 1738.769310142951
1605 1738.758294908122
1606 1738.766561830871
1607 1738.753766818416
1608 1738.765942762734
1609 1738.758716146491
1610 1738.775019213755
1611 1738.762649791575
1612 1738.775828135964
1613 1738.758822636672
1614 1738.776923449856
1615 1738.760281815295
1616 1738.778093662959
1617 1738.768732668893
1618 1738.780524092242
1619 1738.756986360827
1620 1738.769353616018
1621 1738.759454759502
1622 1738.778141800452
1623 1738.762694705224
1624 1738.766688334499
1625 1738.750262016212
1626 1738.768378172873
1627 1738.75475465225
1628 1738.771681038414
1629 1738.757817981586
1630 1738.766740067639
1631 1738.754384361687
1632 1738.768881947183
1633 1738.759335657013
1634 1738.773905696374
1635 1738.757981878969
1636 1738.771163782048
1637 1738.760008474154
1638 1738.76722810087
1639 1738.752117736417
1640 1738.775372117691
1641 1738.757626302217
1642 1738.76628926446
1643 1738.75277173826
1644 1738.769962978899
1645 1738.757280746366
1646 1738.773443695701
1647 1738.759652098526
1648 1738.765255445351
1649 1738.752952415598
1650 1738.77099009992
1651 1738.758386569935
1652 1738.772718932737
1653 1738.762305595415
1654 1738.772534676628
1655 1738.762945243591
1656 1738.775619868681
1657 1738.768162485618
1658 1738.779831816304
1659 1738.768645964478
1660 1738.770769676251
1661 1738.763161554787
1662 1738.775163373248
1663 1738.764487168408
1664 1738.776519578256
1665 1738.764100722361
1666 1738.775007451198
1667 1738.764164955375
1668 1738.776773997857
1669 1738.767923795487
1670 1738.776177782742
1671 1738.761490161199
1672 1738.771309761728
1673 1738.758712381656
1674 1738.772632633674
1675 1738.756274283392
1676 1738.77185234392
1677 1738.759681123925
1678 1738.767770660058
1679 1738.74882050756
1680 1738.766875066857
1681 1738.753936699631
1682 1738.76648762763
1683 1738.752640182148
1684 1738.763939635351
1685 1738.749760459456
1686 1738.75988549164
1687 1738.744451293609
1688 1738.76211908136
1689 1738.748472212054
1690 1738.753381904189
1691 1738.742996232683
1692 1738.755277279997
1693 1738.749274110564
1694 1738.761348318714
1695 1738.752273672533
1696 1738.757528770111
1697 1738.745955341877
1698 1738.761747862984
1699 1738.748508144146
1700 1738.758612448308
1701 1738.749277732115
1702 1738.758601200959
1703 1738.747856862551
1704 1738.757207257536
1705 1738.745848149825
1706 1738.754456889252
1707 1738.743038705569
1708 1738.751112631092
1709 1738.741737990913
1710 1738.753979443783
1711 1738.744277422243
1712 1738.764244579118
1713 1738.751614310242
1714 1738.754087078261
1715 1738.738064223973
1716 1738.755353616392
1717 1738.747597782545
1718 1738.756226525752
1719 1738.743746730889
1720 1738.756282828823
1721 1738.743725503834
1722 1738.7568138552
1723 1738.742754287898
1724 1738.761276140797
1725 1738.744518007414
1726 1738.752474232263
1727 1738.741183842803
1728 1738.75390948648
1729 1738.742064524449
1730 1738.758679341486
1731 1738.740464009469
1732 1738.749782738748
1733 1738.733020511763
1734 1738.752612681149
1735 1738.73566514403
1736 1738.751654235916
1737 1738.738157090077
1738 1738.751125258978
1739 1738.735007831494
1740 1738.747933688426
1741 1738.734478652864
1742 1738.756303594444
1743 1738.742102852463
1744 1738.748275933584
1745 1738.735667573987
1746 1738.753669951547
1747 1738.740286347131
1748 1738.757832093612
1749 1738.741476437802
1750 1738.747059524121
1751 1738.732375703353
1752 1738.750062901567
1753 1738.741237361132
1754 1738.754066758409
1755 1738.738293908497
1756 1738.74860407821
1757 1738.737629278445
1758 1738.75160445866
1759 1738.737191721604
1760 1738.751951884218
1761 1738.741998856859
1762 1738.753325822394
1763 1738.740107363106
1764 1738.752409517991
1765 1738.742770567477
1766 1738.760460217381
1767 1738.748217595857
1768 1738.754356910273
1769 1738.742951958115
1770 1738.76040389952
1771 1738.744841117048
1772 1738.756778278476
1773 1738.749158451736
1774 1738.757392256799
1775 1738.741196230519
1776 1738.747609353
1777 1738.734683523171
1778 1738.751729319135
1779 1738.738768548941
1780 1738.744576067411
1781 1738.734817292796
1782 1738.74898366313
1783 1738.736138819727
1784 1738.75371054911
1785 1738.741229641004
1786 1738.749970272088
1787 1738.735031627852
1788 1738.746001390767
1789 1738.735078575501
1790 1738.755086048046
1791 1738.745561320002
1792 1738.749685973762
1793 1738.740751623375
1794 1738.757994147975
1795 1738.746214736489
1796 1738.759739429347
1797 1738.745151994282
1798 1738.756229215432
1799 1738.744774515346
1800 1738.756201296912
1801 1738.748116756206
1802 1738.762278592114
1803 1738.753715989926
1804 1738.763288439331
1805 1738.750792770547
1806 1738.767526264476
1807 1738.75057507547
1808 1738.763650249296
1809 1738.753976644009
1810 1738.765931963316
1811 1738.748647250577
1812 1738.75828591097
1813 1738.751695678795
1814 1738.759647781618
1815 1738.751647948625
1816 1738.760369024719
1817 1738.753095470881
1818 1738.759715419495
1819 1738.75048285754
1820 1738.762707144519
1821 1738.752831324641
1822 1738.755184288158
1823 1738.746122474501
1824 1738.76562394922
1825 1738.75436485226
1826 1738.768519611623
1827 1738.757731237326
1828 1738.764363862878
1829 1738.751744813775
1830 1738.7676256095
1831 1738.755349918074
1832 1738.767747544669
1833 1738.757048514154
1834 1738.765882694396
1835 1738.748593179875
1836 1738.764599457429
1837 1738.754797038223
1838 1738.769318537546
1839 1738.75512038103
1840 1738.767856963685
1841 1738.751557025974
1842 1738.763828037378
1843 1738.748849566288
1844 1738.764664323513
1845 1738.752465830057
1846 1738.76290647979
1847 1738.743698860963
1848 1738.757332304979
1849 1738.74763182205
1850 1738.762754489852
1851 1738.750075574697
1852 1738.761663449374
1853 1738.746875197687
1854 1738.759925690558
1855 1738.744826328316
1856 1738.759726284372
1857 1738.74704938284
1858 1738.756783574933
1859 1738.74457704262
1860 1738.754929927794
1861 1738.749444816609
1862 1738.767141771868
1863 1738.749274148854
1864 1738.766778951883
1865 1738.751246580149
1866 1738.77092397849
1867 1738.754762453178
1868 1738.774097942988
1869 1738.759597866116
1870 1738.773122420949
1871 1738.752052129246
1872 1738.769489391671
1873 1738.755936907915
1874 1738.771758933414
1875 1738.760221646335
1876 1738.775819662967
1877 1738.763241233679
1878 1738.78184296946
1879 1738.770031763815
1880 1738.786329205461
1881 1738.770691213841
1882 1738.782573904701
1883 1738.767249144859
1884 1738.782381111236
1885 1738.771256105954
1886 1738.785484516254
1887 1738.769368742959
1888 1738.780450266113
1889 1738.770262041987
1890 1738.78050216102
1891 1738.771102329751
1892 1738.780378418354
1893 1738.767709742055
1894 1738.775652868212
1895 1738.760222723069
1896 1738.771854467445
1897 1738.765135320011
1898 1738.776547554316
1899 1738.762451153615
1900 1738.770533797911
1901 1738.758339967195
1902 1738.770588600741
1903 1738.762186812151
1904 1738.774790583542
1905 1738.758949097632
1906 1738.765697220534
1907 1738.756914013436
1908 1738.769059716746
1909 1738.763290034187
1910 1738.778698382191
1911 1738.764012806644
1912 1738.769150239078
1913 1738.760050775291
1914 1738.774092421144
1915 1738.767611896467
1916 1738.779052735433
1917 1738.766898470958
1918 1738.775350541336
1919 1738.762752874372
1920 1738.772685844403
1921 1738.765748203465
1922 1738.778731561693
1923 1738.76637282355
1924 1738.77321465069
1925 1738.764002304423
1926 1738.777362015245
1927 1738.768476295611
1928 1738.777100378254
1929 1738.766692985282
1930 1738.775571275799
1931 1738.763876485453
1932 1738.773260108698
1933 1738.767045851851
1934 1738.779031135282
1935 1738.764004068829
1936 1738.774989558703
1937 1738.765645777551
1938 1738.772528213703
1939 1738.764755467157
1940 1738.777193477124
1941 1738.76630245613
1942 1738.771337572489
1943 1738.760610660208
1944 1738.770737494984
1945 1738.761503036949
1946 1738.774197099447
1947 1738.764035544345
1948 1738.767730560449
1949 1738.761148231449
1950 1738.770029609095
1951 1738.762585062429
1952 1738.770939228634
1953 1738.761043588867
1954 1738.766410779063
1955 1738.753182602618
1956 1738.763418055376
1957 1738.755501057029
1958 1738.768677646093
1959 1738.76044020297
1960 1738.763826705471
1961 1738.751739606684
1962 1738.765309280569
1963 1738.758366561019
1964 1738.76405629335
1965 1738.757380413624
1966 1738.767431920584
1967 1738.755561706952
1968 1738.767744508057
1969 1738.758995258369
1970 1738.771359061272
1971 1738.761966658883
1972 1738.764081922539
1973 1738.750261277056
1974 1738.768934075483
1975 1738.755368264141
1976 1738.766773636228
1977 1738.757234985203
1978 1738.7647910393
1979 1738.745952256441
1980 1738.7605151323
1981 1738.748130002739
1982 1738.762831477502
1983 1738.752336416887
1984 1738.756676780741
1985 1738.742672405375
1986 1738.761447195575
1987 1738.741403403458
1988 1738.757712287599
1989 1738.747882780259
1990 1738.759305715695
1991 1738.744132571282
1992 1738.75902529804
1993 1738.744820912002
1994 1738.755095574271
1995 1738.741469057313
1996 1738.754374209548
1997 1738.743317422434
1998 1738.756533279306
1999 1738.741384779058
2000 1738.759811642333
2001 1738.747022862554
2002 1738.756118756256
2003 1738.744080705636
2004 1738.754075673719
2005 1738.741391736248
2006 1738.755752590205
2007 1738.743903040073
2008 1738.750920968258
2009 1738.739720830931
2010 1738.755586156767
2011 1738.738715054525
2012 1738.752218741755
2013 1738.742352086181
2014 1738.751713203301
2015 1738.737039915064
2016 1738.751075669313
2017 1738.736430692654
2018 1738.752261573997
2019 1738.737215714619
2020 1738.751512375786
2021 1738.736165862739
2022 1738.75480562104
2023 1738.737636094128
2024 1738.755556989176
2025 1738.737309309096
2026 1738.748535487267
2027 1738.734449894996
2028 1738.749142739402
2029 1738.737031257009
2030 1738.752482607886
2031 1738.737164039529
2032 1738.74394126791
2033 1738.731129305005
2034 1738.750821086287
2035 1738.730513714403
2036 1738.744380264229
2037 1738.72968023436
2038 1738.743377443979
2039 1738.727144761891
2040 1738.744706705563
2041 1738.731349184193
2042 1738.752833109434
2043 1738.738490323467
2044 1738.747838016237
2045 1738.734050005906
2046 1738.74687061525
2047 1738.739481881472
2048 1738.753335117456
2049 1738.743285627545
2050 1738.752946095708
2051 1738.741810254445
2052 1738.751803730717
2053 1738.743624507513
2054 1738.754722600668
2055 1738.737765975836
2056 1738.744016053521
2057 1738.731352620628
2058 1738.745675853437
2059 1738.732183451832
2060 1738.745039619
2061 1738.736950329743
2062 1738.747298522007
2063 1738.731738046577
2064 1738.74618936273
2065 1738.73947542691
2066 1738.753863328591
2067 1738.737101203958
2068 1738.747856728254
2069 1738.739181194351
2070 1738.754741746229
2071 1738.739735052144
2072 1738.748991527936
2073 1738.73675233569
2074 1738.751616549443
2075 1738.736853882814
2076 1738.748296013664
2077 1738.740822611773
2078 1738.756335658244
2079 1738.742440319632
2080 1738.748824205291
2081 1738.737457513334
2082 1738.74997077701
2083 1738.737184568722
2084 1738.753788396562
2085 1738.742184592326
2086 1738.748444872409
2087 1738.733146258428
2088 1738.747885487603
2089 1738.735279650098
2090 1738.745368378311
2091 1738.730981083751
2092 1738.743691198536
2093 1738.732056219528
2094 1738.753019840877
2095 1738.738344700684
2096 1738.74309678183
2097 1738.731364955843
2098 1738.750529108743
2099 1738.731171807802
2100 1738.742777102225
2101 1738.732970671792
2102 1738.747737631774
2103 1738.736823689497
2104 1738.746986358289
2105 1738.736584439282
2106 1738.754460459813
2107 1738.741507518198
2108 1738.750230031719
2109 1738.738827014593
2110 1738.750688455045
2111 1738.739596570289
2112 1738.74913578145
2113 1738.738045562126
2114 1738.750813297015
2115 1738.739536504825
2116 1738.748776722366
2117 1738.730316222398
2118 1738.747656588279
2119 1738.733553459146
2120 1738.745541423149
2121 1738.733927107562
2122 1738.748333357662
2123 1738.737664421958
2124 1738.750770385357
2125 1738.743048122479
2126 1738.755172396832
2127 1738.737625696823
2128 1738.749798855391
2129 1738.73978314927
2130 1738.755216102528
2131 1738.742119025473
2132 1738.749899576465
2133 1738.740283114415
2134 1738.754875496888
2135 1738.744880339073
2136 1738.760399682235
2137 1738.746779791931
2138 1738.755506289461
2139 1738.744373723249
2140 1738.756775273452
2141 1738.746488056842
2142 1738.764793533671
2143 1738.745033551903
2144 1738.756166916098
2145 1738.744123341132
2146 1738.758819461576
2147 1738.745390984096
2148 1738.757418396004
2149 1738.745216309039
2150 1738.754168285009
2151 1738.740516397874
2152 1738.752229061458
2153 1738.739373321164
2154 1738.759604623909
2155 1738.747911272921
2156 1738.752381498018
2157 1738.742659006595
2158 1738.761106863846
2159 1738.746863782543
2160 1738.762736664369
2161 1738.751546766957
2162 1738.760398902521
2163 1738.75145130456
2164 1738.764591068898
2165 1738.754333198365
2166 1738.765165226277
2167 1738.756129181079
2168 1738.758728697994
2169 1738.753489983997
2170 1738.761593268295
2171 1738.752827193117
2172 1738.763852137185
2173 1738.757284799587
2174 1738.763509922636
2175 1738.750148206641
2176 1738.762691430025
2177 1738.755073930672
2178 1738.766653108055
2179 1738.755900929438
2180 1738.763865209815
2181 1738.755681614782
2182 1738.764657756629
2183 1738.754409269843
2184 1738.76497669697
2185 1738.754809155763
2186 1738.764039626614
2187 1738.754800712494
2188 1738.760455605625
2189 1738.746855156608
2190 1738.764576477934
2191 1738.755602555013
2192 1738.761092069163
2193 1738.754275483188
2194 1738.768148351363
2195 1738.756688666185
2196 1738.770606143711
2197 1738.760408065785
2198 1738.770866820628
2199 1738.758726523257
2200 1738.765196476914
2201 1738.75162819952
2202 1738.774513163712
2203 1738.758707577861
2204 1738.765896281054
2205 1738.755545483355
2206 1738.768908309172
2207 1738.760230597185
2208 1738.771865894648
2209 1738.763839416783
2210 1738.776646533849
2211 1738.761526685168
2212 1738.77235528645
2213 1738.7596191635
2214 1738.776133281371
2215 1738.765462304376
2216 1738.773692282317
2217 1738.761004332222
2218 1738.772776938419
2219 1738.767158169984
2220 1738.776093431873
2221 1738.763063241838
2222 1738.772797314264
2223 1738.762958514689
2224 1738.772690531488
2225 1738.759942363007
2226 1738.774379368266
2227 1738.763577160922
2228 1738.767705653233
2229 1738.758115668316
2230 1738.772098535889
2231 1738.762937261406
2232 1738.778490833329
2233 1738.764291320052
2234 1738.779869258211
2235 1738.766826222657
2236 1738.777860689515
2237 1738.765813193678
2238 1738.77747525401
2239 1738.767022438125
2240 1738.768207151206
2241 1738.763830242121
2242 1738.777128777686
2243 1738.76159661278
2244 1738.771150859165
2245 1738.766367690436
2246 1738.765120872312
2247 1738.760685276632
2248 1738.771712136573
2249 1738.76750365299
2250 1738.774386120772
2251 1738.76878076587
2252 1738.773919055531
2253 1738.76755293548
2254 1738.775120928649
2255 1738.76731580277
2256 1738.776819967794
2257 1738.775800927707
2258 1738.779187836421
2259 1738.774576287966
2260 1738.775827318576
2261 1738.771018718021
2262 1738.780545097615
2263 1738.76991367745
2264 1738.77511997445
2265 1738.766908702397
2266 1738.778371602785
2267 1738.766495009654
2268 1738.778795673397
2269 1738.768798895292
2270 1738.779634837877
2271 1738.764037025001
2272 1738.772130663908
2273 1738.769935425415
2274 1738.779066355642
2275 1738.769579880506
2276 1738.779629839629
2277 1738.774265954534
2278 1738.780318810464
2279 1738.769476352051
2280 1738.784886754031
2281 1738.772606514739
2282 1738.779380757918
2283 1738.767471001521
2284 1738.780410451383
2285 1738.771098481903
2286 1738.777160967259
2287 1738.770232814764
2288 1738.779252959963
2289 1738.775536644346
2290 1738.786611180263
2291 1738.774575307408
2292 1738.785410155526
2293 1738.7809351637
2294 1738.786122062149
2295 1738.778278209275
2296 1738.789550638455
2297 1738.779893128139
2298 1738.786370928436
2299 1738.773516298039
2300 1738.781183303149
2301 1738.772809498428
2302 1738.779275347807
2303 1738.766067174116
2304 1738.778781601752
2305 1738.768303386947
2306 1738.771173535985
2307 1738.762833230954
2308 1738.776080934231
2309 1738.76948573616
2310 1738.778191537287
2311 1738.769020783086
2312 1738.774031536769
2313 1738.767622819334
2314 1738.780592415597
2315 1738.765449546721
2316 1738.779882757045
2317 1738.769830177655
2318 1738.780196814323
2319 1738.76770089109
2320 1738.785294310068
2321 1738.763972705627
2322 1738.786591890551
2323 1738.770976310967
2324 1738.781039124743
2325 1738.766392194878
2326 1738.782630716517
2327 1738.764709554922
2328 1738.780239362947
2329 1738.771393734889
2330 1738.783017180699
2331 1738.770092544777
2332 1738.777570370684
2333 1738.769422053884
2334 1738.78749682865
2335 1738.774716917314
2336 1738.784048178237
2337 1738.767176027
2338 1738.782834442622
2339 1738.772912432365
2340 1738.786260005842
2341 1738.774475778607
2342 1738.780796553533
2343 1738.769519656133
2344 1738.776577993689
2345 1738.772669392642
2346 1738.781208139101
2347 1738.773216196944
2348 1738.777066922418
2349 1738.765848359838
2350 1738.77636439385
2351 1738.764673138574
2352 1738.775729428796
2353 1738.765426472937
2354 1738.774529859072
2355 1738.759434007096
2356 1738.771283666744
2357 1738.764962516128
2358 1738.76911429488
2359 1738.762178876244
2360 1738.767293847814
2361 1738.762729996437
2362 1738.766827434153
2363 1738.760645495215
2364 1738.766474490663
2365 1738.762946796212
2366 1738.768651335658
2367 1738.761939239186
2368 1738.766382948539
2369 1738.762030979369
2370 1738.775514696899
2371 1738.766478191999
2372 1738.76112131518
2373 1738.758378356051
2374 1738.765821611974
2375 1738.759528153156
2376 1738.763983279126
2377 1738.760296266421
2378 1738.761346372496
2379 1738.758876137315
2380 1738.766615630907
2381 1738.758198241605
2382 1738.769093424321
2383 1738.763659568474
2384 1738.76712412661
2385 1738.757408533994
2386 1738.769361946176
2387 1738.760000857663
2388 1738.773840258843
2389 1738.762195227179
2390 1738.769688621848
2391 1738.761123843625
2392 1738.767085992324
2393 1738.755021539889
2394 1738.763793071145
2395 1738.761981175974
2396 1738.758474252382
2397 1738.75383897097
2398 1738.760007526728
2399 1738.753616391899
2400 1738.765236273684
2401 1738.760556816335
2402 1738.763773052649
2403 1738.759992651987
2404 1738.759257075287
2405 1738.756317352602
2406 1738.769001271169
2407 1738.763872613395
2408 1738.758922311989
2409 1738.75525381579
2410 1738.770243261346
2411 1738.763794613607
2412 1738.770096463188
2413 1738.764577843916
2414 1738.768664473681
2415 1738.761594845221
2416 1738.769260773404
2417 1738.762080834016
2418 1738.777531201501
2419 1738.772415383412
2420 1738.771159662045
2421 1738.763504694595
2422 1738.778920554979
2423 1738.762466812526
2424 1738.770045555804
2425 1738.763242530854
2426 1738.771292142269
2427 1738.758599941481
2428 1738.767131535988
2429 1738.758586333851
2430 1738.774289538131
2431 1738.764948733191
2432 1738.768421988668
2433 1738.762588258894
2434 1738.776589728556
2435 1738.764030674613
2436 1738.774634039609
2437 1738.764488435254
2438 1738.767214275851
2439 1738.764443089682
2440 1738.774787036285
2441 1738.761745441606
2442 1738.770413637644
2443 1738.767135551344
2444 1738.767819576476
2445 1738.762306647983
2446 1738.770337968623
2447 1738.761659599881
2448 1738.76603545793
2449 1738.76519539431
2450 1738.764081496375
2451 1738.757035463837
2452 1738.762912221239
2453 1738.754750849664
2454 1738.762376751851
2455 1738.757702499532
2456 1738.763186543009
2457 1738.75938076348
2458 1738.77044604057
2459 1738.758540468567
2460 1738.772056030319
2461 1738.766654085445
2462 1738.773422059865
2463 1738.762607162839
2464 1738.780364197579
2465 1738.76781430562
2466 1738.784268877819
2467 1738.77155585501
2468 1738.77104036886
2469 1738.764097664207
2470 1738.780238089616
2471 1738.766801921165
2472 1738.779896819459
2473 1738.773090343568
2474 1738.774769088608
2475 1738.76276927476
2476 1738.774136747027
2477 1738.760460243893
2478 1738.775042818898
2479 1738.756957199312
2480 1738.766657766604
2481 1738.756665732949
2482 1738.774923913067
2483 1738.757625315278
2484 1738.768814819184
2485 1738.760176303439
2486 1738.768511233061
2487 1738.761168640078
2488 1738.773180503858
2489 1738.76198160138
2490 1738.777978166409
2491 1738.769151682907
2492 1738.774025979482
2493 1738.766786546274
2494 1738.781284923913
2495 1738.77500844773
2496 1738.778656672548
2497 1738.770337888886
2498 1738.775012732284
2499 1738.760756130341
2500 1738.780691564677
2501 1738.770699051782
2502 1738.778324164933
2503 1738.770104714966
2504 1738.773004007314
2505 1738.761783554642
2506 1738.77425123647
2507 1738.761281657804
2508 1738.775821067983
2509 1738.764478368519
2510 1738.775645059601
2511 1738.75388257518
2512 1738.772459970372
2513 1738.761958250613
2514 1738.773729883139
2515 1738.757904798016
2516 1738.764544968003
2517 1738.755443381589
2518 1738.759873996744
2519 1738.757472187243
2520 1738.771241678519
2521 1738.762665366929
2522 1738.766400051742
2523 1738.75882481752
2524 1738.773840457293
2525 1738.761602704021
2526 1738.777536681815
2527 1738.759593571984
2528 1738.769719252575
2529 1738.760722867351
2530 1738.77573873387
2531 1738.763351573409
2532 1738.774547360622
2533 1738.772181577907
2534 1738.776505296185
2535 1738.764156795973
2536 1738.775009025004
2537 1738.76690111051
2538 1738.777145755164
2539 1738.767668526803
2540 1738.777303420373
2541 1738.770747446801
2542 1738.782342762296
2543 1738.769062534651
2544 1738.782110607637
2545 1738.772916961687
2546 1738.779523629811
2547 1738.765658217802
2548 1738.781906946815
2549 1738.772764555889
2550 1738.784795062092
2551 1738.771841260602
2552 1738.78408643796
2553 1738.776171795421
2554 1738.786190197259
2555 1738.770847160636
2556 1738.787232546014
2557 1738.778572243214
2558 1738.779978824815
2559 1738.768184156224
2560 1738.780039001162
2561 1738.771443521206
2562 1738.784754824851
2563 1738.770261455527
2564 1738.776976792146
2565 1738.76391031294
2566 1738.774660586221
2567 1738.764481736931
2568 1738.777201523673
2569 1738.765204075146
2570 1738.774838897408
2571 1738.761748090859
2572 1738.775464071925
2573 1738.76733993975
2574 1738.779298665879
2575 1738.764654183234
2576 1738.771650899934
2577 1738.764680388692
2578 1738.767192629284
2579 1738.756667487496
2580 1738.776171692427
2581 1738.765380313148
2582 1738.772518433637
2583 1738.757161307282
2584 1738.76985045054
2585 1738.761540683052
2586 1738.773167559887
2587 1738.757919582649
2588 1738.765582497599
2589 1738.757751003294
2590 1738.762436274334
2591 1738.757715368015
2592 1738.771671080884
2593 1738.763639961627
2594 1738.768676873173
2595 1738.761246512736
2596 1738.772086652045
2597 1738.763767357799
2598 1738.778730702567
2599 1738.76645447547
2600 1738.77663509251
2601 1738.762479448365
2602 1738.773877708676
2603 1738.761859492399
2604 1738.775365053017
2605 1738.76255608247
2606 1738.766771707636
2607 1738.76062076311
2608 1738.770703838943
2609 1738.76655817398
2610 1738.779862410805
2611 1738.770212062632
2612 1738.776803801454
2613 1738.769933337604
2614 1738.777266641505
2615 1738.767075696671
2616 1738.782111631169
2617 1738.775068270297
2618 1738.778099342324
2619 1738.768717735409
2620 1738.780407287931
2621 1738.773163737983
2622 1738.782978496173
2623 1738.771048694771
2624 1738.78000017783
2625 1738.763021961068
2626 1738.77745623442
2627 1738.764401024329
2628 1738.774493445964
2629 1738.766997816585
2630 1738.772442403012
2631 1738.767608237108
2632 1738.770125680388
2633 1738.769317343815
2634 1738.781691029009
2635 1738.772953971505
2636 1738.769106274206
2637 1738.766269473006
2638 1738.774740580859
2639 1738.766076391149
2640 1738.78418850729
2641 1738.775690108935
2642 1738.779305622473
2643 1738.769101501545
2644 1738.786239731133
2645 1738.772057009343
2646 1738.784579345966
2647 1738.774656517965
2648 1738.771484981602
2649 1738.76960665333
2650 1738.781859939352
2651 1738.774843789957
2652 1738.787559425007
2653 1738.778565379161
2654 1738.776409593335
2655 1738.769829371705
2656 1738.785246624729
2657 1738.771329287842
2658 1738.780696038735
2659 1738.771252517354
2660 1738.779913911422
2661 1738.769699044673
2662 1738.781508977652
2663 1738.766847186308
2664 1738.783018266316
2665 1738.772327133688
2666 1738.777468617681
2667 1738.764804413929
2668 1738.780410092793
2669 1738.772529240477
2670 1738.777077280554
2671 1738.76993814594
2672 1738.776809585474
2673 1738.770398088082
2674 1738.775914409191
2675 1738.762831121844
2676 1738.778205333751
2677 1738.768892731108
2678 1738.773241988454
2679 1738.761365053503
2680 1738.776317796244
2681 1738.764047124831
2682 1738.773222587417
2683 1738.763393918452
2684 1738.767425047147
2685 1738.761821753423
2686 1738.768760840914
2687 1738.761479651774
2688 1738.778527351661
2689 1738.771108716737
2690 1738.771020733039
2691 1738.76097842826
2692 1738.774048442001
2693 1738.762988437739
2694 1738.778520993958
2695 1738.763577865804
2696 1738.771038163233
2697 1738.759468157634
2698 1738.775195218217
2699 1738.763189974289
2700 1738.7743658505
2701 1738.768733648413
2702 1738.771182709444
2703 1738.765635966145
2704 1738.779829722386
2705 1738.77228998459
2706 1738.778784230248
2707 1738.767924083996
2708 1738.77739118085
2709 1738.765255935861
2710 1738.774928695984
2711 1738.759411064551
2712 1738.773450508683
2713 1738.765264607602
2714 1738.76986966356
2715 1738.759091839871
2716 1738.767913152348
2717 1738.761371399593
2718 1738.76755841484
2719 1738.76502448607
2720 1738.771859535415
2721 1738.761930239536
2722 1738.768938494533
2723 1738.759206754634
2724 1738.771703999363
2725 1738.764022934934
2726 1738.765391284184
2727 1738.759696369798
2728 1738.768983775972
2729 1738.757714721862
2730 1738.774136891168
2731 1738.759158392021
2732 1738.768957231461
2733 1738.756938405678
2734 1738.772690414374
2735 1738.758119963296
2736 1738.774412199408
2737 1738.761726583012
2738 1738.772862788499
2739 1738.754480786001
2740 1738.77131289905
2741 1738.758814037786
2742 1738.768187967511
2743 1738.758460964598
2744 1738.766824803517
2745 1738.757252775848
2746 1738.768409669669
2747 1738.757451910209
2748 1738.768193998921
2749 1738.761086897542
2750 1738.773162023468
2751 1738.759961537956
2752 1738.773995311411
2753 1738.764561909511
2754 1738.778977159046
2755 1738.76073380313
2756 1738.769974496899
2757 1738.762127772542
2758 1738.773254492457
2759 1738.76242383365
2760 1738.771654950788
2761 1738.762725304749
2762 1738.772402731776
2763 1738.762663235746
2764 1738.771511544594
2765 1738.766457269949
2766 1738.777853550023
2767 1738.769724493019
2768 1738.772598461552
2769 1738.762861807342
2770 1738.773239574492
2771 1738.759838003775
2772 1738.776147920061
2773 1738.763547831455
2774 1738.769258999526
2775 1738.763536718261
2776 1738.770870511005
2777 1738.764754575172
2778 1738.775326994568
2779 1738.763862113865
2780 1738.764910167729
2781 1738.757909328292
2782 1738.772284071714
2783 1738.760797040307
2784 1738.779319638513
2785 1738.764014644193
2786 1738.771121633952
2787 1738.761387720316
2788 1738.766233584082
2789 1738.764305771396
2790 1738.779757365864
2791 1738.76859477594
2792 1738.771214707541
2793 1738.766316034118
2794 1738.776927430809
2795 1738.764242721072
2796 1738.777576841176
2797 1738.768043445179
2798 1738.771996161451
2799 1738.761052541312
2800 1738.777711634826
2801 1738.765419922101
2802 1738.774808673522
2803 1738.770572005633
2804 1738.773392936092
2805 1738.767506550306
2806 1738.77648971678
2807 1738.768730073188
2808 1738.780096105059
2809 1738.773001204768
2810 1738.776668659965
2811 1738.765499557892
2812 1738.781331666488
2813 1738.763911589336
2814 1738.776919806694
2815 1738.766831022532
2816 1738.768783171261
2817 1738.762498326554
2818 1738.774427694583
2819 1738.757568270038
2820 1738.772869457534
2821 1738.759291218146
2822 1738.770719314458
2823 1738.756818424031
2824 1738.775374101996
2825 1738.761981547099
2826 1738.778582892078
2827 1738.764242653715
2828 1738.774834060421
2829 1738.762522230282
2830 1738.771440750524
2831 1738.763130302419
2832 1738.770793823543
2833 1738.766674974551
2834 1738.778611897289
2835 1738.76725789332
2836 1738.777787702902
2837 1738.771394136676
2838 1738.785345186648
2839 1738.765285341965
2840 1738.776859926289
2841 1738.762606627586
2842 1738.774003359528
2843 1738.76380350037
2844 1738.779444778995
2845 1738.766245123474
2846 1738.772195085744
2847 1738.761521942611
2848 1738.777874865728
2849 1738.76174257426
2850 1738.778502809976
2851 1738.766393297034
2852 1738.766906884546
2853 1738.758656875616
2854 1738.779107565281
2855 1738.763429402443
2856 1738.776899529437
2857 1738.762772477968
2858 1738.770486108956
2859 1738.760364624164
2860 1738.771736731924
2861 1738.754787680896
2862 1738.765966914704
2863 1738.760112757839
2864 1738.759247185088
2865 1738.755353959454
2866 1738.767850437233
2867 1738.756183156223
2868 1738.761354879625
2869 1738.757847835694
2870 1738.766812616173
2871 1738.758281972602
2872 1738.761923963634
2873 1738.755378214358
2874 1738.768174505776
2875 1738.759906115533
2876 1738.760504121345
2877 1738.754782484676
2878 1738.768780253844
2879 1738.758998283385
2880 1738.762701940208
2881 1738.756047359757
2882 1738.758913334142
2883 1738.752373589131
2884 1738.758468606649
2885 1738.748310976737
2886 1738.761763836994
2887 1738.754624280322
2888 1738.75384065413
2889 1738.74554404163
2890 1738.761389962236
2891 1738.75080565016
2892 1738.755796141651
2893 1738.750129080761
2894 1738.755628153795
2895 1738.748151562864
2896 1738.754706661761
2897 1738.743746311468
2898 1738.75810064053
2899 1738.748605791396
2900 1738.754702375218
2901 1738.742710012735
2902 1738.756742886408
2903 1738.74342666206
2904 1738.757934696941
2905 1738.744252585929
2906 1738.750156767675
2907 1738.7414240716
2908 1738.755072176254
2909 1738.737309421658
2910 1738.750753328749
2911 1738.744899114066
2912 1738.740640131925
2913 1738.736488408435
2914 1738.753927082017
2915 1738.739590379577
2916 1738.745672123809
2917 1738.738344668681
2918 1738.74961329
2919 1738.738260743518
2920 1738.752634164162
2921 1738.737043771253
2922 1738.750824857611
2923 1738.742032045844
2924 1738.746682197238
2925 1738.733741795856
2926 1738.749359393245
2927 1738.738493902451
2928 1738.748895096193
2929 1738.740326106305
2930 1738.752086963019
2931 1738.741844312833
2932 1738.754517511715
2933 1738.744710805725
2934 1738.759943538322
2935 1738.749437086167
2936 1738.75354804297
2937 1738.743926010536
2938 1738.758049273685
2939 1738.74291748765
2940 1738.756038892014
2941 1738.747990198558
2942 1738.759820313817
2943 1738.744796360281
2944 1738.757149756486
2945 1738.744459202791
2946 1738.75706052139
2947 1738.745747874945
2948 1738.759429982206
2949 1738.745601421313
2950 1738.7601511215
2951 1738.749056922732
2952 1738.758486086185
2953 1738.74433317604
2954 1738.750261118365
2955 1738.745224776808
2956 1738.755219605692
2957 1738.748438831155
2958 1738.755595386917
2959 1738.751181432945
2960 1738.757138939152
2961 1738.744973419301
2962 1738.755957085584
2963 1738.746882420729
2964 1738.756059695689
2965 1738.747293432806
2966 1738.754860540593
2967 1738.747218092189
2968 1738.756095967521
2969 1738.751603266263
2970 1738.766339888765
2971 1738.760711359201
2972 1738.761058499504
2973 1738.753614014993
2974 1738.767339868554
2975 1738.758212621384
2976 1738.77155640069
2977 1738.759024896152
2978 1738.769813335663
2979 1738.759362217937
2980 1738.773129171633
2981 1738.760090764457
2982 1738.773529412084
2983 1738.766226398344
2984 1738.769794469605
2985 1738.761083184289
2986 1738.779535651533
2987 1738.767632014689
2988 1738.777242670775
2989 1738.767065593456
2990 1738.777886699079
2991 1738.7632772026
2992 1738.778256432475
2993 1738.76400713547
2994 1738.78042483691
2995 1738.763609964731
2996 1738.778311869237
2997 1738.766539234777
2998 1738.777789526475
2999 1738.767498574925
3000 1738.77926004702
3001 1738.773965002083
3002 1738.786711309867
3003 1738.772867594268
3004 1738.776176353308
3005 1738.766132055469
3006 1738.778294099053
3007 1738.768013037065
3008 1738.774974937186
3009 1738.763110841789
3010 1738.777640024403
3011 1738.762844501934
3012 1738.780114830608
3013 1738.767132325711
3014 1738.779955373528
3015 1738.762648036285
3016 1738.779050305668
3017 1738.767318468968
3018 1738.781202128196
3019 1738.768363828925
3020 1738.774596498208
3021 1738.769094871044
3022 1738.786333162662
3023 1738.776112282513
3024 1738.788639835238
3025 1738.776818874191
3026 1738.78427141699
3027 1738.77288532455
3028 1738.787581935563
3029 1738.776155712174
3030 1738.786375948957
3031 1738.779431568705
3032 1738.785690191855
3033 1738.777198840148
3034 1738.784088855423
3035 1738.777564081334
3036 1738.793192898948
3037 1738.783838385259
3038 1738.790830804574
3039 1738.78039803849
3040 1738.792071167058
3041 1738.779622698343
3042 1738.79647484974
3043 1738.782617992176
3044 1738.792636959204
3045 1738.779724269497
3046 1738.795088330885
3047 1738.785014205952
3048 1738.798845895843
3049 1738.790225388679
3050 1738.793689416868
3051 1738.78778100503
3052 1738.797539177575
3053 1738.788124881882
3054 1738.800799913335
3055 1738.791837973887
3056 1738.79081220759
3057 1738.780008623786
3058 1738.796282312119
3059 1738.780817918001
3060 1738.79604469916
3061 1738.78555363821
3062 1738.788593137654
3063 1738.775211430211
3064 1738.792998269675
3065 1738.780640297631
3066 1738.793656994072
3067 1738.781872259806
3068 1738.787610396145
3069 1738.775802816773
3070 1738.790108034707
3071 1738.777397846503
3072 1738.790627155184
3073 1738.785028828198
3074 1738.788700251327
3075 1738.778438374361
3076 1738.792989488534
3077 1738.78314397184
3078 1738.792257537181
3079 1738.783504788908
3080 1738.792069423355
3081 1738.780517172895
3082 1738.790015658459
3083 1738.783981475964
3084 1738.789972601656
3085 1738.781963508476
3086 1738.788557810385
3087 1738.778287101587
3088 1738.787046077825
3089 1738.778844074103
3090 1738.790653549012
3091 1738.7818482638
3092 1738.788525410423
3093 1738.779078482567
3094 1738.78915389064
3095 1738.777019831052
3096 1738.787681302476
3097 1738.780767066984
3098 1738.786562990627
3099 1738.774497294604
3100 1738.784358551831
3101 1738.774891989866
3102 1738.790987303746
3103 1738.778411391314
3104 1738.782067130192
3105 1738.776460837551
3106 1738.781084440932
3107 1738.774163460995
3108 1738.787057525233
3109 1738.78000634889
3110 1738.782584609342
3111 1738.775101582106
3112 1738.785522147676
3113 1738.780804658532
3114 1738.783437823653
3115 1738.777231598815
3116 1738.775606544105
3117 1738.772464661469
3118 1738.774863456643
3119 1738.767397498897
3120 1738.780228447644
3121 1738.771942261675
3122 1738.77643224195
3123 1738.769303647617
3124 1738.776959032005
3125 1738.770591801502
3126 1738.776653123598
3127 1738.768890613019
3128 1738.768279375981
3129 1738.766663578262
3130 1738.772839352601
3131 1738.76813680967
3132 1738.773418640159
3133 1738.77108360339
3134 1738.772192276536
3135 1738.763811805677
3136 1738.772486547112
3137 1738.772066771133
3138 1738.776623152748
3139 1738.768784831976
3140 1738.7730084843
3141 1738.764936166177
3142 1738.777270549296
3143 1738.76330933289
3144 1738.776634766215
3145 1738.767750379792
3146 1738.771483011848
3147 1738.758033391758
3148 1738.771075644758
3149 1738.760997652922
3150 1738.771668446695
3151 1738.759465250978
3152 1738.764419558036
3153 1738.760937582618
3154 1738.766719350672
3155 1738.752755483186
3156 1738.768513901011
3157 1738.761045255088
3158 1738.769036742538
3159 1738.760150735832
3160 1738.771811533777
3161 1738.762744109827
3162 1738.774450343232
3163 1738.76417435618
3164 1738.765033839928
3165 1738.759225832588
3166 1738.773645552239
3167 1738.757336946999
3168 1738.766359319705
3169 1738.760596857232
3170 1738.765934340657
3171 1738.753587247793
3172 1738.767336701323
3173 1738.7581536239
3174 1738.772862827098
3175 1738.757549679836
3176 1738.760920900413
3177 1738.752384253832
3178 1738.760953079445
3179 1738.752145229115
3180 1738.7628302919
3181 1738.757113781984
3182 1738.757304791528
3183 1738.750977943032
3184 1738.765615876214
3185 1738.757912104915
3186 1738.767085665954
3187 1738.756183844988
3188 1738.760394097864
3189 1738.753556494888
3190 1738.761918023293
3191 1738.752162359763
3192 1738.759514675839
3193 1738.753507326959
3194 1738.757979555391
3195 1738.748302977582
3196 1738.763119130773
3197 1738.750810693761
3198 1738.766328184567
3199 1738.752756060582
3200 1738.764440010681
3201 1738.751531348091
3202 1738.762318780183
3203 1738.755997358185
3204 1738.771906823088
3205 1738.76502460366
3206 1738.772297243105
3207 1738.759489832636
3208 1738.767272548767
3209 1738.758703456117
3210 1738.769702661911
3211 1738.758791205968
3212 1738.76238857945
3213 1738.756600059894
3214 1738.761301068632
3215 1738.756167986086
3216 1738.762532510158
3217 1738.759073263217
3218 1738.760667657492
3219 1738.751858838474
3220 1738.760094175322
3221 1738.75488201086
3222 1738.76281358501
3223 1738.751173971777
3224 1738.763638092068
3225 1738.75578767833
3226 1738.765509207917
3227 1738.753852835656
3228 1738.762339425417
3229 1738.762400659027
3230 1738.761041147581
3231 1738.750941578536
3232 1738.762561883313
3233 1738.756113432326
3234 1738.756266372385
3235 1738.751328215838
3236 1738.75857024357
3237 1738.749925906555
3238 1738.75082989754
3239 1738.745280421106
3240 1738.752737321335
3241 1738.747622817372
3242 1738.753258880322
3243 1738.741447553768
3244 1738.754710537828
3245 1738.748806891713
3246 1738.762036137736
3247 1738.749718623201
3248 1738.753591287826
3249 1738.752002178041
3250 1738.759468330467
3251 1738.753983507924
3252 1738.763343455605
3253 1738.755402143953
3254 1738.756948562774
3255 1738.749581600854
3256 1738.762133138646
3257 1738.755019833528
3258 1738.76760653268
3259 1738.754084614463
3260 1738.762644384796
3261 1738.753796405456
3262 1738.768884267451
3263 1738.755205817611
3264 1738.765536377146
3265 1738.761900321176
3266 1738.766436059646
3267 1738.760655174591
3268 1738.772900619702
3269 1738.765097546957
3270 1738.7728451753
3271 1738.762407308366
3272 1738.76728740224
3273 1738.762505049161
3274 1738.768466315231
3275 1738.755738562737
3276 1738.767773621708
3277 1738.762802032384
3278 1738.765529969398
3279 1738.756856413628
3280 1738.768273002895
3281 1738.759804365773
3282 1738.773326627143
3283 1738.761611780087
3284 1738.764751586365
3285 1738.76199628442
3286 1738.765099616903
3287 1738.757299220556
3288 1738.770884366206
3289 1738.764394146475
3290 1738.759905927393
3291 1738.755676889945
3292 1738.762761606423
3293 1738.755989588227
3294 1738.759701464418
3295 1738.754466481074
3296 1738.761997871478
3297 1738.755856304758
3298 1738.75053016616
3299 1738.746754652411
3300 1738.76384055033
3301 1738.758091206431
3302 1738.756499398947
3303 1738.751072952314
3304 1738.762475222654
3305 1738.755536564572
3306 1738.761428907711
3307 1738.752236545276
3308 1738.756698441197
3309 1738.754401874281
3310 1738.755133205416
3311 1738.751081392747
3312 1738.761191176082
3313 1738.758603595279
3314 1738.759207942374
3315 1738.758458506386
3316 1738.762701704833
3317 1738.758256363164
3318 1738.766687162518
3319 1738.761084170333
3320 1738.761554022816
3321 1738.757526844458
3322 1738.763450108539
3323 1738.757117929015
3324 1738.771576544911
3325 1738.765436174701
3326 1738.767943747258
3327 1738.76085854775
3328 1738.765722652304
3329 1738.760276912226
3330 1738.773495415834
3331 1738.764676604122
3332 1738.764590934982
3333 1738.762232005678
3334 1738.768691612053
3335 1738.766285671685
3336 1738.774907678521
3337 1738.769489429223
3338 1738.773073809249
3339 1738.76293464084
3340 1738.773384735132
3341 1738.771535849519
3342 1738.776811333536
3343 1738.767298559226
3344 1738.771889826286
3345 1738.76903699112
3346 1738.773811920648
3347 1738.767693335906
3348 1738.780245272794
3349 1738.773577019488
3350 1738.771408795333
3351 1738.761284557671
3352 1738.776964666249
3353 1738.770168911348
3354 1738.775158946551
3355 1738.766974212492
3356 1738.773529147471
3357 1738.768019882481
3358 1738.769604102351
3359 1738.759588423015
3360 1738.775938710538
3361 1738.764941619271
3362 1738.764856749855
3363 1738.757625818543
3364 1738.769115051918
3365 1738.760516976199
3366 1738.774256384109
3367 1738.765922211746
3368 1738.768852389609
3369 1738.764932316358
3370 1738.771448190255
3371 1738.760537117823
3372 1738.771684057897
3373 1738.76709891866
3374 1738.769050138746
3375 1738.759417033931
3376 1738.76385619258
3377 1738.758801077281
3378 1738.770455263841
3379 1738.760549442437
3380 1738.76422062761
3381 1738.75507693978
3382 1738.767908000465
3383 1738.760342389906
3384 1738.770078226247
3385 1738.760173665908
3386 1738.766009831377
3387 1738.755477523119
3388 1738.766561986793
3389 1738.755995269028
3390 1738.769146538115
3391 1738.764297698855
3392 1738.770775971705
3393 1738.764870030571
3394 1738.777915284035
3395 1738.769890873848
3396 1738.778267115022
3397 1738.773668761534
3398 1738.777162290553
3399 1738.769499991193
3400 1738.775250847929
3401 1738.77154946311
3402 1738.783319674443
3403 1738.773055696864
3404 1738.772438088107
3405 1738.771161380968
3406 1738.776889113489
3407 1738.769974441251
3408 1738.777795684682
3409 1738.771831064267
3410 1738.774578135164
3411 1738.762730234619
3412 1738.770694285836
3413 1738.762296138812
3414 1738.776926367993
3415 1738.766739712814
3416 1738.770065908004
3417 1738.761911376083
3418 1738.772613560498
3419 1738.766526372839
3420 1738.776555413317
3421 1738.772980878452
3422 1738.77616111908
3423 1738.77074667226
3424 1738.77503140731
3425 1738.768381355477
3426 1738.777393815889
3427 1738.769830080886
3428 1738.773591643504
3429 1738.768175430549
3430 1738.778609139036
3431 1738.764161297927
3432 1738.77558305939
3433 1738.771641799197
3434 1738.781142161444
3435 1738.768757492221
3436 1738.77803375934
3437 1738.772077018826
3438 1738.779085288282
3439 1738.770234083577
3440 1738.777960136674
3441 1738.769146229665
3442 1738.780548038063
3443 1738.769469907047
3444 1738.77723895978
3445 1738.769303721145
3446 1738.775761351651
3447 1738.76561185854
3448 1738.774165697823
3449 1738.771370471392
3450 1738.785495967224
3451 1738.773057937869
3452 1738.783885860487
3453 1738.777073591903
3454 1738.790526295941
3455 1738.777681730833
3456 1738.785514317716
3457 1738.778185927073
3458 1738.779842524535
3459 1738.772500765027
3460 1738.780395610235
3461 1738.774511689453
3462 1738.785595286231
3463 1738.775835428769
3464 1738.780774114952
3465 1738.778126893456
3466 1738.785024046615
3467 1738.777807439918
3468 1738.786972732392
3469 1738.779140150382
3470 1738.787786878337
3471 1738.773544723417
3472 1738.78529233408
3473 1738.776795549832
3474 1738.789413292383
3475 1738.770707463575
3476 1738.777251583819
3477 1738.768721805586
3478 1738.773680057775
3479 1738.769338128233
3480 1738.783394893453
3481 1738.774383445095
3482 1738.773446097105
3483 1738.764630651229
3484 1738.780838131248
3485 1738.769101974326
3486 1738.778720217102
3487 1738.764949690044
3488 1738.774271375645
3489 1738.763555600457
3490 1738.77876534417
3491 1738.760816898995
3492 1738.777480628008
3493 1738.772481874067
3494 1738.776917518201
3495 1738.77540350831
3496 1738.786162716347
3497 1738.777005577735
3498 1738.783871620992
3499 1738.772966828999
3500 1738.780039602108
3501 1738.777081265833
3502 1738.789170347281
3503 1738.776509143825
3504 1738.792045305297
3505 1738.780717823918
3506 1738.789992115845
3507 1738.77376749619
3508 1738.783632081255
3509 1738.773768378283
3510 1738.783916663684
3511 1738.775098202999
3512 1738.777020850738
3513 1738.771248039475
3514 1738.781620252721
3515 1738.768491363308
3516 1738.784968602638
3517 1738.772552095887
3518 1738.780428682923
3519 1738.76426515862
3520 1738.783539205246
3521 1738.770042839774
3522 1738.782184259183
3523 1738.767011621342
3524 1738.772658193802
3525 1738.76519028122
3526 1738.778723394233
3527 1738.762517586767
3528 1738.776885891104
3529 1738.769400738582
3530 1738.77812834569
3531 1738.761257116977
3532 1738.778478147657
3533 1738.764568846549
3534 1738.782989732988
3535 1738.762681441709
3536 1738.773343169264
3537 1738.762887538742
3538 1738.77471322681
3539 1738.762620163283
3540 1738.778255357243
3541 1738.76961758672
3542 1738.771031099922
3543 1738.763048301407
3544 1738.780065432441
3545 1738.769275828978
3546 1738.778048526315
3547 1738.762722518605
3548 1738.77056092691
3549 1738.759591511614
3550 1738.770019971181
3551 1738.751666479427
3552 1738.765282903702
3553 1738.75469376954
3554 1738.760252966214
3555 1738.748694236299
3556 1738.765232666345
3557 1738.758390221147
3558 1738.773475537913
3559 1738.761185930937
3560 1738.768828125482
3561 1738.758407960695
3562 1738.77585726087
3563 1738.758687841029
3564 1738.77336719863
3565 1738.761362552754
3566 1738.770032976096
3567 1738.760591613756
3568 1738.769750139471
3569 1738.759189655627
3570 1738.773070757058
3571 1738.76822296007
3572 1738.771443880069
3573 1738.764857795388
3574 1738.775454881701
3575 1738.763255368258
3576 1738.776788184687
3577 1738.766604975846
3578 1738.773820191938
3579 1738.759594571965
3580 1738.775612433073
3581 1738.759020528634
3582 1738.775041047084
3583 1738.762547542319
3584 1738.771861386881
3585 1738.755802958974
3586 1738.76804651387
3587 1738.761192742148
3588 1738.770520115736
3589 1738.76457638005
3590 1738.772538931872
3591 1738.763989220949
3592 1738.774942270618
3593 1738.764070379593
3594 1738.774469697798
3595 1738.764731069777
3596 1738.775749629592
3597 1738.765235207998
3598 1738.7742777854
3599 1738.762214191457
3600 1738.777815751111
3601 1738.768932253475
3602 1738.7758184221
3603 1738.766824862542
3604 1738.779265678901
3605 1738.761180361581
3606 1738.773912154033
3607 1738.761360462006
3608 1738.771221925221
3609 1738.757743018395
3610 1738.765564876458
3611 1738.756789721551
3612 1738.766099373216
3613 1738.762937518119
3614 1738.766027184036
3615 1738.759556308416
3616 1738.76694799935
3617 1738.762820056033
3618 1738.767975579765
3619 1738.7599575041
3620 1738.766971777385
3621 1738.759682333115
3622 1738.764529799973
3623 1738.755352503644
3624 1738.769703714097
3625 1738.75849016073
3626 1738.765595829109
3627 1738.758334590869
3628 1738.766869850796
3629 1738.758477280643
3630 1738.774133428849
3631 1738.762145725094
3632 1738.768788779397
3633 1738.758255359683
3634 1738.771117278908
3635 1738.756723650361
3636 1738.770247198649
3637 1738.759681036158
3638 1738.765449059535
3639 1738.752400330916
3640 1738.766215648678
3641 1738.753890988776
3642 1738.770078174653
3643 1738.754997316698
3644 1738.766401456432
3645 1738.751693710287
3646 1738.762943597346
3647 1738.750131439224
3648 1738.764983464594
3649 1738.754215149452
3650 1738.759811023011
3651 1738.752670857123
3652 1738.762872161495
3653 1738.755901848223
3654 1738.765967269305
3655 1738.753305735808
3656 1738.761052854573
3657 1738.753573371306
3658 1738.766633110054
3659 1738.748708087332
3660 1738.76594677653
3661 1738.754869880092
3662 1738.759439587246
3663 1738.748421458185
3664 1738.764042192873
3665 1738.756630650965
3666 1738.766309499748
3667 1738.754516995635
3668 1738.762505217653
3669 1738.755911477199
3670 1738.77249620494
3671 1738.761459581594
3672 1738.777384094088
3673 1738.76903048332
3674 1738.777660502789
3675 1738.766849222287
3676 1738.781767125302
3677 1738.771595067168
3678 1738.778704351623
3679 1738.768032189668
3680 1738.769599198312
3681 1738.759893668537
3682 1738.768890964544
3683 1738.751166745585
3684 1738.763322950885
3685 1738.753069400293
3686 1738.75215694861
3687 1738.748325529081
3688 1738.761059277934
3689 1738.752493756386
3690 1738.756734207306
3691 1738.745666252865
3692 1738.754830632714
3693 1738.745795002058
3694 1738.761340425072
3695 1738.74086159176
3696 1738.755140372041
3697 1738.750723184213
3698 1738.760767404248
3699 1738.747667495378
3700 1738.761067002853
3701 1738.751929035912
3702 1738.756933044677
3703 1738.752641501803
3704 1738.761921738029
3705 1738.754676820267
3706 1738.760387169739
3707 1738.751145605943
3708 1738.767466637735
3709 1738.752354816246
3710 1738.764437223819
3711 1738.749896819218
3712 1738.759999632245
3713 1738.748913740587
3714 1738.766052175339
3715 1738.758839847612
3716 1738.766135119097
3717 1738.757228850841
3718 1738.766293390464
3719 1738.763115575061
3720 1738.778602157405
3721 1738.766301267051
3722 1738.77633495069
3723 1738.767921224792
3724 1738.776062975594
3725 1738.763096594817
3726 1738.772895737092
3727 1738.770330829335
3728 1738.770840624056
3729 1738.765779698678
3730 1738.775351704064
3731 1738.771502637636
3732 1738.782242570098
3733 1738.774975111423
3734 1738.780223129743
3735 1738.770073427707
3736 1738.783939020902
3737 1738.773872609185
3738 1738.774806009812
3739 1738.758679394752
3740 1738.769949421476
3741 1738.759282235573
3742 1738.773278382056
3743 1738.761803607549
3744 1738.771500942957
3745 1738.756117262133
3746 1738.763642378511
3747 1738.755250295877
3748 1738.762721365586
3749 1738.755343555922
3750 1738.765021638262
3751 1738.75659171665
3752 1738.764734301501
3753 1738.755829556019
3754 1738.769978039136
3755 1738.761851344723
3756 1738.767953040275
3757 1738.753925994207
3758 1738.769277353849
3759 1738.755637701
3760 1738.7655549208
3761 1738.751186639363
3762 1738.761499714321
3763 1738.747110444446
3764 1738.758160129707
3765 1738.747575633693
3766 1738.76393327416
3767 1738.750402727563
3768 1738.754396987987
3769 1738.746876588308
3770 1738.758380277954
3771 1738.746734577718
3772 1738.763035041662
3773 1738.753300664693
3774 1738.757810359203
3775 1738.750046199632
3776 1738.762162514708
3777 1738.750957932655
3778 1738.762647151998
3779 1738.752781509423
3780 1738.747589500629
3781 1738.744550575963
3782 1738.759268641199
3783 1738.752677998241
3784 1738.756373462722
3785 1738.750781937075
3786 1738.760161975312
3787 1738.748557255647
3788 1738.753603600434
3789 1738.745040142113
3790 1738.760243032578
3791 1738.750641005176
3792 1738.75414560985
3793 1738.750779343224
3794 1738.762321816982
3795 1738.750281013898
3796 1738.75679761401
3797 1738.75075202543
3798 1738.754255764363
3799 1738.741193287197
3800 1738.758709295403
3801 1738.748805233932
3802 1738.761794225335
3803 1738.750018649056
3804 1738.762402594735
3805 1738.747710801377
3806 1738.759562032348
3807 1738.751590638022
3808 1738.756926848268
3809 1738.751120979178
3810 1738.76263475305
3811 1738.751132307076
3812 1738.755687505935
3813 1738.750313453126
3814 1738.762463619669
3815 1738.751517088224
3816 1738.760066370038
3817 1738.751830658478
3818 1738.761827946772
3819 1738.7516013312
3820 1738.766126259249
3821 1738.755316233602
3822 1738.765069944797
3823 1738.751267349903
3824 1738.76175578344
3825 1738.754322815976
3826 1738.765444575535
3827 1738.753669202187
3828 1738.755140271924
3829 1738.742647340813
3830 1738.757577793088
3831 1738.746689142489
3832 1738.756391558689
3833 1738.750768087277
3834 1738.766000355429
3835 1738.752735660301
3836 1738.76817336397
3837 1738.75963327231
3838 1738.77150514461
3839 1738.760567619163
3840 1738.769921757398
3841 1738.762409106166
3842 1738.773075073362
3843 1738.762197912636
3844 1738.779247245846
3845 1738.770960869504
3846 1738.772552484144
3847 1738.757805015652
3848 1738.766415577371
3849 1738.759043539414
3850 1738.764048676687
3851 1738.754823861967
3852 1738.763293255062
3853 1738.75913628261
3854 1738.760741055641
3855 1738.752449264472
3856 1738.769647399756
3857 1738.762142893586
3858 1738.763968243667
3859 1738.751148022293
3860 1738.761845229017
3861 1738.75671849784
3862 1738.761480345336
3863 1738.753938410677
3864 1738.763191254598
3865 1738.751146944755
3866 1738.763812548111
3867 1738.7555209974
3868 1738.767976606696
3869 1738.759609458245
3870 1738.764515580627
3871 1738.750240137646
3872 1738.76740745232
3873 1738.752244563779
3874 1738.766206846556
3875 1738.751892230242
3876 1738.767511347031
3877 1738.752750705139
3878 1738.767991245521
3879 1738.757137633876
3880 1738.775162999754
3881 1738.765669002933
3882 1738.772621791797
3883 1738.760080393453
3884 1738.771173560674
3885 1738.764039329109
3886 1738.769871756075
3887 1738.759087175131
3888 1738.763831634264
3889 1738.754832001298
3890 1738.766613296824
3891 1738.759750696463
3892 1738.769255463825
3893 1738.763318750687
3894 1738.769816135845
3895 1738.751839803547
3896 1738.7689844761
3897 1738.763569265521
3898 1738.770545777538
3899 1738.75806881499
3900 1738.772395612431
3901 1738.758767793973
3902 1738.770733732008
3903 1738.754808982366
3904 1738.76311489109
3905 1738.758807491722
3906 1738.765231563198
3907 1738.758098135703
3908 1738.767236269223
3909 1738.763515932041
3910 1738.772969277414
3911 1738.764278449622
3912 1738.772846091901
3913 1738.769026056071
3914 1738.779772127539
3915 1738.767528168578
3916 1738.776395250291
3917 1738.775212260858
3918 1738.772126869669
3919 1738.765905380658
3920 1738.776284633942
3921 1738.772812100188
3922 1738.781031272369
3923 1738.772176860424
3924 1738.781350592145
3925 1738.770139613492
3926 1738.775721599623
3927 1738.766863667639
3928 1738.783317498665
3929 1738.7682285766
3930 1738.772420506368
3931 1738.765380480978
3932 1738.775578809216
3933 1738.770193840947
3934 1738.784109189721
3935 1738.767144400024
3936 1738.773382647211
3937 1738.765720380046
3938 1738.778102518963
3939 1738.768261138058
3940 1738.778757932938
3941 1738.76881396249
3942 1738.776391816056
3943 1738.766685907183
3944 1738.776125949833
3945 1738.767353600056
3946 1738.769271879542
3947 1738.764191108913
3948 1738.7732541683
