"x-rfile"
"Iteration" "x"
("Iteration" "x")
1 1961.818259910272
2 1814.809815892127
3 1300.240413954165
4 1011.854567862835
5 760.0562135555373
6 592.815102905092
7 426.4627302324371
8 283.9642040888227
9 170.1161551668687
10 70.38916558833965
11 -2.568610419605316
12 -50.10136237038035
13 -84.76721329301776
14 -105.3931251119414
15 -118.9304701640053
16 -126.7733157389799
17 -130.3723918597558
18 -130.6900638521302
19 -129.1032999292401
20 -126.2332193052483
21 -122.4506906168845
22 -118.9378354881436
23 -115.9808987166464
24 -113.8525643418643
25 -112.9233356792817
26 -112.9116008037442
27 -113.7629992710603
28 -115.2790219046881
29 -117.608647402015
30 -120.2328609130497
31 -123.6023921875428
32 -127.5209005117273
33 -131.8135074625785
34 -136.489070282187
35 -141.4569082172754
36 -146.6695564972825
37 -152.100099841199
38 -157.686798183498
39 -163.3901462765189
40 -169.2139902048687
41 -175.1136659257696
42 -179.8798226663033
43 -186.4326668737491
44 -191.4513830825327
45 -196.8166897305286
46 -202.3446287163265
47 -207.9763970155281
48 -213.681910653237
49 -217.7861186195893
50 -224.0666376234058
51 -230.0347108952481
52 -235.8234250889732
53 -241.4512312632838
54 -246.923663707822
55 -252.2469891409948
56 -257.4511307569877
57 -262.4926216205942
58 -267.379833809116
59 -272.1222941744576
60 -276.742330755417
61 -281.2391883129819
62 -285.6059658878991
63 -288.726463672089
64 -293.3444122272081
65 -297.656002296804
66 -301.7572958334829
67 -305.6999512807255
68 -309.5102415307376
69 -313.1865125151534
70 -316.737315830259
71 -320.1742414980156
72 -322.6336553147558
73 -326.234389020315
74 -329.5834145546996
75 -332.7475612521661
76 -334.997441794791
77 -338.2531565134765
78 -340.4600601594093
79 -343.6241360077658
80 -345.7424473164343
81 -348.7649559739385
82 -350.7760956853232
83 -353.6346102318395
84 -355.5282491510191
85 -357.5006971461301
86 -360.2067537024033
87 -361.9692144591904
88 -363.7689726620673
89 -365.5768817697097
90 -367.3774692485842
91 -369.1425393524996
92 -370.8704730843305
93 -372.5593521334513
94 -374.2000914264999
95 -375.7907794876842
96 -377.3319791361429
97 -378.8285195337575
98 -380.2732429679133
99 -381.6679231891927
100 -383.006539935327
101 -384.2951130456067
102 -385.537259710292
103 -386.7383534233836
104 -387.8913723890695
105 -388.9979370837373
106 -390.0662529572191
107 -391.0991586724223
108 -392.0925770305224
109 -393.0520944563404
110 -393.9783065125665
111 -394.8715455777986
112 -395.7376002250229
113 -396.5766562711347
114 -397.3885301874746
115 -398.1770749808991
116 -398.9413126267604
117 -399.6849930227619
118 -400.4079035079425
119 -401.1098072937401
120 -401.7901967536532
121 -402.4537310903632
122 -403.1007205360983
123 -403.7311334517179
124 -404.3483648551697
125 -404.9530068102895
126 -405.5460383510372
127 -406.1253775996991
128 -406.69400819456
129 -407.2513014217233
130 -407.7978657891103
131 -408.337031304311
132 -408.865734284498
133 -409.3871879703548
134 -409.8980597039298
135 -410.4029777992931
136 -410.9001526336959
137 -411.3936820457265
138 -411.880821544148
139 -412.3631604939074
140 -412.8396147180147
141 -413.3131796336378
142 -413.7787446275344
143 -414.2409124988545
144 -414.6980685451352
145 -415.1512071085177
146 -415.5993070809158
147 -416.0446606287335
148 -416.4869001874547
149 -416.9298095103301
150 -417.3680002360669
151 -417.8039430362275
152 -418.2337638132387
153 -418.6626808883325
154 -419.0876631056419
155 -419.5122718463938
156 -419.9363012064967
157 -420.3566280254508
158 -420.774422404099
159 -421.1892576969387
160 -421.5989488277434
161 -422.0077243946653
162 -422.5840776331564
163 -422.9499363629128
164 -423.3215144133825
165 -423.69836614307
166 -424.0778245517864
167 -424.4588212928301
168 -424.9976749724312
169 -425.3388539509905
170 -425.6879743930639
171 -426.0425353999059
172 -426.4020716745674
173 -426.9132652292802
174 -427.2371161496121
175 -427.5717544597776
176 -427.909790048602
177 -428.2545705812196
178 -428.7478316500695
179 -429.0622062390855
180 -429.3849962253638
181 -429.7117560141458
182 -430.1846717452987
183 -430.486221176345
184 -430.7954338152686
185 -431.1105320215604
186 -431.4284929014827
187 -431.886074469159
188 -432.1743153457212
189 -432.4754335327781
190 -432.7755889522887
191 -433.2129780945858
192 -433.4884411399573
193 -433.7774483661988
194 -434.0663084999665
195 -434.4889613048801
196 -434.7539768157346
197 -435.0310985360948
198 -435.3115303960054
199 -435.7200053636752
200 -435.9765268732519
201 -436.2436868955301
202 -436.6283873149441
203 -436.8757524951781
204 -437.1307666644565
205 -437.5049268747243
206 -437.7427184197356
207 -437.9930810710114
208 -438.3539776048436
209 -438.5862385840686
210 -438.825926870092
211 -439.1780233283924
212 -439.4013898894049
213 -439.7393384877324
214 -439.9528193869357
215 -440.181065373799
216 -440.5111423952846
217 -440.7254648741437
218 -441.0431910256397
219 -441.2491203571444
220 -441.5559816663715
221 -441.7571623221338
222 -442.0585603060381
223 -442.2552362148212
224 -442.5506477771316
225 -442.743698013121
226 -443.0345029859359
227 -443.3043473565727
228 -443.4832807403165
229 -443.7612545127654
230 -443.9411753961653
231 -444.2210075241984
232 -444.3995162123958
233 -444.6763292775248
234 -444.9302931903138
235 -445.1780178170644
236 -445.3412661323546
237 -445.6022849111042
238 -445.8429569211424
239 -446.0109106679189
240 -446.2637457756092
241 -446.504792580486
242 -446.7345529988032
243 -446.958995265736
244 -447.1101264774312
245 -447.3522005357658
246 -447.5802994631867
247 -447.7386783161825
248 -447.9820254806668
249 -448.2147405136643
250 -448.4384584975251
251 -448.6583433555207
252 -448.8708017201624
253 -449.0211698991874
254 -449.254789694742
255 -449.4787316244136
256 -449.6931685073282
257 -449.9062446291214
258 -450.1127219604315
259 -450.3204084963565
260 -450.4632967267089
261 -450.693061532752
262 -450.9079809994078
263 -451.1220770123659
264 -451.3282183850447
265 -451.5367603943701
266 -451.7390923310133
267 -451.8826841640204
268 -452.1051038933347
269 -452.3211286037899
270 -452.5303223224763
271 -452.7387721831593
272 -452.9409071978659
273 -453.1454776898603
274 -453.2879152913171
275 -453.5123631458777
276 -453.7235185425165
277 -453.8720347732452
278 -454.0992436426729
279 -454.3151129329415
280 -454.5222742864109
281 -454.7277503699827
282 -454.8682119240731
283 -455.0901410631052
284 -455.299209584761
285 -455.445782354694
286 -455.6697197765138
287 -455.8832241846551
288 -456.0282232395408
289 -456.2563515164933
290 -456.4045595690652
291 -456.6357677028809
292 -456.8464610915195
293 -456.9938125603638
294 -457.2157258249461
295 -457.363837814539
296 -457.5885445962621
297 -457.7395333367202
298 -457.9639709841547
299 -458.1137117443764
300 -458.337281843924
301 -458.4851444637412
302 -458.6405636884562
303 -458.8703568509056
304 -459.0161059527719
305 -459.240336506907
306 -459.3813892433879
307 -459.5365673625998
308 -459.7586110223953
309 -459.9071104397865
310 -460.0602243460228
311 -460.2870807739001
312 -460.4303670719813
313 -460.586540722663
314 -460.8063978735612
315 -460.9515936762876
316 -461.1000729884259
317 -461.2556945797632
318 -461.4106631296659
319 -461.6383169714945
320 -461.7788022611472
321 -461.9307710208963
322 -462.0811219715809
323 -462.237639296578
324 -462.3910297068426
325 -462.6122811689889
326 -462.7489174849264
327 -462.8937753332871
328 -463.0387457952064
329 -463.1885023693819
330 -463.3374090682305
331 -463.4894215478481
332 -463.6374347237046
333 -463.7890331813098
334 -463.9362967836873
335 -464.0859719140819
336 -464.2314054807138
337 -464.382287651932
338 -464.5273647771069
339 -464.6741487876843
340 -464.8170345022678
341 -464.961223973516
342 -465.1015449978417
343 -465.2438910699581
344 -465.3800154071231
345 -465.519998079234
346 -465.6552914004101
347 -465.7933139616395
348 -465.9263999513225
349 -466.0613375806596
350 -466.1913816698838
351 -466.3244482618754
352 -466.4529851568878
353 -466.5850670244002
354 -466.7122316906171
355 -466.8422015489048
356 -466.9662456030567
357 -467.0936346524972
358 -467.2173940348171
359 -467.3431489437147
360 -467.4644207358187
361 -467.588688775646
362 -467.7085438656218
363 -467.8310685738959
364 -467.9499945263992
365 -468.0706043424609
366 -468.1871429020098
367 -468.3064285790338
368 -468.4203890118305
369 -468.5368687790022
370 -468.6484878651943
371 -468.7615936860473
372 -468.8699089441204
373 -468.9820866796034
374 -469.0901196460375
375 -469.2016209681655
376 -469.3086998392121
377 -469.4187014905812
378 -469.5229294745757
379 -469.6307584262335
380 -469.7347711160666
381 -469.8420252817057
382 -469.94460496826
383 -470.0519799833782
384 -470.1535888206714
385 -470.2587311489997
386 -470.3573554358861
387 -470.4584706167412
388 -470.5554356527282
389 -470.6553367799007
390 -470.7510263062009
391 -470.8508868370658
392 -470.9453853978928
393 -471.044719925262
394 -471.1386418990808
395 -471.2356961662051
396 -471.3274252974584
397 -471.4229733078462
398 -471.5124151771252
399 -471.6049890341376
400 -471.6934377842275
401 -471.7867348692501
402 -471.8737667895497
403 -471.9652626629991
404 -472.0503122065693
405 -472.1417190781568
406 -472.2262550791178
407 -472.3148011420559
408 -472.3961079852253
409 -472.4830181930598
410 -472.5630843696765
411 -472.649503010418
412 -472.7306723191524
413 -472.8169976521749
414 -472.8959115441663
415 -472.9797232677474
416 -473.0555728073952
417 -473.1369199414373
418 -473.2112204372835
419 -473.2902533271253
420 -473.3628104148199
421 -473.4409614330097
422 -473.5128905313429
423 -473.5889215250872
424 -473.6593791743042
425 -473.736208501713
426 -473.8069655409977
427 -473.88303859366
428 -473.9524041046616
429 -474.0268076999185
430 -474.0954167444336
431 -474.1674453030165
432 -474.2343782476706
433 -474.3050535181244
434 -474.3699259933313
435 -474.4400503295203
436 -474.5052006701869
437 -474.574198157673
438 -474.6378430165968
439 -474.705819723569
440 -474.7679527972635
441 -474.8338571104217
442 -474.8941377841767
443 -474.9582462634168
444 -475.0176832463372
445 -475.0816876929928
446 -475.1390816291971
447 -475.2019589487386
448 -475.2607643857748
449 -475.3242161056038
450 -475.3814461418704
451 -475.4434710421967
452 -475.4987947633314
453 -475.5592566763474
454 -475.6134061964661
455 -475.6719044452705
456 -475.7249442674105
457 -475.7843417914547
458 -475.8366505325364
459 -475.894708163985
460 -475.947234992713
461 -476.0037754929515
462 -476.0530755156968
463 -476.1091155370207
464 -476.1586716180401
465 -476.2144911852516
466 -476.2631276560834
467 -476.3181913341443
468 -476.3659213853487
469 -476.4196382587774
470 -476.464369307629
471 -476.5156350442734
472 -476.5615626501636
473 -476.613440980997
474 -476.6581414441426
475 -476.7093115809975
476 -476.7532646863661
477 -476.8030774100162
478 -476.8470172945794
479 -476.8954582876252
480 -476.9379903651914
481 -476.9862376046346
482 -477.0275254057434
483 -477.0737709466628
484 -477.1133649758858
485 -477.1591872333152
486 -477.1974971351311
487 -477.2418959303765
488 -477.2805868326364
489 -477.3250510444754
490 -477.3647499337189
491 -477.4087403608277
492 -477.4468576172257
493 -477.4909421047073
494 -477.5282904477654
495 -477.5722601698478
496 -477.6100780742831
497 -477.6519790590156
498 -477.6851441133709
499 -477.7247460251543
500 -477.7586866104613
501 -477.7983594589232
502 -477.8331115286669
503 -477.8731431308734
504 -477.9067508049638
505 -477.9464922399462
506 -477.9787476860079
507 -478.0164183038457
508 -478.0489996918329
509 -478.0870062867139
510 -478.1192628531146
511 -478.1567219751608
512 -478.1892258814637
513 -478.2260584014408
514 -478.2572571454155
515 -478.2942527281888
516 -478.3254180720013
517 -478.3620341388441
518 -478.3917326068009
519 -478.4269688000133
520 -478.4562667889102
521 -478.4906642170708
522 -478.5176974958092
523 -478.5512031208024
524 -478.577835783861
525 -478.6111784692135
526 -478.63737751217
527 -478.6686910862334
528 -478.6937827700722
529 -478.7255746698733
530 -478.7507551909294
531 -478.7827462602073
532 -478.8093486133413
533 -478.8408068397026
534 -478.8639045553775
535 -478.8935127283472
536 -478.9158974879895
537 -478.9447333057358
538 -478.9674907849432
539 -478.9976066672063
540 -479.0219033308826
541 -479.0533582873233
542 -479.077039580255
543 -479.1063908912095
544 -479.1288481078678
545 -479.1563112599062
546 -479.1760890349834
547 -479.2031261599634
548 -479.2243717177806
549 -479.2506800584509
550 -479.2712884417255
551 -479.2975361177633
552 -479.3192352232783
553 -479.3482093879959
554 -479.3721437347883
555 -479.4017009472473
556 -479.425231514697
557 -479.4516809579145
558 -479.470341426329
559 -479.4939619038155
560 -479.5118645065311
561 -479.5346038197707
562 -479.5525369352598
563 -479.5763564776921
564 -479.5959079709716
565 -479.6217939081419
566 -479.6414734123413
567 -479.6661600329439
568 -479.6848457376406
569 -479.707044739091
570 -479.7234717066451
571 -479.7462461411678
572 -479.762387422856
573 -479.7837469023213
574 -479.8006593179052
575 -479.8227229721787
576 -479.8385827259762
577 -479.8607159161318
578 -479.8757565533837
579 -479.8961212194616
580 -479.9112072639904
581 -479.9301528715228
582 -479.9436822743295
583 -479.9637766291608
584 -479.9781479942534
585 -479.9987261041954
586 -480.0141535817461
587 -480.0359036935961
588 -480.0521563196115
589 -480.0742731147633
590 -480.0894102958096
591 -480.10873588292
592 -480.1219070630686
593 -480.1412759757128
594 -480.1538833211879
595 -480.1731774390884
596 -480.1872783677034
597 -480.2074408583743
598 -480.2215510696276
599 -480.2411201453982
600 -480.2537444482844
601 -480.2735577797717
602 -480.2857362401115
603 -480.3044412909533
604 -480.3176324480173
605 -480.3358655701994
606 -480.3464926919251
607 -480.3633694005754
608 -480.3747519178634
609 -480.3932621184098
610 -480.4040793151311
611 -480.4213421377125
612 -480.4319356583299
613 -480.4482297932918
614 -480.4567688698635
615 -480.4724155035939
616 -480.4838856408902
617 -480.5028488789745
618 -480.5147575435207
619 -480.532628499091
620 -480.5423533826893
621 -480.5575834967245
622 -480.5674073018675
623 -480.5825917029343
624 -480.5923975342471
625 -480.6084733042043
626 -480.61837093798
627 -480.6340241342693
628 -480.6434457289464
629 -480.6582693391039
630 -480.6666456094625
631 -480.6816638576256
632 -480.692054572722
633 -480.7076788385589
634 -480.7175623369274
635 -480.7325716812152
636 -480.7404481414483
637 -480.7539690392896
638 -480.7616497291667
639 -480.7751585690842
640 -480.7851177079472
641 -480.7993825145064
642 -480.8072351438092
643 -480.8191251686946
644 -480.8254988520247
645 -480.8374953242343
646 -480.8436891283772
647 -480.855948382594
648 -480.8646521725257
649 -480.878639321263
650 -480.8873973075516
651 -480.901745376276
652 -480.910348367282
653 -480.9228498784651
654 -480.9284469722205
655 -480.9405649356615
656 -480.9469907653312
657 -480.9593783885962
658 -480.9661877723167
659 -480.9802955775003
660 -480.9889639696482
661 -481.0035883971575
662 -481.0099623191142
663 -481.0220265652599
664 -481.0266536959354
665 -481.0371473227355
666 -481.0409748773529
667 -481.0506387180442
668 -481.0546088787818
669 -481.0660757077593
670 -481.0730709095844
671 -481.0862765680554
672 -481.0932173470602
673 -481.1053848882821
674 -481.1104874862631
675 -481.1211755293485
676 -481.1260782283821
677 -481.1357396311081
678 -481.1394385581539
679 -481.1501356434362
680 -481.1565132677636
681 -481.1686443997701
682 -481.1750678186564
683 -481.1868014226453
684 -481.1917831740342
685 -481.2007645346117
686 -481.2033167013167
687 -481.2127161267368
688 -481.2175657371249
689 -481.2289042402507
690 -481.2353716108572
691 -481.2474117838632
692 -481.253808312444
693 -481.2642378398099
694 -481.2683793702257
695 -481.2770188012555
696 -481.2801244537429
697 -481.2902149877885
698 -481.2941815137544
699 -481.305733879412
700 -481.3116504503564
701 -481.3221813231104
702 -481.3257231860514
703 -481.3349105734953
704 -481.3374821936267
705 -481.3461640266648
706 -481.3498766069225
707 -481.3593216579338
708 -481.3626460739388
709 -481.3729084350163
710 -481.376798338405
711 -481.3855864574147
712 -481.3869938810751
713 -481.3940912714615
714 -481.3955308053884
715 -481.4039549609074
716 -481.407667607584
717 -481.4168873496204
718 -481.4211440665539
719 -481.4300131441372
720 -481.4324089328814
721 -481.4398607361921
722 -481.4410853802276
723 -481.4491706909618
724 -481.451843733856
725 -481.4619047894396
726 -481.4653957811877
727 -481.4741199546525
728 -481.4767709880857
729 -481.4855513828067
730 -481.4875449751404
731 -481.4944089189132
732 -481.4963761478296
733 -481.5046515370067
734 -481.5056469372153
735 -481.5138400161622
736 -481.5165724782324
737 -481.5252247983513
738 -481.5265017600362
739 -481.5354388696784
740 -481.5374872708315
741 -481.5461510720284
742 -481.5475986134714
743 -481.5551043325099
744 -481.5556821382937
745 -481.5630645130473
746 -481.563938170036
747 -481.5716609370397
748 -481.5740454264457
749 -481.5823220915337
750 -481.5844673482561
751 -481.5918036097069
752 -481.5915391495655
753 -481.5972420156735
754 -481.5978051211638
755 -481.6045993028562
756 -481.6066215038444
757 -481.6143442084238
758 -481.6165904770129
759 -481.6240288710391
760 -481.6271011298546
761 -481.6349704020123
762 -481.6375285745655
763 -481.6445106656211
764 -481.6452493649412
765 -481.651278089211
766 -481.6519054515318
767 -481.6584114334064
768 -481.6603688992304
769 -481.6676892726467
770 -481.6684236801852
771 -481.6746269115522
772 -481.6760394573309
773 -481.6820590256297
774 -481.6819257730565
775 -481.6870246918583
776 -481.6869424169996
777 -481.6936515531705
778 -481.6947823264933
779 -481.7015342994764
780 -481.702071855987
781 -481.7087830038161
782 -481.7087291696232
783 -481.7148692874467
784 -481.7164058834895
785 -481.7231575098814
786 -481.7229398315882
787 -481.7299320233138
788 -481.7308592479368
789 -481.7375396992873
790 -481.7395798515023
791 -481.74637423964
792 -481.7467273831716
793 -481.7532556166843
794 -481.7523569278697
795 -481.7582662842285
796 -481.7576105349173
797 -481.7633475958353
798 -481.7639447113699
799 -481.7712643044333
800 -481.7716465892787
801 -481.7778784220953
802 -481.7775424680984
803 -481.7829637888588
804 -481.7829545567416
805 -481.7882694396104
806 -481.7874560871219
807 -481.7931487213331
808 -481.7933628437295
809 -481.7994772730583
810 -481.7974221474434
811 -481.8019632784026
812 -481.800017181477
813 -481.8041555498967
814 -481.8057885822164
815 -481.813612019646
816 -481.8142307521234
817 -481.8212347791901
818 -481.8208718068381
819 -481.8263882957485
820 -481.8258253671544
821 -481.831068653864
822 -481.8287114321732
823 -481.8334501898203
824 -481.8322358127241
825 -481.8386860906425
826 -481.8408513996454
827 -481.8485940462404
828 -481.8489545795222
829 -481.854551020343
830 -481.8528586600029
831 -481.8560674901771
832 -481.8548551649431
833 -481.8590917500252
834 -481.8590101604752
835 -481.8651919259362
836 -481.865963552804
837 -481.8712588746163
838 -481.8708294242381
839 -481.8734497910646
840 -481.8709060072193
841 -481.8733474873125
842 -481.8712045763635
843 -481.8766568835259
844 -481.876693773323
845 -481.8826241207402
846 -481.8816680300895
847 -481.8858604598183
848 -481.8836057644056
849 -481.8871689296561
850 -481.8855390849615
851 -481.8904490967962
852 -481.8893171169473
853 -481.8949114028459
854 -481.8949022410555
855 -481.9017956056319
856 -481.9023954700566
857 -481.9084864761475
858 -481.9064044357195
859 -481.9097456221377
860 -481.9070247823366
861 -481.9106756584624
862 -481.909416213795
863 -481.9151675985422
864 -481.9163813944602
865 -481.9230995552844
866 -481.9230515201357
867 -481.9286233317806
868 -481.9276242111904
869 -481.9305190126963
870 -481.926439514161
871 -481.92927558534
872 -481.9274943611748
873 -481.9321889088756
874 -481.9313511838323
875 -481.9372250144594
876 -481.9373645497489
877 -481.9424642820723
878 -481.9404760207637
879 -481.9440969866003
880 -481.9420866712091
881 -481.9454543054015
882 -481.9430100192388
883 -481.9476751165831
884 -481.9466347334756
885 -481.9516828320406
886 -481.9515963066245
887 -481.9573368189385
888 -481.9556705055567
889 -481.9589152249568
890 -481.9560457920859
891 -481.9604022846588
892 -481.9585292901737
893 -481.9623584304592
894 -481.9599377833673
895 -481.9648087839772
896 -481.9646182820717
897 -481.9698670682578
898 -481.9694976750824
899 -481.9740742811332
900 -481.9719621479376
901 -481.9734860765039
902 -481.9693364220341
903 -481.9715977639267
904 -481.9690270639912
905 -481.9727373223841
906 -481.9697307173478
907 -481.9735734075215
908 -481.9714824198441
909 -481.9752688663496
910 -481.9741223494473
911 -481.9791054422067
912 -481.9789873897953
913 -481.985244549165
914 -481.9854083708296
915 -481.9901353946161
916 -481.9893585242438
917 -481.9938455284988
918 -481.9922261464537
919 -481.9965110238477
920 -481.9947421545951
921 -481.9998888729778
922 -481.9992953144949
923 -482.0032363301126
924 -482.0009884882226
925 -482.0046336503503
926 -482.0030946831728
927 -482.0076213282765
928 -482.0070209738749
929 -482.0107636994053
930 -482.0088391005596
931 -482.0118493526703
932 -482.0088986769183
933 -482.0116915894885
934 -482.0077628887954
935 -482.0097296324712
936 -482.0057317467085
937 -482.0089049595335
938 -482.0079342084305
939 -482.0132004597175
940 -482.0133872888628
941 -482.017831872381
942 -482.0150006751731
943 -482.0174696099111
944 -482.0136689620658
945 -482.0159686842604
946 -482.0133175891452
947 -482.0170431464552
948 -482.016440910654
949 -482.022303600722
950 -482.0218207222161
951 -482.0241997208873
952 -482.0211955380751
953 -482.0243405176534
954 -482.0225443719663
955 -482.0263949509372
956 -482.0244625678027
957 -482.0280769871291
958 -482.0267788133527
959 -482.0305233386536
960 -482.0290656343029
961 -482.0328740695397
962 -482.0305090809089
963 -482.0335332228098
964 -482.0311852764221
965 -482.0342030673938
966 -482.0310294805628
967 -482.0342087482975
968 -482.0326926155375
969 -482.0358234881659
970 -482.0352787362643
971 -482.040777995564
972 -482.0394208355979
973 -482.0430870491201
974 -482.0409287627164
975 -482.0442242470471
976 -482.0421251890371
977 -482.0454551488936
978 -482.0429174708451
979 -482.0467829531119
980 -482.0436265723166
981 -482.045993683764
982 -482.0443769236714
983 -482.0474724124322
984 -482.0444798365397
985 -482.0474523959409
986 -482.0435890466758
987 -482.0464524628793
988 -482.0448241115118
989 -482.0480426208913
990 -482.0446021548497
991 -482.0498363782951
992 -482.049879577534
993 -482.0544767811659
994 -482.0541235123638
995 -482.0583488790049
996 -482.0555700228942
997 -482.058335016631
998 -482.053184869579
999 -482.0543259945056
1000 -482.0512458225315
1001 -482.0545955099345
1002 -482.0518457879276
1003 -482.05561364903
1004 -482.0526436410926
1005 -482.0553301505221
1006 -482.0537012482888
1007 -482.0583823695311
1008 -482.0562131208715
1009 -482.0598600057893
1010 -482.0584917761461
1011 -482.0635936186951
1012 -482.062994182278
1013 -482.0661786870756
1014 -482.0616756547381
1015 -482.0642103252404
1016 -482.059919372041
1017 -482.0629944365443
1018 -482.061432064149
1019 -482.0660141165973
1020 -482.0651640604191
1021 -482.0699882984333
1022 -482.0686290458269
1023 -482.0722346813996
1024 -482.0704807637335
1025 -482.0733785116532
1026 -482.0696378657719
1027 -482.0733455660659
1028 -482.0724951752056
1029 -482.0755635087941
1030 -482.0736336862822
1031 -482.0770669424338
1032 -482.0752112172079
1033 -482.0782533505256
1034 -482.075675223133
1035 -482.0792185124492
1036 -482.0769720359472
1037 -482.0788480641092
1038 -482.0747686968511
1039 -482.0756962185733
1040 -482.0726276765598
1041 -482.0756065461492
1042 -482.0737502384452
1043 -482.0769089298608
1044 -482.0749230001054
1045 -482.0794331020302
1046 -482.0769012118151
1047 -482.0797073289842
1048 -482.0772311783648
1049 -482.0805415785139
1050 -482.0770510582192
1051 -482.0800653413665
1052 -482.0776613094579
1053 -482.0814386946379
1054 -482.079839961073
1055 -482.0832007341652
1056 -482.0804682632525
1057 -482.0842724262112
1058 -482.0810501055803
1059 -482.0843243535287
1060 -482.0818757152485
1061 -482.0854662743207
1062 -482.0821407683639
1063 -482.0852983991621
1064 -482.0830583868208
1065 -482.0867135296313
1066 -482.0853102809687
1067 -482.0897326685701
1068 -482.0880900520208
1069 -482.0921274367523
1070 -482.0893949888782
1071 -482.0914810521528
1072 -482.088573197359
1073 -482.0900891324262
1074 -482.0859302832134
1075 -482.0882614491281
1076 -482.0863335377787
1077 -482.090593223156
1078 -482.0896363873384
1079 -482.0930967806755
1080 -482.0906346096659
1081 -482.0947608694324
1082 -482.0936314126274
1083 -482.0957865214023
1084 -482.0928641475752
1085 -482.0956934283265
1086 -482.0920366269353
1087 -482.0935290056012
1088 -482.0899578567694
1089 -482.0919770531527
1090 -482.0909626578315
1091 -482.0949988279955
1092 -482.0927899120705
1093 -482.096801668331
1094 -482.0946908800811
1095 -482.0981458357031
1096 -482.0957650335534
1097 -482.0995026719067
1098 -482.0960273291306
1099 -482.0990631251234
1100 -482.0948966736032
1101 -482.09526539436
1102 -482.0909064953242
1103 -482.0922876452861
1104 -482.0888762208081
1105 -482.0933101557277
1106 -482.0924213629709
1107 -482.0973717333573
1108 -482.096020562703
1109 -482.0969002366835
1110 -482.0916321951553
1111 -482.0928864304079
1112 -482.0893220552288
1113 -482.0916901163902
1114 -482.0905546890016
1115 -482.0949979145961
1116 -482.0944192722195
1117 -482.0996290010537
1118 -482.0969719623907
1119 -482.1000821053848
1120 -482.0973034240253
1121 -482.1009299954469
1122 -482.0983165309437
1123 -482.1025678070891
1124 -482.1015426809562
1125 -482.1066245897966
1126 -482.1064162251973
1127 -482.1112375330845
1128 -482.1094402205522
1129 -482.113632432745
1130 -482.1104322355214
1131 -482.1135400284636
1132 -482.1114871351468
1133 -482.1144914693875
1134 -482.1109350281262
1135 -482.1142310818216
1136 -482.1100678236429
1137 -482.1121937620197
1138 -482.1085309398626
1139 -482.112144931124
1140 -482.1090510661203
1141 -482.1130590168014
1142 -482.1098875869617
1143 -482.1140440666649
1144 -482.1111658808702
1145 -482.1125535159729
1146 -482.1066566098648
1147 -482.1081235765264
1148 -482.1035537414974
1149 -482.1048995576526
1150 -482.1013930834815
1151 -482.1039728812268
1152 -482.101846710072
1153 -482.1056209034093
1154 -482.1033553985234
1155 -482.107300214296
1156 -482.105315513856
1157 -482.1078005345711
1158 -482.1051553116065
1159 -482.1073478187366
1160 -482.1038504386493
1161 -482.1068679814804
1162 -482.1050805887763
1163 -482.1095034882627
1164 -482.1075760379375
1165 -482.112877557673
1166 -482.1106810989831
1167 -482.1139596418437
1168 -482.1126904253839
1169 -482.1165112320336
1170 -482.1142324187256
1171 -482.1180542932073
1172 -482.1160608022008
1173 -482.1187944762203
1174 -482.1162071954686
1175 -482.1188167317288
1176 -482.1155160253642
1177 -482.1171434305624
1178 -482.1127572928418
1179 -482.1157155539604
1180 -482.1129688587556
1181 -482.1154733604249
1182 -482.1119868108512
1183 -482.1140726221849
1184 -482.1093323116889
1185 -482.1118130510381
1186 -482.1088577169043
1187 -482.1130116409658
1188 -482.1102030424016
1189 -482.113992693651
1190 -482.1104699382028
1191 -482.1129310544279
1192 -482.1094765375714
1193 -482.1106422133086
1194 -482.1058466811202
1195 -482.1086129300068
1196 -482.1065327410758
1197 -482.1113738481147
1198 -482.110410116154
1199 -482.1144496828138
1200 -482.1123739731198
1201 -482.1154089226477
1202 -482.1124217482821
1203 -482.115392978015
1204 -482.1134315845521
1205 -482.1173178488982
1206 -482.115107543842
1207 -482.11858414715
1208 -482.1146824100992
1209 -482.1172301634221
1210 -482.1149250685777
1211 -482.116901474275
1212 -482.1137518677528
1213 -482.1161676629579
1214 -482.1125454344601
1215 -482.1156124715623
1216 -482.1131976859726
1217 -482.1173447954213
1218 -482.115370946943
1219 -482.1189276580565
1220 -482.1156973259646
1221 -482.117083523739
1222 -482.1140804608607
1223 -482.1166905309257
1224 -482.1139753743672
1225 -482.117354345921
1226 -482.1147475554533
1227 -482.1187113695225
1228 -482.1176568301086
1229 -482.12030006947
1230 -482.1163219380903
1231 -482.119258249136
1232 -482.1172857507586
1233 -482.12096231271
1234 -482.1195943035473
1235 -482.1246165440139
1236 -482.1223317663213
1237 -482.1249018664496
1238 -482.1197763898233
1239 -482.1212704408474
1240 -482.1174539631164
1241 -482.1197631651203
1242 -482.1152965100675
1243 -482.1169406284809
1244 -482.1127914357295
1245 -482.1166274432155
1246 -482.1149134755241
1247 -482.119614855653
1248 -482.1180393547135
1249 -482.1227635147472
1250 -482.1193553888168
1251 -482.1216506510775
1252 -482.1166610389679
1253 -482.1182670300616
1254 -482.1142725084271
1255 -482.1184295986881
1256 -482.1153412682896
1257 -482.1192706166156
1258 -482.1173071270541
1259 -482.1224146693122
1260 -482.1209005766481
1261 -482.1256982588426
1262 -482.1226856064253
1263 -482.1248216019506
1264 -482.1205626275192
1265 -482.1217743469182
1266 -482.1170549079969
1267 -482.1198243451856
1268 -482.1158922042458
1269 -482.1183926927209
1270 -482.117149282702
1271 -482.1209211149988
1272 -482.1175662172698
1273 -482.1193249808905
1274 -482.1143821250481
1275 -482.115664261441
1276 -482.1126087417956
1277 -482.1174742522293
1278 -482.1159113645874
1279 -482.1199025628155
1280 -482.1175087110498
1281 -482.1195345323076
1282 -482.1175504846825
1283 -482.1200144249145
1284 -482.1161129302703
1285 -482.1179212483151
1286 -482.1129289803086
1287 -482.1145108344924
1288 -482.1122839967987
1289 -482.1165360736177
1290 -482.1148975653953
1291 -482.1202398984065
1292 -482.1192594372608
1293 -482.1225428880205
1294 -482.1206582032288
1295 -482.1250177043493
1296 -482.1214639263447
1297 -482.1244999998016
1298 -482.120664784882
1299 -482.1237058293653
1300 -482.1217732621042
1301 -482.1245835661385
1302 -482.1206991447167
1303 -482.1239614364901
1304 -482.1217115594892
1305 -482.1245871179734
1306 -482.1223637342588
1307 -482.1257143783118
1308 -482.1219802938083
1309 -482.1252148150812
1310 -482.1223065130391
1311 -482.1237469506353
1312 -482.1199268611675
1313 -482.1211205796359
1314 -482.116253604368
1315 -482.1173707167501
1316 -482.1136528102924
1317 -482.1163488231429
1318 -482.1141205091328
1319 -482.1182049838084
1320 -482.116559867382
1321 -482.1193872136005
1322 -482.1148080875074
1323 -482.1175659986332
1324 -482.1152773443149
1325 -482.1189013273514
1326 -482.1150654869833
1327 -482.1186635229988
1328 -482.116191361574
1329 -482.1199568265496
1330 -482.1177630337735
1331 -482.1210112516446
1332 -482.117468684825
1333 -482.1204023351686
1334 -482.1173643587786
1335 -482.120354557131
1336 -482.1180484759508
1337 -482.1214846987339
1338 -482.1188521838504
1339 -482.1231663641578
1340 -482.1206600523117
1341 -482.1240263045946
1342 -482.121568017303
1343 -482.1241240321945
1344 -482.1206977161716
1345 -482.1238221857882
1346 -482.1212612658499
1347 -482.1251559710631
1348 -482.1222073995786
1349 -482.1237351587952
1350 -482.1201857039695
1351 -482.1234891102753
1352 -482.1206461609177
1353 -482.1237536385115
1354 -482.1220127671245
1355 -482.1253496369985
1356 -482.1236396457433
1357 -482.12580903055
1358 -482.1221477342476
1359 -482.1238358633973
1360 -482.1203865258391
1361 -482.1219839793395
1362 -482.1192335471295
1363 -482.1233743245328
1364 -482.1217550210991
1365 -482.1243550515506
1366 -482.1225715148024
1367 -482.1258165165265
1368 -482.1224223925303
1369 -482.1235301091775
1370 -482.1183205944378
1371 -482.1195644700185
1372 -482.1160994494207
1373 -482.1190002097733
1374 -482.1154456577387
1375 -482.1194681985184
1376 -482.116725965788
1377 -482.1204880120084
1378 -482.1179081943751
1379 -482.1204903105291
1380 -482.1168985730182
1381 -482.1203732006711
1382 -482.1178546502737
1383 -482.122968787443
1384 -482.121536398603
1385 -482.1254885980244
1386 -482.1221643550273
1387 -482.125650949991
1388 -482.1217702017466
1389 -482.1248882547192
1390 -482.1233595638965
1391 -482.1285120804234
1392 -482.1269003882038
1393 -482.13077239626
1394 -482.1264723212823
1395 -482.128553713228
1396 -482.1255747953998
1397 -482.1285873980481
1398 -482.1258938653643
1399 -482.128581645127
1400 -482.1261184619839
1401 -482.1287106456226
1402 -482.1260547958922
1403 -482.1285405098535
1404 -482.1248560993202
1405 -482.1280185559975
1406 -482.1245175155149
1407 -482.1276387438296
1408 -482.1241876723678
1409 -482.1265596950972
1410 -482.1226196341357
1411 -482.1249708705761
1412 -482.1209533790923
1413 -482.1230750240247
1414 -482.1200025141146
1415 -482.1225916928989
1416 -482.1192350925231
1417 -482.1224114601012
1418 -482.1201530300582
1419 -482.1243046742476
1420 -482.1223002438953
1421 -482.1250850835211
1422 -482.1204776097314
1423 -482.1214501052855
1424 -482.1170247465478
1425 -482.1200265606529
1426 -482.1181113636966
1427 -482.1217803844768
1428 -482.1203907619931
1429 -482.1248886156196
1430 -482.1228872911133
1431 -482.1255974260878
1432 -482.1232412109953
1433 -482.1257747285405
1434 -482.1221134792657
1435 -482.125895120137
1436 -482.1237499905468
1437 -482.127024708235
1438 -482.1243434981399
1439 -482.1277631645195
1440 -482.1245919477893
1441 -482.1271382419034
1442 -482.1230905811171
1443 -482.1252326856502
1444 -482.1216663473298
1445 -482.1240855421383
1446 -482.1202784719302
1447 -482.1235691347749
1448 -482.1201361631814
1449 -482.1226174503677
1450 -482.1182093106598
1451 -482.1203274609208
1452 -482.1174539681746
1453 -482.1204199733447
1454 -482.1173690083978
1455 -482.1219753674859
1456 -482.1207936664646
1457 -482.1254163800849
1458 -482.1226594321529
1459 -482.1263720430667
1460 -482.1236357450921
1461 -482.126685427847
1462 -482.1231350037369
1463 -482.1263185167269
1464 -482.1228901573942
1465 -482.1252177280714
1466 -482.1214334655181
1467 -482.1244859910146
1468 -482.121187382111
1469 -482.1232667989937
1470 -482.1197719497776
1471 -482.1219970652698
1472 -482.1191401208519
1473 -482.1220617667754
1474 -482.1202202881359
1475 -482.1240822670745
1476 -482.12128720161
1477 -482.1239206966129
1478 -482.1211896447048
1479 -482.1245761368656
1480 -482.1228551782753
1481 -482.1261359474035
1482 -482.1228531368298
1483 -482.1264287535897
1484 -482.1239225214371
1485 -482.1268164405003
1486 -482.1237778886068
1487 -482.1256833545735
1488 -482.1223312382174
1489 -482.1253507425332
1490 -482.1227503836946
1491 -482.1262519609268
1492 -482.124864623614
1493 -482.1281085293971
1494 -482.1243936628981
1495 -482.1266957749539
1496 -482.1233621700559
1497 -482.1266378798094
1498 -482.1252012309518
1499 -482.1292316113542
1500 -482.1275794976986
1501 -482.1308268386388
1502 -482.1275514285511
1503 -482.1305053449148
1504 -482.1265983320565
1505 -482.1279195284231
1506 -482.1239406322995
1507 -482.1260775459492
1508 -482.1223184449215
1509 -482.1249701922225
1510 -482.1230021044319
1511 -482.1263733006321
1512 -482.1240412153498
1513 -482.1268087708219
1514 -482.1227737272794
1515 -482.1242066736083
1516 -482.1206206219873
1517 -482.1229140472819
1518 -482.1200419408195
1519 -482.1239822309564
1520 -482.1202358516902
1521 -482.1232953467273
1522 -482.1208253439118
1523 -482.124695226929
1524 -482.1234965888015
1525 -482.1279647090803
1526 -482.1247336200589
1527 -482.1281687607185
1528 -482.1257914981867
1529 -482.1286055073715
1530 -482.1246676995266
1531 -482.128085743851
1532 -482.125488449672
1533 -482.1291493934149
1534 -482.1270016715326
1535 -482.1315986366592
1536 -482.1293849280578
1537 -482.1334123285134
1538 -482.1291094819025
1539 -482.1305322015563
1540 -482.1272317733465
1541 -482.129040051398
1542 -482.1242379167726
1543 -482.1263728181223
1544 -482.1227152680905
1545 -482.1262907138999
1546 -482.1251239354851
1547 -482.1283896724253
1548 -482.1244866629797
1549 -482.1257328098051
1550 -482.1205762683512
1551 -482.1213724744222
1552 -482.1179826347741
1553 -482.121442173097
1554 -482.1191237628839
1555 -482.1232730002101
1556 -482.1207350279913
1557 -482.1229847146014
1558 -482.1201536287394
1559 -482.1233876378832
1560 -482.1211041192228
1561 -482.1246236469714
1562 -482.1221590816443
1563 -482.1252743780524
1564 -482.1231158556958
1565 -482.1262118786215
1566 -482.1240070189003
1567 -482.1274619810296
1568 -482.1246803339039
1569 -482.1267835389447
1570 -482.123889594402
1571 -482.1273275684803
1572 -482.123712717372
1573 -482.1254274833989
1574 -482.1218496679773
1575 -482.1261382178185
1576 -482.1243685612607
1577 -482.1284351288503
1578 -482.1251981510205
1579 -482.1275408769598
1580 -482.1239274338619
1581 -482.1266970638678
1582 -482.1240415001154
1583 -482.1281082957645
1584 -482.125689148129
1585 -482.1302148044725
1586 -482.128206216095
1587 -482.1317834516925
1588 -482.1293923093757
1589 -482.1317655696045
1590 -482.126862711081
1591 -482.1286825531917
1592 -482.1240486516629
1593 -482.126795307911
1594 -482.1252925904251
1595 -482.1301586921102
1596 -482.1280271429484
1597 -482.1323425430475
1598 -482.1281850295924
1599 -482.1289905448341
1600 -482.1229612732817
1601 -482.1244046382485
1602 -482.1195920081223
1603 -482.1232290069368
1604 -482.1216338242265
1605 -482.1264257610127
1606 -482.123824748572
1607 -482.1271004235618
1608 -482.123959084476
1609 -482.1279976735062
1610 -482.1246566333518
1611 -482.1278341259019
1612 -482.1251723441508
1613 -482.1274966999809
1614 -482.1235863743399
1615 -482.1270027890134
1616 -482.1246520218952
1617 -482.1287647726234
1618 -482.126569636211
1619 -482.1294960314276
1620 -482.1258049989664
1621 -482.1282263405127
1622 -482.1253363622655
1623 -482.1284106709015
1624 -482.1254436382244
1625 -482.1283491061657
1626 -482.1244475584894
1627 -482.1275749686342
1628 -482.1246598936269
1629 -482.1280958937023
1630 -482.1268032825843
1631 -482.1304126471907
1632 -482.1288878515048
1633 -482.1318169504297
1634 -482.1289943239478
1635 -482.1313352891695
1636 -482.1277266651944
1637 -482.1282253215181
1638 -482.1232949611671
1639 -482.126407164717
1640 -482.1234592876689
1641 -482.1250704414945
1642 -482.1225231208301
1643 -482.1263569601876
1644 -482.1235412729542
1645 -482.1265896075058
1646 -482.1228198363395
1647 -482.1250413750381
1648 -482.1219767032027
1649 -482.1256459728568
1650 -482.1237808958841
1651 -482.1298367702025
1652 -482.1298409303155
1653 -482.1339028830109
1654 -482.1307762604329
1655 -482.1330332480477
1656 -482.126964499314
1657 -482.1280508132136
1658 -482.1225147975351
1659 -482.1249358611778
1660 -482.1228513979022
1661 -482.1270300922702
1662 -482.1232314583216
1663 -482.1255851191341
1664 -482.1220830582875
1665 -482.1251855455715
1666 -482.1237211166782
1667 -482.1289060679109
1668 -482.1267094233156
1669 -482.1304235456531
1670 -482.1276904138253
1671 -482.1303978633588
1672 -482.1276276044122
1673 -482.1288710936741
1674 -482.1227883732522
1675 -482.1243320694883
1676 -482.1224049306875
1677 -482.1265309393181
1678 -482.1260749272242
1679 -482.1302016915299
1680 -482.1288167980735
1681 -482.1322879570325
1682 -482.1287746604913
1683 -482.1310337727232
1684 -482.1269530052629
1685 -482.1278721269076
1686 -482.1242748181179
1687 -482.1281043522853
1688 -482.1261066994253
1689 -482.1293449689834
1690 -482.1268746440316
1691 -482.131067167111
1692 -482.1279901644265
1693 -482.1295856059842
1694 -482.1256879696737
1695 -482.1292152288282
1696 -482.1274019703891
1697 -482.1308230866666
1698 -482.1281436749126
1699 -482.1312416822206
1700 -482.1275972494834
1701 -482.130219172663
1702 -482.1268604794638
1703 -482.1303139176073
1704 -482.1273562485061
1705 -482.1295000404526
1706 -482.1259451137187
1707 -482.1280975176019
1708 -482.125184494132
1709 -482.126971162387
1710 -482.1218696174947
1711 -482.1236513440421
1712 -482.1205294674755
1713 -482.1248135469077
1714 -482.1229486006869
1715 -482.1279111624297
1716 -482.1254741544961
1717 -482.1288750143112
1718 -482.1240141294925
1719 -482.1262246882502
1720 -482.1221582689844
1721 -482.1241710125325
1722 -482.1195320645281
1723 -482.1230610744835
1724 -482.1210110219026
1725 -482.1258654427377
1726 -482.1239219596712
1727 -482.1286417927238
1728 -482.1252019432913
1729 -482.1291376641025
1730 -482.1256792246419
1731 -482.128621383529
1732 -482.1256676065128
1733 -482.1293769470675
1734 -482.1264298955912
1735 -482.1295414574952
1736 -482.1267765402205
1737 -482.1308735200617
1738 -482.1282580127273
1739 -482.131504787234
1740 -482.1276331539947
1741 -482.1308578939776
1742 -482.1279157928613
1743 -482.1293214056354
1744 -482.1263327570467
1745 -482.1279668812238
1746 -482.1240754039146
1747 -482.126975242049
1748 -482.1249960726304
1749 -482.1273762253217
1750 -482.1259556599654
1751 -482.1294466387992
1752 -482.1277290524604
1753 -482.1308491400635
1754 -482.1279926912148
1755 -482.1295300631742
1756 -482.126557130652
1757 -482.1286343134072
1758 -482.1262279950085
1759 -482.1295117101675
1760 -482.1263563509171
1761 -482.1279777399308
1762 -482.1264515277511
1763 -482.1295765573882
1764 -482.1265757253656
1765 -482.128576346111
1766 -482.1247855733835
1767 -482.1268085778042
1768 -482.1246072780796
1769 -482.1276517946271
1770 -482.1246418458132
1771 -482.1279718075271
1772 -482.1256193886485
1773 -482.1279896204103
1774 -482.1249549648938
1775 -482.1276333362442
1776 -482.1242964574025
1777 -482.1273938660439
1778 -482.1241343131983
1779 -482.126610861576
1780 -482.1239235716889
1781 -482.1268438539747
1782 -482.1213874536328
1783 -482.1229973328607
1784 -482.1185059255853
1785 -482.1209725857738
1786 -482.1186349485824
1787 -482.1238989218591
1788 -482.1241018548236
1789 -482.1295920840996
1790 -482.1280448642903
1791 -482.1320458826686
1792 -482.1289367545054
1793 -482.130628631379
1794 -482.1261086361533
1795 -482.1289610617656
1796 -482.1261643334699
1797 -482.1299164409821
1798 -482.1281122902641
1799 -482.1316288578806
1800 -482.1277834460213
1801 -482.1289145403304
1802 -482.1235288154792
1803 -482.1247691655323
1804 -482.1214376405302
1805 -482.1245083056869
1806 -482.1224657278993
1807 -482.1263709695832
1808 -482.1247020276939
1809 -482.1280003968923
1810 -482.1258500893615
1811 -482.1280511098713
1812 -482.1225947311721
1813 -482.1242389796695
1814 -482.1209831004424
1815 -482.124290907519
1816 -482.1228929781449
1817 -482.1275458888325
1818 -482.1255563468537
1819 -482.1287167981887
1820 -482.1260610105965
1821 -482.1273894275384
1822 -482.1237140013935
1823 -482.1257971768557
1824 -482.1229925067083
1825 -482.1267616473257
1826 -482.1254329909952
1827 -482.1285196252096
1828 -482.126605788181
1829 -482.1287565196341
1830 -482.1259673990024
1831 -482.1285427911372
1832 -482.1253241453615
1833 -482.1255524672567
1834 -482.1226960784222
1835 -482.1258681050709
1836 -482.1230505615437
1837 -482.1261389898219
1838 -482.1245082726006
1839 -482.1273524485222
1840 -482.1253356633099
1841 -482.1277230713898
1842 -482.1258036478893
1843 -482.1294407190942
1844 -482.1263163112471
1845 -482.1285775586849
1846 -482.1271336171506
1847 -482.1298575487446
1848 -482.1258540582942
1849 -482.1288989536374
1850 -482.1257970650402
1851 -482.1297493445311
1852 -482.1283894958175
1853 -482.1325418117784
1854 -482.1297764277952
1855 -482.1328799375431
1856 -482.1287297682492
1857 -482.1296238499577
1858 -482.1258140061421
1859 -482.1292093050851
1860 -482.1268713988448
1861 -482.1311653163331
1862 -482.1290689600217
1863 -482.132911487575
1864 -482.1311648360474
1865 -482.1332765717428
1866 -482.1290494693863
1867 -482.131681938529
1868 -482.1282637382201
1869 -482.1309254122043
1870 -482.1298960073966
1871 -482.1330799642456
1872 -482.1305663431507
1873 -482.1332917833397
1874 -482.1298063014189
1875 -482.1315056259884
1876 -482.1280687822289
1877 -482.1294017200276
1878 -482.1256716689227
1879 -482.1272663507498
1880 -482.124021588325
1881 -482.1269542442764
1882 -482.1252032020629
1883 -482.1278902403994
1884 -482.125291497654
1885 -482.1271758962415
1886 -482.1227379268446
1887 -482.1235886557284
1888 -482.1215384997672
1889 -482.1247833928962
1890 -482.1222614952875
1891 -482.1255140150579
1892 -482.1219433589225
1893 -482.1234747237283
1894 -482.1214338093085
1895 -482.1258186168695
1896 -482.1245252362014
1897 -482.1275400382871
1898 -482.1249178882537
1899 -482.1267636857011
1900 -482.1250048348155
1901 -482.1275346177999
1902 -482.125602834731
1903 -482.1299142921463
1904 -482.1281158354529
1905 -482.1306326959921
1906 -482.127517633643
1907 -482.1296062519258
1908 -482.1258074015342
1909 -482.1287705481523
1910 -482.1264933381879
1911 -482.1294607947286
1912 -482.128913462742
1913 -482.1313160186396
1914 -482.1271627804869
1915 -482.1292272865955
1916 -482.1252882723654
1917 -482.1271054255201
1918 -482.1251903227346
1919 -482.1299845355515
1920 -482.1277338719606
1921 -482.1319184931048
1922 -482.129535249405
1923 -482.1337701222708
1924 -482.1312382966008
1925 -482.1335171076628
1926 -482.1278755181588
1927 -482.129900327595
1928 -482.1253212863493
1929 -482.1264240397082
1930 -482.1231823060187
1931 -482.126453274104
1932 -482.1229796466372
1933 -482.1260463957555
1934 -482.1220401589152
1935 -482.1244012988228
1936 -482.1223144527897
1937 -482.12616599319
1938 -482.123348669777
1939 -482.1270652300448
1940 -482.1230773596967
1941 -482.1252421146842
1942 -482.1217328329554
1943 -482.1244115476968
1944 -482.1215429073966
1945 -482.1265620596454
1946 -482.1260988932165
1947 -482.131604279563
1948 -482.1314019413442
1949 -482.1352721101161
1950 -482.1324775376711
1951 -482.1352146856495
1952 -482.1315298908484
1953 -482.1324215746394
1954 -482.1292377167152
1955 -482.1325293359233
1956 -482.1303200584597
1957 -482.1345208081544
1958 -482.1325309933103
1959 -482.134976067223
1960 -482.1317983847553
1961 -482.134089718469
1962 -482.1295598116618
1963 -482.1307117969188
1964 -482.1264318057245
1965 -482.1288936142523
1966 -482.1280885307775
1967 -482.1321684167161
1968 -482.1292034065777
1969 -482.131052973126
1970 -482.1256355064329
1971 -482.1273648965844
1972 -482.1239244272496
1973 -482.1263817796777
1974 -482.1234870465512
1975 -482.1272719365105
1976 -482.1239315006632
1977 -482.1257614843631
1978 -482.1227932618938
1979 -482.1255462554956
1980 -482.1223447097489
1981 -482.1253876187055
1982 -482.1224412237773
1983 -482.1253233579586
1984 -482.1216248663182
1985 -482.1249442442165
1986 -482.1219388105671
1987 -482.1271645823774
1988 -482.1260591919561
1989 -482.1294792493233
1990 -482.1272450316062
1991 -482.131010898573
1992 -482.1276896251754
1993 -482.1303708553623
1994 -482.1263603677955
1995 -482.130348253415
1996 -482.1292864366335
1997 -482.1343097911732
1998 -482.1306818512058
1999 -482.1330701939926
2000 -482.1284485182991
2001 -482.129757161638
2002 -482.1263601808368
2003 -482.1286669115454
2004 -482.1236662780067
2005 -482.1267543664407
2006 -482.1239919792465
2007 -482.1291197040683
2008 -482.1286716185125
2009 -482.1342658436195
2010 -482.1306206284442
2011 -482.1312620567747
2012 -482.125973938606
2013 -482.1270592872196
2014 -482.1242880447307
2015 -482.1276992859622
2016 -482.1241107338576
2017 -482.1273441346921
2018 -482.1250591627825
2019 -482.1288522990629
2020 -482.1267387652476
2021 -482.1286381451873
2022 -482.1251571372602
2023 -482.1268076204877
2024 -482.1246601096343
2025 -482.1268757469546
2026 -482.1249698573156
2027 -482.1283367742651
2028 -482.1271601246734
2029 -482.130184980937
2030 -482.1281477427076
2031 -482.1299124463412
2032 -482.1270419824664
2033 -482.1287837002921
2034 -482.1249029675516
2035 -482.1279961177086
2036 -482.1261597271109
2037 -482.1294504328364
2038 -482.1286176129744
2039 -482.1313551574792
2040 -482.1285884969531
2041 -482.130840110011
2042 -482.127824304726
2043 -482.1297182166674
2044 -482.1279271639694
2045 -482.1317491761606
2046 -482.1279686748688
2047 -482.1318665751528
2048 -482.1302206069576
2049 -482.1332233160612
2050 -482.1309902046483
2051 -482.133689289523
2052 -482.1287972249287
2053 -482.1296838128482
2054 -482.1242029785022
2055 -482.1266439768573
2056 -482.1236893369072
2057 -482.1273041159985
2058 -482.124801910647
2059 -482.1280437638583
2060 -482.123540862391
2061 -482.1240504341162
2062 -482.1191314140239
2063 -482.1219456393126
2064 -482.118673558579
2065 -482.1222916498597
2066 -482.1199375988114
2067 -482.1232961153485
2068 -482.1213466828106
2069 -482.1240815268092
2070 -482.11994379919
2071 -482.1230551955534
2072 -482.1203172871843
2073 -482.1241197605489
2074 -482.1235663826803
2075 -482.128835857999
2076 -482.1271940130179
2077 -482.1310726714606
2078 -482.1282707537344
2079 -482.1317468008339
2080 -482.1297686573811
2081 -482.1324166165572
2082 -482.128010217756
2083 -482.1295038080459
2084 -482.1268834461232
2085 -482.1301040005824
2086 -482.1283681088802
2087 -482.1320531616163
2088 -482.1293391822043
2089 -482.1307630396864
2090 -482.1274601966985
2091 -482.1282658463039
2092 -482.124636437424
2093 -482.1272278242921
2094 -482.1247152427496
2095 -482.1274149067636
2096 -482.1244855209591
2097 -482.1257240601143
2098 -482.1222362008388
2099 -482.1237939254751
2100 -482.1206697852869
2101 -482.1242680185296
2102 -482.1238537834433
2103 -482.1287566103707
2104 -482.1272256866931
2105 -482.1305022783348
2106 -482.1265445951167
2107 -482.1291557174209
2108 -482.1257632111174
2109 -482.1270563994811
2110 -482.1235153760424
2111 -482.1271453292443
2112 -482.1259108255236
2113 -482.1301538210392
2114 -482.1269708371804
2115 -482.1284467183116
2116 -482.1234493791825
2117 -482.1242762893369
2118 -482.1199988154021
2119 -482.1243127243034
2120 -482.1232831277364
2121 -482.1287732564006
2122 -482.1271455786963
2123 -482.1314451717959
2124 -482.127025580201
2125 -482.1290587713931
2126 -482.1257528362964
2127 -482.1277809347702
2128 -482.123782129806
2129 -482.1268312448258
2130 -482.1236117709649
2131 -482.1283281247931
2132 -482.1271963320349
2133 -482.1309142560546
2134 -482.126665351494
2135 -482.1290916865262
2136 -482.1251755070844
2137 -482.1265186599589
2138 -482.1226549087437
2139 -482.1244581283967
2140 -482.1215337174637
2141 -482.1256387924601
2142 -482.1235619530724
2143 -482.1272758863589
2144 -482.1259445000208
2145 -482.1289747873986
2146 -482.126155971685
2147 -482.130425557185
2148 -482.1264100275268
2149 -482.1279356503316
2150 -482.1239849669725
2151 -482.125139913472
2152 -482.1206931934769
2153 -482.1223720798699
2154 -482.1186910085464
2155 -482.1224852531434
2156 -482.1222853887413
2157 -482.1260398945485
2158 -482.1244486557858
2159 -482.1271306460207
2160 -482.1232389895638
2161 -482.1246589217983
2162 -482.1211836095016
2163 -482.1218337277153
2164 -482.1187046847517
2165 -482.122635241111
2166 -482.1224409871292
2167 -482.1278845295347
2168 -482.1275449514113
2169 -482.1308045823629
2170 -482.1281418821966
2171 -482.1300219926464
2172 -482.1246971083744
2173 -482.1254535671154
2174 -482.1235429931816
2175 -482.1273033881335
2176 -482.1264148625552
2177 -482.1307912972262
2178 -482.1280841989104
2179 -482.1311016047228
2180 -482.1282273934125
2181 -482.1298579191505
2182 -482.1264904419086
2183 -482.1293214980703
2184 -482.1252491023299
2185 -482.1275292165394
2186 -482.125035444478
2187 -482.1284797255447
2188 -482.1246991980989
2189 -482.1267364057916
2190 -482.1226717179056
2191 -482.1256145305801
2192 -482.1240165786832
2193 -482.1270837788309
2194 -482.1237595156088
2195 -482.1272674704705
2196 -482.1231205897396
2197 -482.1247780274172
2198 -482.1206028790359
2199 -482.1230907065049
2200 -482.1208980204022
2201 -482.1246831900004
2202 -482.121812527057
2203 -482.124877250536
2204 -482.1222557211197
2205 -482.125186721
2206 -482.1217625277704
2207 -482.1260132403461
2208 -482.1242476687553
2209 -482.1280429149498
2210 -482.1265742977798
2211 -482.1304668661279
2212 -482.1291489939254
2213 -482.1331568696596
2214 -482.1301413336835
2215 -482.1334570620069
2216 -482.1315041852885
2217 -482.1338225333074
2218 -482.1302195996471
2219 -482.131902693295
2220 -482.1274884362628
2221 -482.1289198154803
2222 -482.1263077513107
2223 -482.1279928998884
2224 -482.1244026754512
2225 -482.1256186407575
2226 -482.1219423651769
2227 -482.1244299836462
2228 -482.1226117577482
2229 -482.1251708393158
2230 -482.1237299735748
2231 -482.1286742979314
2232 -482.1270921772435
2233 -482.1288142448159
2234 -482.1260600583296
2235 -482.127925449452
2236 -482.1255728534186
2237 -482.1274013071366
2238 -482.1247598354987
2239 -482.1288288719849
2240 -482.1280614949085
2241 -482.1323147731732
2242 -482.1309047987181
2243 -482.1341946252103
2244 -482.1299771081199
2245 -482.1305698677263
2246 -482.1261154876929
2247 -482.1278202853351
2248 -482.123567125015
2249 -482.1269364457835
2250 -482.123532766987
2251 -482.1276422738101
2252 -482.1257555626494
2253 -482.1275815144078
2254 -482.1236915220924
2255 -482.1274510668243
2256 -482.1244328202249
2257 -482.1295297019983
2258 -482.128128688465
2259 -482.132996551619
2260 -482.1289711556057
2261 -482.129959603096
2262 -482.1246352629791
2263 -482.127753130004
2264 -482.1264757942672
2265 -482.1311802189488
2266 -482.1286220785372
2267 -482.133604371906
2268 -482.1320917430964
2269 -482.1350783423954
2270 -482.1317685169097
2271 -482.1326779331764
2272 -482.1281041535946
2273 -482.1305666355805
2274 -482.1267014601842
2275 -482.1305167458484
2276 -482.1278972978017
2277 -482.1306094814577
2278 -482.1266540868716
2279 -482.1290711254587
2280 -482.1258198549218
2281 -482.1281131463485
2282 -482.1252679934524
2283 -482.1271314167367
2284 -482.1234070721089
2285 -482.1263819925911
2286 -482.1226512484486
2287 -482.1264182300366
2288 -482.1232807932785
2289 -482.1250494958337
2290 -482.1204988408705
2291 -482.1223000936887
2292 -482.1196258434347
2293 -482.1239364435795
2294 -482.1233608457085
2295 -482.1286465738003
2296 -482.1253577859646
2297 -482.1276159720106
2298 -482.1237085527865
2299 -482.1263786272638
2300 -482.1232810622586
2301 -482.1252873925983
2302 -482.1240753617212
2303 -482.1293256823658
2304 -482.1300561344583
2305 -482.1345009297531
2306 -482.1342138835519
2307 -482.1380378335078
2308 -482.1357897810224
2309 -482.1371038324178
2310 -482.132457990115
2311 -482.1344308985226
2312 -482.1305521904879
2313 -482.1313830986014
2314 -482.1272196939408
2315 -482.1298639397853
2316 -482.126843608634
2317 -482.1296261321013
2318 -482.12643671551
2319 -482.1277970920914
2320 -482.1240657399005
2321 -482.1269459483951
2322 -482.1236898509747
2323 -482.1268607895988
2324 -482.1236025648845
2325 -482.1261967841135
2326 -482.1229816962477
2327 -482.1263086312181
2328 -482.1234666411093
2329 -482.1276313374988
2330 -482.1244454382731
2331 -482.1275424227697
2332 -482.1242458261379
2333 -482.1283283525348
2334 -482.1245846941374
2335 -482.1284086058249
2336 -482.127703004275
2337 -482.1322592132422
2338 -482.1298467878576
2339 -482.1340427237683
2340 -482.130504649785
2341 -482.1330362395524
2342 -482.1308121766624
2343 -482.1332522566051
2344 -482.1285194108125
2345 -482.1308021223849
2346 -482.1270677043614
2347 -482.1305868422536
2348 -482.128274675691
2349 -482.1315272762737
2350 -482.1287378786681
2351 -482.1317129799573
2352 -482.12885764708
2353 -482.1316715678499
2354 -482.1296456415765
2355 -482.133077307251
2356 -482.1308575239686
2357 -482.1349661821264
2358 -482.1307805222641
2359 -482.1324757995422
2360 -482.1288780728254
2361 -482.1300660318506
2362 -482.1257883085772
2363 -482.1290840304688
2364 -482.1270145171575
2365 -482.1311575839645
2366 -482.1291393826682
2367 -482.1314133022134
2368 -482.1276872137398
2369 -482.130427526289
2370 -482.1265136400897
2371 -482.1286635696222
2372 -482.1255311041377
2373 -482.1282771390719
2374 -482.125546335403
2375 -482.1285958993448
2376 -482.125217772764
2377 -482.1288029713654
2378 -482.1276135684383
2379 -482.1317194137449
2380 -482.1289136966773
2381 -482.1318389765968
2382 -482.1288587004686
2383 -482.1316829248713
2384 -482.1287985692758
2385 -482.1312487744494
2386 -482.1297851303759
2387 -482.1332980253491
2388 -482.1308254337403
2389 -482.1337750068757
2390 -482.1316796519539
2391 -482.1355063878608
2392 -482.1340631352166
2393 -482.1374852629461
2394 -482.1330075204355
2395 -482.1366873960497
2396 -482.1324556302457
2397 -482.1356746568125
2398 -482.132369487006
2399 -482.1367135395698
2400 -482.1332943635891
2401 -482.1357658888674
2402 -482.1318686480995
2403 -482.1341011684734
2404 -482.1297941656796
2405 -482.1328424826572
2406 -482.1290314555307
2407 -482.1324890100673
2408 -482.1304311342695
2409 -482.134425229425
2410 -482.1303987631053
2411 -482.1320183424776
2412 -482.1277109238858
2413 -482.1295266224329
2414 -482.1260522406305
2415 -482.1279306437751
2416 -482.124189276878
2417 -482.1261576865948
2418 -482.1229186080246
2419 -482.1252353345494
2420 -482.1226806158393
2421 -482.1236752289792
2422 -482.1190254950307
2423 -482.1192692701708
2424 -482.1154563392245
2425 -482.1192174368823
2426 -482.1207982284772
2427 -482.1274867835456
2428 -482.1272380178851
2429 -482.1304801716887
2430 -482.1267964804022
2431 -482.1268582592112
2432 -482.1229144260685
2433 -482.1245078514626
2434 -482.1213735189566
2435 -482.1253145313655
2436 -482.1245348447342
2437 -482.1293989296601
2438 -482.1280412089453
2439 -482.1309819006285
2440 -482.127612228525
2441 -482.1287573047086
2442 -482.1238687661299
2443 -482.1260900907514
2444 -482.1234313780357
2445 -482.1268096169936
2446 -482.1237342380545
2447 -482.1264496395833
2448 -482.1229747785567
2449 -482.1265012146448
2450 -482.124257307442
2451 -482.1274708355217
2452 -482.1250609687767
2453 -482.1292547677563
2454 -482.1262732085571
2455 -482.1308806123218
2456 -482.1284802053903
2457 -482.1310544917845
2458 -482.1262841773676
2459 -482.1284069167882
2460 -482.1254889217763
2461 -482.1303822504476
2462 -482.129603222373
2463 -482.1330133530424
2464 -482.1288762109134
2465 -482.1301176994918
2466 -482.124168916718
2467 -482.125732733077
2468 -482.1215592181968
2469 -482.1236905351624
2470 -482.1206309063307
2471 -482.1248242193903
2472 -482.1225249944923
2473 -482.1263714351261
2474 -482.1240779879877
2475 -482.1286299355368
2476 -482.1263607396533
2477 -482.1293323170106
2478 -482.1249704983429
2479 -482.1276972873859
2480 -482.125697346624
2481 -482.1292847752755
2482 -482.1275763878131
2483 -482.1318817430466
2484 -482.1297688444792
2485 -482.132589426052
2486 -482.130168252594
2487 -482.1314803513399
2488 -482.1265082105361
2489 -482.1288014883076
2490 -482.1260162270115
2491 -482.1292121057334
2492 -482.1278943643898
2493 -482.1317050362713
2494 -482.1290430626846
2495 -482.1328949227183
2496 -482.129963347098
2497 -482.1325959170174
2498 -482.1311752071774
2499 -482.1330724900198
2500 -482.1297742005876
2501 -482.131687417541
2502 -482.1276528418944
2503 -482.1291882908114
2504 -482.1275365292007
2505 -482.1298128164289
2506 -482.1268032944716
2507 -482.1286527077673
2508 -482.1247632662055
2509 -482.1260197859318
2510 -482.1240481034441
2511 -482.1259983508593
2512 -482.1235332418484
2513 -482.1262839360846
2514 -482.123507793753
2515 -482.1259750074227
2516 -482.1240101315196
2517 -482.1270905153812
2518 -482.1245426289944
2519 -482.128556964281
2520 -482.1255551988009
2521 -482.1278401851464
2522 -482.1249143524677
2523 -482.1281494201014
2524 -482.1257222216769
2525 -482.1290793227437
2526 -482.1253382000335
2527 -482.1288519206066
2528 -482.1279019722277
2529 -482.1309408769429
2530 -482.1269607586639
2531 -482.1303546031062
2532 -482.1286353369836
2533 -482.1321220336959
2534 -482.1287002828602
2535 -482.1307036371021
2536 -482.1257972714171
2537 -482.128313601886
2538 -482.1241718992364
2539 -482.1263938041824
2540 -482.1232700903585
2541 -482.1245587988538
2542 -482.1195873618836
2543 -482.1209477610155
2544 -482.1178402124736
2545 -482.1212299474922
2546 -482.1203444638013
2547 -482.1249996850851
2548 -482.1232302175357
2549 -482.1270582343476
2550 -482.1247114873033
2551 -482.1283387409456
2552 -482.1275828121234
2553 -482.1320707645438
2554 -482.130355471734
2555 -482.1345463127155
2556 -482.1330791852748
2557 -482.1359683478967
2558 -482.1330612878677
2559 -482.1341388078775
2560 -482.1312378570775
2561 -482.1348169884781
2562 -482.131701091832
2563 -482.1339035293092
2564 -482.1313900144841
2565 -482.1326761062418
2566 -482.1285645948319
2567 -482.1307724641024
2568 -482.128187996125
2569 -482.1314748035498
2570 -482.1300492536793
2571 -482.1322210019416
2572 -482.1286045072373
2573 -482.130009771767
2574 -482.1256601667236
2575 -482.1272463802605
2576 -482.1247450413084
2577 -482.1267792082334
2578 -482.1230028628099
2579 -482.1260738206007
2580 -482.12451590121
2581 -482.1267468851244
2582 -482.1249311054775
2583 -482.1285011620822
2584 -482.126758820278
2585 -482.1300473330456
2586 -482.1262379392425
2587 -482.1285449795403
2588 -482.1272361612576
2589 -482.1297681915046
2590 -482.1253800413131
2591 -482.1290318737115
2592 -482.1264409626431
2593 -482.1292630527716
2594 -482.1272169510353
2595 -482.1318927164073
2596 -482.1303793321353
2597 -482.133854814464
2598 -482.1315062281419
2599 -482.1351819137143
2600 -482.1323918797389
2601 -482.1352101788286
2602 -482.1317321471067
2603 -482.1345656341213
2604 -482.1309029940529
2605 -482.1332414414347
2606 -482.1305372563968
2607 -482.1337315980731
2608 -482.1297943506017
2609 -482.132680452196
2610 -482.127880840646
2611 -482.1311421166371
2612 -482.1294514393818
2613 -482.1326868055323
2614 -482.12731339651
2615 -482.129920599045
2616 -482.125876153259
2617 -482.1290467179606
2618 -482.1277413446018
2619 -482.1321464836454
2620 -482.1297528652929
2621 -482.1338315007596
2622 -482.1310313826895
2623 -482.1343297122727
2624 -482.1321221567773
2625 -482.1340971993368
2626 -482.1301035699237
2627 -482.132256894359
2628 -482.1283830745741
2629 -482.1303980359656
2630 -482.1288853639384
2631 -482.1312619216537
2632 -482.1277664581733
2633 -482.1302001626969
2634 -482.1265671253587
2635 -482.1283532832469
2636 -482.1244871712572
2637 -482.1258831284113
2638 -482.1235914567543
2639 -482.1274248259303
2640 -482.1256300441628
2641 -482.1275776158204
2642 -482.12442028629
2643 -482.1251018784542
2644 -482.1217057168321
2645 -482.1248848138014
2646 -482.1232735484381
2647 -482.1276992125412
2648 -482.1265474854247
2649 -482.1295195006988
2650 -482.1258851650415
2651 -482.1283775265655
2652 -482.12478214086
2653 -482.1277176847361
2654 -482.1257255291854
2655 -482.1298112027931
2656 -482.1272439379698
2657 -482.1305354672643
2658 -482.1276924021674
2659 -482.1313036950295
2660 -482.1297006738452
2661 -482.1326741130598
2662 -482.128828128852
2663 -482.1312930733219
2664 -482.1291904832655
2665 -482.1327620131697
2666 -482.1315135256418
2667 -482.1345022901369
2668 -482.1311012339008
2669 -482.1339055572081
2670 -482.1290786040066
2671 -482.1303490182539
2672 -482.1270864430412
2673 -482.1285490986327
2674 -482.1248698847261
2675 -482.1290271372702
2676 -482.127894414731
2677 -482.1330652092342
2678 -482.1320262091726
2679 -482.134135193676
2680 -482.1292881450515
2681 -482.1311548631821
2682 -482.1264989207104
2683 -482.1279011772536
2684 -482.1252325247536
2685 -482.1288242917018
2686 -482.1258750712847
2687 -482.1294075983986
2688 -482.1264521007596
2689 -482.1295253757357
2690 -482.1265796127956
2691 -482.1292190791593
2692 -482.1257977589345
2693 -482.1281611602542
2694 -482.1251072217075
2695 -482.1284593671477
2696 -482.128548977596
2697 -482.1319193197736
2698 -482.1298400714747
2699 -482.1333873836793
2700 -482.1312300952465
2701 -482.1340255064461
2702 -482.1313315736927
2703 -482.1338434448356
2704 -482.1303820481481
2705 -482.1329932406318
2706 -482.1309530011544
2707 -482.1343049285304
2708 -482.1325542310891
2709 -482.1343959776854
2710 -482.1314175145092
2711 -482.1332517930533
2712 -482.1300568419686
2713 -482.1323226976518
2714 -482.1296843942983
2715 -482.1306591433845
2716 -482.1272958921031
2717 -482.1300089827225
2718 -482.1268621936507
2719 -482.1296645852473
2720 -482.1266494186843
2721 -482.1286940057108
2722 -482.1245150146466
2723 -482.1282376473201
2724 -482.125394586785
2725 -482.1286918711255
2726 -482.1248896468593
2727 -482.127975367866
2728 -482.1258497754744
2729 -482.1294091595211
2730 -482.1264882346159
2731 -482.1297797171154
2732 -482.1269127714254
2733 -482.1292609471823
2734 -482.1246692257363
2735 -482.1273704521206
2736 -482.1231717987911
2737 -482.1268018933008
2738 -482.1261008244898
2739 -482.1306286275886
2740 -482.1291473485739
2741 -482.1329046185264
2742 -482.1291130224237
2743 -482.1317532568893
2744 -482.1291370909472
2745 -482.1324796470788
2746 -482.1296854879034
2747 -482.13325305706
2748 -482.1301043862774
2749 -482.1324328197807
2750 -482.129754021469
2751 -482.1316754984862
2752 -482.1282946281072
2753 -482.1311361376739
2754 -482.128293602663
2755 -482.1309773568116
2756 -482.1288766827806
2757 -482.131189234255
2758 -482.1265133234809
2759 -482.1293703298443
2760 -482.1254030470392
2761 -482.1275232133106
2762 -482.1251202472927
2763 -482.1270117466085
2764 -482.1228009893796
2765 -482.1264568917904
2766 -482.1251414310755
2767 -482.1293161408711
2768 -482.128806961585
2769 -482.1321136785344
2770 -482.1293232350453
2771 -482.130808357581
2772 -482.1270141544998
2773 -482.1293656562956
2774 -482.1276672585743
2775 -482.1312974342827
2776 -482.1287711584814
2777 -482.1310093453237
2778 -482.1267511887879
2779 -482.1289010580285
2780 -482.1262837648099
2781 -482.1273309115599
2782 -482.1241559389327
2783 -482.1264847841884
2784 -482.1249392890163
2785 -482.1275890471993
2786 -482.1256166897177
2787 -482.1270347733736
2788 -482.1235979609531
2789 -482.126541105601
2790 -482.1233432848155
2791 -482.1267012852174
2792 -482.1256090994258
2793 -482.1290576166966
2794 -482.1267527934307
2795 -482.1294704291067
2796 -482.126059580111
2797 -482.1282271747658
2798 -482.1254633490473
2799 -482.1277258502059
2800 -482.1236420008998
2801 -482.125858139322
2802 -482.1230356459429
2803 -482.1286982444053
2804 -482.1273570502702
2805 -482.1311233713888
2806 -482.1266246812807
2807 -482.1287457328402
2808 -482.1247112586206
2809 -482.1265407467415
2810 -482.1239470575412
2811 -482.127313903364
2812 -482.1254178694272
2813 -482.1282040848997
2814 -482.1249077398809
2815 -482.127787340296
2816 -482.124412966413
2817 -482.1265923863267
2818 -482.1237836992908
2819 -482.127775153773
2820 -482.1248797253858
2821 -482.1283441919312
2822 -482.1276971387775
2823 -482.131042701358
2824 -482.1281621708474
2825 -482.1302191374185
2826 -482.1271729437036
2827 -482.1289081518933
2828 -482.1266979292266
2829 -482.127913217381
2830 -482.1240188105201
2831 -482.127457901183
2832 -482.1260750044839
2833 -482.1299126875455
2834 -482.1281040858892
2835 -482.1308631910419
2836 -482.1270051202451
2837 -482.1294827584702
2838 -482.125760364163
2839 -482.1275052724863
2840 -482.1255207542981
2841 -482.1289377644528
2842 -482.1266536082726
2843 -482.1305193720765
2844 -482.1287780915109
2845 -482.131774331793
2846 -482.1296520845592
2847 -482.1331370427989
2848 -482.1309207242759
2849 -482.1321988544994
2850 -482.1274585055948
2851 -482.1281969891092
2852 -482.1238688976844
2853 -482.124437939173
2854 -482.1202395294198
2855 -482.1235376952646
2856 -482.1221110982971
2857 -482.1258658683666
2858 -482.1256450374494
2859 -482.1293058574855
2860 -482.127719303874
2861 -482.1301732607368
2862 -482.1259766882462
2863 -482.1274767861084
2864 -482.1247870126345
2865 -482.1274735001764
2866 -482.1246073775596
2867 -482.1280781764801
2868 -482.1259192109316
2869 -482.130645333178
2870 -482.1277128777888
2871 -482.1300258340483
2872 -482.1259137169172
2873 -482.1280841746811
2874 -482.1238020263614
2875 -482.1265125567087
2876 -482.1237164498531
2877 -482.1263598164396
2878 -482.1238936242253
2879 -482.1283774983622
2880 -482.1261564029256
2881 -482.1298556362175
2882 -482.1273304383332
2883 -482.1302986936503
2884 -482.1259617040664
2885 -482.1276614809531
2886 -482.1238651812215
2887 -482.127325251448
2888 -482.1251787437092
2889 -482.1289288729856
2890 -482.1259238935625
2891 -482.1298942005282
2892 -482.1267189760235
2893 -482.1282617158889
2894 -482.1243193640701
2895 -482.1263706732904
2896 -482.1233498371638
2897 -482.1266560906408
2898 -482.124505694053
2899 -482.1276420531708
2900 -482.124721130258
2901 -482.12574617095
2902 -482.1232834084041
2903 -482.1267967374477
2904 -482.1257323707418
2905 -482.1291562715756
2906 -482.1285280113174
2907 -482.1317224251732
2908 -482.1294934489553
2909 -482.1311691813719
2910 -482.1285012628821
2911 -482.1314650688031
2912 -482.1302176228339
2913 -482.1329831744993
2914 -482.1296613821194
2915 -482.1321139810333
2916 -482.1289725173124
2917 -482.1311160159529
2918 -482.1277031815984
2919 -482.1296938978629
2920 -482.1272455019346
2921 -482.1298784390513
2922 -482.127944168951
2923 -482.1327876885396
2924 -482.1329454716649
2925 -482.1365744335577
2926 -482.132878901366
2927 -482.1352166179998
2928 -482.1306146958889
2929 -482.1312341308409
2930 -482.1264606293513
2931 -482.1295743601361
2932 -482.1268987650874
2933 -482.1299799341728
2934 -482.126811364838
2935 -482.1298956769637
2936 -482.1259522119047
2937 -482.127686604883
2938 -482.124512416771
2939 -482.1283050506903
2940 -482.1266019732439
2941 -482.1303940075597
2942 -482.1275129095187
2943 -482.1291357095596
2944 -482.1257638480359
2945 -482.1281018868085
2946 -482.1241076974691
2947 -482.1263024367921
2948 -482.1235623208612
2949 -482.1258898058044
2950 -482.1215295243595
2951 -482.1245423343191
2952 -482.1228623514612
2953 -482.1278654880252
2954 -482.1275860042496
2955 -482.1320615464548
2956 -482.1290374873614
2957 -482.131571477012
2958 -482.1268740021145
2959 -482.1298114089179
2960 -482.1282237458884
2961 -482.1318933463575
2962 -482.1285900824448
2963 -482.1319271194391
2964 -482.129231950687
2965 -482.1325747839867
2966 -482.1300783103288
2967 -482.1312845814579
2968 -482.1254462410402
2969 -482.1276060173356
2970 -482.1237721621125
2971 -482.1266040431066
2972 -482.1244455086177
2973 -482.1270381277639
2974 -482.1252661158948
2975 -482.1297768152847
2976 -482.1286420216426
2977 -482.131140284501
2978 -482.1282711453171
2979 -482.1294285420787
2980 -482.1258202416658
2981 -482.1264418727354
2982 -482.1222011430359
2983 -482.1241421054204
2984 -482.1223668947256
2985 -482.1254580676197
2986 -482.1236827346862
2987 -482.1272015649431
2988 -482.1233110018273
2989 -482.1247605281783
2990 -482.1231526675421
2991 -482.1270465686333
2992 -482.1245885037518
2993 -482.1264194634086
2994 -482.1233597360584
2995 -482.1274854692301
2996 -482.1265402800288
2997 -482.129982167693
2998 -482.1260639461571
2999 -482.1291234215877
3000 -482.1249644528463
3001 -482.1279260142884
3002 -482.1257623939553
3003 -482.1294279967889
3004 -482.1258155899915
3005 -482.129076433603
3006 -482.1245475995972
3007 -482.1261294399595
3008 -482.12305683745
3009 -482.1250276258447
3010 -482.1218076223495
3011 -482.1252097014143
3012 -482.1227197946401
3013 -482.125436122929
3014 -482.1228859150037
3015 -482.1254542190675
3016 -482.1229172032033
3017 -482.1258350210487
3018 -482.1226654497576
3019 -482.1246885616285
3020 -482.1231358079291
3021 -482.1269926386422
3022 -482.1256648906243
3023 -482.1302545376814
3024 -482.1274676641777
3025 -482.1297013982975
3026 -482.1263578807826
3027 -482.1282730380331
3028 -482.1254042013771
3029 -482.1288036483524
3030 -482.1258146540553
3031 -482.1294883340109
3032 -482.1282983770455
3033 -482.1319451050496
3034 -482.1296191513411
3035 -482.1332559197976
3036 -482.1324150933447
3037 -482.1362940169563
3038 -482.1335997974775
3039 -482.1357509576058
3040 -482.1306309860205
3041 -482.1297375742815
3042 -482.1241225713935
3043 -482.1256235222086
3044 -482.122513062132
3045 -482.1248223266256
3046 -482.1229641383312
3047 -482.1274698697495
3048 -482.1251251137218
3049 -482.1278663224017
3050 -482.1262453231971
3051 -482.1292479958993
3052 -482.1253652575634
3053 -482.1279272621857
3054 -482.1243894396079
3055 -482.127017559528
3056 -482.1251006728143
3057 -482.1289810003497
3058 -482.1277797331629
3059 -482.1321758842706
3060 -482.130448911528
3061 -482.1331499894172
3062 -482.1305419225836
3063 -482.1322414428998
3064 -482.1298178806236
3065 -482.1317363836077
3066 -482.1273921959302
3067 -482.1305400938232
3068 -482.1278755709806
3069 -482.1309565657273
3070 -482.1279215555664
3071 -482.1328384404708
3072 -482.1309465398142
3073 -482.1341659230227
3074 -482.131016102642
3075 -482.1318504805539
3076 -482.1267386993535
3077 -482.1272449840266
3078 -482.1219903969401
3079 -482.124838474359
3080 -482.1234721497144
3081 -482.1277357134172
3082 -482.126105027577
3083 -482.1313699289482
3084 -482.1287888397033
3085 -482.1326798645945
3086 -482.1295153118392
3087 -482.1304998648004
3088 -482.1259307679566
3089 -482.1281546850743
3090 -482.124576402073
3091 -482.1282969003188
3092 -482.1279410475357
3093 -482.1323341418453
3094 -482.1304639204022
3095 -482.1338781517916
3096 -482.130304153035
3097 -482.1324051212383
3098 -482.1295986828387
3099 -482.1321409867648
3100 -482.1295149551446
3101 -482.1336998777667
3102 -482.1314134326843
3103 -482.1343913178767
3104 -482.1324161360776
3105 -482.1328950469907
3106 -482.1279948347548
3107 -482.1310856211196
3108 -482.1292623088298
3109 -482.1332371830526
3110 -482.1322720664581
3111 -482.1353209855476
3112 -482.1321355166858
3113 -482.1337294065104
3114 -482.1288378987549
3115 -482.1306504945087
3116 -482.1275510216457
3117 -482.1305914197448
3118 -482.128185219533
3119 -482.1336606679012
3120 -482.1325433064904
3121 -482.1366337061304
3122 -482.1338971477365
3123 -482.1350632346857
3124 -482.1294801108439
3125 -482.1307671426378
3126 -482.1260841657501
3127 -482.1293105703846
3128 -482.1293209269121
3129 -482.1351966904148
3130 -482.133059460447
3131 -482.1368291101285
3132 -482.1325563923008
3133 -482.1325979778812
3134 -482.1270236625304
3135 -482.1289357257804
3136 -482.1253913774985
3137 -482.1300242050319
3138 -482.1283123402432
3139 -482.1325355956865
3140 -482.1288645251262
3141 -482.1301411016213
3142 -482.1238471195818
3143 -482.1245804341362
3144 -482.1206579271746
3145 -482.1234051879523
3146 -482.122692152444
3147 -482.1280998047455
3148 -482.1264474970209
3149 -482.1298677838678
3150 -482.1253061649866
3151 -482.1273040254042
3152 -482.1240094099763
3153 -482.1260975111518
3154 -482.1226537181594
3155 -482.1273362493994
3156 -482.1264811648318
3157 -482.1307173870958
3158 -482.1291776495495
3159 -482.1320354698136
3160 -482.1282173771272
3161 -482.1294223683089
3162 -482.1245993566507
3163 -482.1273352022104
3164 -482.1260829371013
3165 -482.1304140648101
3166 -482.1275906720819
3167 -482.1305558755564
3168 -482.1273799005675
3169 -482.1304834533247
3170 -482.1284642434186
3171 -482.1311367789015
3172 -482.1285102723474
3173 -482.1319465526936
3174 -482.1302823064485
3175 -482.1339880213517
3176 -482.1322650625464
3177 -482.1344160474974
3178 -482.1307208787369
3179 -482.1332585230742
3180 -482.1289442297543
3181 -482.1306167603922
3182 -482.1281237375259
3183 -482.1310552262311
3184 -482.1286765066143
3185 -482.1321056113736
3186 -482.1279993991699
3187 -482.1296427741713
3188 -482.126302234176
3189 -482.127666665761
3190 -482.1231603328508
3191 -482.1254947384285
3192 -482.1223214790953
3193 -482.1265733134705
3194 -482.1255932633126
3195 -482.1307114110688
3196 -482.1287716629357
3197 -482.1321810189715
3198 -482.1286696573287
3199 -482.1299552914217
3200 -482.1260838334157
3201 -482.1271987092288
3202 -482.122217939275
3203 -482.1256282750115
3204 -482.1233220515375
3205 -482.127862039725
3206 -482.1280318018604
3207 -482.1335123604442
3208 -482.1314001042302
3209 -482.1350734705409
3210 -482.1307358034219
3211 -482.1336537188523
3212 -482.1312603489784
3213 -482.1344008123184
3214 -482.1306903354572
3215 -482.1327340483594
3216 -482.1288896530882
3217 -482.1313440994605
3218 -482.1288102920191
3219 -482.1315145968384
3220 -482.1287352147118
3221 -482.1328711462928
3222 -482.130004441716
3223 -482.1337017588293
3224 -482.1300905312007
3225 -482.1305317788351
3226 -482.1257569298494
3227 -482.1274155874495
3228 -482.1236168382302
3229 -482.1257533127749
3230 -482.1223629666374
3231 -482.1249747158743
3232 -482.1219725459603
3233 -482.124338556993
3234 -482.1208306907868
3235 -482.1240950626328
3236 -482.1213471091603
3237 -482.1243026767643
3238 -482.121405296783
3239 -482.1259249682234
3240 -482.1238816655175
3241 -482.1270328525331
3242 -482.1246689368764
3243 -482.126592856147
3244 -482.1244208404709
3245 -482.1293682633469
3246 -482.1281311179274
3247 -482.1314668676424
3248 -482.1299027933818
3249 -482.1325597557553
3250 -482.1281815259425
3251 -482.1316636919582
3252 -482.1293098018094
3253 -482.1320260306096
3254 -482.1306894376006
3255 -482.1335813501057
3256 -482.1306392103195
3257 -482.1327619067538
3258 -482.1285923384882
3259 -482.131322834205
3260 -482.1305148283878
3261 -482.1321893218737
3262 -482.127984000593
3263 -482.1303398560686
3264 -482.1270314260352
3265 -482.1294842184698
3266 -482.1266030185622
3267 -482.1296797870872
3268 -482.1261133774526
3269 -482.1281104471356
3270 -482.1244017444149
3271 -482.1277806794942
3272 -482.1255965678997
3273 -482.1286937316248
3274 -482.1257160426532
3275 -482.1290813105223
3276 -482.1250575031996
3277 -482.1265631213143
3278 -482.1228746525138
3279 -482.1244637212293
3280 -482.1212965549419
3281 -482.1252677421056
3282 -482.1232388773765
3283 -482.1279755268761
3284 -482.1261468338607
3285 -482.1293803545593
3286 -482.1253766768976
3287 -482.1279866385124
3288 -482.1248014553686
3289 -482.1284031467529
3290 -482.1252290027435
3291 -482.1277976047193
3292 -482.1242910389425
3293 -482.1275724286456
3294 -482.1236906002918
3295 -482.1269526276061
3296 -482.1242269285856
3297 -482.1257344476367
3298 -482.1222114821571
3299 -482.1253110442372
3300 -482.1227285576416
3301 -482.1262140352209
3302 -482.1248492013994
3303 -482.1286095252253
3304 -482.1255000879679
3305 -482.1285907365169
3306 -482.1255625067076
3307 -482.1280068885334
3308 -482.1261616985342
3309 -482.1285723628356
3310 -482.1251684819932
3311 -482.128163717005
3312 -482.1265764783058
3313 -482.1294976833923
3314 -482.1271294570342
3315 -482.1297578347278
3316 -482.1269742402527
3317 -482.1304221702614
3318 -482.1272443164668
3319 -482.1310873084485
3320 -482.1295045681011
3321 -482.1323656775689
3322 -482.1277378809613
3323 -482.1304679294458
3324 -482.1269425953911
3325 -482.1293157212852
3326 -482.1254773612832
3327 -482.1264913838029
3328 -482.1218379474448
3329 -482.1247019286142
3330 -482.1221663842681
3331 -482.1271586270419
3332 -482.1263757944322
3333 -482.1308628354169
3334 -482.1266576523319
3335 -482.1293268911511
3336 -482.124518223096
3337 -482.1275608795393
3338 -482.1247830660971
3339 -482.1287508780645
3340 -482.1255601617782
3341 -482.1296654279867
3342 -482.1248612718982
3343 -482.1271645450781
3344 -482.1243126531858
3345 -482.1277204857507
3346 -482.1252005390637
3347 -482.1305353314227
3348 -482.1287804862929
3349 -482.1333936988591
3350 -482.1319799420954
3351 -482.1345374867148
3352 -482.1297214515461
3353 -482.1317727782577
3354 -482.1270832913516
3355 -482.1301359554701
3356 -482.1278829527065
3357 -482.1318388280018
3358 -482.1294547163252
3359 -482.1338755773795
3360 -482.1310512024397
3361 -482.1340041443025
3362 -482.1305068709275
3363 -482.1314913902343
3364 -482.1274255222786
3365 -482.1301430431366
3366 -482.126200529691
3367 -482.1289702544806
3368 -482.127903038562
3369 -482.1310514560626
3370 -482.1275090881934
3371 -482.1294130328552
3372 -482.1263786646784
3373 -482.1296805556943
3374 -482.1265401480881
3375 -482.1296383436762
3376 -482.1279513753813
3377 -482.1306372682741
3378 -482.1276899866256
3379 -482.1302441639309
3380 -482.1281204463677
3381 -482.1308532469999
3382 -482.1295304327812
3383 -482.1341347267149
3384 -482.1320911881685
3385 -482.1344850292091
3386 -482.1318370399384
3387 -482.1330789548539
3388 -482.1283575515794
3389 -482.1293613435894
3390 -482.1241107213464
3391 -482.1265209287698
3392 -482.1238557906059
3393 -482.1265476682544
3394 -482.123081058106
3395 -482.127793716196
3396 -482.1246810114071
3397 -482.1290585200159
3398 -482.126115697172
3399 -482.1287567498898
3400 -482.1243934633665
3401 -482.1267259157697
3402 -482.1221100360922
3403 -482.1240165359433
3404 -482.1208753248034
3405 -482.1247142356029
3406 -482.1227039721379
3407 -482.1287228930731
3408 -482.1274010057166
3409 -482.1313883535838
3410 -482.1282180925541
3411 -482.1291488305309
3412 -482.1240755591866
3413 -482.1263576607281
3414 -482.1228713986533
3415 -482.1265878998656
3416 -482.1253268423716
3417 -482.1295397766447
3418 -482.1274027716992
3419 -482.1305022450915
3420 -482.1261353023176
3421 -482.1285654793219
3422 -482.1263715942433
3423 -482.1293849638406
3424 -482.1260869679306
3425 -482.1279313981281
3426 -482.1245617886614
3427 -482.1267325710248
3428 -482.1242473920171
3429 -482.128096287934
3430 -482.125802050847
3431 -482.1292610541851
3432 -482.1269373542431
3433 -482.1306971206695
3434 -482.1282186301519
3435 -482.1303236959573
3436 -482.1265778284577
3437 -482.1295991639898
3438 -482.1259469888395
3439 -482.1287174769187
3440 -482.1268536752588
3441 -482.1301846809111
3442 -482.1281672449717
3443 -482.1331067716656
3444 -482.1323666080019
3445 -482.1354630780247
3446 -482.1319783881622
3447 -482.1330705334859
3448 -482.1295071919249
3449 -482.1314582355312
3450 -482.127204179213
3451 -482.1295411198453
3452 -482.1278499255186
3453 -482.1310403208532
3454 -482.1271519421255
3455 -482.128593109734
3456 -482.1246796591007
3457 -482.1268038251065
3458 -482.1250408709133
3459 -482.1279799245596
3460 -482.1242805031367
3461 -482.1277281332949
3462 -482.1242184440464
3463 -482.128095347586
3464 -482.1260499199586
3465 -482.1294220278432
3466 -482.1269922752793
3467 -482.1303889667407
3468 -482.1269786988399
3469 -482.1285107887786
3470 -482.1265762047155
3471 -482.1299538524184
3472 -482.1277815326405
3473 -482.1321331721699
3474 -482.1292047620225
3475 -482.131855774212
3476 -482.1284699120085
3477 -482.1301178566056
3478 -482.1255184611637
3479 -482.1287369543501
3480 -482.1271203944935
3481 -482.1314751947567
3482 -482.1297601276015
3483 -482.1329246274806
3484 -482.1302303514862
3485 -482.1321831567088
3486 -482.1280036685716
3487 -482.1309737175806
3488 -482.1298084867136
3489 -482.1333209904451
3490 -482.1310266634043
3491 -482.1338208630172
3492 -482.131650987163
3493 -482.1348360892259
3494 -482.1322717526639
3495 -482.1350756995745
3496 -482.1305125854646
3497 -482.1316270787119
3498 -482.1275513336513
3499 -482.1300969309248
3500 -482.1286614839449
3501 -482.1307869112192
3502 -482.1264859005725
3503 -482.1278525282021
3504 -482.1246742297553
3505 -482.1275514771056
3506 -482.125962721716
3507 -482.1294371343548
3508 -482.1273409921194
3509 -482.1306333822654
3510 -482.1274308301155
3511 -482.1301148911234
3512 -482.1275626588582
3513 -482.1290391301536
3514 -482.1258378013237
3515 -482.1288184155773
3516 -482.126924601286
3517 -482.129471345639
3518 -482.1279631807344
3519 -482.1305207381795
3520 -482.1285086216236
3521 -482.1313185199253
3522 -482.1285383683246
3523 -482.1311231138418
3524 -482.1288410672141
3525 -482.1317760024259
3526 -482.1290034206573
3527 -482.1320634584708
3528 -482.1288002377482
3529 -482.131278420812
3530 -482.1280446030628
3531 -482.1298306079495
3532 -482.1268839965658
3533 -482.130407050594
3534 -482.1281526513907
3535 -482.1314749198397
3536 -482.1299538272116
3537 -482.1329969711894
3538 -482.1292822553211
3539 -482.1308869724025
3540 -482.1268499886385
3541 -482.1286126175345
3542 -482.1248539062913
3543 -482.1272839598922
3544 -482.1245219591488
3545 -482.127751704026
3546 -482.125185499127
3547 -482.1271877723646
3548 -482.1239030316772
3549 -482.1244563524955
3550 -482.1211271093495
3551 -482.1240373851612
3552 -482.1225680404832
3553 -482.1268762600176
3554 -482.1264529012464
3555 -482.1304071141782
3556 -482.1278749157551
3557 -482.1293433383772
3558 -482.1249945969694
3559 -482.1272439923949
3560 -482.1257397165621
3561 -482.1301655289782
3562 -482.1291345659101
3563 -482.1336244008662
3564 -482.1316172536932
3565 -482.1335378300502
3566 -482.1292362120163
3567 -482.129776855534
3568 -482.1259132717534
3569 -482.1296967693342
3570 -482.1282286690949
3571 -482.1337213928475
3572 -482.1325100109403
3573 -482.1356147813369
3574 -482.1319549462066
3575 -482.1343840615053
3576 -482.130261755358
3577 -482.1311010028637
3578 -482.1282349425427
3579 -482.1299578565165
3580 -482.1287195655204
3581 -482.1320356453768
3582 -482.1297655769364
3583 -482.1314792073302
3584 -482.127396935895
3585 -482.1275108921957
3586 -482.1223131296356
3587 -482.1243921589006
3588 -482.1218909522807
3589 -482.1262539011552
3590 -482.1245837695512
3591 -482.1281793292449
3592 -482.1251562561575
3593 -482.1272566988935
3594 -482.1223402976342
3595 -482.1244631434764
3596 -482.1233936985273
3597 -482.1273790399921
3598 -482.1266068487849
3599 -482.133479215758
3600 -482.1314102891143
3601 -482.1333615055674
3602 -482.1295832906656
3603 -482.1308028944803
3604 -482.1258162126505
3605 -482.1279484178128
3606 -482.124809834754
3607 -482.1290454272805
3608 -482.1278876069062
3609 -482.1305816788854
3610 -482.127387529119
3611 -482.129935144399
3612 -482.1263242931342
3613 -482.1285599495719
3614 -482.1259652622091
3615 -482.1289285024538
3616 -482.1266395553553
3617 -482.1314730628995
3618 -482.1286340931682
3619 -482.1319810446401
3620 -482.1300873514087
3621 -482.1324423525206
3622 -482.1283974310451
3623 -482.1310799529515
3624 -482.1269201124006
3625 -482.1293747851083
3626 -482.1272487899813
3627 -482.1304768065769
3628 -482.128079156187
3629 -482.1313949616775
3630 -482.1281928644938
3631 -482.1314174759105
3632 -482.1286317334412
3633 -482.1302962146771
3634 -482.1268373706407
3635 -482.1285114821063
3636 -482.1255299907775
3637 -482.1283271977628
3638 -482.1264548114174
3639 -482.1279227026563
3640 -482.1232968962596
3641 -482.1248994298956
3642 -482.1201635472729
3643 -482.1221079036458
3644 -482.1209878817202
3645 -482.1245669093252
3646 -482.1235826117407
3647 -482.1266921140235
3648 -482.1247662254411
3649 -482.1263281263006
3650 -482.1235202044472
3651 -482.1271498345386
3652 -482.125202586788
3653 -482.1286443699337
3654 -482.125695967636
3655 -482.1284141242869
3656 -482.1257370264511
3657 -482.1282191230561
3658 -482.1253300822385
3659 -482.1284326560435
3660 -482.1266521881089
3661 -482.1305969576909
3662 -482.1289568874398
3663 -482.13275895774
3664 -482.1297639756735
3665 -482.132787472765
3666 -482.1297905395737
3667 -482.1328671101007
3668 -482.1308214427879
3669 -482.1332845625805
3670 -482.1297089166844
3671 -482.1325403502581
3672 -482.1296074801046
3673 -482.1316136261721
3674 -482.1282637126023
3675 -482.1305611661622
3676 -482.1265055068273
3677 -482.1279103370446
3678 -482.1231939901762
3679 -482.1256078257194
3680 -482.1238599866857
3681 -482.1284022952704
3682 -482.1271076050431
3683 -482.1300933989401
3684 -482.1260492874956
3685 -482.1272610918011
3686 -482.1231205018096
3687 -482.1263646306847
3688 -482.1230882169871
3689 -482.1259143822369
3690 -482.1222160312295
3691 -482.1252959676332
3692 -482.1247759747286
3693 -482.1284766933896
3694 -482.1263973556493
3695 -482.1288777076653
3696 -482.125287168336
3697 -482.1274391587943
3698 -482.1243305484952
3699 -482.1261297985926
3700 -482.1238723734488
3701 -482.1282249288942
3702 -482.1264133968199
3703 -482.1293105639942
3704 -482.1279747091388
3705 -482.1308402916807
3706 -482.1275732003299
3707 -482.1297468659816
3708 -482.1262385283802
3709 -482.1281633939711
3710 -482.1262494486315
3711 -482.129643095764
3712 -482.1276602315489
3713 -482.1317963125545
3714 -482.1285355868142
3715 -482.1314478906506
3716 -482.1280987205913
3717 -482.1298744512683
3718 -482.1249300242383
3719 -482.1273536288857
3720 -482.123469079939
3721 -482.1254842108384
3722 -482.1244977011743
3723 -482.1291867333295
3724 -482.1269256547482
3725 -482.1303808965353
3726 -482.1272878448885
3727 -482.1317478692764
3728 -482.1297120110301
3729 -482.1317531743904
3730 -482.1258758415725
3731 -482.1272591829058
3732 -482.1228927079714
3733 -482.1258715887245
3734 -482.1226067854267
3735 -482.1264220499209
3736 -482.1238588511895
3737 -482.1269796141172
3738 -482.1245813417231
3739 -482.1268896577089
3740 -482.1234022421255
3741 -482.1258925027662
3742 -482.1227142748991
3743 -482.1262847756578
3744 -482.1244913126642
3745 -482.1262535236743
3746 -482.1229306274502
3747 -482.1251289609321
3748 -482.1220157208444
3749 -482.1251129182455
3750 -482.1244734126969
3751 -482.1291465876387
3752 -482.1265832891312
3753 -482.1295376032518
3754 -482.1263738773167
3755 -482.1300723700896
3756 -482.1276612267636
3757 -482.1293728584287
3758 -482.1258467427395
3759 -482.1272045384887
3760 -482.1245085660828
3761 -482.127827911408
3762 -482.1261234758684
3763 -482.1284661505868
3764 -482.126575091507
3765 -482.1293295419859
3766 -482.1260746988734
3767 -482.1292778436622
3768 -482.1272138784771
3769 -482.128865458208
3770 -482.1267535818497
3771 -482.1292855610928
3772 -482.1267840808882
3773 -482.129039628574
3774 -482.1257842770582
3775 -482.1262622361659
3776 -482.1224836226735
3777 -482.124868304107
3778 -482.1223617823941
3779 -482.1267242770334
3780 -482.1256477646763
3781 -482.1285395634912
3782 -482.1248467149647
3783 -482.1258901047995
3784 -482.1219580416706
3785 -482.1253757189847
3786 -482.1233684159866
3787 -482.1280375266142
3788 -482.1266632639694
3789 -482.1303844464359
3790 -482.1278055987491
3791 -482.1315703199444
3792 -482.1291564821003
3793 -482.1317471386878
3794 -482.1283076291434
3795 -482.1305619173801
3796 -482.1258998139779
3797 -482.1287779314255
3798 -482.1271052860603
3799 -482.1322801222001
3800 -482.1308516297887
3801 -482.1350259326426
3802 -482.1322458539041
3803 -482.1337743120214
3804 -482.1293988929726
3805 -482.129559191638
3806 -482.1242521215436
3807 -482.1260454010677
3808 -482.1214705493538
3809 -482.1237777164234
3810 -482.1205652210268
3811 -482.1238471322663
3812 -482.1226539205862
3813 -482.1262818923337
3814 -482.1231130092841
3815 -482.1251454381809
3816 -482.1222531463471
3817 -482.1239559962877
3818 -482.1207511729258
3819 -482.1242669412509
3820 -482.1223253982422
3821 -482.1258107633685
3822 -482.1240817778321
3823 -482.127355545664
3824 -482.1244219355053
3825 -482.1270023380022
3826 -482.1238153703677
3827 -482.127486715984
3828 -482.1261888290103
3829 -482.1303473721003
3830 -482.1290469646913
3831 -482.1326647993677
3832 -482.1310031865116
3833 -482.1355126205235
3834 -482.1339430724533
3835 -482.1364074309993
3836 -482.1335733207934
3837 -482.136055453909
3838 -482.1321365811719
3839 -482.1343757842372
3840 -482.1323383863787
3841 -482.1352614079027
3842 -482.1317261324905
3843 -482.1333650439926
3844 -482.1291390225588
3845 -482.1310249883559
3846 -482.1264779548354
3847 -482.1286124211315
3848 -482.1255518287154
3849 -482.1280740070491
3850 -482.125355892538
3851 -482.1290534004482
3852 -482.1255947952457
3853 -482.1274130822569
3854 -482.1224647173161
3855 -482.1246737515189
3856 -482.120404762461
3857 -482.122131024421
3858 -482.1184228309957
3859 -482.1208084763844
3860 -482.1180628225542
3861 -482.1213482082815
3862 -482.1188915928233
3863 -482.1230633307839
3864 -482.1216564867369
3865 -482.1253311623904
3866 -482.1223687264823
3867 -482.1261478633342
3868 -482.1243245435019
3869 -482.1290844528189
3870 -482.126594516728
3871 -482.1291931747351
3872 -482.1252182496127
3873 -482.1264434982623
3874 -482.1233262382157
3875 -482.128511217851
3876 -482.1290938931875
3877 -482.1337017053968
3878 -482.1308191752633
3879 -482.1329370585844
3880 -482.1276051483964
3881 -482.1274055473046
3882 -482.1231313632528
3883 -482.1260929614382
3884 -482.1237287028175
3885 -482.1283166821888
3886 -482.126766366871
3887 -482.1302247700005
3888 -482.127789532379
3889 -482.1307474769391
3890 -482.1278208903411
3891 -482.1293131988352
3892 -482.1252938478671
3893 -482.126907836173
3894 -482.1235456004773
3895 -482.1264194111174
3896 -482.1256049672378
3897 -482.1290235869163
3898 -482.1256430990191
3899 -482.1273121242505
3900 -482.1242295559263
3901 -482.1254283592774
3902 -482.1223471318513
3903 -482.1240496356936
3904 -482.1208881667669
3905 -482.1239275780464
3906 -482.1218469834311
3907 -482.125119199445
3908 -482.1231382319249
3909 -482.1271848137494
3910 -482.1256937177436
3911 -482.1310753968303
3912 -482.1305388974824
3913 -482.13261126954
3914 -482.1280831412832
3915 -482.1281679018302
3916 -482.1237487095006
3917 -482.1267291415812
3918 -482.1245376900071
3919 -482.1288914188669
3920 -482.1267337072009
3921 -482.1304396199722
3922 -482.1272715946153
3923 -482.1306486838459
3924 -482.1290062680917
3925 -482.1318521759967
3926 -482.1293830401727
3927 -482.1323257180131
3928 -482.130589594758
3929 -482.1330074653754
3930 -482.1307278123938
3931 -482.1345860521361
3932 -482.1313772982522
3933 -482.1332629001944
3934 -482.1287660860057
3935 -482.1315898004199
3936 -482.1278263376113
3937 -482.1315294937895
3938 -482.1295004507325
3939 -482.13332411895
3940 -482.1300808721222
3941 -482.1325753670747
3942 -482.1279589030617
3943 -482.1284544882252
3944 -482.1234502875068
3945 -482.123838655087
3946 -482.1194425547789
3947 -482.1230710913257
3948 -482.1224457974251
