"mx-rfile"
"Iteration" "mx"
("Iteration" "mx")
1 174.4009534132553
2 242.02222036577
3 402.7836569056017
4 534.4126514532189
5 634.4745801985849
6 693.704440365634
7 742.8200081353945
8 805.9001991333726
9 936.2732386370219
10 1115.331991070728
11 1237.732646592741
12 1328.824826221703
13 1377.034756996602
14 1395.070458262468
15 1385.661932002967
16 1352.325156246416
17 1302.214474376887
18 1243.46726731946
19 1181.263773064642
20 1107.628351079655
21 1039.417105880834
22 977.8343975475492
23 933.4539935002616
24 912.8030654694828
25 905.1405919314385
26 909.1869351696463
27 919.7360066129244
28 938.1023498412427
29 958.1795823237173
30 982.4359540611447
31 1010.37251971886
32 1040.684083662396
33 1078.556323843211
34 1115.102114325776
35 1148.764288506248
36 1185.83098958195
37 1212.054848673911
38 1239.659088191305
39 1258.25526566716
40 1270.841949011185
41 1281.347856082358
42 1288.140957857521
43 1294.072838711836
44 1299.407261183405
45 1305.623017050907
46 1309.838520370561
47 1314.798987392097
48 1318.388150953541
49 1322.699547373664
50 1325.862759938937
51 1329.793995334625
52 1332.780198345994
53 1335.646790164846
54 1338.731179072382
55 1340.704671705704
56 1344.295687646551
57 1346.571025906628
58 1349.390580108309
59 1352.181151700665
60 1355.54827471809
61 1358.979989881437
62 1362.904058325937
63 1366.946600874762
64 1373.313614210137
65 1377.320203001151
66 1381.609762041317
67 1385.842977857162
68 1390.185789071925
69 1394.435917354374
70 1398.722081542104
71 1402.749937636364
72 1406.838829208615
73 1410.683710197946
74 1414.554549036656
75 1418.064322527193
76 1421.614850380776
77 1424.750877572848
78 1427.872889185791
79 1430.581268132608
80 1433.292519056525
81 1435.586758379472
82 1437.932297240333
83 1439.793996237837
84 1441.709015403471
85 1443.234298559018
86 1444.833287447614
87 1446.045188830106
88 1447.36394587103
89 1448.338696193063
90 1449.434643287893
91 1450.175991391883
92 1451.100014394697
93 1451.667887680521
94 1452.441612475362
95 1452.90091850208
96 1453.569774115189
97 1453.97887720945
98 1454.618930492069
99 1454.981164968152
100 1455.60080897359
101 1455.953120738593
102 1456.573310518534
103 1456.967390475814
104 1457.616227178422
105 1458.038529184558
106 1458.736193331458
107 1459.216083858607
108 1459.968878411419
109 1460.526631917842
110 1461.329589101575
111 1461.931787564416
112 1462.81057433295
113 1463.493035463302
114 1464.444072002324
115 1465.208987944463
116 1466.2523502975
117 1467.070619066081
118 1468.171009091553
119 1469.063299857806
120 1470.244717396084
121 1471.211730573603
122 1472.465651088668
123 1473.516237400569
124 1474.853875718072
125 1475.975296375554
126 1477.393421322517
127 1478.593698465256
128 1480.094656404113
129 1481.360501762902
130 1482.937282345222
131 1484.290561207323
132 1485.948748448382
133 1487.374304178993
134 1489.097328092241
135 1490.584968824517
136 1492.376060394787
137 1493.942656278872
138 1495.795193591935
139 1497.410671548577
140 1499.342299984811
141 1500.995417143166
142 1502.946795541344
143 1504.634815109082
144 1506.628075442772
145 1508.322928410994
146 1510.323918593442
147 1512.058185415239
148 1514.070691912899
149 1515.840666621836
150 1517.877955808837
151 1519.614798687635
152 1521.63800489857
153 1523.374641030158
154 1525.398937015072
155 1527.098101083995
156 1529.10088911727
157 1530.74735152297
158 1532.704779001887
159 1534.331659586863
160 1536.236720188033
161 1537.797609624406
162 1539.633080363753
163 1541.137510980546
164 1542.909666658436
165 1544.329921929281
166 1546.018052029154
167 1547.376714602689
168 1548.98723849703
169 1550.27372464393
170 1551.794852222821
171 1552.988688556281
172 1554.432081406556
173 1555.522954300144
174 1556.857183613674
175 1557.855667539015
176 1559.097663074354
177 1560.006567225981
178 1561.158337538949
179 1561.949455438689
180 1563.006864091628
181 1563.712188322477
182 1564.665411419543
183 1565.283517393448
184 1566.15013843423
185 1566.676992611302
186 1567.457115426715
187 1567.900357877625
188 1568.602048259254
189 1568.973865798608
190 1569.591045767275
191 1569.885606744542
192 1570.425769449929
193 1570.650719523819
194 1571.12157903699
195 1571.269858519941
196 1571.680165675224
197 1571.787902425253
198 1572.140682487124
199 1572.186946137356
200 1572.491598207443
201 1572.501015681056
202 1572.761919261168
203 1572.724681946686
204 1572.937044245449
205 1572.879311159481
206 1573.057925097042
207 1572.94961542478
208 1573.121968733937
209 1573.009080989935
210 1573.16123923435
211 1573.031793109555
212 1573.184620435591
213 1573.045598468169
214 1573.17569787141
215 1573.027057736572
216 1573.170961454807
217 1573.037858842544
218 1573.192937631333
219 1573.073909984801
220 1573.252966934189
221 1573.139711044891
222 1573.314893645471
223 1573.218197160789
224 1573.413481054508
225 1573.33205420459
226 1573.55495396565
227 1573.499909508755
228 1573.731746182214
229 1573.710974891041
230 1573.97944546568
231 1573.957986338742
232 1574.240170995653
233 1574.251405247569
234 1574.567341840879
235 1574.593092690345
236 1574.929598671689
237 1574.985087528954
238 1575.326805642395
239 1575.394407793413
240 1575.766995803001
241 1575.853632606993
242 1576.237892889698
243 1576.333959888515
244 1576.738591325508
245 1576.855960733898
246 1577.258828591416
247 1577.396259045937
248 1577.818026426409
249 1577.960410681187
250 1578.388008558728
251 1578.530674535979
252 1578.96610362719
253 1579.116081039859
254 1579.555176590507
255 1579.708083627787
256 1580.16295645452
257 1580.328602043763
258 1580.766803191186
259 1580.941328709332
260 1581.39837533519
261 1581.574732754391
262 1582.034717392273
263 1582.197419955824
264 1582.656405211468
265 1582.833467677234
266 1583.292742995338
267 1583.462225159957
268 1583.923091702538
269 1584.089345791638
270 1584.539214437416
271 1584.72142315025
272 1585.157159349813
273 1585.355250989367
274 1585.807636924745
275 1585.985753301659
276 1586.428287012142
277 1586.607767264779
278 1587.041697950844
279 1587.226780708371
280 1587.672520287763
281 1587.845913073802
282 1588.278430274378
283 1588.458548231705
284 1588.901962451228
285 1589.073751596312
286 1589.50251516739
287 1589.666945048312
288 1590.087682358273
289 1590.267994971148
290 1590.702536164987
291 1590.861227060629
292 1591.290631484937
293 1591.459928880001
294 1591.867989001455
295 1592.031227455931
296 1592.441968157563
297 1592.596116945948
298 1593.004558185635
299 1593.156755484235
300 1593.561782355941
301 1593.708655169709
302 1594.099850429971
303 1594.243766425257
304 1594.6315506422
305 1594.776575048725
306 1595.163202303578
307 1595.283859724395
308 1595.667990919301
309 1595.794272297436
310 1596.160849589865
311 1596.279391531584
312 1596.651642147523
313 1596.765649942215
314 1597.126096980627
315 1597.232491901209
316 1597.593224877191
317 1597.704131464063
318 1598.051013936144
319 1598.150101918021
320 1598.512275328828
321 1598.609194913388
322 1598.95360848208
323 1599.031877956931
324 1599.375722382575
325 1599.462470469213
326 1599.793003559851
327 1599.885441365146
328 1600.211675481232
329 1600.294571933376
330 1600.61618392649
331 1600.695893211071
332 1601.02009818132
333 1601.092478742878
334 1601.402717553735
335 1601.470800563536
336 1601.801015843758
337 1601.860991195388
338 1602.174455024747
339 1602.241819056871
340 1602.543249438688
341 1602.60610426624
342 1602.900332293657
343 1602.953439235841
344 1603.282842047919
345 1603.326557323741
346 1603.632524498883
347 1603.681253568772
348 1603.979393594464
349 1604.029525503072
350 1604.324013688759
351 1604.373689241033
352 1604.68277810956
353 1604.712788483569
354 1605.005247135165
355 1605.051336275225
356 1605.341716364771
357 1605.375344858794
358 1605.662262063641
359 1605.688426539234
360 1605.97541831675
361 1606.005724551224
362 1606.295589528509
363 1606.32370083705
364 1606.598883352549
365 1606.630095353378
366 1606.911911484149
367 1606.934424490169
368 1607.210301805791
369 1607.243404644727
370 1607.508086193829
371 1607.530596655033
372 1607.808138367415
373 1607.82637672287
374 1608.090713649175
375 1608.113951334691
376 1608.39045207385
377 1608.394098695498
378 1608.659098119836
379 1608.675734954914
380 1608.94270215311
381 1608.954516124785
382 1609.211045137252
383 1609.233820025196
384 1609.48418282797
385 1609.512545691483
386 1609.773648174354
387 1609.781687407938
388 1610.037051955015
389 1610.051471834098
390 1610.311836162133
391 1610.305079761382
392 1610.555954172865
393 1610.564246735673
394 1610.812114608214
395 1610.813647395529
396 1611.07183266974
397 1611.060427858899
398 1611.307287355613
399 1611.309767829919
400 1611.545853293401
401 1611.54650406945
402 1611.792835624621
403 1611.78407081453
404 1612.016935341285
405 1612.016034072329
406 1612.24396072416
407 1612.231587641187
408 1612.463907764705
409 1612.455346275862
410 1612.6910029126
411 1612.680188605619
412 1612.917740826864
413 1612.90149328965
414 1613.121316056399
415 1613.096829713465
416 1613.318364525718
417 1613.297735934666
418 1613.5218297898
419 1613.49612613179
420 1613.715933414496
421 1613.692007165551
422 1613.912446170175
423 1613.878753860865
424 1614.089812036648
425 1614.052798680535
426 1614.271188605874
427 1614.244245258927
428 1614.447847823273
429 1614.418784985154
430 1614.62845530276
431 1614.58710066823
432 1614.787025239698
433 1614.754989688022
434 1614.950365578915
435 1614.917241893925
436 1615.126223320071
437 1615.078836711995
438 1615.282552072961
439 1615.228158817842
440 1615.428952362741
441 1615.388558054644
442 1615.59402323289
443 1615.536269117114
444 1615.732321492349
445 1615.684013920762
446 1615.858166740011
447 1615.812008011627
448 1616.01003481494
449 1615.95054883905
450 1616.143481084372
451 1616.09209936345
452 1616.283991776468
453 1616.226149823352
454 1616.399778397378
455 1616.345814694184
456 1616.5364748895
457 1616.480740243225
458 1616.668609138016
459 1616.606100600772
460 1616.791407950373
461 1616.724208096957
462 1616.918207279864
463 1616.841306970678
464 1617.023135960748
465 1616.969317408359
466 1617.138564588323
467 1617.079951354723
468 1617.269985365295
469 1617.200243336378
470 1617.372086065344
471 1617.303052891163
472 1617.473917345714
473 1617.404634660408
474 1617.588674194646
475 1617.521922001714
476 1617.696264044368
477 1617.624198950964
478 1617.787044282433
479 1617.717987719658
480 1617.898287677888
481 1617.824533780099
482 1617.99311326659
483 1617.938218088471
484 1618.09528254175
485 1618.02752874157
486 1618.191078961114
487 1618.121214322525
488 1618.279210448551
489 1618.212971909257
490 1618.38252744955
491 1618.310796507396
492 1618.479631354417
493 1618.39734182626
494 1618.565173184205
495 1618.486427854218
496 1618.653879410145
497 1618.577827804038
498 1618.749282759891
499 1618.665613108505
500 1618.840698868681
501 1618.754069482968
502 1618.917353717547
503 1618.830978075083
504 1619.001039325658
505 1618.912143051016
506 1619.071680316724
507 1619.001100090069
508 1619.152443478762
509 1619.075468246614
510 1619.233477204329
511 1619.150711969882
512 1619.307818102086
513 1619.232777008805
514 1619.389121811688
515 1619.307776202405
516 1619.475999061887
517 1619.38125561375
518 1619.537129685701
519 1619.447918976897
520 1619.60990637442
521 1619.536254930254
522 1619.684441691024
523 1619.601496899325
524 1619.762987138997
525 1619.680711311227
526 1619.834382058868
527 1619.746794142741
528 1619.901102216818
529 1619.814099243094
530 1619.959828484006
531 1619.887613498692
532 1620.031559454169
533 1619.948869740165
534 1620.107949545154
535 1620.016272808992
536 1620.16843644877
537 1620.08343046426
538 1620.219050760729
539 1620.131691812481
540 1620.289432077646
541 1620.200278202729
542 1620.34961629346
543 1620.263242505518
544 1620.413685719494
545 1620.328038979962
546 1620.476114297188
547 1620.379590986265
548 1620.53492698077
549 1620.44557879732
550 1620.586910198929
551 1620.494491016452
552 1620.640909478891
553 1620.54821000394
554 1620.680463649013
555 1620.598493011086
556 1620.752480830445
557 1620.658930840151
558 1620.807093759239
559 1620.707571625939
560 1620.852418903143
561 1620.757600575085
562 1620.892723098136
563 1620.795095900751
564 1620.955274959761
565 1620.859898407996
566 1620.998334159075
567 1620.904580223151
568 1621.046072873885
569 1620.952936670101
570 1621.092649559676
571 1621.000152309857
572 1621.159337831356
573 1621.054836736538
574 1621.198592527111
575 1621.098313993167
576 1621.237206652463
577 1621.147719331085
578 1621.273683479406
579 1621.182064502218
580 1621.335852633226
581 1621.242686778005
582 1621.376140567884
583 1621.269751456597
584 1621.40866617211
585 1621.312150514682
586 1621.436974511431
587 1621.332875413562
588 1621.490983710656
589 1621.383785362319
590 1621.517297789066
591 1621.425976546546
592 1621.567875291318
593 1621.474220222563
594 1621.602060665475
595 1621.505346057479
596 1621.664519892732
597 1621.558240151515
598 1621.684478396539
599 1621.569107636174
600 1621.72029960279
601 1621.610267336366
602 1621.741087423898
603 1621.639139421444
604 1621.789515968602
605 1621.680696785458
606 1621.814632037304
607 1621.700825404077
608 1621.842097775661
609 1621.732598642546
610 1621.872734654395
611 1621.771052646793
612 1621.917133350317
613 1621.803090851966
614 1621.944983196349
615 1621.832017596326
616 1621.971004264614
617 1621.869863655272
618 1622.004721663214
619 1621.899026025874
620 1622.055571003108
621 1621.939089516171
622 1622.086676048348
623 1621.957288801648
624 1622.103003063449
625 1621.988024566635
626 1622.124870187101
627 1622.014498282919
628 1622.174682549886
629 1622.053198002829
630 1622.177158268497
631 1622.061386366992
632 1622.19600162396
633 1622.088171624195
634 1622.232356908662
635 1622.109320570082
636 1622.252275413047
637 1622.13506204391
638 1622.265587400416
639 1622.153798867634
640 1622.296428181358
641 1622.18756324608
642 1622.320191041081
643 1622.219016022216
644 1622.350238277965
645 1622.247908589884
646 1622.376924635527
647 1622.251591996319
648 1622.382761880417
649 1622.282792101917
650 1622.394487559737
651 1622.303536538609
652 1622.440960556535
653 1622.326740198891
654 1622.451592019944
655 1622.335786052041
656 1622.459963799369
657 1622.367454602971
658 1622.483437276222
659 1622.372397087095
660 1622.51227255249
661 1622.395979617873
662 1622.520981433019
663 1622.415842883896
664 1622.545792705532
665 1622.43415359692
666 1622.565843409167
667 1622.450764167586
668 1622.583037331578
669 1622.470910204549
670 1622.597990368364
671 1622.487800876199
672 1622.615070768658
673 1622.505174472727
674 1622.631041480211
675 1622.529064322057
676 1622.668600847217
677 1622.540966303617
678 1622.672255006526
679 1622.542363078418
680 1622.675974204073
681 1622.578232434347
682 1622.703290651987
683 1622.595560358211
684 1622.739047234076
685 1622.612740154554
686 1622.742202914814
687 1622.628974090849
688 1622.753256844465
689 1622.644814020014
690 1622.778736762569
691 1622.65209317132
692 1622.792760494363
693 1622.689153788775
694 1622.805016304888
695 1622.684054094295
696 1622.830003027063
697 1622.706157794376
698 1622.837256900148
699 1622.731699895791
700 1622.87230449266
701 1622.756281869232
702 1622.879890193926
703 1622.751711779428
704 1622.881816259563
705 1622.765690569859
706 1622.882265808854
707 1622.7771134309
708 1622.922645933096
709 1622.799080067972
710 1622.916104781745
711 1622.795978583495
712 1622.93805935795
713 1622.818165513488
714 1622.946369077544
715 1622.821156196516
716 1622.960922451431
717 1622.849704036571
718 1622.978708208026
719 1622.861203172853
720 1622.984891401232
721 1622.875899673532
722 1623.018698827498
723 1622.891697888828
724 1623.024319892586
725 1622.899679003315
726 1623.023882729092
727 1622.908255253234
728 1623.033399530205
729 1622.911954016679
730 1623.04779956178
731 1622.928167328724
732 1623.067044680743
733 1622.932924770599
734 1623.061849848706
735 1622.939013894683
736 1623.064972403804
737 1622.948495815428
738 1623.080370109344
739 1622.95572951875
740 1623.090457502792
741 1622.984285516706
742 1623.107719812553
743 1622.983277396205
744 1623.11718611021
745 1622.990730414212
746 1623.117092471003
747 1622.998182147863
748 1623.142838163313
749 1623.007339985246
750 1623.132802064858
751 1623.014468994065
752 1623.14422734616
753 1623.023666776865
754 1623.16399593161
755 1623.03192318381
756 1623.162246016136
757 1623.037661780644
758 1623.154651379098
759 1623.051196946371
760 1623.176078894582
761 1623.060633160409
762 1623.192554007302
763 1623.059646764053
764 1623.19677815184
765 1623.083684691509
766 1623.208091886194
767 1623.090264064455
768 1623.226312842917
769 1623.104872501198
770 1623.231880558134
771 1623.108517090946
772 1623.235318174401
773 1623.12244729926
774 1623.24112986112
775 1623.125164119799
776 1623.260120589418
777 1623.144163666088
778 1623.262762708981
779 1623.136899322326
780 1623.26894905567
781 1623.136443182696
782 1623.267141452648
783 1623.158055385527
784 1623.298362554998
785 1623.167962655222
786 1623.296493585303
787 1623.177922793953
788 1623.309568364745
789 1623.186347396604
790 1623.294519856573
791 1623.189821891277
792 1623.314132876414
793 1623.193656562576
794 1623.316268685077
795 1623.201051546245
796 1623.337766848411
797 1623.211746222951
798 1623.331411786011
799 1623.209620061806
800 1623.343904940083
801 1623.226770774029
802 1623.350165406803
803 1623.232965455381
804 1623.358616238052
805 1623.234576226956
806 1623.354256026419
807 1623.24033091825
808 1623.364731489084
809 1623.245326796935
810 1623.370672228923
811 1623.255129097729
812 1623.388387510844
813 1623.266199513447
814 1623.390480425188
815 1623.259616250001
816 1623.384134953874
817 1623.266348549058
818 1623.395583458036
819 1623.284454238772
820 1623.410167678516
821 1623.282559477727
822 1623.407163721815
823 1623.283954305766
824 1623.400786469458
825 1623.280014248958
826 1623.411797869051
827 1623.303006918603
828 1623.437934078284
829 1623.295559887812
830 1623.42943907614
831 1623.310694888755
832 1623.436039460702
833 1623.310427634345
834 1623.43301904135
835 1623.32652486117
836 1623.446029783928
837 1623.32271280039
838 1623.446063826965
839 1623.324421630087
840 1623.455103565856
841 1623.33246409364
842 1623.466675603596
843 1623.338469959038
844 1623.47894408744
845 1623.353215217091
846 1623.477797356628
847 1623.352352523537
848 1623.478164062313
849 1623.366389969141
850 1623.491199979172
851 1623.369350646571
852 1623.491458166899
853 1623.357343315646
854 1623.47860508937
855 1623.368309913192
856 1623.487821118343
857 1623.375537321641
858 1623.507025560753
859 1623.372331041615
860 1623.499856421581
861 1623.384527588021
862 1623.503991204073
863 1623.389932543811
864 1623.51411838243
865 1623.393184835185
866 1623.515444115642
867 1623.395949288305
868 1623.518537044185
869 1623.397944184039
870 1623.51814849445
871 1623.39211755659
872 1623.520259032831
873 1623.397258124466
874 1623.519642992067
875 1623.401899928653
876 1623.522178755429
877 1623.3984721518
878 1623.511711210513
879 1623.40488217038
880 1623.538843399286
881 1623.41240726564
882 1623.527417870861
883 1623.394761155618
884 1623.526852366187
885 1623.414300299238
886 1623.530854070134
887 1623.401466744439
888 1623.531273372027
889 1623.417782017063
890 1623.536290949403
891 1623.417021477187
892 1623.546630928949
893 1623.432231011029
894 1623.54408026322
895 1623.413471671328
896 1623.541547279412
897 1623.422166708213
898 1623.535691179269
899 1623.416245946417
900 1623.538436101671
901 1623.409896786614
902 1623.530725811599
903 1623.415163949108
904 1623.545372802985
905 1623.420316629974
906 1623.535237689892
907 1623.424669680747
908 1623.543087469136
909 1623.419158733396
910 1623.543850441006
911 1623.426317987904
912 1623.553790525253
913 1623.429165566695
914 1623.548929283859
915 1623.447333513151
916 1623.583025521042
917 1623.445261754317
918 1623.565193552613
919 1623.423308418904
920 1623.55825362395
921 1623.44463261493
922 1623.567104684106
923 1623.445867551732
924 1623.580452504013
925 1623.451153444688
926 1623.571707373547
927 1623.4477388621
928 1623.573402957067
929 1623.442450635161
930 1623.571009814085
931 1623.455952743726
932 1623.589796456102
933 1623.460033776276
934 1623.578306688779
935 1623.447144334486
936 1623.569907246605
937 1623.442462160372
938 1623.560857044782
939 1623.453710462492
940 1623.58903258995
941 1623.458446555205
942 1623.575722239556
943 1623.447193886281
944 1623.585700940856
945 1623.456651594496
946 1623.583128047239
947 1623.466378984836
948 1623.594100002232
949 1623.465686578476
950 1623.586815718253
951 1623.465623683645
952 1623.587549365819
953 1623.462456455587
954 1623.582700229843
955 1623.466939116243
956 1623.589482262112
957 1623.470513214123
958 1623.585185373335
959 1623.462676707876
960 1623.588197843637
961 1623.462815315949
962 1623.576153408906
963 1623.460520226814
964 1623.592337543533
965 1623.473317063441
966 1623.590098631144
967 1623.468730812581
968 1623.588746035913
969 1623.47473606901
970 1623.590742361161
971 1623.476298240071
972 1623.594984158166
973 1623.463313796154
974 1623.585993409842
975 1623.471311748994
976 1623.608030914315
977 1623.484159408707
978 1623.600005740013
979 1623.476067646416
980 1623.606184893405
981 1623.48810352956
982 1623.60701915477
983 1623.482040472607
984 1623.602590137162
985 1623.488427872195
986 1623.597363360593
987 1623.489452565458
988 1623.616975836683
989 1623.483911439102
990 1623.606395186845
991 1623.487642972608
992 1623.6242876922
993 1623.498509528187
994 1623.623476183994
995 1623.501040546769
996 1623.635805758524
997 1623.497396918471
998 1623.619522894691
999 1623.504367003347
1000 1623.623611924705
1001 1623.505947180643
1002 1623.627596064999
1003 1623.492458152734
1004 1623.630688148879
1005 1623.506602381017
1006 1623.621197647128
1007 1623.501527765726
1008 1623.627073853328
1009 1623.512403015576
1010 1623.63686974886
1011 1623.520561730434
1012 1623.652433709303
1013 1623.512199605935
1014 1623.627153534764
1015 1623.50406301604
1016 1623.627579095612
1017 1623.51340583259
1018 1623.629738299518
1019 1623.505552875341
1020 1623.644412516175
1021 1623.514300007467
1022 1623.620093906272
1023 1623.517962642823
1024 1623.628256489407
1025 1623.517510539315
1026 1623.633270168615
1027 1623.516455181291
1028 1623.646335688077
1029 1623.512720869847
1030 1623.628264075199
1031 1623.514741193159
1032 1623.634512811107
1033 1623.516199327226
1034 1623.632306603565
1035 1623.513472144809
1036 1623.645966047286
1037 1623.517752445684
1038 1623.624031653655
1039 1623.496040987978
1040 1623.622934125193
1041 1623.513997743263
1042 1623.63211254176
1043 1623.512432674862
1044 1623.644990479488
1045 1623.515136920513
1046 1623.625304525243
1047 1623.508188643857
1048 1623.62030712359
1049 1623.497339070215
1050 1623.61762419735
1051 1623.498700180768
1052 1623.641634971857
1053 1623.504608709836
1054 1623.621562917668
1055 1623.506031604084
1056 1623.632439081964
1057 1623.505867826403
1058 1623.631863462192
1059 1623.515206245979
1060 1623.650870492024
1061 1623.51908905517
1062 1623.633729013056
1063 1623.509047469806
1064 1623.645042319768
1065 1623.521198672281
1066 1623.640307318698
1067 1623.511394265178
1068 1623.648364026136
1069 1623.512130047673
1070 1623.627571034127
1071 1623.51284955287
1072 1623.634342928013
1073 1623.521678492192
1074 1623.644535044947
1075 1623.516575033034
1076 1623.643248243423
1077 1623.507293478262
1078 1623.622445905185
1079 1623.505777143546
1080 1623.626235020838
1081 1623.506013561303
1082 1623.627422361612
1083 1623.508396131258
1084 1623.656729521884
1085 1623.511459972085
1086 1623.636600856912
1087 1623.505814486437
1088 1623.630178354818
1089 1623.510057649049
1090 1623.645050928295
1091 1623.50680844587
1092 1623.635604562703
1093 1623.502199426773
1094 1623.622761027679
1095 1623.498603822554
1096 1623.635659800062
1097 1623.507331403297
1098 1623.628690770392
1099 1623.493005430324
1100 1623.624895590073
1101 1623.507338651378
1102 1623.626152183042
1103 1623.503130671301
1104 1623.6316038946
1105 1623.511696376305
1106 1623.627910803307
1107 1623.513590651068
1108 1623.638515659736
1109 1623.503155882301
1110 1623.629192597136
1111 1623.512499301069
1112 1623.645147045436
1113 1623.518494244384
1114 1623.636941875641
1115 1623.516439220657
1116 1623.638460538959
1117 1623.503406722073
1118 1623.62316771934
1119 1623.509130272294
1120 1623.627736379011
1121 1623.508459166092
1122 1623.628147110341
1123 1623.506234162025
1124 1623.637150771171
1125 1623.502666811051
1126 1623.622942455983
1127 1623.502437188506
1128 1623.619795339826
1129 1623.502257124157
1130 1623.623641105998
1131 1623.502781762975
1132 1623.633904736426
1133 1623.509431268868
1134 1623.630894950612
1135 1623.495603447163
1136 1623.622808507505
1137 1623.498818038929
1138 1623.626844109747
1139 1623.504349056539
1140 1623.638686541959
1141 1623.496361303535
1142 1623.625863728215
1143 1623.512321524239
1144 1623.640865422057
1145 1623.512997219995
1146 1623.63820486468
1147 1623.516321903697
1148 1623.648441324411
1149 1623.51247921628
1150 1623.641120023522
1151 1623.513282251781
1152 1623.639953938292
1153 1623.522903760503
1154 1623.645966020395
1155 1623.533792984904
1156 1623.666897313261
1157 1623.525775247124
1158 1623.651698986413
1159 1623.521638590674
1160 1623.637505465791
1161 1623.528915248022
1162 1623.64526125202
1163 1623.511834059992
1164 1623.64912633089
1165 1623.52836510611
1166 1623.644688447589
1167 1623.528049259397
1168 1623.650429967084
1169 1623.53136891573
1170 1623.661453335363
1171 1623.534296716527
1172 1623.660829800325
1173 1623.527239541116
1174 1623.646977413327
1175 1623.534351056598
1176 1623.656388445739
1177 1623.529519281503
1178 1623.651784418117
1179 1623.532115958614
1180 1623.654661349042
1181 1623.538756438149
1182 1623.635631782618
1183 1623.519557440327
1184 1623.647718284454
1185 1623.532241965651
1186 1623.653156196979
1187 1623.530862113437
1188 1623.651573635784
1189 1623.529649379994
1190 1623.651992171041
1191 1623.519478956776
1192 1623.646509684355
1193 1623.51898921414
1194 1623.636510512457
1195 1623.505787783035
1196 1623.637535936675
1197 1623.507372464989
1198 1623.630697545168
1199 1623.503332191664
1200 1623.632632904954
1201 1623.517571398568
1202 1623.641215260332
1203 1623.51450980199
1204 1623.643607772118
1205 1623.519974234239
1206 1623.631511144712
1207 1623.508332931904
1208 1623.635114073898
1209 1623.508475398693
1210 1623.633082102511
1211 1623.520004397691
1212 1623.650763323575
1213 1623.516687236131
1214 1623.635374736998
1215 1623.519532952556
1216 1623.649046504023
1217 1623.517966231293
1218 1623.633880234053
1219 1623.51206857387
1220 1623.648033097132
1221 1623.52864789326
1222 1623.64779977491
1223 1623.52723133443
1224 1623.647568128889
1225 1623.533245901645
1226 1623.648370774913
1227 1623.536126096473
1228 1623.664724447805
1229 1623.524459128104
1230 1623.642802780103
1231 1623.531259169004
1232 1623.65459045235
1233 1623.533843708024
1234 1623.653928733145
1235 1623.534389770654
1236 1623.659480899148
1237 1623.537587073857
1238 1623.661169341139
1239 1623.535475716287
1240 1623.660964276936
1241 1623.543226867587
1242 1623.66224721326
1243 1623.54315437832
1244 1623.669044953369
1245 1623.54089070017
1246 1623.664849412253
1247 1623.537263000243
1248 1623.668588511192
1249 1623.538106673736
1250 1623.654998080254
1251 1623.529873045121
1252 1623.662305489861
1253 1623.530353064594
1254 1623.656765949546
1255 1623.534948663949
1256 1623.66008103882
1257 1623.549251050672
1258 1623.65509635618
1259 1623.539043905106
1260 1623.668457545403
1261 1623.526510367059
1262 1623.652250657091
1263 1623.537611591442
1264 1623.668909224123
1265 1623.539145691919
1266 1623.663964858046
1267 1623.534385366327
1268 1623.669032641528
1269 1623.529637014064
1270 1623.658141366625
1271 1623.541724359922
1272 1623.656266631284
1273 1623.542221323835
1274 1623.66993507704
1275 1623.541771127776
1276 1623.66821147677
1277 1623.538552565322
1278 1623.663923374923
1279 1623.538948884935
1280 1623.667097931961
1281 1623.554239683928
1282 1623.677305319743
1283 1623.545482485915
1284 1623.666022678049
1285 1623.543455547273
1286 1623.652883708402
1287 1623.531322478334
1288 1623.658816843243
1289 1623.529250297524
1290 1623.650297688752
1291 1623.526559840524
1292 1623.647922634288
1293 1623.52020281015
1294 1623.64847246379
1295 1623.527526702927
1296 1623.666088020993
1297 1623.533722902604
1298 1623.653558882999
1299 1623.543171617357
1300 1623.671224971442
1301 1623.540019781589
1302 1623.663619601961
1303 1623.535734907188
1304 1623.658953688101
1305 1623.535597250307
1306 1623.654610569864
1307 1623.538583408746
1308 1623.673839798305
1309 1623.535178971526
1310 1623.662782651581
1311 1623.52823201284
1312 1623.656592610024
1313 1623.534162900771
1314 1623.651205978645
1315 1623.538883478647
1316 1623.664918457808
1317 1623.543820576749
1318 1623.655101910912
1319 1623.532245457667
1320 1623.649936604328
1321 1623.537925076584
1322 1623.667458894012
1323 1623.54179833855
1324 1623.670568713906
1325 1623.529219497278
1326 1623.651870534667
1327 1623.533126773538
1328 1623.651894870344
1329 1623.539327577166
1330 1623.652332795279
1331 1623.530824426955
1332 1623.6531910592
1333 1623.524182046001
1334 1623.6424576266
1335 1623.540213565239
1336 1623.655141489447
1337 1623.534473322072
1338 1623.65223941734
1339 1623.524942457977
1340 1623.644904592197
1341 1623.521089698647
1342 1623.644465250076
1343 1623.515163819922
1344 1623.642834579443
1345 1623.52336959712
1346 1623.647981927734
1347 1623.526776582498
1348 1623.644091566873
1349 1623.520936283952
1350 1623.638576292813
1351 1623.512913618194
1352 1623.645350642178
1353 1623.517928495804
1354 1623.641166964695
1355 1623.518809694394
1356 1623.641680686097
1357 1623.519309403134
1358 1623.641351068933
1359 1623.515549567212
1360 1623.654488232609
1361 1623.536213365367
1362 1623.653313513252
1363 1623.525884811504
1364 1623.651762220049
1365 1623.535954282095
1366 1623.663124421334
1367 1623.525743728741
1368 1623.66359370121
1369 1623.536775963363
1370 1623.660392502038
1371 1623.537275589824
1372 1623.663313974861
1373 1623.544644224965
1374 1623.667501931633
1375 1623.546350564613
1376 1623.666844954641
1377 1623.550626304221
1378 1623.664934634219
1379 1623.551589224295
1380 1623.680399921951
1381 1623.541790527329
1382 1623.668775755528
1383 1623.555792257089
1384 1623.685604146634
1385 1623.559914442153
1386 1623.673373222666
1387 1623.555555670582
1388 1623.688956717983
1389 1623.557049385647
1390 1623.686466109585
1391 1623.561047716476
1392 1623.682334354587
1393 1623.564349624285
1394 1623.67840328264
1395 1623.557781408751
1396 1623.694150599393
1397 1623.55116848444
1398 1623.675252895226
1399 1623.551813755411
1400 1623.668977305659
1401 1623.563351967448
1402 1623.692457862769
1403 1623.568376803138
1404 1623.687460767461
1405 1623.552106935614
1406 1623.676825315329
1407 1623.568250971997
1408 1623.686788557689
1409 1623.562312006545
1410 1623.685204743485
1411 1623.558919733656
1412 1623.68008266918
1413 1623.552209182676
1414 1623.668641120298
1415 1623.551067814121
1416 1623.676806554544
1417 1623.548881853553
1418 1623.676530177825
1419 1623.54860395023
1420 1623.671566047537
1421 1623.550828127409
1422 1623.684103435945
1423 1623.549898901817
1424 1623.676311138203
1425 1623.538499740086
1426 1623.666652790412
1427 1623.544863014551
1428 1623.661297176664
1429 1623.538477899695
1430 1623.665078417536
1431 1623.543372953277
1432 1623.677131966372
1433 1623.544846956707
1434 1623.669890681555
1435 1623.549741912625
1436 1623.67085461342
1437 1623.547541984529
1438 1623.685524498252
1439 1623.547268616491
1440 1623.668520441794
1441 1623.540840822726
1442 1623.666813151676
1443 1623.552434898285
1444 1623.683768706422
1445 1623.544963514962
1446 1623.66580582583
1447 1623.531695267287
1448 1623.651601823838
1449 1623.542157418683
1450 1623.664270573086
1451 1623.548498522836
1452 1623.671936152274
1453 1623.55060201567
1454 1623.675706934815
1455 1623.557956768326
1456 1623.667236675456
1457 1623.552811610563
1458 1623.678870860051
1459 1623.559686042784
1460 1623.696974031697
1461 1623.562847975008
1462 1623.684674299942
1463 1623.565120647222
1464 1623.680297012645
1465 1623.555873113067
1466 1623.686106983563
1467 1623.566699770114
1468 1623.685587234293
1469 1623.556152020699
1470 1623.680886370517
1471 1623.556923844208
1472 1623.686657634706
1473 1623.557185799434
1474 1623.684050169787
1475 1623.557711283902
1476 1623.671961024658
1477 1623.546378719921
1478 1623.662229189616
1479 1623.545430518489
1480 1623.671675351771
1481 1623.537546021832
1482 1623.669439456508
1483 1623.545879473448
1484 1623.661728691751
1485 1623.541157948609
1486 1623.661580783804
1487 1623.540920522905
1488 1623.673964198946
1489 1623.537766793801
1490 1623.663593316065
1491 1623.538035569434
1492 1623.649934093074
1493 1623.539212415179
1494 1623.662025544435
1495 1623.53462134363
1496 1623.659319190605
1497 1623.539974686664
1498 1623.659760831137
1499 1623.538223631024
1500 1623.654186957557
1501 1623.513470950009
1502 1623.644459684996
1503 1623.528516418218
1504 1623.64937509663
1505 1623.534512541151
1506 1623.652389307832
1507 1623.540585893396
1508 1623.66713539441
1509 1623.542047525554
1510 1623.662836142956
1511 1623.534150398031
1512 1623.651313265594
1513 1623.542045404918
1514 1623.670643292702
1515 1623.547796734316
1516 1623.669747000752
1517 1623.534360699595
1518 1623.66862854385
1519 1623.53487489556
1520 1623.651839163782
1521 1623.543374569012
1522 1623.666346601814
1523 1623.532359060321
1524 1623.66917639223
1525 1623.53820405463
1526 1623.664432793057
1527 1623.549953028971
1528 1623.675026133778
1529 1623.553506136744
1530 1623.667524292661
1531 1623.552826681742
1532 1623.672607492661
1533 1623.533454894168
1534 1623.662920017272
1535 1623.552275191488
1536 1623.680166833703
1537 1623.542110601696
1538 1623.667575302882
1539 1623.547772141811
1540 1623.680085429743
1541 1623.540418703701
1542 1623.665593200622
1543 1623.542769409862
1544 1623.664326282247
1545 1623.545775466202
1546 1623.670177995195
1547 1623.539286032434
1548 1623.660251105674
1549 1623.539685061742
1550 1623.664664403605
1551 1623.538755921698
1552 1623.662395650637
1553 1623.550408705976
1554 1623.674166185726
1555 1623.548101735056
1556 1623.663692811809
1557 1623.553116413995
1558 1623.680157364262
1559 1623.544673711301
1560 1623.667447000882
1561 1623.543785900006
1562 1623.663045266759
1563 1623.546308294518
1564 1623.663181105089
1565 1623.533554293524
1566 1623.66301162637
1567 1623.53798984056
1568 1623.667319136788
1569 1623.547780596993
1570 1623.665293026626
1571 1623.540937164459
1572 1623.680658031124
1573 1623.542711981031
1574 1623.662683190375
1575 1623.539566379363
1576 1623.660860779357
1577 1623.537052209777
1578 1623.660533302289
1579 1623.535535810136
1580 1623.665241866754
1581 1623.542146245014
1582 1623.650943405572
1583 1623.52518494804
1584 1623.658257997523
1585 1623.52768827822
1586 1623.656849129255
1587 1623.532192701039
1588 1623.663748497498
1589 1623.54113493425
1590 1623.659154427004
1591 1623.534656172032
1592 1623.6641689784
1593 1623.536257258194
1594 1623.664494071745
1595 1623.539327290963
1596 1623.659574550069
1597 1623.543639315061
1598 1623.658708528204
1599 1623.538945750228
1600 1623.663928342729
1601 1623.539304385378
1602 1623.655814046859
1603 1623.536677304176
1604 1623.665927059332
1605 1623.550527459493
1606 1623.665827461093
1607 1623.540228963787
1608 1623.670539472429
1609 1623.539708487497
1610 1623.669513739867
1611 1623.544051213719
1612 1623.672581401944
1613 1623.531211564537
1614 1623.651994246062
1615 1623.540541023035
1616 1623.66766835367
1617 1623.540621509186
1618 1623.666079807854
1619 1623.545414681999
1620 1623.662060541849
1621 1623.543634726783
1622 1623.658725273258
1623 1623.533343913549
1624 1623.667895833459
1625 1623.541186536753
1626 1623.674965244442
1627 1623.55096255383
1628 1623.664466248874
1629 1623.542223167811
1630 1623.668366429188
1631 1623.536846376267
1632 1623.65838575285
1633 1623.528251473797
1634 1623.658135853422
1635 1623.539883322277
1636 1623.664168492367
1637 1623.534453083174
1638 1623.667942479442
1639 1623.527132625423
1640 1623.655893609239
1641 1623.528910826792
1642 1623.652292144298
1643 1623.525858510274
1644 1623.654581653413
1645 1623.520836021416
1646 1623.648523226308
1647 1623.517913650228
1648 1623.645375039819
1649 1623.517499369486
1650 1623.64751797698
1651 1623.518408658544
1652 1623.648273597592
1653 1623.525785635916
1654 1623.657918335374
1655 1623.527880588076
1656 1623.644740369074
1657 1623.524185268415
1658 1623.663462180884
1659 1623.530300124746
1660 1623.657416108508
1661 1623.523383131275
1662 1623.637729534544
1663 1623.521137688283
1664 1623.637059520274
1665 1623.517083058531
1666 1623.648335839074
1667 1623.523583765902
1668 1623.652026398572
1669 1623.523181160329
1670 1623.647459906372
1671 1623.533899685469
1672 1623.660485035687
1673 1623.534538436233
1674 1623.659180911644
1675 1623.5437618147
1676 1623.662136698018
1677 1623.533489019811
1678 1623.671181449219
1679 1623.524763008614
1680 1623.649595726441
1681 1623.521818734387
1682 1623.648335830669
1683 1623.525240723773
1684 1623.663380195761
1685 1623.526219507225
1686 1623.652501504057
1687 1623.526027968981
1688 1623.644716323266
1689 1623.52615708924
1690 1623.663874299746
1691 1623.54240947459
1692 1623.663130047328
1693 1623.53440694547
1694 1623.655312663456
1695 1623.537536225783
1696 1623.656113150434
1697 1623.530610203328
1698 1623.676874781739
1699 1623.538916974627
1700 1623.664395674361
1701 1623.541488536812
1702 1623.663378675329
1703 1623.536505742889
1704 1623.674532572486
1705 1623.540110971829
1706 1623.670164675649
1707 1623.550801092521
1708 1623.663842742975
1709 1623.541734804649
1710 1623.66120064733
1711 1623.537372451059
1712 1623.660187021099
1713 1623.530119728907
1714 1623.660781193473
1715 1623.541413955842
1716 1623.655020926373
1717 1623.537700817392
1718 1623.670298508499
1719 1623.534234146399
1720 1623.660349465031
1721 1623.528665789699
1722 1623.672207648738
1723 1623.544603402102
1724 1623.661201940475
1725 1623.532108983957
1726 1623.656143105535
1727 1623.52409886224
1728 1623.649512668142
1729 1623.520217788929
1730 1623.64304881952
1731 1623.528843876247
1732 1623.650737902156
1733 1623.516708485856
1734 1623.644979395913
1735 1623.511388691105
1736 1623.631637010913
1737 1623.506942741599
1738 1623.644823215797
1739 1623.521476019267
1740 1623.650557963233
1741 1623.525929059226
1742 1623.64875020186
1743 1623.528670246497
1744 1623.646971537455
1745 1623.528149585251
1746 1623.655017664116
1747 1623.527913342053
1748 1623.659712587309
1749 1623.527195149999
1750 1623.655175682045
1751 1623.532255366853
1752 1623.657853086039
1753 1623.530949205151
1754 1623.655908329801
1755 1623.534553984429
1756 1623.656441674303
1757 1623.52070355021
1758 1623.638931060376
1759 1623.519168252392
1760 1623.659475661682
1761 1623.532716932323
1762 1623.658543484039
1763 1623.529206768624
1764 1623.657306400459
1765 1623.527308283068
1766 1623.652996851049
1767 1623.53795410339
1768 1623.66492978263
1769 1623.532217984833
1770 1623.654417313469
1771 1623.538602588261
1772 1623.658166745742
1773 1623.53590350909
1774 1623.661518776565
1775 1623.527223654603
1776 1623.66005871241
1777 1623.526873360802
1778 1623.652796532067
1779 1623.543069234282
1780 1623.669848061718
1781 1623.538428633597
1782 1623.676518429935
1783 1623.539865549454
1784 1623.661240984639
1785 1623.526959388679
1786 1623.650621713191
1787 1623.532865577897
1788 1623.664966050656
1789 1623.527369432797
1790 1623.652873403457
1791 1623.524168424177
1792 1623.644847995741
1793 1623.523492906299
1794 1623.657514169473
1795 1623.527680619012
1796 1623.665540236182
1797 1623.533296057603
1798 1623.654786110954
1799 1623.528675636529
1800 1623.652969559461
1801 1623.530232327353
1802 1623.653286506862
1803 1623.536717754931
1804 1623.652314103942
1805 1623.519384422646
1806 1623.638212235041
1807 1623.519025020184
1808 1623.650545270189
1809 1623.511982090264
1810 1623.651080840704
1811 1623.523102645877
1812 1623.653499643172
1813 1623.528521829227
1814 1623.643217849426
1815 1623.528918262985
1816 1623.654798746054
1817 1623.52799438811
1818 1623.648069759019
1819 1623.529479490359
1820 1623.645340084859
1821 1623.534929283374
1822 1623.657314021437
1823 1623.529628646954
1824 1623.653625411751
1825 1623.52515261183
1826 1623.654173761957
1827 1623.539972680236
1828 1623.648954780702
1829 1623.535970807777
1830 1623.657207420332
1831 1623.537974192337
1832 1623.664496626633
1833 1623.5325063344
1834 1623.662275982092
1835 1623.537834894674
1836 1623.658505785773
1837 1623.532350216124
1838 1623.66090749985
1839 1623.537667515075
1840 1623.654274972454
1841 1623.535914075135
1842 1623.65971100854
1843 1623.530533542609
1844 1623.662354901521
1845 1623.529712532423
1846 1623.669094103103
1847 1623.530795819379
1848 1623.658661096383
1849 1623.525561686609
1850 1623.655639337157
1851 1623.539249331712
1852 1623.666367985419
1853 1623.531332684352
1854 1623.651159680181
1855 1623.534212383787
1856 1623.656516735645
1857 1623.528747782896
1858 1623.6609583451
1859 1623.535800994931
1860 1623.664684279312
1861 1623.531388377313
1862 1623.650928717671
1863 1623.523208288401
1864 1623.655487223136
1865 1623.527555386616
1866 1623.660042887141
1867 1623.529811366521
1868 1623.649309450955
1869 1623.535110795249
1870 1623.652352861847
1871 1623.535691956248
1872 1623.653088805602
1873 1623.528403693774
1874 1623.656542215734
1875 1623.530985700752
1876 1623.651354280811
1877 1623.532627213302
1878 1623.654611474657
1879 1623.528733412256
1880 1623.650063801626
1881 1623.526653929588
1882 1623.661958386165
1883 1623.539591476109
1884 1623.647984754786
1885 1623.526697693262
1886 1623.649227712666
1887 1623.531805313962
1888 1623.649309266056
1889 1623.513383475308
1890 1623.650885017003
1891 1623.536946656393
1892 1623.654771007367
1893 1623.536676622761
1894 1623.660529594158
1895 1623.540473087964
1896 1623.664238776598
1897 1623.527943157992
1898 1623.659328447994
1899 1623.535114016042
1900 1623.663189440491
1901 1623.542917816259
1902 1623.674520972563
1903 1623.546058804683
1904 1623.666690456984
1905 1623.544664893668
1906 1623.675758393838
1907 1623.553479494222
1908 1623.672631932475
1909 1623.545780636424
1910 1623.672737857916
1911 1623.557014758756
1912 1623.664086439352
1913 1623.542766631655
1914 1623.674456839809
1915 1623.543769586096
1916 1623.667995323674
1917 1623.541546575017
1918 1623.676409928119
1919 1623.551452000889
1920 1623.676682696182
1921 1623.556583500796
1922 1623.690435648833
1923 1623.560791338458
1924 1623.678752871997
1925 1623.557517763729
1926 1623.685960603108
1927 1623.559741615001
1928 1623.678115873401
1929 1623.556325459102
1930 1623.680030756014
1931 1623.557709967143
1932 1623.675689005253
1933 1623.550112532622
1934 1623.681989992856
1935 1623.55571060646
1936 1623.670124748623
1937 1623.550454194586
1938 1623.678750111827
1939 1623.554930237421
1940 1623.670244957136
1941 1623.560554292738
1942 1623.687701803535
1943 1623.55604132294
1944 1623.680992874651
1945 1623.551202008658
1946 1623.672015440313
1947 1623.559817565169
1948 1623.669120198909
1949 1623.549984876688
1950 1623.677117220452
1951 1623.5466822399
1952 1623.662611346251
1953 1623.543849605865
1954 1623.673671288637
1955 1623.554470829153
1956 1623.673957074833
1957 1623.549019844772
1958 1623.676523423552
1959 1623.553639542958
1960 1623.672071466975
1961 1623.533235496866
1962 1623.666635246462
1963 1623.538199676185
1964 1623.662621002806
1965 1623.537894709453
1966 1623.678936152098
1967 1623.549681368416
1968 1623.661767174159
1969 1623.534340949556
1970 1623.668310654356
1971 1623.549685092027
1972 1623.676395608557
1973 1623.544848991235
1974 1623.675697823158
1975 1623.547628793185
1976 1623.662679622651
1977 1623.544811827971
1978 1623.67105846237
1979 1623.547335661406
1980 1623.67341907817
1981 1623.554515929707
1982 1623.679324968825
1983 1623.555580113295
1984 1623.675744059937
1985 1623.546010825333
1986 1623.676954345006
1987 1623.546963446004
1988 1623.673911757957
1989 1623.549450130626
1990 1623.688453838148
1991 1623.549910274742
1992 1623.670498884545
1993 1623.554614207
1994 1623.675526941785
1995 1623.556780510406
1996 1623.68972365753
1997 1623.560598690505
1998 1623.689612846673
1999 1623.561123417284
2000 1623.677014691979
2001 1623.561780330747
2002 1623.697194177735
2003 1623.560187140865
2004 1623.68631672514
2005 1623.557776557396
2006 1623.679539963025
2007 1623.557667785685
2008 1623.669998974587
2009 1623.552750009755
2010 1623.674784980243
2011 1623.545718285961
2012 1623.672935892358
2013 1623.553840100466
2014 1623.676405457143
2015 1623.560217301896
2016 1623.665044360713
2017 1623.552896657453
2018 1623.689971224724
2019 1623.559864771194
2020 1623.683817003047
2021 1623.543110760358
2022 1623.667655350626
2023 1623.552866113601
2024 1623.666602235671
2025 1623.542670272099
2026 1623.670242952677
2027 1623.545358009254
2028 1623.672299217995
2029 1623.542301256207
2030 1623.660731663956
2031 1623.543434969619
2032 1623.669536984405
2033 1623.549116131904
2034 1623.680653925207
2035 1623.554005265866
2036 1623.672614652963
2037 1623.548939723796
2038 1623.678229752187
2039 1623.539530011909
2040 1623.657323411983
2041 1623.542473682196
2042 1623.658537100352
2043 1623.54174552143
2044 1623.660864242819
2045 1623.534142434486
2046 1623.67202982249
2047 1623.540965217918
2048 1623.654430902908
2049 1623.537396591919
2050 1623.668772902648
2051 1623.541936364308
2052 1623.657880051386
2053 1623.5390097572
2054 1623.665553362505
2055 1623.536580530855
2056 1623.661382367291
2057 1623.542112166411
2058 1623.663998585467
2059 1623.547033351007
2060 1623.674680610401
2061 1623.545034321278
2062 1623.674088049367
2063 1623.545628097823
2064 1623.67345683099
2065 1623.544764820598
2066 1623.666444878474
2067 1623.548254818289
2068 1623.675740166736
2069 1623.547692311717
2070 1623.677448706731
2071 1623.56383263927
2072 1623.683419222741
2073 1623.552472323184
2074 1623.676855429866
2075 1623.542010131816
2076 1623.661647369373
2077 1623.531459807856
2078 1623.658454799566
2079 1623.542657981232
2080 1623.661516212929
2081 1623.544107832021
2082 1623.675652228095
2083 1623.551253352088
2084 1623.677097794598
2085 1623.551311083051
2086 1623.670096664832
2087 1623.548493961164
2088 1623.674800107177
2089 1623.544574033814
2090 1623.662554444558
2091 1623.538543235278
2092 1623.670042817683
2093 1623.536948644063
2094 1623.6653418398
2095 1623.531783053005
2096 1623.652822695018
2097 1623.531222491459
2098 1623.647596943242
2099 1623.529099508794
2100 1623.65235109317
2101 1623.539167190635
2102 1623.655365634361
2103 1623.529223773594
2104 1623.657334475388
2105 1623.532556751279
2106 1623.656073682367
2107 1623.536557909133
2108 1623.661343150143
2109 1623.537897353341
2110 1623.66110610183
2111 1623.523440035024
2112 1623.641248748323
2113 1623.522850490044
2114 1623.639676988452
2115 1623.530390297087
2116 1623.661163628446
2117 1623.538266003921
2118 1623.656821747266
2119 1623.530608549592
2120 1623.649861310492
2121 1623.533311619761
2122 1623.657858020545
2123 1623.538016931887
2124 1623.6776776843
2125 1623.53469599993
2126 1623.658141555833
2127 1623.542499867981
2128 1623.657051161224
2129 1623.527819554169
2130 1623.657936603465
2131 1623.537700444934
2132 1623.66375702188
2133 1623.536523308304
2134 1623.656191991868
2135 1623.536604184243
2136 1623.663450053603
2137 1623.529382571316
2138 1623.654037541812
2139 1623.532606279186
2140 1623.654530522119
2141 1623.531155641436
2142 1623.644240418113
2143 1623.533301344653
2144 1623.655111757365
2145 1623.538411479107
2146 1623.660022564713
2147 1623.536030224136
2148 1623.647336755102
2149 1623.533199579963
2150 1623.649003935849
2151 1623.534651158966
2152 1623.659501833783
2153 1623.525587991165
2154 1623.647602192005
2155 1623.525401130364
2156 1623.634324041651
2157 1623.53576954744
2158 1623.663366578968
2159 1623.541171316593
2160 1623.657936660595
2161 1623.541864166259
2162 1623.656013265757
2163 1623.546643232025
2164 1623.656048558535
2165 1623.529044490663
2166 1623.649093906967
2167 1623.533506309376
2168 1623.646882899524
2169 1623.534492053253
2170 1623.647511625383
2171 1623.538060163126
2172 1623.655300817363
2173 1623.537996039842
2174 1623.655793590424
2175 1623.531255963107
2176 1623.646430987756
2177 1623.535710861634
2178 1623.654758945672
2179 1623.533462854233
2180 1623.654404150713
2181 1623.531577043603
2182 1623.656390410732
2183 1623.525055817475
2184 1623.637341666102
2185 1623.524067282131
2186 1623.643158326852
2187 1623.523304965198
2188 1623.652624903616
2189 1623.527390680318
2190 1623.649662606629
2191 1623.537481193803
2192 1623.656597362962
2193 1623.540507717527
2194 1623.650564883205
2195 1623.543096095699
2196 1623.65687677422
2197 1623.523538238202
2198 1623.648442755862
2199 1623.541031024539
2200 1623.676842716748
2201 1623.539212781932
2202 1623.659687822641
2203 1623.542203225963
2204 1623.67361079583
2205 1623.536616833961
2206 1623.664330375846
2207 1623.549305077928
2208 1623.669653603749
2209 1623.542603904966
2210 1623.667487210007
2211 1623.539639188755
2212 1623.669859441096
2213 1623.550430410053
2214 1623.667091919935
2215 1623.538042425711
2216 1623.671528629139
2217 1623.563827299146
2218 1623.682719487219
2219 1623.552687863832
2220 1623.682186102773
2221 1623.555994859996
2222 1623.674583495245
2223 1623.541380808374
2224 1623.671163357164
2225 1623.549472869266
2226 1623.665328855358
2227 1623.536671569147
2228 1623.65799792772
2229 1623.531828620222
2230 1623.658432704657
2231 1623.536768861561
2232 1623.667896449792
2233 1623.542931244507
2234 1623.660753251582
2235 1623.54888030611
2236 1623.677906462932
2237 1623.550054763844
2238 1623.660199602009
2239 1623.536186618321
2240 1623.656811497012
2241 1623.540008503199
2242 1623.649734281971
2243 1623.540883814173
2244 1623.666865627156
2245 1623.537870416443
2246 1623.658527110792
2247 1623.534898080034
2248 1623.651949019353
2249 1623.537207230931
2250 1623.653435167752
2251 1623.541692260842
2252 1623.672305124044
2253 1623.545427118211
2254 1623.659483876067
2255 1623.532379089738
2256 1623.642504225444
2257 1623.526745608676
2258 1623.652042831129
2259 1623.527492877304
2260 1623.667005961442
2261 1623.534229598816
2262 1623.647253311251
2263 1623.529172295905
2264 1623.642774423821
2265 1623.521056478736
2266 1623.650800007506
2267 1623.531306947524
2268 1623.66583039828
2269 1623.525960523726
2270 1623.646385910787
2271 1623.529754370197
2272 1623.673503062519
2273 1623.530311909186
2274 1623.65835059411
2275 1623.525662485648
2276 1623.65078878611
2277 1623.533444284596
2278 1623.649267891472
2279 1623.531152250499
2280 1623.659218922839
2281 1623.527405771697
2282 1623.652158712036
2283 1623.528800589827
2284 1623.654894542434
2285 1623.522261866134
2286 1623.644215952336
2287 1623.527930229733
2288 1623.666389763635
2289 1623.535089900481
2290 1623.668247278458
2291 1623.549695453677
2292 1623.664214565531
2293 1623.541378974103
2294 1623.663372510736
2295 1623.541186781417
2296 1623.675921561928
2297 1623.535041613693
2298 1623.662730403233
2299 1623.53552439405
2300 1623.667919620042
2301 1623.543481725064
2302 1623.661975285106
2303 1623.540299842618
2304 1623.661100710374
2305 1623.541279585475
2306 1623.664556981267
2307 1623.543949583508
2308 1623.674817454178
2309 1623.539547631386
2310 1623.659329630794
2311 1623.536292853005
2312 1623.665576901128
2313 1623.539238851422
2314 1623.662005114024
2315 1623.538384397251
2316 1623.668985089241
2317 1623.538118232443
2318 1623.654126439446
2319 1623.529294722508
2320 1623.654073779905
2321 1623.544096883879
2322 1623.68056404601
2323 1623.544875627847
2324 1623.679899477717
2325 1623.548202981949
2326 1623.672415028332
2327 1623.544357549141
2328 1623.669645458063
2329 1623.550915394931
2330 1623.670166261059
2331 1623.548649329166
2332 1623.676398069462
2333 1623.536384748698
2334 1623.653802400064
2335 1623.537329537866
2336 1623.661536935323
2337 1623.531738618068
2338 1623.659068808736
2339 1623.533762484457
2340 1623.663952501568
2341 1623.538204710827
2342 1623.650770715712
2343 1623.542678547097
2344 1623.657486308511
2345 1623.534910757812
2346 1623.652478278085
2347 1623.517422973932
2348 1623.649036763148
2349 1623.536553366444
2350 1623.661195130385
2351 1623.532171913944
2352 1623.669377034343
2353 1623.539517860966
2354 1623.662763117009
2355 1623.550768314488
2356 1623.668333484056
2357 1623.550652230816
2358 1623.666811174098
2359 1623.541759823232
2360 1623.670175797822
2361 1623.545932602964
2362 1623.667658329488
2363 1623.54826080886
2364 1623.674622695024
2365 1623.550223392766
2366 1623.663708245673
2367 1623.542179191332
2368 1623.666516955872
2369 1623.551681943394
2370 1623.662204556083
2371 1623.551643056307
2372 1623.678086217121
2373 1623.552599523709
2374 1623.665979187822
2375 1623.541520064497
2376 1623.663128990497
2377 1623.538635264384
2378 1623.6608215731
2379 1623.543620721268
2380 1623.684200247036
2381 1623.542836637602
2382 1623.654713896982
2383 1623.542052299093
2384 1623.652977339141
2385 1623.536848007603
2386 1623.668747125149
2387 1623.549243786025
2388 1623.665961462307
2389 1623.531651641442
2390 1623.648717121937
2391 1623.537373597464
2392 1623.666633340288
2393 1623.533748801018
2394 1623.657928276053
2395 1623.525793482929
2396 1623.651810699501
2397 1623.537992633145
2398 1623.650414856369
2399 1623.532718798494
2400 1623.660492405387
2401 1623.537250067655
2402 1623.654422576165
2403 1623.537154369614
2404 1623.652034590348
2405 1623.53050385955
2406 1623.651714649189
2407 1623.538320921161
2408 1623.664543237989
2409 1623.543979592389
2410 1623.666488846905
2411 1623.547106375683
2412 1623.66180391084
2413 1623.548293072816
2414 1623.667430155314
2415 1623.549285560909
2416 1623.669412131407
2417 1623.540911342803
2418 1623.661114360677
2419 1623.544294297515
2420 1623.658934217029
2421 1623.527710056649
2422 1623.654531876713
2423 1623.541815554805
2424 1623.663396427978
2425 1623.536357512292
2426 1623.652525580247
2427 1623.544165456
2428 1623.669489566398
2429 1623.536840539312
2430 1623.658479715825
2431 1623.540290269529
2432 1623.655802488504
2433 1623.541017973771
2434 1623.671339500777
2435 1623.542306782168
2436 1623.658388732305
2437 1623.544085407673
2438 1623.666142684422
2439 1623.539696979047
2440 1623.660372155134
2441 1623.551538010083
2442 1623.677634642645
2443 1623.550578081422
2444 1623.67495161551
2445 1623.556324258686
2446 1623.678310485801
2447 1623.559136586275
2448 1623.666891180294
2449 1623.551033463733
2450 1623.674484882827
2451 1623.557658574024
2452 1623.682838831021
2453 1623.551474479743
2454 1623.680257226449
2455 1623.541617886897
2456 1623.657389114267
2457 1623.548552850212
2458 1623.673146358357
2459 1623.545773946607
2460 1623.667641276103
2461 1623.554434036291
2462 1623.669756347183
2463 1623.549116497852
2464 1623.659014571727
2465 1623.543758329693
2466 1623.668074938567
2467 1623.537329740903
2468 1623.666451047214
2469 1623.537143289308
2470 1623.660104252601
2471 1623.540122045536
2472 1623.665949278155
2473 1623.538659541662
2474 1623.652916577437
2475 1623.540555039822
2476 1623.664070844449
2477 1623.535556719349
2478 1623.657964216608
2479 1623.536039960521
2480 1623.662001848111
2481 1623.544155649158
2482 1623.657521234626
2483 1623.54052859517
2484 1623.662319816146
2485 1623.538083197455
2486 1623.659330709653
2487 1623.528062829989
2488 1623.652610524213
2489 1623.538885839748
2490 1623.655586755563
2491 1623.532653684854
2492 1623.662547157583
2493 1623.536465427543
2494 1623.662523065772
2495 1623.534472073833
2496 1623.657350745206
2497 1623.53291047774
2498 1623.660504545958
2499 1623.544228214993
2500 1623.67255902745
2501 1623.546759311541
2502 1623.660263627324
2503 1623.544791613493
2504 1623.67130687957
2505 1623.553135817767
2506 1623.671257535834
2507 1623.538781835105
2508 1623.658663152728
2509 1623.542948429866
2510 1623.659726974907
2511 1623.545613727413
2512 1623.678317494394
2513 1623.556445905319
2514 1623.678162919566
2515 1623.541655813259
2516 1623.665188865638
2517 1623.545743976384
2518 1623.666488292989
2519 1623.528465632594
2520 1623.666599524386
2521 1623.536140792486
2522 1623.662496572809
2523 1623.551775899134
2524 1623.664619149357
2525 1623.552939253351
2526 1623.672527116898
2527 1623.544106341671
2528 1623.673600187333
2529 1623.544168878608
2530 1623.660753975008
2531 1623.552232844013
2532 1623.665362156247
2533 1623.535663961807
2534 1623.663406517241
2535 1623.544827257536
2536 1623.665270727998
2537 1623.54329870442
2538 1623.654918706984
2539 1623.544449503358
2540 1623.677344550804
2541 1623.5413332903
2542 1623.661672860372
2543 1623.527721460059
2544 1623.648875058015
2545 1623.533629357919
2546 1623.659235092306
2547 1623.537909977852
2548 1623.671259325708
2549 1623.533461205964
2550 1623.659413921088
2551 1623.546351518042
2552 1623.651802609492
2553 1623.541287101951
2554 1623.663049085436
2555 1623.532010505587
2556 1623.664403292524
2557 1623.534782808059
2558 1623.658187803936
2559 1623.541309022159
2560 1623.670978702517
2561 1623.541963743572
2562 1623.669055705687
2563 1623.542106290636
2564 1623.665813451807
2565 1623.54991791006
2566 1623.661228564773
2567 1623.537875882051
2568 1623.663000170191
2569 1623.526585980136
2570 1623.651443930519
2571 1623.532910451336
2572 1623.660251455985
2573 1623.533169703877
2574 1623.656841183976
2575 1623.538188595257
2576 1623.669340317214
2577 1623.540254028201
2578 1623.660149272759
2579 1623.527946076965
2580 1623.653363742181
2581 1623.539926087126
2582 1623.663513636314
2583 1623.544260320906
2584 1623.670943095408
2585 1623.546093022925
2586 1623.668312375519
2587 1623.545712529648
2588 1623.674884151679
2589 1623.549023701261
2590 1623.669975068097
2591 1623.545136171964
2592 1623.666247263289
2593 1623.547095305981
2594 1623.660273694259
2595 1623.559684252174
2596 1623.689760244543
2597 1623.555421714331
2598 1623.66471157949
2599 1623.535510234057
2600 1623.657547223299
2601 1623.545814668571
2602 1623.666941325796
2603 1623.546852980198
2604 1623.683333454784
2605 1623.554613729277
2606 1623.672430206553
2607 1623.548190414215
2608 1623.666924307139
2609 1623.553286637424
2610 1623.677778826733
2611 1623.555293315777
2612 1623.688428804049
2613 1623.560094349736
2614 1623.675042134458
2615 1623.557088571484
2616 1623.663364813556
2617 1623.549686484477
2618 1623.678830823753
2619 1623.555343430889
2620 1623.671847060186
2621 1623.535744512286
2622 1623.654363672423
2623 1623.533698966907
2624 1623.66407278357
2625 1623.537840261043
2626 1623.663979505841
2627 1623.542638963059
2628 1623.665325114478
2629 1623.549401530782
2630 1623.656933648849
2631 1623.548945414224
2632 1623.677035942304
2633 1623.548432869328
2634 1623.667206684999
2635 1623.538481360978
2636 1623.657814146474
2637 1623.540147072958
2638 1623.664117524992
2639 1623.525131389046
2640 1623.657802796861
2641 1623.531407032844
2642 1623.652624702326
2643 1623.53382988791
2644 1623.653712657797
2645 1623.534884337152
2646 1623.65179128796
2647 1623.532905758739
2648 1623.657726743128
2649 1623.547963976991
2650 1623.662108856444
2651 1623.546635726442
2652 1623.671645642999
2653 1623.549740865041
2654 1623.664218931782
2655 1623.546397243798
2656 1623.680419573632
2657 1623.540587275192
2658 1623.65986980428
2659 1623.531826031454
2660 1623.665961149683
2661 1623.544820135195
2662 1623.676067684297
2663 1623.544608795466
2664 1623.668896627941
2665 1623.544542743391
2666 1623.661224734768
2667 1623.549617179504
2668 1623.679465567054
2669 1623.549454840557
2670 1623.668808815125
2671 1623.534737686243
2672 1623.66394617087
2673 1623.536650799529
2674 1623.667068075665
2675 1623.5376288649
2676 1623.677293732589
2677 1623.545402891314
2678 1623.677206441838
2679 1623.548809920597
2680 1623.674127474356
2681 1623.548647962945
2682 1623.667487462252
2683 1623.541218843704
2684 1623.675435493327
2685 1623.539650667237
2686 1623.663338233533
2687 1623.542199590446
2688 1623.658683827381
2689 1623.532783567329
2690 1623.653148870946
2691 1623.531123699809
2692 1623.675757580834
2693 1623.5319158634
2694 1623.658884493298
2695 1623.534949053642
2696 1623.6590098605
2697 1623.529832398584
2698 1623.664438801436
2699 1623.533369280067
2700 1623.660782099702
2701 1623.532700802187
2702 1623.642583631226
2703 1623.529164573238
2704 1623.657835504928
2705 1623.515537048061
2706 1623.64392381488
2707 1623.504447140032
2708 1623.638765453167
2709 1623.508870219437
2710 1623.639956103669
2711 1623.518521308601
2712 1623.648242395911
2713 1623.519730124628
2714 1623.645858049591
2715 1623.531116646034
2716 1623.65270790239
2717 1623.522536705291
2718 1623.648990343034
2719 1623.523085341022
2720 1623.64490361502
2721 1623.518401296242
2722 1623.643748499497
2723 1623.526476891667
2724 1623.661412119874
2725 1623.523208441927
2726 1623.654540451413
2727 1623.526728037783
2728 1623.650465205696
2729 1623.523216619038
2730 1623.651028572544
2731 1623.529576238812
2732 1623.654557148252
2733 1623.526987011036
2734 1623.64918057248
2735 1623.53491377943
2736 1623.655018008504
2737 1623.522562867615
2738 1623.654761431751
2739 1623.536770260412
2740 1623.66536186464
2741 1623.522758607843
2742 1623.655371892837
2743 1623.525655258812
2744 1623.652480463258
2745 1623.521286167963
2746 1623.659759872452
2747 1623.53352811053
2748 1623.65217132536
2749 1623.536022070279
2750 1623.66956688699
2751 1623.542954942315
2752 1623.670730022579
2753 1623.540626168274
2754 1623.669042539411
2755 1623.548030379807
2756 1623.664773320899
2757 1623.542711920974
2758 1623.675702797125
2759 1623.542810128357
2760 1623.665985529427
2761 1623.537302735391
2762 1623.664163124571
2763 1623.543156223419
2764 1623.661568598947
2765 1623.531177481435
2766 1623.66479517322
2767 1623.532784390562
2768 1623.666963820037
2769 1623.533488303
2770 1623.660722866559
2771 1623.53562320563
2772 1623.660093731962
2773 1623.526708758255
2774 1623.656786279473
2775 1623.544756170126
2776 1623.654500570997
2777 1623.521344021761
2778 1623.645095442873
2779 1623.522400709698
2780 1623.649668192278
2781 1623.514069978119
2782 1623.650834756036
2783 1623.520106459398
2784 1623.64110251601
2785 1623.526722937388
2786 1623.656287070007
2787 1623.533691582253
2788 1623.65716578033
2789 1623.517459164445
2790 1623.660557893295
2791 1623.537435635351
2792 1623.645781919809
2793 1623.524535735588
2794 1623.652945675885
2795 1623.526152970624
2796 1623.64614482822
2797 1623.51951188542
2798 1623.65369889521
2799 1623.523839918237
2800 1623.653651033803
2801 1623.522969754913
2802 1623.659215307404
2803 1623.530875666649
2804 1623.654328663318
2805 1623.524690135198
2806 1623.655099298991
2807 1623.534870066106
2808 1623.649127307717
2809 1623.519954763971
2810 1623.654935053876
2811 1623.532242400167
2812 1623.659366941736
2813 1623.527092499266
2814 1623.646189983408
2815 1623.51991782958
2816 1623.646192039484
2817 1623.50829927889
2818 1623.646479061022
2819 1623.516338282668
2820 1623.642597584046
2821 1623.519765945772
2822 1623.651317262454
2823 1623.531535199906
2824 1623.666609280806
2825 1623.530193208616
2826 1623.661591740386
2827 1623.531200385217
2828 1623.655880504984
2829 1623.533382243944
2830 1623.657795280468
2831 1623.531650459344
2832 1623.662237672872
2833 1623.532826680427
2834 1623.66555671554
2835 1623.54518088106
2836 1623.660113915159
2837 1623.526283705795
2838 1623.6558978203
2839 1623.53693842733
2840 1623.655786983267
2841 1623.534886308184
2842 1623.657271802829
2843 1623.526529733385
2844 1623.652468818801
2845 1623.526775925563
2846 1623.656725993045
2847 1623.534333405075
2848 1623.65728274745
2849 1623.529837769168
2850 1623.658064753206
2851 1623.538102731355
2852 1623.647158728781
2853 1623.515953924437
2854 1623.65176644839
2855 1623.53443271334
2856 1623.65578200863
2857 1623.52431188374
2858 1623.645101104818
2859 1623.52999647999
2860 1623.644889832216
2861 1623.514773628783
2862 1623.647098221294
2863 1623.520030673334
2864 1623.639759934936
2865 1623.522538826452
2866 1623.646129206418
2867 1623.521231554099
2868 1623.653207049836
2869 1623.515386258708
2870 1623.639983895589
2871 1623.527802383534
2872 1623.638351169936
2873 1623.524882040488
2874 1623.643777989623
2875 1623.521683570304
2876 1623.642504822813
2877 1623.52249128582
2878 1623.646130131391
2879 1623.520704525223
2880 1623.64540776043
2881 1623.509379840526
2882 1623.643162646971
2883 1623.530938058632
2884 1623.653242777641
2885 1623.525328566568
2886 1623.648219512833
2887 1623.534620322418
2888 1623.665442054258
2889 1623.530615735553
2890 1623.662707244718
2891 1623.537626844695
2892 1623.65342470297
2893 1623.535069477208
2894 1623.664954529234
2895 1623.53724046975
2896 1623.662794767567
2897 1623.53217605189
2898 1623.659725783692
2899 1623.532864606661
2900 1623.673528159414
2901 1623.53839773465
2902 1623.670198342031
2903 1623.545863960169
2904 1623.66140236867
2905 1623.537560507614
2906 1623.67205868772
2907 1623.546568224958
2908 1623.66811679324
2909 1623.538204526829
2910 1623.661497364259
2911 1623.54967459107
2912 1623.667987014883
2913 1623.543864905771
2914 1623.674113010315
2915 1623.556642137969
2916 1623.680802297613
2917 1623.546216275386
2918 1623.677174105247
2919 1623.564252367997
2920 1623.672009481807
2921 1623.539460933939
2922 1623.667419040549
2923 1623.541507026087
2924 1623.653362286526
2925 1623.54071086232
2926 1623.654610043882
2927 1623.527431100829
2928 1623.65675842549
2929 1623.527126151587
2930 1623.657334370085
2931 1623.536597171966
2932 1623.658171309345
2933 1623.542358448871
2934 1623.672528813695
2935 1623.547484266652
2936 1623.670849382701
2937 1623.542587801966
2938 1623.665482936903
2939 1623.546552734037
2940 1623.655516980104
2941 1623.538273161629
2942 1623.662381913522
2943 1623.537897703497
2944 1623.658621927063
2945 1623.524796668646
2946 1623.648491136204
2947 1623.538989920952
2948 1623.66317539114
2949 1623.536151560448
2950 1623.668941565777
2951 1623.545246129106
2952 1623.661654780329
2953 1623.542923513136
2954 1623.653671110084
2955 1623.536034404956
2956 1623.661038892585
2957 1623.540811104702
2958 1623.662394944052
2959 1623.533648917204
2960 1623.661239355421
2961 1623.54398380623
2962 1623.668073596326
2963 1623.537412119077
2964 1623.668672185777
2965 1623.549247003533
2966 1623.679445676242
2967 1623.562163212946
2968 1623.676171404897
2969 1623.555698740327
2970 1623.674361173866
2971 1623.550510615104
2972 1623.666451441669
2973 1623.544720820639
2974 1623.675547193275
2975 1623.544167312095
2976 1623.672441293795
2977 1623.538347474229
2978 1623.662570360947
2979 1623.548766446822
2980 1623.665013224941
2981 1623.538513825934
2982 1623.658271388742
2983 1623.549945198585
2984 1623.682798287055
2985 1623.555942088198
2986 1623.67535094941
2987 1623.551835224421
2988 1623.673918954504
2989 1623.543024359872
2990 1623.669147379833
2991 1623.546057818516
2992 1623.675616994364
2993 1623.541474150276
2994 1623.662114093998
2995 1623.545650045298
2996 1623.661255894415
2997 1623.544047636168
2998 1623.668825265675
2999 1623.545798087131
3000 1623.669119628411
3001 1623.541805142268
3002 1623.660326958559
3003 1623.546984188489
3004 1623.67416102715
3005 1623.53208580776
3006 1623.663182032738
3007 1623.525030778756
3008 1623.646042136385
3009 1623.530700863908
3010 1623.650476159709
3011 1623.535798855203
3012 1623.659275746569
3013 1623.534995145348
3014 1623.656236130324
3015 1623.534951076987
3016 1623.64802335446
3017 1623.52049655056
3018 1623.640133061852
3019 1623.523438012351
3020 1623.654309247904
3021 1623.520587915829
3022 1623.650747986713
3023 1623.529679666349
3024 1623.650787114276
3025 1623.522823903516
3026 1623.657659164356
3027 1623.542452422348
3028 1623.657724102223
3029 1623.52747191107
3030 1623.656670251922
3031 1623.538167831609
3032 1623.659527899036
3033 1623.537417693087
3034 1623.670024182502
3035 1623.535567950264
3036 1623.661587101137
3037 1623.540582538854
3038 1623.654179974642
3039 1623.536899290991
3040 1623.674380330067
3041 1623.547834175463
3042 1623.678056113705
3043 1623.546434061451
3044 1623.669903934882
3045 1623.5448471129
3046 1623.668531345783
3047 1623.549856762164
3048 1623.673049748555
3049 1623.539728190046
3050 1623.665097229172
3051 1623.558161258189
3052 1623.68655352502
3053 1623.558507775683
3054 1623.679074398119
3055 1623.55224235216
3056 1623.68003094952
3057 1623.546041599252
3058 1623.674213099271
3059 1623.549180511699
3060 1623.677216838436
3061 1623.54531176258
3062 1623.677878368756
3063 1623.558134791317
3064 1623.687767278467
3065 1623.554499654439
3066 1623.669576831427
3067 1623.551171132972
3068 1623.670053058873
3069 1623.547077526277
3070 1623.665052954166
3071 1623.538373095817
3072 1623.662775195426
3073 1623.546749458253
3074 1623.659697861298
3075 1623.549647648747
3076 1623.676444731996
3077 1623.545953820293
3078 1623.672892914363
3079 1623.541425823958
3080 1623.66803662903
3081 1623.552308652356
3082 1623.671238305916
3083 1623.549099187665
3084 1623.669085133035
3085 1623.539796214872
3086 1623.660205550856
3087 1623.54843766401
3088 1623.667295459484
3089 1623.540685713111
3090 1623.664093326869
3091 1623.539434814932
3092 1623.675222343928
3093 1623.544635874556
3094 1623.663732690254
3095 1623.532995214093
3096 1623.660152014703
3097 1623.532993244986
3098 1623.667669370164
3099 1623.539181060435
3100 1623.665446221964
3101 1623.537066856661
3102 1623.655946124968
3103 1623.532057185413
3104 1623.66381937638
3105 1623.538960349212
3106 1623.667539170959
3107 1623.543833779225
3108 1623.669220651577
3109 1623.548424691055
3110 1623.675486687053
3111 1623.551108814083
3112 1623.678008438482
3113 1623.541811605711
3114 1623.667546304453
3115 1623.546116532458
3116 1623.675929623638
3117 1623.559217117711
3118 1623.677495057888
3119 1623.554626976453
3120 1623.673406650091
3121 1623.555568400418
3122 1623.664434989024
3123 1623.539076548976
3124 1623.671018229961
3125 1623.55757310871
3126 1623.680759067355
3127 1623.557696087698
3128 1623.682931703022
3129 1623.558228793466
3130 1623.679193129904
3131 1623.547659663243
3132 1623.679576997554
3133 1623.557066257914
3134 1623.672099634474
3135 1623.558114510184
3136 1623.680357816542
3137 1623.554071348299
3138 1623.676110477767
3139 1623.546030908022
3140 1623.669144935682
3141 1623.54875986299
3142 1623.661073508821
3143 1623.549200929275
3144 1623.667820274395
3145 1623.541739831248
3146 1623.662370220446
3147 1623.544464985922
3148 1623.671332993776
3149 1623.534053199498
3150 1623.653290973398
3151 1623.530494741269
3152 1623.657281741043
3153 1623.535173903836
3154 1623.659936277185
3155 1623.536280046461
3156 1623.662072442645
3157 1623.533775501245
3158 1623.666268019795
3159 1623.546819106857
3160 1623.661158167728
3161 1623.531834267167
3162 1623.657332834846
3163 1623.531970326778
3164 1623.656906600047
3165 1623.535289337989
3166 1623.643853048
3167 1623.523155443249
3168 1623.65042569666
3169 1623.522459756762
3170 1623.653794028843
3171 1623.528919352678
3172 1623.648800423408
3173 1623.515946196127
3174 1623.639584252434
3175 1623.529286670814
3176 1623.64721628219
3177 1623.526564204447
3178 1623.656104629293
3179 1623.531888619843
3180 1623.646566299747
3181 1623.532599247738
3182 1623.639924174275
3183 1623.529205881203
3184 1623.655543843998
3185 1623.542391058965
3186 1623.680931251273
3187 1623.541729439779
3188 1623.668024188336
3189 1623.550532248056
3190 1623.679623819562
3191 1623.548327937454
3192 1623.667518016753
3193 1623.542053856867
3194 1623.663950791718
3195 1623.542778873774
3196 1623.660547778199
3197 1623.541316206771
3198 1623.661678391924
3199 1623.524207504373
3200 1623.65442090441
3201 1623.541813362536
3202 1623.656451710303
3203 1623.528716160804
3204 1623.656207499658
3205 1623.535312484065
3206 1623.656085610891
3207 1623.529987418303
3208 1623.656322165744
3209 1623.540558837442
3210 1623.657583368429
3211 1623.530634848815
3212 1623.657977680024
3213 1623.530642576346
3214 1623.665603516966
3215 1623.537543380457
3216 1623.664190793965
3217 1623.537492983932
3218 1623.658977927497
3219 1623.544079357958
3220 1623.666012125692
3221 1623.538120563367
3222 1623.6588419963
3223 1623.539585736369
3224 1623.665782678646
3225 1623.541377532478
3226 1623.658095977586
3227 1623.526638974245
3228 1623.64273754024
3229 1623.523642939748
3230 1623.643810488486
3231 1623.525939861988
3232 1623.6530118573
3233 1623.535106921389
3234 1623.6653443553
3235 1623.534235109807
3236 1623.662915594172
3237 1623.538293638463
3238 1623.659292551493
3239 1623.546121638932
3240 1623.669148825368
3241 1623.538583402202
3242 1623.662201758513
3243 1623.537001591245
3244 1623.6580282728
3245 1623.524612770986
3246 1623.654898770214
3247 1623.520968650958
3248 1623.651532363339
3249 1623.512402383854
3250 1623.638824339098
3251 1623.517741644175
3252 1623.646673441644
3253 1623.515081785352
3254 1623.641221410302
3255 1623.523084592834
3256 1623.653737228213
3257 1623.529809054552
3258 1623.655111940701
3259 1623.529590893814
3260 1623.657664352747
3261 1623.534591943143
3262 1623.652884318851
3263 1623.525778129944
3264 1623.651187944636
3265 1623.525438497605
3266 1623.648898400847
3267 1623.528924814078
3268 1623.652802702772
3269 1623.526385202276
3270 1623.651179112372
3271 1623.531618014755
3272 1623.658344727644
3273 1623.533184697541
3274 1623.654888555891
3275 1623.544208669975
3276 1623.671566676337
3277 1623.542390534928
3278 1623.667344594224
3279 1623.540427836132
3280 1623.674485255829
3281 1623.536484032501
3282 1623.657828580268
3283 1623.540297431352
3284 1623.665239109478
3285 1623.538659106515
3286 1623.661103098636
3287 1623.531819230191
3288 1623.653046534625
3289 1623.528547900351
3290 1623.645804156463
3291 1623.534644721758
3292 1623.666174926718
3293 1623.531082644576
3294 1623.658728646805
3295 1623.532266735657
3296 1623.662442323429
3297 1623.541910855881
3298 1623.664053374959
3299 1623.542674208073
3300 1623.667454490587
3301 1623.535424407518
3302 1623.653585805323
3303 1623.53205697917
3304 1623.651402610539
3305 1623.532067894923
3306 1623.662797144374
3307 1623.528176313518
3308 1623.653404115795
3309 1623.523371968585
3310 1623.64311121013
3311 1623.515729836826
3312 1623.647773341739
3313 1623.522482464199
3314 1623.644565936598
3315 1623.527206345113
3316 1623.645158613824
3317 1623.517312744853
3318 1623.626883503033
3319 1623.515654909765
3320 1623.650675282198
3321 1623.519429582258
3322 1623.643421528818
3323 1623.519101565405
3324 1623.634069201165
3325 1623.515433010735
3326 1623.637538974859
3327 1623.510693548046
3328 1623.646778622953
3329 1623.519118447481
3330 1623.639836449467
3331 1623.52608401304
3332 1623.64489265444
3333 1623.533762646604
3334 1623.665018762463
3335 1623.52895759694
3336 1623.654443622812
3337 1623.524258575363
3338 1623.648253571331
3339 1623.526493398544
3340 1623.656093332649
3341 1623.527684828682
3342 1623.667996043499
3343 1623.538153685962
3344 1623.664406075206
3345 1623.550901721943
3346 1623.658193717799
3347 1623.54678730014
3348 1623.671986019938
3349 1623.544802023374
3350 1623.677246904324
3351 1623.54745177029
3352 1623.675569292246
3353 1623.539348202453
3354 1623.661827965346
3355 1623.543479642152
3356 1623.670319861478
3357 1623.542767631125
3358 1623.663302315027
3359 1623.534474412594
3360 1623.664710894469
3361 1623.540463999454
3362 1623.659515877044
3363 1623.53543329613
3364 1623.671681928079
3365 1623.554433744803
3366 1623.678785597171
3367 1623.553866842557
3368 1623.677210428203
3369 1623.559598194054
3370 1623.676555832456
3371 1623.549429546991
3372 1623.674712652183
3373 1623.553114565824
3374 1623.667659218788
3375 1623.551324555308
3376 1623.675905059395
3377 1623.549650976164
3378 1623.674374101593
3379 1623.54164125459
3380 1623.670666470544
3381 1623.547290141978
3382 1623.660139788291
3383 1623.546953181304
3384 1623.659801217552
3385 1623.534958322906
3386 1623.65622523597
3387 1623.533066957129
3388 1623.652803964465
3389 1623.541125865946
3390 1623.645626397865
3391 1623.532677679758
3392 1623.659509019901
3393 1623.535330598266
3394 1623.666612143739
3395 1623.530090687053
3396 1623.659820628797
3397 1623.529600759241
3398 1623.656244521056
3399 1623.539723382525
3400 1623.674109791366
3401 1623.542809314465
3402 1623.660952297309
3403 1623.534325918517
3404 1623.661567786699
3405 1623.544340612136
3406 1623.652188976298
3407 1623.523910113222
3408 1623.654357330314
3409 1623.532341559481
3410 1623.663990716097
3411 1623.54110118587
3412 1623.66315605393
3413 1623.540508292968
3414 1623.664497465619
3415 1623.53889977312
3416 1623.664726217268
3417 1623.544898396952
3418 1623.665651703389
3419 1623.552396185194
3420 1623.66909325231
3421 1623.543450284452
3422 1623.679851500591
3423 1623.548048539084
3424 1623.675162842056
3425 1623.546389705374
3426 1623.666117371978
3427 1623.550694444564
3428 1623.67081694319
3429 1623.546861233922
3430 1623.667955674585
3431 1623.552357509221
3432 1623.66995864808
3433 1623.547164172982
3434 1623.659345295756
3435 1623.541593936527
3436 1623.661918622419
3437 1623.542490855765
3438 1623.662327905795
3439 1623.533327304055
3440 1623.660619290066
3441 1623.549526553119
3442 1623.679865600228
3443 1623.546698800905
3444 1623.671194580146
3445 1623.547597743425
3446 1623.67045416095
3447 1623.552725360579
3448 1623.676547164324
3449 1623.546316668694
3450 1623.666861625849
3451 1623.535339557152
3452 1623.659202865326
3453 1623.539843455205
3454 1623.668977666647
3455 1623.541021325083
3456 1623.652423418241
3457 1623.532773764911
3458 1623.655932236413
3459 1623.542013779897
3460 1623.664893610165
3461 1623.538397950926
3462 1623.656372099746
3463 1623.542657114303
3464 1623.658030465415
3465 1623.535785608636
3466 1623.65437954611
3467 1623.526591860458
3468 1623.661846171007
3469 1623.536377037622
3470 1623.66538837096
3471 1623.544229634877
3472 1623.67061519737
3473 1623.541435348897
3474 1623.661680956211
3475 1623.531504428938
3476 1623.655459644532
3477 1623.541404422404
3478 1623.661268006395
3479 1623.547426282681
3480 1623.662585721243
3481 1623.537525307668
3482 1623.668221682683
3483 1623.540693269392
3484 1623.661393937684
3485 1623.539496105375
3486 1623.659291852474
3487 1623.543882730923
3488 1623.664881406801
3489 1623.543368733279
3490 1623.670097607032
3491 1623.5420829153
3492 1623.662529731918
3493 1623.548133480492
3494 1623.663195847802
3495 1623.553535855952
3496 1623.672433067208
3497 1623.54716974898
3498 1623.680735563312
3499 1623.540721572661
3500 1623.668850582591
3501 1623.534880613084
3502 1623.662933352302
3503 1623.55268756174
3504 1623.67485746731
3505 1623.546736017472
3506 1623.679519522517
3507 1623.55796727778
3508 1623.673531010633
3509 1623.54336297193
3510 1623.669131939474
3511 1623.546288464355
3512 1623.663808576407
3513 1623.548717824637
3514 1623.681880089173
3515 1623.544551578067
3516 1623.665089797455
3517 1623.538508443348
3518 1623.669566673731
3519 1623.544097327582
3520 1623.66716868338
3521 1623.546129671578
3522 1623.683354026895
3523 1623.552845724784
3524 1623.673280307091
3525 1623.543737593624
3526 1623.683819540435
3527 1623.560200592011
3528 1623.670690739878
3529 1623.544134097737
3530 1623.671776254861
3531 1623.549483289037
3532 1623.665699083532
3533 1623.542648810063
3534 1623.663344899354
3535 1623.536643475709
3536 1623.661102260802
3537 1623.540821492482
3538 1623.660323469337
3539 1623.539963140575
3540 1623.665467984612
3541 1623.537167844528
3542 1623.678718084744
3543 1623.550637319772
3544 1623.666553899616
3545 1623.528425698349
3546 1623.659281449853
3547 1623.534236838223
3548 1623.651180385026
3549 1623.526267432882
3550 1623.65750098868
3551 1623.538310807663
3552 1623.651253062027
3553 1623.523602242685
3554 1623.648080406263
3555 1623.522021577131
3556 1623.643066590757
3557 1623.529534308054
3558 1623.658495189893
3559 1623.531777579287
3560 1623.66153609495
3561 1623.537127004482
3562 1623.667365514397
3563 1623.532939903903
3564 1623.660388911593
3565 1623.537905435959
3566 1623.663214624642
3567 1623.545992589317
3568 1623.672744533811
3569 1623.535083490009
3570 1623.66385170306
3571 1623.53661149611
3572 1623.668409909668
3573 1623.527176664603
3574 1623.65992532874
3575 1623.540473805926
3576 1623.661775469214
3577 1623.528980838482
3578 1623.662879880854
3579 1623.538665434966
3580 1623.666742429081
3581 1623.540628534828
3582 1623.653010881378
3583 1623.525409146452
3584 1623.65777496883
3585 1623.539386490128
3586 1623.662678203006
3587 1623.535315687992
3588 1623.661149049789
3589 1623.537415544543
3590 1623.665058919392
3591 1623.545798023269
3592 1623.669819612625
3593 1623.548568959616
3594 1623.681181688672
3595 1623.557514683059
3596 1623.675269904015
3597 1623.552162689131
3598 1623.674492287951
3599 1623.554440068965
3600 1623.6645934369
3601 1623.548834557481
3602 1623.677148829139
3603 1623.549702289354
3604 1623.663386334508
3605 1623.537095960156
3606 1623.652480931718
3607 1623.546207918187
3608 1623.649089015357
3609 1623.524208593665
3610 1623.647020777923
3611 1623.5365733043
3612 1623.653792559935
3613 1623.5291063076
3614 1623.650030991033
3615 1623.536911956056
3616 1623.667893343815
3617 1623.535942939473
3618 1623.662294678576
3619 1623.540674890235
3620 1623.654910628978
3621 1623.534767431062
3622 1623.650849031105
3623 1623.527327505642
3624 1623.654378121378
3625 1623.52751184119
3626 1623.647164016058
3627 1623.53417427263
3628 1623.647037077748
3629 1623.527686473407
3630 1623.648464812193
3631 1623.530925184228
3632 1623.660275945029
3633 1623.54813541759
3634 1623.665990098718
3635 1623.5497263466
3636 1623.66662918972
3637 1623.546959008941
3638 1623.671040213472
3639 1623.552892483019
3640 1623.668786023816
3641 1623.546700409728
3642 1623.657559159254
3643 1623.541550883535
3644 1623.650864486083
3645 1623.540725344004
3646 1623.660199784347
3647 1623.539111451023
3648 1623.654137883322
3649 1623.535401865256
3650 1623.653646226671
3651 1623.537201351042
3652 1623.656251266724
3653 1623.542976482134
3654 1623.663950516555
3655 1623.535192142613
3656 1623.664092464745
3657 1623.546449815126
3658 1623.672058006191
3659 1623.540057149217
3660 1623.658528083165
3661 1623.537445952733
3662 1623.667502814744
3663 1623.528657057888
3664 1623.666123953167
3665 1623.530180906627
3666 1623.654022339279
3667 1623.543239030985
3668 1623.671329293411
3669 1623.554594164892
3670 1623.680569013758
3671 1623.552206494364
3672 1623.673691676801
3673 1623.546702558601
3674 1623.673858413629
3675 1623.547789941789
3676 1623.663999096771
3677 1623.54045657208
3678 1623.67048523067
3679 1623.532273611642
3680 1623.667341867826
3681 1623.537457264386
3682 1623.67240889805
3683 1623.544987307863
3684 1623.664035469928
3685 1623.539973913114
3686 1623.668140227857
3687 1623.549019307779
3688 1623.678586663012
3689 1623.54503797723
3690 1623.670609280991
3691 1623.541804474489
3692 1623.664025158972
3693 1623.551851941197
3694 1623.677623068276
3695 1623.541058759193
3696 1623.669026096255
3697 1623.540751235661
3698 1623.664849557656
3699 1623.534700831994
3700 1623.658843397185
3701 1623.543487784566
3702 1623.663946813173
3703 1623.539923191111
3704 1623.662149526248
3705 1623.534422936534
3706 1623.659336614853
3707 1623.544615167896
3708 1623.662238208542
3709 1623.532080313492
3710 1623.666368063351
3711 1623.544722619929
3712 1623.663616842716
3713 1623.531651598688
3714 1623.659691724536
3715 1623.549346733696
3716 1623.673937823725
3717 1623.546447472643
3718 1623.671815892196
3719 1623.553054062958
3720 1623.68533829917
3721 1623.543258785362
3722 1623.669341351661
3723 1623.544004185234
3724 1623.659671867947
3725 1623.533003919402
3726 1623.660371137026
3727 1623.537357438672
3728 1623.659974194599
3729 1623.538170698926
3730 1623.661211029108
3731 1623.547889766957
3732 1623.660683367572
3733 1623.541668295245
3734 1623.676944348431
3735 1623.550005645397
3736 1623.670816217674
3737 1623.537797145558
3738 1623.665321388399
3739 1623.551133987244
3740 1623.666491728858
3741 1623.535898956297
3742 1623.664922523811
3743 1623.549348457038
3744 1623.674986094901
3745 1623.546818760345
3746 1623.667952946837
3747 1623.55930330256
3748 1623.689652585727
3749 1623.55022124081
3750 1623.673998030031
3751 1623.551866548684
3752 1623.667800730742
3753 1623.550589836593
3754 1623.661158350459
3755 1623.539426125202
3756 1623.671644619288
3757 1623.533050513017
3758 1623.658505007129
3759 1623.535235943733
3760 1623.65218651593
3761 1623.528114620483
3762 1623.645811718768
3763 1623.53505053313
3764 1623.670311560783
3765 1623.537818562406
3766 1623.661016811482
3767 1623.541314923159
3768 1623.666716653365
3769 1623.529115669611
3770 1623.656075078984
3771 1623.532118634073
3772 1623.64713776311
3773 1623.519648461202
3774 1623.651278445608
3775 1623.523950913559
3776 1623.647429909333
3777 1623.531034192599
3778 1623.671388225045
3779 1623.545962485927
3780 1623.666848508409
3781 1623.54070261976
3782 1623.673110413764
3783 1623.549916639978
3784 1623.658522806001
3785 1623.53851227537
3786 1623.659800180939
3787 1623.539286647489
3788 1623.654944629896
3789 1623.532347648662
3790 1623.661492852327
3791 1623.534112116716
3792 1623.658955169886
3793 1623.52570223419
3794 1623.661066436055
3795 1623.551746689653
3796 1623.685367123255
3797 1623.546403860353
3798 1623.672216424099
3799 1623.548065246467
3800 1623.670469814052
3801 1623.540503230307
3802 1623.662132733455
3803 1623.550124134088
3804 1623.673546991631
3805 1623.540468988612
3806 1623.659864502561
3807 1623.537244551411
3808 1623.670838611051
3809 1623.530093151804
3810 1623.656348253736
3811 1623.53710648446
3812 1623.657038052723
3813 1623.537364012688
3814 1623.666214092976
3815 1623.54005758816
3816 1623.658109078775
3817 1623.53707871318
3818 1623.657501322536
3819 1623.546815854564
3820 1623.659377407231
3821 1623.52450932111
3822 1623.652539565362
3823 1623.531115519221
3824 1623.645736228491
3825 1623.532836374483
3826 1623.651934872779
3827 1623.539382125798
3828 1623.66020848628
3829 1623.53183657704
3830 1623.658562110497
3831 1623.54630140542
3832 1623.656398055285
3833 1623.533096343718
3834 1623.652297676666
3835 1623.540439245856
3836 1623.650551854208
3837 1623.521419899666
3838 1623.652171388491
3839 1623.533523368667
3840 1623.659984958404
3841 1623.526092803781
3842 1623.643361997253
3843 1623.529148550852
3844 1623.653626708286
3845 1623.517644680342
3846 1623.647819586305
3847 1623.524199762711
3848 1623.64191871724
3849 1623.527360960964
3850 1623.649655805649
3851 1623.524644762659
3852 1623.654322154492
3853 1623.519474992771
3854 1623.646071171984
3855 1623.520957938517
3856 1623.647935569326
3857 1623.517360990029
3858 1623.644551476904
3859 1623.516847971508
3860 1623.650537696759
3861 1623.519893745215
3862 1623.646844284885
3863 1623.526174892917
3864 1623.64647529054
3865 1623.527125370562
3866 1623.646054385689
3867 1623.531655670165
3868 1623.655186623338
3869 1623.527099356892
3870 1623.65230247
3871 1623.52934856257
3872 1623.656425894436
3873 1623.534570777577
3874 1623.657022171278
3875 1623.539154598893
3876 1623.655108804035
3877 1623.531420579773
3878 1623.655753145378
3879 1623.539187121155
3880 1623.659008974729
3881 1623.529140245379
3882 1623.650542769423
3883 1623.535955302975
3884 1623.664866202447
3885 1623.543682415046
3886 1623.66618185742
3887 1623.533527925352
3888 1623.654535072426
3889 1623.531709300377
3890 1623.660493794142
3891 1623.541971365073
3892 1623.662130189871
3893 1623.544176091166
3894 1623.661537028766
3895 1623.535520972787
3896 1623.647766978504
3897 1623.521539824646
3898 1623.647359637689
3899 1623.52770971878
3900 1623.661494083726
3901 1623.537308941409
3902 1623.658770237163
3903 1623.540761262443
3904 1623.667494004907
3905 1623.538591050143
3906 1623.658403160063
3907 1623.545520002583
3908 1623.662467956394
3909 1623.54869192087
3910 1623.665491905719
3911 1623.546789863755
3912 1623.674123988268
3913 1623.534140203057
3914 1623.657559216427
3915 1623.535157545979
3916 1623.650168980359
3917 1623.532811216493
3918 1623.662622877628
3919 1623.530372848207
3920 1623.657875864357
3921 1623.540763167837
3922 1623.657735998637
3923 1623.538827245691
3924 1623.650877280551
3925 1623.5219350042
3926 1623.651418799725
3927 1623.537279644677
3928 1623.658540069412
3929 1623.528641248614
3930 1623.654323887877
3931 1623.533915147643
3932 1623.649374099259
3933 1623.535653453368
3934 1623.659645845576
3935 1623.522605553815
3936 1623.652530125885
3937 1623.536481543662
3938 1623.661889575617
3939 1623.54146195215
3940 1623.66125159397
3941 1623.538491028222
3942 1623.674541529099
3943 1623.53924538975
3944 1623.659035164268
3945 1623.545003333426
3946 1623.666710819307
3947 1623.530753179068
3948 1623.652905823323
3949 1623.523785142419
3950 1623.657627721938
3951 1623.533261271084
3952 1623.648287702528
3953 1623.539737283892
3954 1623.65719875088
3955 1623.536721620728
3956 1623.655851254378
3957 1623.53232703703
3958 1623.662461774429
3959 1623.54663533622
3960 1623.669419246206
3961 1623.540818875065
3962 1623.666818064141
3963 1623.548669610853
3964 1623.665993583884
3965 1623.530108715521
3966 1623.662115937968
3967 1623.533962950809
3968 1623.652322714307
3969 1623.536677537604
3970 1623.650323422998
3971 1623.529128546541
3972 1623.657470805997
3973 1623.533204044441
3974 1623.658536422884
3975 1623.539715982017
3976 1623.653178669327
3977 1623.543095313911
3978 1623.667414979604
3979 1623.541111655057
3980 1623.671936624808
3981 1623.548134319808
3982 1623.672390119115
3983 1623.541483503731
3984 1623.663072573371
3985 1623.536778542093
3986 1623.65183889343
3987 1623.53162762434
3988 1623.653388482792
3989 1623.511217111152
3990 1623.644122325707
3991 1623.533093645318
3992 1623.648798176637
3993 1623.529190732739
3994 1623.652711485454
3995 1623.53209923755
3996 1623.651354991301
3997 1623.522332376376
3998 1623.649700656111
3999 1623.532411153898
4000 1623.654953741106
4001 1623.523944764053
4002 1623.654953200049
4003 1623.525606834407
4004 1623.661352708607
4005 1623.530749389722
4006 1623.65779517205
4007 1623.53497260744
4008 1623.654146517146
4009 1623.52330068028
4010 1623.653522645729
4011 1623.525774117133
4012 1623.651219612432
4013 1623.529589285411
4014 1623.654126725906
4015 1623.531417770778
4016 1623.663822190094
4017 1623.541316093472
4018 1623.676360236789
4019 1623.545665347346
4020 1623.670327025138
4021 1623.539960416451
4022 1623.666827941326
4023 1623.550625957882
4024 1623.67547090229
4025 1623.542487892084
4026 1623.668183811207
4027 1623.546111998934
4028 1623.660873035724
4029 1623.541148149881
4030 1623.664651111303
4031 1623.548404296741
4032 1623.678298005995
4033 1623.547530311411
4034 1623.675217716933
4035 1623.554115663177
4036 1623.666380603927
4037 1623.540271791896
4038 1623.658633841412
4039 1623.527995454225
4040 1623.658258057676
4041 1623.533044410363
4042 1623.662581965761
4043 1623.530800111464
4044 1623.654772525224
4045 1623.528004462376
4046 1623.664109269429
4047 1623.543053427973
4048 1623.679650696825
4049 1623.536306214694
4050 1623.669818743227
4051 1623.537921688643
4052 1623.662449091656
4053 1623.530183319603
4054 1623.663130397746
4055 1623.540653628173
4056 1623.666401981253
4057 1623.52657494667
4058 1623.657138526223
4059 1623.52990024085
4060 1623.649361652872
4061 1623.530954104368
4062 1623.646225305829
4063 1623.51926390611
4064 1623.657183977473
4065 1623.532924378077
4066 1623.668138632924
4067 1623.539361362592
4068 1623.661087063382
4069 1623.538458707182
4070 1623.666411043369
4071 1623.554104088975
4072 1623.673265812007
4073 1623.540941805177
4074 1623.66753856742
4075 1623.535509940314
4076 1623.6526613406
4077 1623.528999057562
4078 1623.661184873431
4079 1623.533606724718
4080 1623.659371809473
4081 1623.531300004566
4082 1623.655765296069
4083 1623.538722600063
4084 1623.665415677848
4085 1623.532104882652
4086 1623.660366867726
4087 1623.545303781664
4088 1623.670210320648
4089 1623.537241255784
4090 1623.664926310396
4091 1623.546851347903
4092 1623.67484436781
4093 1623.542368493154
4094 1623.670505332225
4095 1623.55656919941
4096 1623.680419533466
4097 1623.543470294024
4098 1623.670438912127
4099 1623.533398561634
4100 1623.660192717296
4101 1623.543093994417
4102 1623.664755449068
4103 1623.553814200835
4104 1623.662524716056
4105 1623.538786989438
4106 1623.672232493475
4107 1623.547848667206
4108 1623.669472894574
4109 1623.539733497789
4110 1623.668748487034
4111 1623.551933085773
4112 1623.666712766457
4113 1623.544341133937
4114 1623.672501001533
4115 1623.549305321536
4116 1623.683931519577
4117 1623.542944021268
4118 1623.674128469398
4119 1623.553184042895
4120 1623.675651512568
4121 1623.548864945555
4122 1623.677603417777
4123 1623.557900653829
4124 1623.672888245573
4125 1623.562487236409
4126 1623.67237343091
4127 1623.560903302355
4128 1623.681456175206
4129 1623.550485531204
4130 1623.672581610144
4131 1623.552770258876
4132 1623.673958394982
4133 1623.54650447652
4134 1623.668862457768
4135 1623.552058220262
4136 1623.674942269619
4137 1623.555573968214
4138 1623.686665446116
4139 1623.54834408643
4140 1623.668930043936
4141 1623.539634096564
4142 1623.663542298856
4143 1623.53967350047
4144 1623.665326753197
4145 1623.545049701898
4146 1623.663489618411
4147 1623.540184373556
4148 1623.66041562042
4149 1623.543805910545
4150 1623.671378143418
4151 1623.547866129112
4152 1623.664774820035
4153 1623.535219808097
4154 1623.661570040889
4155 1623.54485481622
4156 1623.665160141448
4157 1623.540083701331
4158 1623.660871655545
4159 1623.532779177713
4160 1623.661455874245
4161 1623.544910536924
4162 1623.662847089382
4163 1623.541962473272
4164 1623.662248092468
4165 1623.539704441424
4166 1623.667818079316
4167 1623.54754512806
4168 1623.669848553972
4169 1623.540799891987
4170 1623.66725783185
4171 1623.546636953718
4172 1623.665399819594
4173 1623.54411553329
4174 1623.667186782475
4175 1623.549111663462
4176 1623.67055151191
4177 1623.536066032837
4178 1623.665634435192
4179 1623.535623371564
4180 1623.656224958367
4181 1623.537162677131
4182 1623.654289988626
4183 1623.538704199266
4184 1623.660514387304
4185 1623.540209904201
4186 1623.677120134905
4187 1623.547521455464
4188 1623.667575074777
4189 1623.545274661449
4190 1623.670339969326
4191 1623.558028455079
4192 1623.68974174725
4193 1623.549106251801
4194 1623.675614251684
4195 1623.551225134492
4196 1623.670503552289
4197 1623.545927510674
4198 1623.679358688314
4199 1623.552216695469
4200 1623.672802342943
4201 1623.536008330331
4202 1623.65934620441
4203 1623.545184936879
4204 1623.663679382291
4205 1623.537651685413
4206 1623.660612879949
4207 1623.536672147222
4208 1623.66602273456
4209 1623.538579308615
4210 1623.674272477201
4211 1623.543489400427
4212 1623.6728659099
4213 1623.541233837328
4214 1623.664173807478
4215 1623.538436192696
4216 1623.663082915049
4217 1623.534065092167
4218 1623.657198290218
4219 1623.530859949517
4220 1623.653387385011
4221 1623.522307154473
4222 1623.65159790158
4223 1623.532167360383
4224 1623.655724063124
4225 1623.526689479669
4226 1623.655124587846
4227 1623.544906356421
4228 1623.671654870552
4229 1623.541483489012
4230 1623.653148209718
4231 1623.542103017828
4232 1623.663399685835
4233 1623.536568544549
4234 1623.655838403647
4235 1623.537187102704
4236 1623.652112940658
4237 1623.522733106549
4238 1623.641954652879
4239 1623.521012968956
4240 1623.649302931425
4241 1623.528304418901
4242 1623.653369320522
4243 1623.528393556087
4244 1623.659580763094
4245 1623.538339098218
4246 1623.660570788787
4247 1623.548120768608
4248 1623.661044370007
4249 1623.529613584316
4250 1623.65677625578
4251 1623.552143545901
4252 1623.663731402645
4253 1623.53797895102
4254 1623.656633893165
4255 1623.529962281335
4256 1623.648292371891
4257 1623.523699371812
4258 1623.650077766217
4259 1623.533467171852
4260 1623.664901525901
4261 1623.53103820721
4262 1623.65899260729
4263 1623.544291197861
4264 1623.652612494001
4265 1623.53878902189
4266 1623.659926834941
4267 1623.528245876138
4268 1623.652615932098
4269 1623.531091306371
4270 1623.65938838898
4271 1623.540604390111
4272 1623.662952648285
4273 1623.537512325444
4274 1623.668641919066
4275 1623.54796367182
4276 1623.663351339054
4277 1623.54314036407
4278 1623.661444929898
4279 1623.545770147756
4280 1623.670219549743
4281 1623.541885021782
4282 1623.664274935377
4283 1623.542172719832
4284 1623.649014875546
