"mz-rfile"
"Iteration" "mz"
("Iteration" "mz")
1 -3872.63626297121
2 -3751.052400235419
3 -3309.896851033064
4 -2836.312444823433
5 -2399.484624847319
6 -1997.936669195256
7 -1531.778912315542
8 -1087.270078570139
9 -587.6903318759601
10 -94.09748281117258
11 304.5821459090329
12 566.2468425328875
13 748.5428722060585
14 838.3640653810315
15 873.2359671130436
16 862.0704083169198
17 819.4520821013624
18 739.1298972118145
19 654.8212179859062
20 538.0473292081809
21 401.2044545712392
22 270.2349991302052
23 156.0814773760554
24 56.68414281120929
25 -23.58751237506604
26 -78.37150320543802
27 -119.6322806787363
28 -144.5174938046063
29 -160.3971426093943
30 -167.5973907739512
31 -168.9680419535529
32 -166.312616188935
33 -159.4799455480631
34 -148.5411085547343
35 -135.2615367225858
36 -119.1602481416207
37 -105.4094939713592
38 -90.08448013037766
39 -78.28970241362799
40 -67.74337869565653
41 -58.39258477085387
42 -51.97816303872541
43 -46.52832912503176
44 -43.20198862752562
45 -40.50070984920935
46 -38.37930356578299
47 -37.00925234165902
48 -36.13524742709301
49 -35.90569102833255
50 -36.17866456265853
51 -36.9752152503503
52 -38.39752092558521
53 -39.86718263884905
54 -41.42780877180633
55 -43.28170446658621
56 -45.14851198980527
57 -47.19317694202071
58 -49.11602914533417
59 -50.49225049826708
60 -52.35980000727061
61 -53.60211533463595
62 -54.72142733907582
63 -55.84383070071164
64 -56.77315266779316
65 -57.6582473880154
66 -58.32319497911615
67 -58.93179573734631
68 -59.32064489308693
69 -59.61430766805662
70 -59.70506367823966
71 -59.69735602342415
72 -59.47916472346198
73 -59.18839093946429
74 -58.72138861239769
75 -58.19221174530887
76 -57.5009975216178
77 -56.78412404132312
78 -55.95462471009475
79 -55.09897283635279
80 -54.16075055430096
81 -53.21425977257722
82 -52.23041209606463
83 -51.26241142635723
84 -50.27750959621152
85 -49.33704970458915
86 -48.39996553468407
87 -47.51878126195932
88 -46.66336239541123
89 -45.86848724646309
90 -45.08932805809524
91 -44.38477699151279
92 -43.70912549454198
93 -43.09372019296533
94 -42.50524047678744
95 -41.98530425257808
96 -41.49215161083379
97 -41.05498915919921
98 -40.65273390480798
99 -40.29588690212416
100 -39.95010118818112
101 -39.63713291088579
102 -39.33613070672101
103 -39.06197467823272
104 -38.79186957820884
105 -38.53787422629527
106 -38.27391937678485
107 -38.01085750655739
108 -37.74137244104443
109 -37.47504989948275
110 -37.19648895882261
111 -36.92414875950104
112 -36.64120169910613
113 -36.34404645829059
114 -36.02710739392116
115 -35.7140528906549
116 -35.38197013596154
117 -35.04885377225622
118 -34.69223380910231
119 -34.33917553211067
120 -33.9688790623153
121 -33.59379627156373
122 -33.20625219016095
123 -32.8106589784493
124 -32.41196327755976
125 -32.01142283795001
126 -31.61102079023935
127 -31.21782245042654
128 -30.81096097942996
129 -30.41806936821413
130 -30.01438826653879
131 -29.62280826182404
132 -29.22582084841986
133 -28.84501966718303
134 -28.45190698204054
135 -28.07821887839081
136 -27.6994357097239
137 -27.33836719738954
138 -26.96908226599546
139 -26.62090753519037
140 -26.26524276791111
141 -25.92897990884712
142 -25.59069928813746
143 -25.2692793777155
144 -24.93588959777651
145 -24.62607440759205
146 -24.30440581648946
147 -24.00029623110758
148 -23.68410817462435
149 -23.39157793253543
150 -23.09405342462556
151 -22.80354557042831
152 -22.51079187783385
153 -22.23374189114994
154 -21.95051904307514
155 -21.68069297779219
156 -21.40525395562924
157 -21.1362043490023
158 -20.85942955493596
159 -20.5923823248521
160 -20.324324991626
161 -20.07545304572913
162 -19.82263156407518
163 -19.57947904210408
164 -19.32570968598139
165 -19.08504495686205
166 -18.83411441962546
167 -18.59705552203766
168 -18.34993355198468
169 -18.12224691410499
170 -17.88078016299568
171 -17.6584263672933
172 -17.42101932095396
173 -17.20551400979831
174 -16.98489681855149
175 -16.7812254095447
176 -16.55904091842714
177 -16.35934373874747
178 -16.15202198003949
179 -15.95377583327816
180 -15.74263507944011
181 -15.55743123859708
182 -15.35604155614382
183 -15.16841025417324
184 -14.97456201232559
185 -14.78964011097885
186 -14.59455684903143
187 -14.40756062767093
188 -14.20861836520551
189 -14.02206625559309
190 -13.8189151850249
191 -13.61966082388369
192 -13.41023208869273
193 -13.21183150232335
194 -12.99339712401246
195 -12.78933168407119
196 -12.56183395582356
197 -12.34735856145183
198 -12.11066643036569
199 -11.88417644676322
200 -11.63182745035037
201 -11.39199083134634
202 -11.12740431603076
203 -10.87014142068628
204 -10.5877106132789
205 -10.31238375558798
206 -10.01167988188011
207 -9.722916477330811
208 -9.408226432158163
209 -9.103672742580558
210 -8.772991851130509
211 -8.460309360098581
212 -8.125412192841416
213 -7.798520239681234
214 -7.448113432124869
215 -7.112349067993973
216 -6.752529724400262
217 -6.409130323764336
218 -6.046022792071017
219 -5.70080629518893
220 -5.33239190309602
221 -4.985729125166856
222 -4.625014120935354
223 -4.286775524574959
224 -3.933547528370795
225 -3.606718249845202
226 -3.262274312131515
227 -2.947700860386062
228 -2.622185520854238
229 -2.326996074638219
230 -2.018892221065185
231 -1.742216540019332
232 -1.462811007669248
233 -1.218501254461964
234 -0.9581268160285292
235 -0.7383603473995513
236 -0.5039865654292984
237 -0.3065494122475749
238 -0.1037751318590245
239 0.0661568391923936
240 0.2398709993187582
241 0.3790273962721312
242 0.528931195072523
243 0.6444356509808568
244 0.7661255854843037
245 0.8542382607253887
246 0.9439154210573502
247 1.009181168286787
248 1.077078027416276
249 1.122236744046639
250 1.171047354649494
251 1.19320840312972
252 1.223382284537309
253 1.225606770462275
254 1.240352596428524
255 1.228644068764563
256 1.227804392283473
257 1.204301864834535
258 1.193235126843285
259 1.160341205485916
260 1.144378734039068
261 1.101688338107229
262 1.079815290373179
263 1.033276115501411
264 1.004184839654376
265 0.9532741451683916
266 0.9240030459072516
267 0.8735976549132249
268 0.8473849013294386
269 0.8083511197234062
270 0.7942412878831765
271 0.7630181452767174
272 0.7549362057907248
273 0.7355548509019623
274 0.7411275105006619
275 0.7317848680386519
276 0.747538536732585
277 0.7519398942343616
278 0.7790962450617568
279 0.7948083738685058
280 0.8374520524046454
281 0.8696093493297771
282 0.9255929992012802
283 0.9710302149162917
284 1.03911257048775
285 1.096383614564619
286 1.181352432897754
287 1.253564760906357
288 1.351878877679132
289 1.432028618197859
290 1.543353952855603
291 1.637900830912737
292 1.760358829626451
293 1.86205075242762
294 1.989376223562324
295 2.105094751164834
296 2.244264600498601
297 2.364875802289418
298 2.508288767889312
299 2.631689342979762
300 2.778825156257443
301 2.905551525734799
302 3.05532357417417
303 3.186564933386113
304 3.336727584559402
305 3.469197392893085
306 3.621042692874104
307 3.757241140079626
308 3.910441550884565
309 4.04068284719387
310 4.192368445066083
311 4.323091444366781
312 4.472787574134213
313 4.60154067564828
314 4.743168341083412
315 4.869680739267264
316 5.013892451687317
317 5.13726276349553
318 5.276988478167029
319 5.399832911020115
320 5.535922167952414
321 5.648838287024518
322 5.782854362370856
323 5.892935473980616
324 6.022976856897587
325 6.129045935799493
326 6.253398569088258
327 6.350427279789762
328 6.469477014935444
329 6.564165078178907
330 6.677704384943328
331 6.768473145293129
332 6.877406306541313
333 6.967904707353243
334 7.069147300733737
335 7.151742876966192
336 7.245855140610106
337 7.326965716102269
338 7.420856291418874
339 7.492981081559392
340 7.579666570490849
341 7.648787861474784
342 7.733244770179679
343 7.796584524739675
344 7.874643299419341
345 7.933274660646544
346 8.010704227926766
347 8.063551862044692
348 8.128682206129511
349 8.176447928521435
350 8.237520033887945
351 8.280029067527718
352 8.333407219546579
353 8.365409198218565
354 8.417203963805797
355 8.446893063623174
356 8.489422852839303
357 8.514295187334818
358 8.55330071113799
359 8.573733014146276
360 8.610379738321379
361 8.626717640704845
362 8.660391450974577
363 8.668256442464431
364 8.696832909661675
365 8.707067587394425
366 8.72927259425583
367 8.733098845611872
368 8.74907121316989
369 8.74752580371098
370 8.757818152004285
371 8.752957857206008
372 8.759589052632293
373 8.750618399065409
374 8.753993040555159
375 8.739298953520979
376 8.736092831026319
377 8.713240997774703
378 8.703365601410189
379 8.673830378875538
380 8.659559027724791
381 8.627659393431468
382 8.613210872905009
383 8.579568261182688
384 8.562946934159349
385 8.525994973489608
386 8.505230278200264
387 8.469261637149385
388 8.447739244215995
389 8.408825710611035
390 8.390748165604251
391 8.347779518136786
392 8.325508137667176
393 8.281440631517322
394 8.256334336953737
395 8.207813642046395
396 8.179553755645706
397 8.127809246692065
398 8.097327758807005
399 8.042065270882713
400 8.007532608663933
401 7.952561889516192
402 7.91857336273956
403 7.865026888474743
404 7.823161501522707
405 7.766963781644121
406 7.727879868373983
407 7.669499329134101
408 7.626761783993693
409 7.567732687683066
410 7.525890190235554
411 7.468207423283403
412 7.429243346263136
413 7.37044027820542
414 7.329501082886088
415 7.268817589055002
416 7.227726738711988
417 7.167545417931039
418 7.129748535036314
419 7.072160634992561
420 7.036132442440445
421 6.980825706278483
422 6.944520125692828
423 6.883498475104373
424 6.847885008622096
425 6.785819740424031
426 6.74477328963493
427 6.685274989449353
428 6.646310804959789
429 6.583046515219975
430 6.541780180756849
431 6.480795341433149
432 6.438928427213838
433 6.37847217911815
434 6.335953370034989
435 6.275723908347184
436 6.23535393094698
437 6.174075349322979
438 6.130715443882825
439 6.073067276025047
440 6.031488426838073
441 5.970025038489068
442 5.931730219398759
443 5.864836216101168
444 5.823811888710257
445 5.760413629235615
446 5.722273431520691
447 5.661146846959636
448 5.619879944273167
449 5.559054477858933
450 5.522253815677992
451 5.458787610756395
452 5.415537636153998
453 5.35584145485179
454 5.317340966918986
455 5.255608670798183
456 5.216727094153207
457 5.154796246913684
458 5.118211616392966
459 5.05631605172166
460 5.015283894636394
461 4.953460922980779
462 4.913453536671926
463 4.851152595682569
464 4.811155239950729
465 4.74848988674695
466 4.710435053350435
467 4.648796425983984
468 4.613928514770298
469 4.555343358844245
470 4.519320923201554
471 4.459994177083527
472 4.426886620894013
473 4.367624245202154
474 4.335089303522452
475 4.275623601024755
476 4.241465321364605
477 4.175726200827023
478 4.142909384642915
479 4.077361305464519
480 4.043375801131699
481 3.979180259195538
482 3.946768075259286
483 3.883630576144997
484 3.848087173949401
485 3.785570696122012
486 3.750948655434767
487 3.689891506260489
488 3.653190656039893
489 3.590917733703609
490 3.5579376663539
491 3.494042854173956
492 3.458892350638141
493 3.390327452356185
494 3.353128908870019
495 3.287229605022367
496 3.245702608099849
497 3.180810342177666
498 3.141300204630544
499 3.078993897696894
500 3.040868924105057
501 2.979157233224396
502 2.940513548267889
503 2.879479734592902
504 2.841605202611031
505 2.779950935391723
506 2.743649653805607
507 2.683411193296782
508 2.648106425471496
509 2.589703002271845
510 2.553110380826582
511 2.499767189034544
512 2.466916034638714
513 2.411658623454758
514 2.378455375509223
515 2.324713145861871
516 2.297271714549401
517 2.242670700468814
518 2.209911549303667
519 2.154742220753594
520 2.125836211295677
521 2.06981569165254
522 2.042594428749638
523 1.990690431345391
524 1.966841411553179
525 1.915830161910734
526 1.88856742007169
527 1.837544591080409
528 1.812831084677902
529 1.760732483716317
530 1.73499097496302
531 1.690198029431436
532 1.664499742455915
533 1.618341940314776
534 1.593984910991852
535 1.547767790083841
536 1.525124510128611
537 1.478510362603872
538 1.457691324488322
539 1.411256778983631
540 1.386214342235897
541 1.34535100515811
542 1.324878496835617
543 1.28285162100452
544 1.266810542396342
545 1.223221926465806
546 1.21000814609263
547 1.169624674633883
548 1.1566708538999
549 1.116847408959709
550 1.10014016904823
551 1.061517900302668
552 1.042635891212685
553 1.004051776031328
554 0.9868764693108726
555 0.946789537211524
556 0.9280701513290412
557 0.888743843730725
558 0.8670805771758126
559 0.8284522281454447
560 0.8102275727712567
561 0.7709862324433638
562 0.7523011800061941
563 0.7157392334655435
564 0.7021254339258454
565 0.6652752065189386
566 0.6521064554216474
567 0.6141877128447841
568 0.5988441243047135
569 0.5668077377654887
570 0.5560054644464075
571 0.5237335471420433
572 0.5145244077923595
573 0.4799446082379227
574 0.4711725534334757
575 0.4391926561277164
576 0.4327901092044068
577 0.4040707272107614
578 0.3933771514117034
579 0.3609456056622248
580 0.3507902016280287
581 0.3161361152505945
582 0.3058170415084271
583 0.2744877072064107
584 0.2703441431185274
585 0.2372315375064857
586 0.226821320663079
587 0.1941077486169787
588 0.1854883864482552
589 0.1527230418653306
590 0.1435428007573072
591 0.1172956576058987
592 0.1116570099929167
593 0.08058629810742747
594 0.06989046124998982
595 0.04204375852287449
596 0.03231506196159337
597 0.002417365787024662
598 -0.004452079371381461
599 -0.0328557842665715
600 -0.03787824843314725
601 -0.0651905014117399
602 -0.06913792980410895
603 -0.09491653747815024
604 -0.09995594069686682
605 -0.1265996911123653
606 -0.1323429255009264
607 -0.15539490305483
608 -0.1570195839117904
609 -0.1857417265161572
610 -0.1858671148744532
611 -0.2095719495561183
612 -0.2085341901284184
613 -0.2369533808712206
614 -0.2387815846754848
615 -0.2663167205699963
616 -0.2653024714816641
617 -0.2876406114588942
618 -0.2895871329618734
619 -0.3135293753750129
620 -0.3141319013592763
621 -0.3393574488838774
622 -0.3402759056768246
623 -0.3665679852510956
624 -0.368587229674306
625 -0.3931642832334269
626 -0.3979643896244174
627 -0.4230151211070295
628 -0.4237361807672729
629 -0.4478443719077976
630 -0.4510024824624519
631 -0.4746748997551851
632 -0.4777529688461785
633 -0.5033883923961916
634 -0.5017634352596101
635 -0.527724471181212
636 -0.5268847020044006
637 -0.5484100513006184
638 -0.5480386252980183
639 -0.5679427317854238
640 -0.5662859890350253
641 -0.585532240915364
642 -0.5839379757689804
643 -0.6030734707892181
644 -0.6018122773155641
645 -0.6237797186553531
646 -0.6211882307086026
647 -0.6416908282560654
648 -0.6363467156091672
649 -0.6576477774242145
650 -0.6526615581031957
651 -0.6743903521348782
652 -0.6684522158835586
653 -0.6885158118530088
654 -0.6818129330436016
655 -0.7024597636520896
656 -0.7004086269974306
657 -0.7226483446435622
658 -0.7226065463176957
659 -0.7448871361624338
660 -0.7410683502343648
661 -0.7617256100400003
662 -0.756699676042291
663 -0.7823116420347912
664 -0.7779681641713386
665 -0.8009120686453974
666 -0.7967603878156843
667 -0.8167595861108079
668 -0.8125260869805078
669 -0.8373259029558263
670 -0.8334994316025359
671 -0.8491824908813054
672 -0.8453453682936559
673 -0.8683601047630775
674 -0.8618842919596289
675 -0.8831209965954292
676 -0.8776701812907796
677 -0.8986551405591222
678 -0.888648453269704
679 -0.9087797170897265
680 -0.904233655797955
681 -0.9216493441313789
682 -0.9141027412529031
683 -0.9332246131767798
684 -0.9242207070505807
685 -0.9441606682801915
686 -0.9345944962952782
687 -0.9501897469599878
688 -0.944821348790738
689 -0.9640633040087599
690 -0.9572100544205584
691 -0.9759987806456337
692 -0.9714984236473535
693 -0.9894326693596096
694 -0.9799003322847675
695 -0.9977684211643315
696 -0.9912324871584473
697 -1.009854868598405
698 -1.00030945428052
699 -1.021373444596516
700 -1.014372636379699
701 -1.035635085214444
702 -1.030844297341294
703 -1.051296055168987
704 -1.046277405528824
705 -1.066722794427466
706 -1.063431802074093
707 -1.082601596223089
708 -1.076231789726581
709 -1.094897302083825
710 -1.088986043126382
711 -1.107195587504922
712 -1.10431991101133
713 -1.122481184193564
714 -1.116235678821695
715 -1.133324014745954
716 -1.123134722979793
717 -1.136700604131313
718 -1.130678282713318
719 -1.150189225499333
720 -1.143711342837259
721 -1.162818448630258
722 -1.152716799068131
723 -1.170410896331452
724 -1.164937507287837
725 -1.180920352838665
726 -1.172353746848825
727 -1.18718597496198
728 -1.180159508643384
729 -1.195294359072149
730 -1.186125362987182
731 -1.203070579352034
732 -1.19162588834717
733 -1.211707564156722
734 -1.202414681345106
735 -1.218178720862994
736 -1.208013197748421
737 -1.229303370709638
738 -1.221411562305454
739 -1.237354695492181
740 -1.227670816955825
741 -1.240281987505923
742 -1.234332055102244
743 -1.252066527169356
744 -1.243589619800543
745 -1.258147801066816
746 -1.252850955673322
747 -1.271552383068894
748 -1.262819514630463
749 -1.282055716551896
750 -1.271118382597921
751 -1.290765198332241
752 -1.280453923732728
753 -1.295514725865114
754 -1.288677182904571
755 -1.299161615887007
756 -1.290509840289415
757 -1.302846944682327
758 -1.296195628663168
759 -1.304952671507947
760 -1.293640974112781
761 -1.302887236154648
762 -1.295382671456355
763 -1.311367328888528
764 -1.301271593241692
765 -1.315977036159176
766 -1.308655155424892
767 -1.322479127263804
768 -1.31142358173359
769 -1.326950150343353
770 -1.314703549959443
771 -1.327653313299055
772 -1.319552291643183
773 -1.332546493176081
774 -1.321010723094938
775 -1.335315509597654
776 -1.326269151733305
777 -1.344316121800554
778 -1.336199267748273
779 -1.348421061572241
780 -1.341029653023703
781 -1.353520003387487
782 -1.345528100756928
783 -1.358979995413708
784 -1.349735920236998
785 -1.358333814313517
786 -1.349625990134973
787 -1.361274704073032
788 -1.355317426325797
789 -1.368940601051597
790 -1.36022128478852
791 -1.371647765086459
792 -1.362311633412743
793 -1.374862413384497
794 -1.36649055621734
795 -1.380550792466684
796 -1.372812847595505
797 -1.390219877932824
798 -1.383694124328919
799 -1.39641699409513
800 -1.386788641736876
801 -1.401204575739358
802 -1.394375979848522
803 -1.405830417757461
804 -1.396542743985808
805 -1.41258084013507
806 -1.400807669939521
807 -1.413192796267882
808 -1.403248775022965
809 -1.41450222401512
810 -1.404460427649135
811 -1.416473622125908
812 -1.403186937195829
813 -1.415969819372207
814 -1.400297824599165
815 -1.415586190475993
816 -1.405773720834233
817 -1.414018266628554
818 -1.407623174084834
819 -1.414621722450025
820 -1.401607939413068
821 -1.413308378683367
822 -1.404827464004884
823 -1.417907652794754
824 -1.410981293211041
825 -1.427350781092313
826 -1.418345154149981
827 -1.43462719048736
828 -1.427160484718176
829 -1.440776137876129
830 -1.430311841719316
831 -1.44122280108311
832 -1.427771785443198
833 -1.440809515055926
834 -1.426188956771922
835 -1.441826207499833
836 -1.431639216909111
837 -1.448041497593206
838 -1.436957946787999
839 -1.453730349470874
840 -1.444127205742347
841 -1.457782881168399
842 -1.446938073669337
843 -1.463138091597495
844 -1.455176892345605
845 -1.472994873427265
846 -1.463057297760316
847 -1.477439640666329
848 -1.468039706645614
849 -1.485073599505677
850 -1.473900158302073
851 -1.485844536739657
852 -1.476432666446809
853 -1.491080951726061
854 -1.48021050862412
855 -1.49391116726389
856 -1.481774905844824
857 -1.495207132472629
858 -1.483764481583893
859 -1.496165140469772
860 -1.488163524960285
861 -1.503208593796739
862 -1.491315474354003
863 -1.504983998700133
864 -1.494486066477227
865 -1.507180693246399
866 -1.494309567284171
867 -1.510536022434296
868 -1.501029509387583
869 -1.515719654000647
870 -1.502387112558363
871 -1.515740294544465
872 -1.504261023628737
873 -1.514869266736093
874 -1.499522446272883
875 -1.512914190058592
876 -1.502679646368341
877 -1.514198277736924
878 -1.502111705962963
879 -1.514764597773686
880 -1.504715077855126
881 -1.520157888902499
882 -1.512251187267016
883 -1.527499654675541
884 -1.5168029889354
885 -1.52745925948048
886 -1.516520633436887
887 -1.525637497693721
888 -1.516652521659352
889 -1.528583549348291
890 -1.521294592030054
891 -1.534351325032448
892 -1.524531524767166
893 -1.538460838372529
894 -1.528280057675758
895 -1.541384674981479
896 -1.53224042592661
897 -1.54555100946031
898 -1.537825136367077
899 -1.551265304150876
900 -1.542018347306174
901 -1.55317976977288
902 -1.541605695039551
903 -1.552531698210941
904 -1.541030551717387
905 -1.556260284688911
906 -1.543463249547986
907 -1.555557956533151
908 -1.544182995031831
909 -1.559408824866412
910 -1.551210289978911
911 -1.565668013794484
912 -1.555544096816808
913 -1.565789649345666
914 -1.555240174422472
915 -1.565745221284975
916 -1.557081985690778
917 -1.569287516128288
918 -1.561376268977009
919 -1.574878944022988
920 -1.567249683417563
921 -1.581628110622874
922 -1.572203064983952
923 -1.587470849628075
924 -1.576918837618993
925 -1.58685135212514
926 -1.576175882407199
927 -1.589488344639957
928 -1.57539808593591
929 -1.589678838810728
930 -1.576933022162881
931 -1.590951453093111
932 -1.583883093145934
933 -1.597257730595344
934 -1.588119028625119
935 -1.605795851619925
936 -1.600773295832313
937 -1.611806804119112
938 -1.602273347897722
939 -1.61377113063672
940 -1.604163451432737
941 -1.618928870066877
942 -1.606622693789101
943 -1.619105128005333
944 -1.610759768035239
945 -1.617831780812066
946 -1.604443656414442
947 -1.612316110104255
948 -1.59833521078164
949 -1.605566694609583
950 -1.595146854190511
951 -1.60340008285115
952 -1.592939938979808
953 -1.605594944096792
954 -1.597210405177358
955 -1.606773840608065
956 -1.597282184846027
957 -1.610551194216328
958 -1.599351998944465
959 -1.61383378724719
960 -1.608817644523015
961 -1.623058872899804
962 -1.616925707455554
963 -1.631336663055017
964 -1.623566276002562
965 -1.636504664869256
966 -1.627810381357399
967 -1.644731880065144
968 -1.631942367507745
969 -1.646380214768373
970 -1.635396261115169
971 -1.647400029619117
972 -1.629572591720671
973 -1.638804190866674
974 -1.629732524085854
975 -1.639033057904245
976 -1.6268824560106
977 -1.635890553600543
978 -1.622390142815947
979 -1.635938758573615
980 -1.624830453876937
981 -1.634413295942762
982 -1.622331111783497
983 -1.636859142885981
984 -1.627606056146321
985 -1.642689129732476
986 -1.63551319443215
987 -1.652522189567497
988 -1.644082483871325
989 -1.659158419294213
990 -1.652453072027341
991 -1.667568360720234
992 -1.660388038026202
993 -1.672105371821826
994 -1.665042777530018
995 -1.678228056001572
996 -1.669158569772556
997 -1.683857350575651
998 -1.672516903991646
999 -1.686548035355753
1000 -1.673192104684851
1001 -1.686121953803704
1002 -1.670884749333212
1003 -1.682278126284999
1004 -1.669471215283549
1005 -1.680658932813235
1006 -1.661114911166473
1007 -1.66993551212943
1008 -1.65584416405815
1009 -1.669173504737039
1010 -1.658806787952308
1011 -1.671148861441758
1012 -1.66071117446827
1013 -1.67174740328748
1014 -1.65983409519407
1015 -1.674913670248716
1016 -1.66553554468996
1017 -1.680794035869183
1018 -1.671249600987309
1019 -1.682082374651015
1020 -1.672815488592425
1021 -1.686081109512581
1022 -1.676190355080402
1023 -1.688609828698699
1024 -1.676600142538151
1025 -1.692490305035967
1026 -1.681204286145975
1027 -1.696498424776857
1028 -1.685249211507092
1029 -1.696813444000618
1030 -1.683572019979916
1031 -1.695653730017595
1032 -1.685552233506033
1033 -1.695683678090397
1034 -1.682797384103004
1035 -1.69251107689317
1036 -1.680423077917594
1037 -1.692737897712738
1038 -1.683647987020122
1039 -1.692982260217245
1040 -1.682159181189852
1041 -1.692637198027608
1042 -1.679406183195558
1043 -1.689724427989872
1044 -1.675683081567372
1045 -1.687574620349376
1046 -1.67512064050777
1047 -1.685356775044089
1048 -1.672512872471771
1049 -1.686838320393794
1050 -1.677577790074273
1051 -1.694879662268355
1052 -1.687828769009821
1053 -1.702873518219398
1054 -1.692639561621895
1055 -1.705756995523053
1056 -1.694526653260782
1057 -1.70645554288129
1058 -1.691095901060617
1059 -1.701932623394188
1060 -1.692739696683243
1061 -1.702429545882766
1062 -1.688026139660489
1063 -1.698044277856015
1064 -1.681333201429206
1065 -1.693039845643099
1066 -1.675485290600739
1067 -1.68605670597257
1068 -1.671309749754283
1069 -1.680268353132883
1070 -1.670550611360064
1071 -1.679159456122838
1072 -1.669008391856251
1073 -1.677091545252402
1074 -1.662126824951645
1075 -1.667284782090067
1076 -1.653867460054834
1077 -1.663172569924588
1078 -1.651084494332165
1079 -1.65697703290385
1080 -1.647047513960764
1081 -1.657861329576398
1082 -1.649619139736077
1083 -1.662805958695743
1084 -1.655705863023545
1085 -1.670733240966882
1086 -1.661306319930291
1087 -1.675991223802465
1088 -1.664804992807371
1089 -1.678519332180855
1090 -1.666283674669767
1091 -1.67801740985498
1092 -1.669588636824054
1093 -1.679951034367855
1094 -1.674108636633632
1095 -1.681539178385485
1096 -1.667888461027218
1097 -1.676198443651745
1098 -1.66469861042184
1099 -1.672632144265173
1100 -1.661456765499979
1101 -1.670296831789731
1102 -1.659629218922331
1103 -1.668816723571229
1104 -1.65462796247941
1105 -1.660503567559579
1106 -1.651607932345121
1107 -1.660588620949498
1108 -1.650231993021168
1109 -1.659979684440315
1110 -1.651566961456891
1111 -1.66123352472616
1112 -1.651466072018286
1113 -1.660451000759899
1114 -1.651246975220667
1115 -1.666769173261968
1116 -1.655956477055776
1117 -1.669866967232625
1118 -1.657564150344382
1119 -1.670045530760129
1120 -1.661246562144769
1121 -1.673667662105242
1122 -1.664622664377325
1123 -1.675363660353459
1124 -1.664280957254656
1125 -1.67614586695779
1126 -1.660962676290394
1127 -1.669217035286994
1128 -1.655175754750902
1129 -1.664043584593171
1130 -1.648670486791507
1131 -1.655199765020796
1132 -1.642396907822806
1133 -1.651547246873984
1134 -1.633476151606454
1135 -1.643546886644914
1136 -1.627852325501032
1137 -1.638973336817488
1138 -1.629372495157009
1139 -1.641851345676666
1140 -1.630835493462392
1141 -1.649142926843393
1142 -1.64188609069572
1143 -1.658925082444948
1144 -1.653301158906344
1145 -1.665504213986673
1146 -1.657401358838123
1147 -1.671668547899716
1148 -1.662924582205439
1149 -1.675398052023496
1150 -1.664990795681759
1151 -1.675184950458527
1152 -1.664151062686128
1153 -1.67518341115848
1154 -1.663546270925717
1155 -1.678393488460044
1156 -1.665357811388696
1157 -1.677604444895657
1158 -1.666569989242314
1159 -1.677099560518794
1160 -1.662664587590651
1161 -1.672568486443601
1162 -1.660162597954905
1163 -1.669146707606652
1164 -1.653914278482963
1165 -1.665470428198835
1166 -1.653819655641021
1167 -1.665747976070111
1168 -1.655198547028941
1169 -1.668469295844229
1170 -1.658937830613347
1171 -1.66976879594123
1172 -1.657496866748291
1173 -1.667992055458646
1174 -1.658085151037558
1175 -1.666811132235786
1176 -1.655850754678245
1177 -1.669858425118316
1178 -1.660244726663618
1179 -1.676515838836721
1180 -1.665929563348597
1181 -1.679821549876069
1182 -1.671664031924946
1183 -1.688928914764836
1184 -1.675549064937903
1185 -1.691152401511226
1186 -1.678546301320719
1187 -1.691353644413341
1188 -1.68020907229832
1189 -1.692168155627626
1190 -1.679123463970302
1191 -1.689486520624064
1192 -1.67571942591062
1193 -1.689469411627792
1194 -1.676089108419138
1195 -1.691412458444189
1196 -1.677020223809371
1197 -1.690447084898968
1198 -1.675409922485126
1199 -1.68767890886979
1200 -1.674700702429859
1201 -1.685392134183852
1202 -1.676216311738781
1203 -1.688487291631309
1204 -1.678618722481567
1205 -1.686314849221642
1206 -1.671854255275612
1207 -1.683688761493622
1208 -1.670112758335393
1209 -1.680510423373609
1210 -1.671264980283129
1211 -1.680213499845334
1212 -1.66915319610494
1213 -1.67846704566339
1214 -1.665286968009376
1215 -1.672917819454093
1216 -1.657661224949816
1217 -1.667074746136231
1218 -1.651980851625917
1219 -1.662849582773708
1220 -1.650293377893335
1221 -1.661439865768263
1222 -1.645539784179922
1223 -1.657812991332054
1224 -1.646737306223101
1225 -1.656313344196349
1226 -1.644608228609078
1227 -1.655952984029186
1228 -1.645173478800547
1229 -1.661953901227594
1230 -1.653078563407596
1231 -1.665232782507018
1232 -1.656407252243888
1233 -1.671680165433159
1234 -1.664597771994127
1235 -1.677389310433093
1236 -1.671643664755722
1237 -1.687508628380424
1238 -1.681817030844581
1239 -1.696121785111377
1240 -1.685978703435304
1241 -1.695765046783594
1242 -1.68304654819941
1243 -1.697380694140265
1244 -1.683576042055143
1245 -1.696266275484302
1246 -1.684005438768875
1247 -1.690790314730902
1248 -1.678081550779618
1249 -1.684057497775305
1250 -1.668583521749563
1251 -1.676113433048418
1252 -1.66355815052276
1253 -1.67184805970212
1254 -1.656789023503547
1255 -1.663927015279858
1256 -1.650276325475285
1257 -1.660965805882546
1258 -1.650035868367704
1259 -1.665422772601836
1260 -1.652201996741224
1261 -1.661820842128091
1262 -1.651703352100058
1263 -1.664167595346342
1264 -1.657296124834318
1265 -1.669918174394322
1266 -1.663092345800432
1267 -1.673053098735942
1268 -1.661200766801002
1269 -1.67182954092669
1270 -1.662742827257438
1271 -1.678970121613068
1272 -1.671712195582599
1273 -1.689370034245576
1274 -1.678640854286256
1275 -1.690019178477441
1276 -1.67695124541131
1277 -1.690805238407274
1278 -1.680956256493339
1279 -1.695286021300511
1280 -1.682942612170397
1281 -1.691800120921616
1282 -1.681278969412618
1283 -1.689351168733839
1284 -1.680377677403164
1285 -1.689451565239277
1286 -1.680226472737407
1287 -1.688402001546863
1288 -1.679099280538219
1289 -1.689966888578462
1290 -1.678988715355433
1291 -1.691739247430659
1292 -1.679902175593209
1293 -1.689700281185127
1294 -1.680118462000355
1295 -1.691345155565337
1296 -1.683687227452921
1297 -1.696163636579612
1298 -1.687859842005333
1299 -1.702707797715238
1300 -1.695421228203403
1301 -1.713191826084953
1302 -1.699023937480147
1303 -1.711399315957541
1304 -1.699379623883695
1305 -1.707643471305134
1306 -1.695479426103366
1307 -1.707437418089197
1308 -1.694744923066543
1309 -1.705641897231897
1310 -1.694716263930997
1311 -1.70527116048071
1312 -1.692827240952906
1313 -1.705928397220095
1314 -1.695412203072263
1315 -1.707406209479259
1316 -1.695180415140366
1317 -1.704707505281827
1318 -1.689755027454288
1319 -1.698982575471032
1320 -1.685651119987465
1321 -1.699466920345925
1322 -1.686610439089854
1323 -1.699326908383706
1324 -1.689094545210029
1325 -1.694955178517652
1326 -1.68512546275606
1327 -1.697256377818226
1328 -1.690088318063191
1329 -1.700794471599085
1330 -1.692390082370378
1331 -1.703939210165667
1332 -1.698407698127379
1333 -1.713699528720511
1334 -1.703711106434601
1335 -1.719890993989117
1336 -1.709268156034889
1337 -1.723417529827988
1338 -1.718464099954202
1339 -1.730673220418522
1340 -1.723097434765965
1341 -1.7343884705752
1342 -1.721018070364991
1343 -1.732904139163184
1344 -1.718328126227429
1345 -1.73094889705764
1346 -1.715232712362742
1347 -1.727046955245685
1348 -1.715264998736328
1349 -1.72973162110934
1350 -1.718936643537411
1351 -1.733674294215454
1352 -1.721477375903825
1353 -1.733637903422467
1354 -1.723807690387354
1355 -1.736080676957908
1356 -1.724489551020175
1357 -1.737339724757037
1358 -1.727100898125804
1359 -1.743955320735119
1360 -1.737039555585205
1361 -1.750297759997783
1362 -1.742490296648092
1363 -1.75878923309661
1364 -1.746320866725028
1365 -1.759364802726362
1366 -1.748555631494009
1367 -1.760198564753352
1368 -1.751817634210507
1369 -1.76164189390737
1370 -1.74778649783845
1371 -1.759347443989662
1372 -1.741175633527036
1373 -1.754241272522217
1374 -1.743906207568572
1375 -1.752805682234457
1376 -1.739321413484987
1377 -1.753454445008115
1378 -1.737993227796704
1379 -1.749942115328959
1380 -1.738985405159359
1381 -1.74820692517367
1382 -1.734531627513481
1383 -1.749390472341579
1384 -1.736902724600833
1385 -1.749871820046595
1386 -1.738543369100487
1387 -1.754847646132927
1388 -1.741918646054874
1389 -1.755349066000371
1390 -1.745534413101112
1391 -1.760149178153278
1392 -1.74935628285378
1393 -1.762569258551733
1394 -1.753159737848
1395 -1.760874309594003
1396 -1.750976444205838
1397 -1.762377987899622
1398 -1.751640167011231
1399 -1.760796668012933
1400 -1.74510505170735
1401 -1.752732725896568
1402 -1.740913661456339
1403 -1.753227759084953
1404 -1.74212415840927
1405 -1.753875605830034
1406 -1.737263940332308
1407 -1.747118643268912
1408 -1.734059944259806
1409 -1.742946630243413
1410 -1.735177704035571
1411 -1.74367826104303
1412 -1.733441605703379
1413 -1.742754637274041
1414 -1.733778538732256
1415 -1.743963858353813
1416 -1.735739899346118
1417 -1.747349096744287
1418 -1.735414124641968
1419 -1.744825095288842
1420 -1.732298842346557
1421 -1.741073839481134
1422 -1.726213201540689
1423 -1.734958691565397
1424 -1.720641289829957
1425 -1.732304280230469
1426 -1.715548607269067
1427 -1.724222670530073
1428 -1.711018309011709
1429 -1.718226465101554
1430 -1.707172841157208
1431 -1.720588632477157
1432 -1.708307846194198
1433 -1.719055133439434
1434 -1.705524051118161
1435 -1.716420190103846
1436 -1.707228227487337
1437 -1.7184716542306
1438 -1.706058481598412
1439 -1.71799459570686
1440 -1.704525824019033
1441 -1.714296159658193
1442 -1.701399531237673
1443 -1.710578949801449
1444 -1.698019690265927
1445 -1.709021575801669
1446 -1.69741572019998
1447 -1.704388627116328
1448 -1.694961800698534
1449 -1.701877396921165
1450 -1.693267826728981
1451 -1.706105812021327
1452 -1.692170492847263
1453 -1.701698239811911
1454 -1.689581863798322
1455 -1.698843360771146
1456 -1.68719970791481
1457 -1.695999557568664
1458 -1.680661094493367
1459 -1.68877385335482
1460 -1.673318534619814
1461 -1.680203296368958
1462 -1.665881519315024
1463 -1.677125650510466
1464 -1.665501811230687
1465 -1.675057365713834
1466 -1.663334233117273
1467 -1.673119595587201
1468 -1.661062702499384
1469 -1.672481884589498
1470 -1.6606290315682
1471 -1.671068099636661
1472 -1.65980291957479
1473 -1.669554593446144
1474 -1.658690977654939
1475 -1.667151693363889
1476 -1.656314907342334
1477 -1.665651437912356
1478 -1.655384324786255
1479 -1.664145314747281
1480 -1.651295880068377
1481 -1.662099801635982
1482 -1.65149302083733
1483 -1.66338306696645
1484 -1.655462575032763
1485 -1.665465291833321
1486 -1.656729140138334
1487 -1.666437322900717
1488 -1.659120412772741
1489 -1.667253596841242
1490 -1.658932878883904
1491 -1.670442789214101
1492 -1.663564544413944
1493 -1.672452867727472
1494 -1.662760307764758
1495 -1.674566604959692
1496 -1.66821583483622
1497 -1.680508594141258
1498 -1.668799457019775
1499 -1.680846123756899
1500 -1.670286819634332
1501 -1.681411618568003
1502 -1.667122683202397
1503 -1.681719142724796
1504 -1.66967440548699
1505 -1.682427190090538
1506 -1.668936727322474
1507 -1.678948252652237
1508 -1.665447813444888
1509 -1.680412450474858
1510 -1.664712451711228
1511 -1.674564852806545
1512 -1.660626822493183
1513 -1.668872233755491
1514 -1.650766799782813
1515 -1.660359098823084
1516 -1.64843878226602
1517 -1.659421968526455
1518 -1.645997340103557
1519 -1.658280932069158
1520 -1.647482551321279
1521 -1.65878943868912
1522 -1.648616617881398
1523 -1.660395613518854
1524 -1.652823694284839
1525 -1.666122530894413
1526 -1.656672670055418
1527 -1.670706190728177
1528 -1.657112252337145
1529 -1.670400170428511
1530 -1.659098446474875
1531 -1.670912495325018
1532 -1.662915617144713
1533 -1.675717162473913
1534 -1.666619762275132
1535 -1.679783439536842
1536 -1.671058480784273
1537 -1.685706180911216
1538 -1.673391054781417
1539 -1.689554406783895
1540 -1.678771923645166
1541 -1.690380366770759
1542 -1.677311847904478
1543 -1.692071605854717
1544 -1.683043448480238
1545 -1.693677225001117
1546 -1.681084259003129
1547 -1.694271584674771
1548 -1.685138184826408
1549 -1.697330131436061
1550 -1.68285290196364
1551 -1.691324424125308
1552 -1.674800319834483
1553 -1.6841383027237
1554 -1.669278353309455
1555 -1.67380816667043
1556 -1.662923156832377
1557 -1.669805152255824
1558 -1.656593657097442
1559 -1.666364659001605
1560 -1.650833970940724
1561 -1.660901450329694
1562 -1.648541188919848
1563 -1.656988683505469
1564 -1.645381421232217
1565 -1.656797374136437
1566 -1.640896924649096
1567 -1.657628158353962
1568 -1.646484940016356
1569 -1.660143383695642
1570 -1.650421465552028
1571 -1.665887052282177
1572 -1.654519417315321
1573 -1.668786579338047
1574 -1.656942191371443
1575 -1.667786146163232
1576 -1.655066445348755
1577 -1.670577724693636
1578 -1.654674108498898
1579 -1.669805318409131
1580 -1.659674019027983
1581 -1.669650732536701
1582 -1.656768800256285
1583 -1.673180210897568
1584 -1.66148173553926
1585 -1.671239114020348
1586 -1.659366936978399
1587 -1.667716118299286
1588 -1.657775283255904
1589 -1.66611702037049
1590 -1.656118175616658
1591 -1.666284317657332
1592 -1.651940026583961
1593 -1.661323210598584
1594 -1.651651281647731
1595 -1.662401790172056
1596 -1.649633393897912
1597 -1.666063760568491
1598 -1.656264346244403
1599 -1.665404709324188
1600 -1.651935005463717
1601 -1.662981704584414
1602 -1.650766990809903
1603 -1.664214648257124
1604 -1.652222918464553
1605 -1.66119702533294
1606 -1.651165835097613
1607 -1.660293609463154
1608 -1.651453270846496
1609 -1.666862870409715
1610 -1.657360212567057
1611 -1.668007216889299
1612 -1.657736333993327
1613 -1.671212521964634
1614 -1.658447311510886
1615 -1.673001817183091
1616 -1.661959383661568
1617 -1.67125051294889
1618 -1.660782406336469
1619 -1.671407160037207
1620 -1.65774951320531
1621 -1.671440966686096
1622 -1.662234156033083
1623 -1.678148243028171
1624 -1.666841989570394
1625 -1.682783285749096
1626 -1.672931560579031
1627 -1.685385543936767
1628 -1.674934505954982
1629 -1.685845616323003
1630 -1.677962140150672
1631 -1.693131258152375
1632 -1.683757465327791
1633 -1.693896358403411
1634 -1.681462465212259
1635 -1.691972069613488
1636 -1.686376414032867
1637 -1.699194307761392
1638 -1.689141421354191
1639 -1.701788355842086
1640 -1.693858345803859
1641 -1.704251581553873
1642 -1.696189155837367
1643 -1.703365201411812
1644 -1.695184941489862
1645 -1.703552035227662
1646 -1.69141870667935
1647 -1.704123428440996
1648 -1.697308335298936
1649 -1.706192153605241
1650 -1.697084506654732
1651 -1.712025265040625
1652 -1.703152119390455
1653 -1.716934642889596
1654 -1.70719251393171
1655 -1.717579542524597
1656 -1.706261623746536
1657 -1.718136028019035
1658 -1.706023024453036
1659 -1.718389505300493
1660 -1.706500562620912
1661 -1.7160335840566
1662 -1.704179338154872
1663 -1.717633915592327
1664 -1.705429900537338
1665 -1.716663128580814
1666 -1.706772335072005
1667 -1.719544296057838
1668 -1.709219631379406
1669 -1.721737187865869
1670 -1.707431651680618
1671 -1.717320040499885
1672 -1.706299387137959
1673 -1.714180938733266
1674 -1.702076447788852
1675 -1.711674633865316
1676 -1.699786818159747
1677 -1.712256989259468
1678 -1.69869075730116
1679 -1.708896804160431
1680 -1.699552408863682
1681 -1.710708904497825
1682 -1.69733172371543
1683 -1.708194914603291
1684 -1.698839175229247
1685 -1.714017244047209
1686 -1.703120180846447
1687 -1.718695290563201
1688 -1.705761354733183
1689 -1.719177891835389
1690 -1.710126946521497
1691 -1.726090077891842
1692 -1.716915556802293
1693 -1.734182697165633
1694 -1.72209095193572
1695 -1.734653622689087
1696 -1.719595844867048
1697 -1.73033236646976
1698 -1.719147258107694
1699 -1.729490458775257
1700 -1.716698554380249
1701 -1.732448836493444
1702 -1.722128784949726
1703 -1.73015081260221
1704 -1.715636482003358
1705 -1.724157089838814
1706 -1.711312775180444
1707 -1.720026963214306
1708 -1.705495143240476
1709 -1.71255664940989
1710 -1.695742989391077
1711 -1.705164606585635
1712 -1.6897219104007
1713 -1.699733763295053
1714 -1.688913705880898
1715 -1.698884508693125
1716 -1.684783241797508
1717 -1.699221580994492
1718 -1.687648928192029
1719 -1.698219436975135
1720 -1.685673244982686
1721 -1.697599996249864
1722 -1.685372953523938
1723 -1.698036204909211
1724 -1.68757226765564
1725 -1.699390525665316
1726 -1.688439663944012
1727 -1.700386830110159
1728 -1.68466509399997
1729 -1.694684974357331
1730 -1.679422319457967
1731 -1.688129730046229
1732 -1.672946293192503
1733 -1.682146726525199
1734 -1.669125909162796
1735 -1.676454380079038
1736 -1.66176548858811
1737 -1.671578371474451
1738 -1.659856902167504
1739 -1.670670140099884
1740 -1.657749078531351
1741 -1.667970111605683
1742 -1.657393136420273
1743 -1.669630913168499
1744 -1.658988714699993
1745 -1.671261178234631
1746 -1.660564945592484
1747 -1.674396159126561
1748 -1.66088975562689
1749 -1.67078922072566
1750 -1.661827783250281
1751 -1.675173508512644
1752 -1.664813573953808
1753 -1.676454122649088
1754 -1.667567525343948
1755 -1.681109061536102
1756 -1.669280576526141
1757 -1.678265561374604
1758 -1.664605457520465
1759 -1.673574791806476
1760 -1.661361847276819
1761 -1.668993279091832
1762 -1.656257223375982
1763 -1.664962118908085
1764 -1.654884619137716
1765 -1.663467717127013
1766 -1.646671499676824
1767 -1.649174982027642
1768 -1.635679867114106
1769 -1.645370270361361
1770 -1.634697047527426
1771 -1.644504227083613
1772 -1.632016819942251
1773 -1.645005235982197
1774 -1.633110346119234
1775 -1.644740882092904
1776 -1.637665928676515
1777 -1.645910561344819
1778 -1.63818374636154
1779 -1.647528232001415
1780 -1.636257322253367
1781 -1.6456930134735
1782 -1.637100601396476
1783 -1.649931713535897
1784 -1.636819979254097
1785 -1.6496950839822
1786 -1.639798359890204
1787 -1.648597741842584
1788 -1.639979096395623
1789 -1.648663072168006
1790 -1.640030902803596
1791 -1.650839961722569
1792 -1.643048846395658
1793 -1.651536182681729
1794 -1.6421923872853
1795 -1.654323436808395
1796 -1.644075287354487
1797 -1.661897984237361
1798 -1.650680300944278
1799 -1.660418117156273
1800 -1.650589578669537
1801 -1.657362938518253
1802 -1.645675780561797
1803 -1.652461073295755
1804 -1.642061649147911
1805 -1.652451489337639
1806 -1.642039176797931
1807 -1.650876449497814
1808 -1.643434192670694
1809 -1.658607719480604
1810 -1.64915659480615
1811 -1.659811382376266
1812 -1.652994614146582
1813 -1.668035869300384
1814 -1.658973015999923
1815 -1.674569263951516
1816 -1.666935676890858
1817 -1.675837013927404
1818 -1.662929909816048
1819 -1.672204785083648
1820 -1.657849703803956
1821 -1.664331917551046
1822 -1.6535567779949
1823 -1.66235602898662
1824 -1.6558397278868
1825 -1.665607168986424
1826 -1.652249963529791
1827 -1.663007677344874
1828 -1.647297033685721
1829 -1.658578244738603
1830 -1.646701511005968
1831 -1.656157533290857
1832 -1.645856470857388
1833 -1.658595195588596
1834 -1.646762333531212
1835 -1.656369281646646
1836 -1.643928494621425
1837 -1.653133484940262
1838 -1.642858591536613
1839 -1.653990363710114
1840 -1.64662214533943
1841 -1.661085190568501
1842 -1.653037610379835
1843 -1.667718819120377
1844 -1.655542969328199
1845 -1.669637517908969
1846 -1.65926704560249
1847 -1.672011487778196
1848 -1.660496202804309
1849 -1.671944804484755
1850 -1.662356461073087
1851 -1.676706945201858
1852 -1.667302682549517
1853 -1.678451623984709
1854 -1.667744471010799
1855 -1.682251750115031
1856 -1.671502745962485
1857 -1.682113822082142
1858 -1.675599875882078
1859 -1.685198865155266
1860 -1.674812752188684
1861 -1.69150307960521
1862 -1.682956635368181
1863 -1.694260874882932
1864 -1.680897941849303
1865 -1.692646606187374
1866 -1.682908177133622
1867 -1.696322652003553
1868 -1.688987457420267
1869 -1.699415501654459
1870 -1.687633241690534
1871 -1.699222740817835
1872 -1.689149984082739
1873 -1.702488652524764
1874 -1.695760611543833
1875 -1.709371775539755
1876 -1.705535149971641
1877 -1.721939843758229
1878 -1.715005250004541
1879 -1.730795452082884
1880 -1.722390764139675
1881 -1.736032066904754
1882 -1.72218268425773
1883 -1.740356899787078
1884 -1.729244068024654
1885 -1.741683892889483
1886 -1.729680394706914
1887 -1.73977065565912
1888 -1.726666188259114
1889 -1.739684981127237
1890 -1.72686211077826
1891 -1.735266123202629
1892 -1.721442386494995
1893 -1.729746840500788
1894 -1.715527907591182
1895 -1.724319707038583
1896 -1.710239081800052
1897 -1.723249528927747
1898 -1.711851921165919
1899 -1.729845707131064
1900 -1.719927782170589
1901 -1.737011426822505
1902 -1.72471004790575
1903 -1.736887706444165
1904 -1.730823453228541
1905 -1.74231391976695
1906 -1.731501619547052
1907 -1.742351033443594
1908 -1.72829081441494
1909 -1.74170616745131
1910 -1.7313331735247
1911 -1.743898283891017
1912 -1.731967319622083
1913 -1.744450379536327
1914 -1.734998809770723
1915 -1.746162426288656
1916 -1.7348841463182
1917 -1.744645317709376
1918 -1.726267518316676
1919 -1.737613739199399
1920 -1.726047118398624
1921 -1.740799258855663
1922 -1.730567742322244
1923 -1.742427457396967
1924 -1.730010040199904
1925 -1.742959776032547
1926 -1.735099311809851
1927 -1.746076753828442
1928 -1.734596268183586
1929 -1.743770763967499
1930 -1.734755532321935
1931 -1.745792548455609
1932 -1.730352651411548
1933 -1.738932258139616
1934 -1.722028242420977
1935 -1.733533275039032
1936 -1.723420444504976
1937 -1.730466568745157
1938 -1.718652520761348
1939 -1.731581085876112
1940 -1.72050450787104
1941 -1.730430755172884
1942 -1.72059378722338
1943 -1.733629494795936
1944 -1.725697515872574
1945 -1.738863562521235
1946 -1.726596598423203
1947 -1.738341150768497
1948 -1.724316973795145
1949 -1.736061609969834
1950 -1.724209659805035
1951 -1.733322547131077
1952 -1.723053443312187
1953 -1.734547395211365
1954 -1.72326502380287
1955 -1.737131025275568
1956 -1.724254215075248
1957 -1.73428109375674
1958 -1.725659517568868
1959 -1.736991927414423
1960 -1.72503119222131
1961 -1.73596811390156
1962 -1.725423317259738
1963 -1.736921728013503
1964 -1.723305032887674
1965 -1.733243155324724
1966 -1.72223925206297
1967 -1.732168314919569
1968 -1.714739997360887
1969 -1.724600558846107
1970 -1.714375179315585
1971 -1.725209899596603
1972 -1.710106986673195
1973 -1.723164378563765
1974 -1.709332270404369
1975 -1.718518937194912
1976 -1.70313858881788
1977 -1.709649927660096
1978 -1.696958916703932
1979 -1.70365227243951
1980 -1.690769470305207
1981 -1.701063891113649
1982 -1.689796420084404
1983 -1.699105373863515
1984 -1.688802424365787
1985 -1.700432675981414
1986 -1.690994304810438
1987 -1.701385259533436
1988 -1.689537661244436
1989 -1.698657432000328
1990 -1.685395482178666
1991 -1.695090277235129
1992 -1.686536131167256
1993 -1.699176347829457
1994 -1.688471781845888
1995 -1.698948848825737
1996 -1.690292502550724
1997 -1.700275583081824
1998 -1.69141346575693
1999 -1.704999854529745
2000 -1.691507370999059
2001 -1.705677215199451
2002 -1.694436835035639
2003 -1.70704161594338
2004 -1.69738982833575
2005 -1.708821745130833
2006 -1.693806333951661
2007 -1.704908236595548
2008 -1.690273858140972
2009 -1.699500895778259
2010 -1.685446171913055
2011 -1.693870444029389
2012 -1.684075491799367
2013 -1.693939031321405
2014 -1.684430302901617
2015 -1.693515820247819
2016 -1.68303675099294
2017 -1.693284975988025
2018 -1.677655966481609
2019 -1.690105351832053
2020 -1.675839350294032
2021 -1.685271871362779
2022 -1.671680535926746
2023 -1.682802388634113
2024 -1.670108422189746
2025 -1.683106564901498
2026 -1.670467313755544
2027 -1.684097634751536
2028 -1.672534547196539
2029 -1.687823632019068
2030 -1.675193236996871
2031 -1.687364000341837
2032 -1.675470489057436
2033 -1.688972264450741
2034 -1.679438329691952
2035 -1.688147148915407
2036 -1.675569159184918
2037 -1.68495816931317
2038 -1.672024116743637
2039 -1.683052645852977
2040 -1.670961180633944
2041 -1.67948526119332
2042 -1.663655676785119
2043 -1.676422400006253
2044 -1.66565230803534
2045 -1.682900695118806
2046 -1.670220072300193
2047 -1.680266157988623
2048 -1.669684059555539
2049 -1.679275066877242
2050 -1.671145865788877
2051 -1.686423974284432
2052 -1.67195141363231
2053 -1.681852361871472
2054 -1.668502996292157
2055 -1.679710006780487
2056 -1.667571426315086
2057 -1.679361648460332
2058 -1.666749475890728
2059 -1.679960021692884
2060 -1.66707488442179
2061 -1.67754492552903
2062 -1.661744492927673
2063 -1.674290007498962
2064 -1.661859541985436
2065 -1.671227602968911
2066 -1.656838098901222
2067 -1.666694259905215
2068 -1.654607088472321
2069 -1.66434968231835
2070 -1.65170557780776
2071 -1.663052267336901
2072 -1.653489174198331
2073 -1.66697851589488
2074 -1.655157903103942
2075 -1.665994995763385
2076 -1.652362966699022
2077 -1.666542698407389
2078 -1.656555374421802
2079 -1.673256792309614
2080 -1.661371742282109
2081 -1.680382401678152
2082 -1.671389193085787
2083 -1.687917554001179
2084 -1.674105443165254
2085 -1.689498601303432
2086 -1.678947552615684
2087 -1.692548616072669
2088 -1.679136632831459
2089 -1.68755849385428
2090 -1.67514746022529
2091 -1.679315557535785
2092 -1.663478840713923
2093 -1.674745609167047
2094 -1.65839372674681
2095 -1.668814702722512
2096 -1.653611626468757
2097 -1.658724088090878
2098 -1.645488992690657
2099 -1.653599767197813
2100 -1.637780461019007
2101 -1.648330216920654
2102 -1.637325337094423
2103 -1.649639927008167
2104 -1.638687193521129
2105 -1.649827703953808
2106 -1.63889401370134
2107 -1.649511049100091
2108 -1.63811021337538
2109 -1.649462989871421
2110 -1.635922367923399
2111 -1.650671118214734
2112 -1.638662408011515
2113 -1.648466563810856
2114 -1.636754939295988
2115 -1.646106316127893
2116 -1.633286897196966
2117 -1.643858725094577
2118 -1.632256176363251
2119 -1.646631936508006
2120 -1.634278573524293
2121 -1.64548066370151
2122 -1.632077532432979
2123 -1.644834054098314
2124 -1.633417162473009
2125 -1.645218179045507
2126 -1.631568083593425
2127 -1.642417230706757
2128 -1.628828435336684
2129 -1.639898308743854
2130 -1.628298627634113
2131 -1.637136141805535
2132 -1.624379093094813
2133 -1.642248363369457
2134 -1.632300117755204
2135 -1.641465470813218
2136 -1.632446463489189
2137 -1.643772230440786
2138 -1.63440548994548
2139 -1.641226334742426
2140 -1.631242308363764
2141 -1.643915066542391
2142 -1.630869479269551
2143 -1.638026549861142
2144 -1.629179560273522
2145 -1.639113279735355
2146 -1.62957454821631
2147 -1.641344455093502
2148 -1.632410770646351
2149 -1.646894456286282
2150 -1.634177318309809
2151 -1.646650911620919
2152 -1.635840631074271
2153 -1.645363520325363
2154 -1.633705208521687
2155 -1.644385531632151
2156 -1.63364020304069
2157 -1.647754277538833
2158 -1.641645379930092
2159 -1.653522605548299
2160 -1.648725159579157
2161 -1.661768607327394
2162 -1.653098563282531
2163 -1.664367464817931
2164 -1.652357271546556
2165 -1.662948757878834
2166 -1.650663135588226
2167 -1.662155925822275
2168 -1.652491952398385
2169 -1.66351896789569
2170 -1.650842986458919
2171 -1.655164854720936
2172 -1.643204406638844
2173 -1.650914213826053
2174 -1.63854647670946
2175 -1.648963742752832
2176 -1.638264927734418
2177 -1.646772534179987
2178 -1.636839213812451
2179 -1.651142430935685
2180 -1.644150305666231
2181 -1.656150999510272
2182 -1.64865957394213
2183 -1.659930489849564
2184 -1.652800273515691
2185 -1.662801706421058
2186 -1.653268847747611
2187 -1.665067338426143
2188 -1.656892944336431
2189 -1.671927421776882
2190 -1.666789471770493
2191 -1.682644396718487
2192 -1.671901870144052
2193 -1.686400555405587
2194 -1.673547482102358
2195 -1.687248845178178
2196 -1.677978108928334
2197 -1.687296411024961
2198 -1.676612591549338
2199 -1.689974887998992
2200 -1.677327149957473
2201 -1.689557599823929
2202 -1.67910958380431
2203 -1.691686183890938
2204 -1.678998105725421
2205 -1.691877985391385
2206 -1.681420157963186
2207 -1.694093384452416
2208 -1.68433038483332
2209 -1.699937880419677
2210 -1.687996927566044
2211 -1.699528793552409
2212 -1.68438940080373
2213 -1.696425050493295
2214 -1.682208670330435
2215 -1.691881162010708
2216 -1.680122599634946
2217 -1.692387106347705
2218 -1.681851819845369
2219 -1.694432449392607
2220 -1.684443156544098
2221 -1.69503793076077
2222 -1.683117745382781
2223 -1.693519255368632
2224 -1.68355300988779
2225 -1.694463645316695
2226 -1.686188648706489
2227 -1.697388711406877
2228 -1.683954510751406
2229 -1.696843496233417
2230 -1.686762352680482
2231 -1.698002109639156
2232 -1.690800254990288
2233 -1.705258048727715
2234 -1.695057441423495
2235 -1.71021105777059
2236 -1.699759917477049
2237 -1.711003193256129
2238 -1.703461227200733
2239 -1.717132324504517
2240 -1.704933972062311
2241 -1.719006300005371
2242 -1.705541325444347
2243 -1.715935164555824
2244 -1.705987717403256
2245 -1.71736857402122
2246 -1.705597358122777
2247 -1.712074238392499
2248 -1.699137722735372
2249 -1.710430026262679
2250 -1.699510958563464
2251 -1.709546508244522
2252 -1.700174652996966
2253 -1.710894132279376
2254 -1.704663304416459
2255 -1.711912290998623
2256 -1.70089109127424
2257 -1.7133744807968
2258 -1.70274684353975
2259 -1.711971515955415
2260 -1.703806617608285
2261 -1.715957172503678
2262 -1.706699490450416
2263 -1.718854552459482
2264 -1.708487142825918
2265 -1.722115955175678
2266 -1.714712903069906
2267 -1.728868173889965
2268 -1.719054592147079
2269 -1.73200692035947
2270 -1.721101386079325
2271 -1.73040356311043
2272 -1.716964537473211
2273 -1.729240982802638
2274 -1.711268190054084
2275 -1.7240465990289
2276 -1.715424589068259
2277 -1.721982505522961
2278 -1.712534558820234
2279 -1.722447685029737
2280 -1.713269444838235
2281 -1.725819561446857
2282 -1.714350725842221
2283 -1.72447870461846
2284 -1.712683246761082
2285 -1.721924769173701
2286 -1.710723301442502
2287 -1.721120505268687
2288 -1.709779519995219
2289 -1.718602249528212
2290 -1.711442828475221
2291 -1.722208583698411
2292 -1.715906429090203
2293 -1.730010825534186
2294 -1.722417323637395
2295 -1.734626729090094
2296 -1.727224113056618
2297 -1.74459109061339
2298 -1.732782315870597
2299 -1.745620215624823
2300 -1.738633784205762
2301 -1.747411570828526
2302 -1.738744715696519
2303 -1.748970920631431
2304 -1.740173382383291
2305 -1.750146189750714
2306 -1.743715470478887
2307 -1.753687123509529
2308 -1.7457328315306
2309 -1.752043787399781
2310 -1.743654835639976
2311 -1.751770814265886
2312 -1.739957099632408
2313 -1.751438999228135
2314 -1.738874374663821
2315 -1.748072072863166
2316 -1.737005618173132
2317 -1.749890237280861
2318 -1.737572200847808
2319 -1.748841216624061
2320 -1.740037729943692
2321 -1.748974832722118
2322 -1.739250313187895
2323 -1.752407486406469
2324 -1.745187450618424
2325 -1.754670408866279
2326 -1.743302369552038
2327 -1.750726135167653
2328 -1.738375581719417
2329 -1.745946053754698
2330 -1.73301892499147
2331 -1.746103276896663
2332 -1.737439610110142
2333 -1.751830269937753
2334 -1.745460331699002
2335 -1.757669935245247
2336 -1.748854019980535
2337 -1.757754625966931
2338 -1.745460244137121
2339 -1.754983953573027
2340 -1.745309423701955
2341 -1.754168380764248
2342 -1.742981790651382
2343 -1.749935972433672
2344 -1.736597029901569
2345 -1.74444238691697
2346 -1.733980945714285
2347 -1.746457932601641
2348 -1.733525649538362
2349 -1.743004174061093
2350 -1.730834934117865
2351 -1.743306621367885
2352 -1.732063388170883
2353 -1.744027935944377
2354 -1.733359192027894
2355 -1.745032897730517
2356 -1.734578356266828
2357 -1.749014712199267
2358 -1.739030640067398
2359 -1.74928626964812
2360 -1.736326405708302
2361 -1.748241703571017
2362 -1.734880399022337
2363 -1.746183916730355
2364 -1.732481704752302
2365 -1.742306893428343
2366 -1.730321091330525
2367 -1.73932765144825
2368 -1.723246783384603
2369 -1.732020711086118
2370 -1.715342281959515
2371 -1.723355438756883
2372 -1.709409946215835
2373 -1.720865781380295
2374 -1.704426891712416
2375 -1.714035894704315
2376 -1.698597398856601
2377 -1.705034731180698
2378 -1.693465360396379
2379 -1.702965977881931
2380 -1.689563900882886
2381 -1.697842253005655
2382 -1.685588175039172
2383 -1.700019257542553
2384 -1.689929759806023
2385 -1.70990871414965
2386 -1.703113826320655
2387 -1.720783873505032
2388 -1.71342501581384
2389 -1.729557074942639
2390 -1.720614886878051
2391 -1.73607129610141
2392 -1.727058913741141
2393 -1.743013803954854
2394 -1.729713483740182
2395 -1.742344730446671
2396 -1.726595887948315
2397 -1.738690078131437
2398 -1.724608254322598
2399 -1.732693118035538
2400 -1.71803128871029
2401 -1.727679539297273
2402 -1.711430888476462
2403 -1.718917638153134
2404 -1.701646601982104
2405 -1.707309978521273
2406 -1.694134763619697
2407 -1.702789414220782
2408 -1.68574865598475
2409 -1.695808522313282
2410 -1.685671120157469
2411 -1.699426687102612
2412 -1.685764976554547
2413 -1.696877119689588
2414 -1.688017032665934
2415 -1.702792611304929
2416 -1.694442914198892
2417 -1.704785590624451
2418 -1.695625556810229
2419 -1.70952301231759
2420 -1.704101886250179
2421 -1.716699711271592
2422 -1.704600814022938
2423 -1.719229283585377
2424 -1.708719579242244
2425 -1.719131582417702
2426 -1.703815696108049
2427 -1.716645516058205
2428 -1.700424902562213
2429 -1.712067813195158
2430 -1.698027075035137
2431 -1.705078090420992
2432 -1.690784860463538
2433 -1.698750593157365
2434 -1.68493786540118
2435 -1.695830077854528
2436 -1.685521872704002
2437 -1.696537367753763
2438 -1.682396180775862
2439 -1.691361908820713
2440 -1.677442321673621
2441 -1.684509745231076
2442 -1.673489418387454
2443 -1.684146313909715
2444 -1.675193340642298
2445 -1.691185895962914
2446 -1.682740657056
2447 -1.694560521444534
2448 -1.685789742062952
2449 -1.698987815742698
2450 -1.692469255369913
2451 -1.700459646391252
2452 -1.692233858770025
2453 -1.707570067056472
2454 -1.702904703448509
2455 -1.715673656949499
2456 -1.705686989113878
2457 -1.719858424195612
2458 -1.706955625407031
2459 -1.714889403702178
2460 -1.702557913208659
2461 -1.710318543711477
2462 -1.698445771381643
2463 -1.707204732712307
2464 -1.694566194019622
2465 -1.70468350579099
2466 -1.690187238741486
2467 -1.697374174115052
2468 -1.683684509993739
2469 -1.692215762923046
2470 -1.674212059653727
2471 -1.68333028009122
2472 -1.669850664747272
2473 -1.678947127716365
2474 -1.666238528968756
2475 -1.671917214177251
2476 -1.657271242931152
2477 -1.66769299965421
2478 -1.653342421096972
2479 -1.660607064950585
2480 -1.646784337621259
2481 -1.658028771707301
2482 -1.643345007055487
2483 -1.655657028069428
2484 -1.64029415603768
2485 -1.64933049271971
2486 -1.639204253050804
2487 -1.650129401263768
2488 -1.640796760544927
2489 -1.654042411630254
2490 -1.645454410954885
2491 -1.656229180146293
2492 -1.646966378140833
2493 -1.658495261627614
2494 -1.648133759693787
2495 -1.658243913839119
2496 -1.645388487351027
2497 -1.655631705410961
2498 -1.647473944667856
2499 -1.653732575304584
2500 -1.643424141080526
2501 -1.65398426049256
2502 -1.64007302202049
2503 -1.650639714348036
2504 -1.639134733063939
2505 -1.650513256663479
2506 -1.641017619066847
2507 -1.652606036754189
2508 -1.640689651607197
2509 -1.650151505750442
2510 -1.639153063263892
2511 -1.648189132387324
2512 -1.636872036166317
2513 -1.647595780796395
2514 -1.632486747135548
2515 -1.640798406833687
2516 -1.629277988923591
2517 -1.640016935488569
2518 -1.626432568590522
2519 -1.637021387775171
2520 -1.624877445415069
2521 -1.634147108195354
2522 -1.618688534196793
2523 -1.62465510063929
2524 -1.611715239322917
2525 -1.623705737183028
2526 -1.609016810819818
2527 -1.620460259729513
2528 -1.611778716984758
2529 -1.622298942313956
2530 -1.610104188900387
2531 -1.622900391456045
2532 -1.614691416339124
2533 -1.626674387243287
2534 -1.61601879399489
2535 -1.633989029824616
2536 -1.617810259758948
2537 -1.633596101936229
2538 -1.621374708625639
2539 -1.632416483525839
2540 -1.624305238160854
2541 -1.640643396852716
2542 -1.630859284272695
2543 -1.64428719868251
2544 -1.631745749590665
2545 -1.646496450262816
2546 -1.635156676067038
2547 -1.646860688278849
2548 -1.636295512433963
2549 -1.649241340858851
2550 -1.634967127773916
2551 -1.639944734390943
2552 -1.62727138116965
2553 -1.634586459300738
2554 -1.62074685203914
2555 -1.633210042824476
2556 -1.618798179160926
2557 -1.630951327398652
2558 -1.616396806704806
2559 -1.627416100262555
2560 -1.615133242435462
2561 -1.629649381445696
2562 -1.621690084481045
2563 -1.634905431144116
2564 -1.629511168991618
2565 -1.647502006344752
2566 -1.637444278312738
2567 -1.652899239490066
2568 -1.64629670471696
2569 -1.662420578175386
2570 -1.653307626766264
2571 -1.670741104196907
2572 -1.66164790077252
2573 -1.677379541190579
2574 -1.670807233593368
2575 -1.690658540126077
2576 -1.678943476394146
2577 -1.692240502934597
2578 -1.678178393567758
2579 -1.689009992068241
2580 -1.677700389034541
2581 -1.692843628518502
2582 -1.678442490799556
2583 -1.689626161888405
2584 -1.672856486326714
2585 -1.686620803531393
2586 -1.671861885020862
2587 -1.68816513707941
2588 -1.675240743719144
2589 -1.686429288133092
2590 -1.673752846238277
2591 -1.684643659793342
2592 -1.671286529859991
2593 -1.683077319499061
2594 -1.671426852454513
2595 -1.684578486187631
2596 -1.672639093011242
2597 -1.687274765642377
2598 -1.678272209720418
2599 -1.693021144383625
2600 -1.681768835506158
2601 -1.699075536674812
2602 -1.68835315626157
2603 -1.701613519628203
2604 -1.692758403261264
2605 -1.706447691278779
2606 -1.697724346513144
2607 -1.714545256914513
2608 -1.706143243618114
2609 -1.721647619844939
2610 -1.711174504931892
2611 -1.722792465919736
2612 -1.709388833327128
2613 -1.723225204522159
2614 -1.709940440999803
2615 -1.717510133368416
2616 -1.706375867729887
2617 -1.716546048652366
2618 -1.704571230352699
2619 -1.718485041087375
2620 -1.707792518929069
2621 -1.719491959011539
2622 -1.706697636960713
2623 -1.715067507155104
2624 -1.699739056068696
2625 -1.710874645087192
2626 -1.699050441262733
2627 -1.709882419173622
2628 -1.698984880746934
2629 -1.707957866825468
2630 -1.697247580851538
2631 -1.711640685424424
2632 -1.698983621463931
2633 -1.712271610781842
2634 -1.701402361516913
2635 -1.714718536889277
2636 -1.703456379028962
2637 -1.714054810009358
2638 -1.707476127769709
2639 -1.721290726234124
2640 -1.709478812356076
2641 -1.719732392725027
2642 -1.707448647213885
2643 -1.719874155568407
2644 -1.706705018642577
2645 -1.716202871208053
2646 -1.704731117425267
2647 -1.71779377632724
2648 -1.708654184780714
2649 -1.718447481105993
2650 -1.705471584700722
2651 -1.713325512112048
2652 -1.701400293899579
2653 -1.712478367668383
2654 -1.69973299031098
2655 -1.709176292223301
2656 -1.698808274453326
2657 -1.709988497410538
2658 -1.697998343042783
2659 -1.710622963898869
2660 -1.698995266973589
2661 -1.713935934831103
2662 -1.701418843064698
2663 -1.713289119578346
2664 -1.700928184587912
2665 -1.712978951061751
2666 -1.703796819335831
2667 -1.713070546587971
2668 -1.699513526479252
2669 -1.712347855076403
2670 -1.70195827584444
2671 -1.713820196310049
2672 -1.699432431545843
2673 -1.712151516739822
2674 -1.701107973187054
2675 -1.710196018632009
2676 -1.695056638042399
2677 -1.701629127735618
2678 -1.688748825622735
2679 -1.700090038951883
2680 -1.688887077220458
2681 -1.698375655572003
2682 -1.685579628034201
2683 -1.69798018345976
2684 -1.685052489563191
2685 -1.696454448243741
2686 -1.685852422737901
2687 -1.697355934289951
2688 -1.683347486369431
2689 -1.697067039463587
2690 -1.684325740043736
2691 -1.700305589601822
2692 -1.693663034940901
2693 -1.706497252042894
2694 -1.697252776563572
2695 -1.713819840038626
2696 -1.704165987499718
2697 -1.721362355095378
2698 -1.708649530260004
2699 -1.718986997457091
2700 -1.702663949543251
2701 -1.712231857701547
2702 -1.694477425826842
2703 -1.706079800806061
2704 -1.689797206057369
2705 -1.696474027319911
2706 -1.677279439861388
2707 -1.684676531018861
2708 -1.672465729397904
2709 -1.675686682593329
2710 -1.663090159476565
2711 -1.669539390757031
2712 -1.657250360816079
2713 -1.665113630186988
2714 -1.650480717495142
2715 -1.662662762689966
2716 -1.649597823621652
2717 -1.661245042591125
2718 -1.650921971321908
2719 -1.663993993914594
2720 -1.654462526204286
2721 -1.666884993857858
2722 -1.654909351160455
2723 -1.668789969744361
2724 -1.659563740581588
2725 -1.676942336331626
2726 -1.665349756965252
2727 -1.680389840055535
2728 -1.664516617115912
2729 -1.682207350632823
2730 -1.66868485037506
2731 -1.683655202935432
2732 -1.668136852307424
2733 -1.680580821797324
2734 -1.667898420057216
2735 -1.681070403820883
2736 -1.663327703922682
2737 -1.672397988188433
2738 -1.651909171446931
2739 -1.66374094301633
2740 -1.647893996455797
2741 -1.654151629581301
2742 -1.642033328729271
2743 -1.650458137049587
2744 -1.63611397535762
2745 -1.64826974117705
2746 -1.634693492058797
2747 -1.643048093382003
2748 -1.633389043437923
2749 -1.644024123118794
2750 -1.628324181519606
2751 -1.641881345255095
2752 -1.62823790532815
2753 -1.641506104876419
2754 -1.630816980929041
2755 -1.645305654692409
2756 -1.636969983931642
2757 -1.650305217635015
2758 -1.64230901506809
2759 -1.654246395618175
2760 -1.643273345334781
2761 -1.656864097050596
2762 -1.647809491538864
2763 -1.664269930678155
2764 -1.65577856561059
2765 -1.671624209152514
2766 -1.658135775993636
2767 -1.668053098677811
2768 -1.65406457708734
2769 -1.661827802961825
2770 -1.647997097519475
2771 -1.65811195671605
2772 -1.644890468545145
2773 -1.660339380524267
2774 -1.647538336810653
2775 -1.662418231438431
2776 -1.649029923656526
2777 -1.665397485832944
2778 -1.654986247065408
2779 -1.668034928237565
2780 -1.65265982973033
2781 -1.663539265663174
2782 -1.651649776474206
2783 -1.662827841015331
2784 -1.648466676878928
2785 -1.661533089341112
2786 -1.651133706767391
2787 -1.663805702678818
2788 -1.651601874098318
2789 -1.663007906369332
2790 -1.650788732386344
2791 -1.662143428907096
2792 -1.648065662303233
2793 -1.659786239788827
2794 -1.647134109510992
2795 -1.656313899459635
2796 -1.645388119346721
2797 -1.654565204466432
2798 -1.645410934078257
2799 -1.65695696596557
2800 -1.647437756112728
2801 -1.657502456070822
2802 -1.648849667362493
2803 -1.660541538740631
2804 -1.651606044832917
2805 -1.664490200004632
2806 -1.652995077121477
2807 -1.665202849759126
2808 -1.653651073583594
2809 -1.669353460572239
2810 -1.65983239971826
2811 -1.672046328081927
2812 -1.660138487679307
2813 -1.676944306386129
2814 -1.66809502063811
2815 -1.682333479905028
2816 -1.672502003859557
2817 -1.686105497747513
2818 -1.676434807851843
2819 -1.68574362308694
2820 -1.674498815864579
2821 -1.685393922119412
2822 -1.675269699549475
2823 -1.685999294961908
2824 -1.674663960251585
2825 -1.685812161770041
2826 -1.677643585412484
2827 -1.686372755255734
2828 -1.67569841107054
2829 -1.684401242893383
2830 -1.671396271969482
2831 -1.683446392366649
2832 -1.674601593154301
2833 -1.68669569090775
2834 -1.677157701699708
2835 -1.687807146207236
2836 -1.677462239827128
2837 -1.687509507055568
2838 -1.676690475053408
2839 -1.687585492276908
2840 -1.678300840580129
2841 -1.693010444696274
2842 -1.682984787314363
2843 -1.700451196835112
2844 -1.689754797505496
2845 -1.70380228689555
2846 -1.696034727220065
2847 -1.709692525932469
2848 -1.69833902920391
2849 -1.711514609975696
2850 -1.701070515196549
2851 -1.715235991134
2852 -1.702671620943023
2853 -1.716842126012058
2854 -1.70935842686764
2855 -1.725922751051074
2856 -1.712195871335784
2857 -1.723681592043048
2858 -1.715833046507309
2859 -1.727296158669586
2860 -1.712740146860928
2861 -1.722014524920888
2862 -1.713038231400554
2863 -1.725876491351829
2864 -1.712183189683941
2865 -1.721343538305778
2866 -1.711661917271999
2867 -1.722064097552365
2868 -1.711766966535448
2869 -1.723575390103852
2870 -1.713077286705822
2871 -1.726597709608177
2872 -1.717265695962582
2873 -1.731442071748329
2874 -1.719059830505517
2875 -1.73163514528972
2876 -1.720924661522055
2877 -1.73217879877478
2878 -1.719979831250565
2879 -1.732344813080354
2880 -1.722306343858744
2881 -1.733207533614215
2882 -1.72316145549706
2883 -1.738306107151244
2884 -1.725567694282609
2885 -1.738359545950546
2886 -1.724163723149519
2887 -1.733660418594901
2888 -1.722198118231911
2889 -1.735228878157306
2890 -1.72091493507791
2891 -1.73264880992482
2892 -1.717639860750233
2893 -1.728688517732545
2894 -1.717573441601703
2895 -1.730670110178623
2896 -1.716969989450912
2897 -1.72796297530167
2898 -1.713968257181076
2899 -1.724749558616994
2900 -1.710967611042391
2901 -1.722289564074121
2902 -1.707151914980713
2903 -1.720668907548118
2904 -1.710059279667402
2905 -1.718437051740966
2906 -1.711212089023982
2907 -1.725742408387979
2908 -1.718831439992425
2909 -1.7351724543041
2910 -1.723618478759374
2911 -1.74093750256
2912 -1.728835544893663
2913 -1.741113684447624
2914 -1.732782260726738
2915 -1.748835090570968
2916 -1.736731151842811
2917 -1.747429293934676
2918 -1.737304930939494
2919 -1.747909457373068
2920 -1.732470771025675
2921 -1.747865268412833
2922 -1.734496940153222
2923 -1.742378717773401
2924 -1.727102144785406
2925 -1.738895135005696
2926 -1.725815357166556
2927 -1.736338153880997
2928 -1.720588504477076
2929 -1.732824010976473
2930 -1.720406227331644
2931 -1.729336140277929
2932 -1.711348909238615
2933 -1.722348460399695
2934 -1.710459560958269
2935 -1.721457490028815
2936 -1.709955735846792
2937 -1.722410947149251
2938 -1.709246585914047
2939 -1.720382973869362
2940 -1.704689715275719
2941 -1.716474521688542
2942 -1.704251413610781
2943 -1.713682449472476
2944 -1.701908699491283
2945 -1.710720610697671
2946 -1.701019642629163
2947 -1.712312747611717
2948 -1.699378471515127
2949 -1.711885896961337
2950 -1.701373880948608
2951 -1.715221829656347
2952 -1.705611538548415
2953 -1.721817733439069
2954 -1.711871843715429
2955 -1.726531836400278
2956 -1.717474865451129
2957 -1.728338694083531
2958 -1.715272980480064
2959 -1.721255171189254
2960 -1.707469466859848
2961 -1.719128463363594
2962 -1.708441028843614
2963 -1.716476096953817
2964 -1.703980711758641
2965 -1.713706720886421
2966 -1.701880825332675
2967 -1.718461673083883
2968 -1.703726884771815
2969 -1.713392220466258
2970 -1.700823680045213
2971 -1.709899431930306
2972 -1.696528000523819
2973 -1.708792467396726
2974 -1.696947015209465
2975 -1.707783012981229
2976 -1.692109320799155
2977 -1.698094348832345
2978 -1.690121591339233
2979 -1.701706466629101
2980 -1.689831750813198
2981 -1.700774345861678
2982 -1.689485874349626
2983 -1.698022821859531
2984 -1.683062359116459
2985 -1.696022888371652
2986 -1.681183429469754
2987 -1.693002688524308
2988 -1.68486526390269
2989 -1.696722963842787
2990 -1.685376556632341
2991 -1.696470312894247
2992 -1.686937298696075
2993 -1.696857183911742
2994 -1.688167300145078
2995 -1.700928540887399
2996 -1.692411992258272
2997 -1.707279192743019
2998 -1.694112427727318
2999 -1.706822855843083
3000 -1.69897562899358
3001 -1.712451278690843
3002 -1.700196023993612
3003 -1.708651405098986
3004 -1.698691840530161
3005 -1.707168968953947
3006 -1.691839922951683
3007 -1.703525518756766
3008 -1.68527631088542
3009 -1.695132943425852
3010 -1.681507121640273
3011 -1.691582540184486
3012 -1.678782864874513
3013 -1.68744079920184
3014 -1.680496188874821
3015 -1.688268535374394
3016 -1.675753622651672
3017 -1.681033807957347
3018 -1.668832047582817
3019 -1.678620494698299
3020 -1.668726811713766
3021 -1.682696525849975
3022 -1.676848860127945
3023 -1.688672898193037
3024 -1.681176511879738
3025 -1.691701388000831
3026 -1.683947268506906
3027 -1.697991553764551
3028 -1.687986551016682
3029 -1.700414569842662
3030 -1.689874909559342
3031 -1.703517916883482
3032 -1.691860517202738
3033 -1.701560870707266
3034 -1.690238041084817
3035 -1.700039028323501
3036 -1.688552526103951
3037 -1.698633326636432
3038 -1.678200414240952
3039 -1.685243315524121
3040 -1.669337208333907
3041 -1.678535496572518
3042 -1.666550730791235
3043 -1.679889344107193
3044 -1.668020689533667
3045 -1.678599873489596
3046 -1.666909476035802
3047 -1.676811087852525
3048 -1.663431614363857
3049 -1.674798381167751
3050 -1.662326293385719
3051 -1.678988256019947
3052 -1.667130590502226
3053 -1.679568057485253
3054 -1.669086170441606
3055 -1.67923188685184
3056 -1.670407082263549
3057 -1.680968270473208
3058 -1.670434085313575
3059 -1.681229791733436
3060 -1.66553801159097
3061 -1.676329267594021
3062 -1.662887998307551
3063 -1.670756394906544
3064 -1.659268093461729
3065 -1.669668907265691
3066 -1.656822472389868
3067 -1.672040838189787
3068 -1.659056131615683
3069 -1.668597884612356
3070 -1.654870316050656
3071 -1.669246301873201
3072 -1.65513472301217
3073 -1.668575463246965
3074 -1.657053172490034
3075 -1.666387534624344
3076 -1.653593755714715
3077 -1.663857367516299
3078 -1.651307650410492
3079 -1.660043691059809
3080 -1.644363520301013
3081 -1.653782260512003
3082 -1.639326259045236
3083 -1.65613856204619
3084 -1.641708333937103
3085 -1.659763049576066
3086 -1.648701243270716
3087 -1.660179908636139
3088 -1.647065036186214
3089 -1.6605736703545
3090 -1.650953590482549
3091 -1.666788537670573
3092 -1.657173513816656
3093 -1.670884786157379
3094 -1.663018276777584
3095 -1.679000887165663
3096 -1.663504383457813
3097 -1.67452259950159
3098 -1.664421996550586
3099 -1.675308045469041
3100 -1.663472725137819
3101 -1.677482737095556
3102 -1.667342157254545
3103 -1.680591827288484
3104 -1.666883192363808
3105 -1.678121770205879
3106 -1.664152835598326
3107 -1.674771245731967
3108 -1.663646446259415
3109 -1.674420511786056
3110 -1.660295856423983
3111 -1.674372492931329
3112 -1.661910875242764
3113 -1.677512579390793
3114 -1.664263723344263
3115 -1.679729067468907
3116 -1.669691052494398
3117 -1.683908683132265
3118 -1.671505237310407
3119 -1.683619734463983
3120 -1.672120927021528
3121 -1.677280456642102
3122 -1.662994218226432
3123 -1.668268983923993
3124 -1.654114447127768
3125 -1.664259988304505
3126 -1.650436750910218
3127 -1.660034581580706
3128 -1.647665295095556
3129 -1.661557402348597
3130 -1.652261527865383
3131 -1.664765689605118
3132 -1.655910684851284
3133 -1.666529572856936
3134 -1.659339957327957
3135 -1.670198501628837
3136 -1.664032587799746
3137 -1.67585066903679
3138 -1.66763609547953
3139 -1.683004866581061
3140 -1.67578717882089
3141 -1.686806527261606
3142 -1.679653485100431
3143 -1.695939491721248
3144 -1.688934682652539
3145 -1.702961714689458
3146 -1.694179857518207
3147 -1.70571999641454
3148 -1.696957291510846
3149 -1.707698325798199
3150 -1.698532517852226
3151 -1.70794103113029
3152 -1.695082842217062
3153 -1.706080177850829
3154 -1.693299202952927
3155 -1.703587450163208
3156 -1.687449002426413
3157 -1.699140886429153
3158 -1.685053621254078
3159 -1.695528345646921
3160 -1.682761143702294
3161 -1.693699310084364
3162 -1.682660644854929
3163 -1.696365960407094
3164 -1.683563894929336
3165 -1.695801742920194
3166 -1.688645902674638
3167 -1.705733941982699
3168 -1.696775614756178
3169 -1.710466835473875
3170 -1.705097293157851
3171 -1.718503337474562
3172 -1.705191663371999
3173 -1.719440954105423
3174 -1.708842069296179
3175 -1.717231476272316
3176 -1.706502434183855
3177 -1.723223136395877
3178 -1.710277709380154
3179 -1.723385479254751
3180 -1.713766374155367
3181 -1.725059752943132
3182 -1.714874433800009
3183 -1.725978414420151
3184 -1.713362862003845
3185 -1.722788728001589
3186 -1.710588963791747
3187 -1.718067801123139
3188 -1.707911966551892
3189 -1.718270407003402
3190 -1.701340263178011
3191 -1.709438611449765
3192 -1.696890462862077
3193 -1.705434269718513
3194 -1.693247843091549
3195 -1.701290815615053
3196 -1.689216606476572
3197 -1.698301918006021
3198 -1.689481341613249
3199 -1.702982963665436
3200 -1.687827302511552
3201 -1.701918933331122
3202 -1.693561524989842
3203 -1.706735748312682
3204 -1.697014234862476
3205 -1.709044949707405
3206 -1.703721871560437
3207 -1.718155162343731
3208 -1.709091954387292
3209 -1.719548759055896
3210 -1.708508738416515
3211 -1.724662255329137
3212 -1.718078202863115
3213 -1.734769460905221
3214 -1.728583138615946
3215 -1.74563340611744
3216 -1.736842581885759
3217 -1.746117404269171
3218 -1.736302884400771
3219 -1.747375578359623
3220 -1.738131346393172
3221 -1.747543037940799
3222 -1.736259411461363
3223 -1.746788946624514
3224 -1.740692509000475
3225 -1.750092480562556
3226 -1.738487021578875
3227 -1.75371594284858
3228 -1.735568132817846
3229 -1.749801764482362
3230 -1.735222978281652
3231 -1.745759299796883
3232 -1.726566603739029
3233 -1.738256709227087
3234 -1.726190538900297
3235 -1.738881821715583
3236 -1.727290640579214
3237 -1.746206580333617
3238 -1.733695718980018
3239 -1.747028609040585
3240 -1.733246260751101
3241 -1.748178901472226
3242 -1.739339983247212
3243 -1.753785652221118
3244 -1.740732083224515
3245 -1.754653000548209
3246 -1.745087159165091
3247 -1.75962699693455
3248 -1.747819703119024
3249 -1.763800583800492
3250 -1.755427078950027
3251 -1.766452569800664
3252 -1.754413018847536
3253 -1.765478915188763
3254 -1.752307469301815
3255 -1.768099362163974
3256 -1.755352666082551
3257 -1.766958019137335
3258 -1.753090129613877
3259 -1.768094838454477
3260 -1.757804233753289
3261 -1.77051216101383
3262 -1.75836734493055
3263 -1.764907867781113
3264 -1.752266236270948
3265 -1.765061722941898
3266 -1.753973075910317
3267 -1.76631599244558
3268 -1.752965314522117
3269 -1.764536676595273
3270 -1.750374551603489
3271 -1.761246027387787
3272 -1.747202947499492
3273 -1.761688460904573
3274 -1.746789275274792
3275 -1.760715659249006
3276 -1.745950287800004
3277 -1.760795520555828
3278 -1.744964271415381
3279 -1.753658969006342
3280 -1.735380382961008
3281 -1.744572781329588
3282 -1.729221201355819
3283 -1.740689187353024
3284 -1.728693216697885
3285 -1.741286410847588
3286 -1.730291981957556
3287 -1.739180215539946
3288 -1.728722321086168
3289 -1.740525357261167
3290 -1.728592143275147
3291 -1.74100643192403
3292 -1.725731456981701
3293 -1.740243251496512
3294 -1.728926339210502
3295 -1.742498128162477
3296 -1.729236046711004
3297 -1.74233059647368
3298 -1.729076307215062
3299 -1.738890301879467
3300 -1.72934520143592
3301 -1.743301205101044
3302 -1.731977162599001
3303 -1.743243978534574
3304 -1.730127050306988
3305 -1.742933386480439
3306 -1.725744376228681
3307 -1.739023558874508
3308 -1.723875981990056
3309 -1.733335158743938
3310 -1.720665850491777
3311 -1.733369968500228
3312 -1.719128775729329
3313 -1.730314599202683
3314 -1.716785805260705
3315 -1.729607153652223
3316 -1.713111407191946
3317 -1.720396754890432
3318 -1.708007312945262
3319 -1.71809035664308
3320 -1.70452276438974
3321 -1.716338237487862
3322 -1.703815983153416
3323 -1.714298971901049
3324 -1.703302533327625
3325 -1.713659764607959
3326 -1.699994686070509
3327 -1.707647307129216
3328 -1.695521339505841
3329 -1.702964144392023
3330 -1.687947733310117
3331 -1.699561293741627
3332 -1.685523839437132
3333 -1.696913177448669
3334 -1.683853086872409
3335 -1.697233191842583
3336 -1.687495593734705
3337 -1.70011330021228
3338 -1.69303651673207
3339 -1.708203072704799
3340 -1.695781679272143
3341 -1.70539264996203
3342 -1.695689657140727
3343 -1.706556182051669
3344 -1.696040513885982
3345 -1.709501438139287
3346 -1.699368115633977
3347 -1.709486557139601
3348 -1.699007242219592
3349 -1.710204797791386
3350 -1.700924947069161
3351 -1.713479490242702
3352 -1.701021375511
3353 -1.714619028531503
3354 -1.706940073799404
3355 -1.716266055216097
3356 -1.70532285910208
3357 -1.718635107830237
3358 -1.707847584018597
3359 -1.720624507862986
3360 -1.704758449757446
3361 -1.71510899079566
3362 -1.70187341390628
3363 -1.714604944928069
3364 -1.704132280932052
3365 -1.714613326912134
3366 -1.700181151529388
3367 -1.710341833018428
3368 -1.696339607766358
3369 -1.705865694339236
3370 -1.694167523482757
3371 -1.70949333227707
3372 -1.698176159316097
3373 -1.711032844414463
3374 -1.698310896472637
3375 -1.707134888404378
3376 -1.693746009299058
3377 -1.700855894139281
3378 -1.683961211829584
3379 -1.692887707380579
3380 -1.678685497810348
3381 -1.68941862796715
3382 -1.673524114231987
3383 -1.683437654279589
3384 -1.668508574117133
3385 -1.678657557356017
3386 -1.667722393373712
3387 -1.676956153811817
3388 -1.665421433786637
3389 -1.677078553877686
3390 -1.6664092596126
3391 -1.679961095901118
3392 -1.670356588221408
3393 -1.687209602886181
3394 -1.675548732500936
3395 -1.687922647329975
3396 -1.68282576491304
3397 -1.695339716168357
3398 -1.684211011438103
3399 -1.696259443900905
3400 -1.684815022554201
3401 -1.698758539457362
3402 -1.690011808830572
3403 -1.703819221184702
3404 -1.69165522516796
3405 -1.702585365943963
3406 -1.690070573935898
3407 -1.704118730546362
3408 -1.685556750465087
3409 -1.69458887633551
3410 -1.67717846480562
3411 -1.687268138210267
3412 -1.671965478203824
3413 -1.68241536019871
3414 -1.667562259209109
3415 -1.676973576393209
3416 -1.663661492759575
3417 -1.673960631884107
3418 -1.659149856675628
3419 -1.672491372753538
3420 -1.657501307245344
3421 -1.670551315810042
3422 -1.65681436517421
3423 -1.67321229972223
3424 -1.656053050408043
3425 -1.665302611712072
3426 -1.654729691776571
3427 -1.662979692640541
3428 -1.649081070724361
3429 -1.663778303921203
3430 -1.651270359894613
3431 -1.665951418314514
3432 -1.657066364843423
3433 -1.671981680305338
3434 -1.65820753075003
3435 -1.666898101176047
3436 -1.654912732064438
3437 -1.668172495591887
3438 -1.650699437120472
3439 -1.660529872154692
3440 -1.650533736452649
3441 -1.654762353662162
3442 -1.644759571334027
3443 -1.653462218284163
3444 -1.641392085040601
3445 -1.653463939046165
3446 -1.640304137574207
3447 -1.652093943451457
3448 -1.639279375733129
3449 -1.653215488592507
3450 -1.641346990595894
3451 -1.654409766451997
3452 -1.642459261467351
3453 -1.652507489521284
3454 -1.645901325921797
3455 -1.662302572266093
3456 -1.652345643836654
3457 -1.66873837441006
3458 -1.65993911721487
3459 -1.673001993526016
3460 -1.662006150616769
3461 -1.672169068747053
3462 -1.660801630919129
3463 -1.671149597307997
3464 -1.661954266777246
3465 -1.673893108340098
3466 -1.665614717469017
3467 -1.682563175893709
3468 -1.671528925148517
3469 -1.683880513879801
3470 -1.669455220400198
3471 -1.680848382534573
3472 -1.667435654338131
3473 -1.676028102913964
3474 -1.663925556964581
3475 -1.67240256560038
3476 -1.658977821511707
3477 -1.666396907191945
3478 -1.657755852958959
3479 -1.668157569542636
3480 -1.657491718117951
3481 -1.666614491597201
3482 -1.655600248835635
3483 -1.667277150609606
3484 -1.659459194164054
3485 -1.673551690836223
3486 -1.66325329009454
3487 -1.674017997495995
3488 -1.662830100955806
3489 -1.675642004039761
3490 -1.669171056328848
3491 -1.680357029383695
3492 -1.670248526928266
3493 -1.682332240549934
3494 -1.669940236803504
3495 -1.685630118170165
3496 -1.673812102989212
3497 -1.689052925148724
3498 -1.678755307477809
3499 -1.694097288640066
3500 -1.684265694038467
3501 -1.699497100260998
3502 -1.688786053542448
3503 -1.702704629110321
3504 -1.694507692097634
3505 -1.705732891567802
3506 -1.696302316483436
3507 -1.705924504449594
3508 -1.697481946975193
3509 -1.70407777718972
3510 -1.692706099855328
3511 -1.704039680131596
3512 -1.690579707593602
3513 -1.700409484991203
3514 -1.687636926329036
3515 -1.698834318222803
3516 -1.687656316011798
3517 -1.702670205507044
3518 -1.695251919233704
3519 -1.709243837672659
3520 -1.702076498226637
3521 -1.718432646983062
3522 -1.708615511490289
3523 -1.723347142152962
3524 -1.713133500977413
3525 -1.72626604163131
3526 -1.71587351987205
3527 -1.73193475470713
3528 -1.720745177020719
3529 -1.731579210299227
3530 -1.722962865541806
3531 -1.73699165023903
3532 -1.725962343583242
3533 -1.741270776646902
3534 -1.7287904048682
3535 -1.737781315220611
3536 -1.723081346150691
3537 -1.734401137582964
3538 -1.725897115960039
3539 -1.73660631965651
3540 -1.725659806868702
3541 -1.737848615658755
3542 -1.72722194311493
3543 -1.738826785978941
3544 -1.72574403335687
3545 -1.738657636130605
3546 -1.725695803447761
3547 -1.736494340868105
3548 -1.723540247056675
3549 -1.732997021789634
3550 -1.718184514763754
3551 -1.728133520084001
3552 -1.715822022399355
3553 -1.724496367008997
3554 -1.71240483625745
3555 -1.719118337003751
3556 -1.706573913036317
3557 -1.720279333578279
3558 -1.709694648158504
3559 -1.721972577836461
3560 -1.71212947943793
3561 -1.727566455220378
3562 -1.716897821640143
3563 -1.731184862776191
3564 -1.71774884538413
3565 -1.732429799468332
3566 -1.719478864869934
3567 -1.730251656836541
3568 -1.71626414824728
3569 -1.721823475014618
3570 -1.707506678930693
3571 -1.719955068995948
3572 -1.709002926236013
3573 -1.718816189829811
3574 -1.705929299682328
3575 -1.720217437928226
3576 -1.706240394358026
3577 -1.717640870044934
3578 -1.701662445147067
3579 -1.713463480583164
3580 -1.699144541316091
3581 -1.71077213926053
3582 -1.699601441717819
3583 -1.714384286959704
3584 -1.698474677157403
3585 -1.708250122417383
3586 -1.693966705411869
3587 -1.703763747234869
3588 -1.690616850081896
3589 -1.699082797478795
3590 -1.683385360539808
3591 -1.694391384583846
3592 -1.68486242688665
3593 -1.698956509220311
3594 -1.689897138853873
3595 -1.70277027231325
3596 -1.68736276340155
3597 -1.695930519072796
3598 -1.684931127454817
3599 -1.694685801813278
3600 -1.681610993422838
3601 -1.694614126139393
3602 -1.681237126237705
3603 -1.693898738695747
3604 -1.678243687397001
3605 -1.690227936790165
3606 -1.677119543972672
3607 -1.686362900573025
3608 -1.671907012061235
3609 -1.68470469448605
3610 -1.669044680881773
3611 -1.682259862481607
3612 -1.666566037935406
3613 -1.679003696974075
3614 -1.667947292762243
3615 -1.678008217857285
3616 -1.665503117001639
3617 -1.676680081983265
3618 -1.662695621942765
3619 -1.673649116325136
3620 -1.659801890069291
3621 -1.673506402062167
3622 -1.660006732738156
3623 -1.671916663913159
3624 -1.66250415409256
3625 -1.674852681821331
3626 -1.664574871975147
3627 -1.67641426410579
3628 -1.664787484811279
3629 -1.676049781505681
3630 -1.668076174872236
3631 -1.678412899037361
3632 -1.66270532186676
3633 -1.675551485946488
3634 -1.663139666652773
3635 -1.673513422865142
3636 -1.662770049427094
3637 -1.671880165734598
3638 -1.660724906291777
3639 -1.670877750344228
3640 -1.659033346170456
3641 -1.671691492387911
3642 -1.662523773684157
3643 -1.672233704688487
3644 -1.661579412147812
3645 -1.669941248767895
3646 -1.657634443610247
3647 -1.671136138929296
3648 -1.657327318568029
3649 -1.672138784568622
3650 -1.663239814505852
3651 -1.677327937634399
3652 -1.666114184538324
3653 -1.674573996529647
3654 -1.665014317827284
3655 -1.678344042751232
3656 -1.66698565072197
3657 -1.674415536192533
3658 -1.661746323327846
3659 -1.676448901034143
3660 -1.666051157233225
3661 -1.675718760181213
3662 -1.666710228932514
3663 -1.676540431177534
3664 -1.663682207326756
3665 -1.674189181831687
3666 -1.666006692312211
3667 -1.679715918432349
3668 -1.671154643720584
3669 -1.683986294311817
3670 -1.673678563682759
3671 -1.686627194475058
3672 -1.677494462371866
3673 -1.684700491935792
3674 -1.673832247044569
3675 -1.682908768103594
3676 -1.667849730291327
3677 -1.679471503763228
3678 -1.66676220961153
3679 -1.680630687940632
3680 -1.669833382792132
3681 -1.683687609624509
3682 -1.674002177378391
3683 -1.684839498825805
3684 -1.672816555360578
3685 -1.685433951503451
3686 -1.673800781410844
3687 -1.688244930325224
3688 -1.677331479098336
3689 -1.694132344369766
3690 -1.682046545166654
3691 -1.695372317289809
3692 -1.68227802306754
3693 -1.699242204955788
3694 -1.686283363066317
3695 -1.702455245907923
3696 -1.690599519335106
3697 -1.704731630184753
3698 -1.696466953986297
3699 -1.705501310435523
3700 -1.694404796177008
3701 -1.704920233216027
3702 -1.693918889107428
3703 -1.704727056245831
3704 -1.694592569707691
3705 -1.699042554521478
3706 -1.689868197719979
3707 -1.698606367589544
3708 -1.690192497242744
3709 -1.703114995475282
3710 -1.692434670559273
3711 -1.7024373826367
3712 -1.693690826936607
3713 -1.705906811147871
3714 -1.698221448916279
3715 -1.710238584569854
3716 -1.705343390468743
3717 -1.716085156557718
3718 -1.707118539251064
3719 -1.717803191089579
3720 -1.709679516161161
3721 -1.720535875351121
3722 -1.706157579470112
3723 -1.717884190451131
3724 -1.708255300625898
3725 -1.719354588396625
3726 -1.703559156066629
3727 -1.717239735403335
3728 -1.704458573649723
3729 -1.716738018215252
3730 -1.704695659487902
3731 -1.717230259634397
3732 -1.704664958864657
3733 -1.717273624521475
3734 -1.70428310511754
3735 -1.71422353063305
3736 -1.701651525268509
3737 -1.708927622034015
3738 -1.696739288662557
3739 -1.708604164166212
3740 -1.697374376717822
3741 -1.710846685492723
3742 -1.699765983188795
3743 -1.712835360812504
3744 -1.701915237816645
3745 -1.716584981340094
3746 -1.705071881005558
3747 -1.718598472988388
3748 -1.710258630671363
3749 -1.722441553637793
3750 -1.708516075950457
3751 -1.721085410570543
3752 -1.707659085378133
3753 -1.724560781820297
3754 -1.711325047688696
3755 -1.728154844086443
3756 -1.713181064890259
3757 -1.724837525956677
3758 -1.715124508617875
3759 -1.726203271225391
3760 -1.712350866396261
3761 -1.7264623138251
3762 -1.716456682718996
3763 -1.726168449786168
3764 -1.718156738662079
3765 -1.729239206024982
3766 -1.718802874401597
3767 -1.72704834548436
3768 -1.712712350677628
3769 -1.721917529493443
3770 -1.7102461415658
3771 -1.720556407968379
3772 -1.713470975715051
3773 -1.726942712308776
3774 -1.715753024239025
3775 -1.723944880856365
3776 -1.712483382901872
3777 -1.72456271403672
3778 -1.713477803223979
3779 -1.729249390894284
3780 -1.717385987597155
3781 -1.729177517319827
3782 -1.717330101103133
3783 -1.731338362633444
3784 -1.724273507384192
3785 -1.742008047777334
3786 -1.729777989955782
3787 -1.742300769452671
3788 -1.729410076357231
3789 -1.740652397851795
3790 -1.728305424889703
3791 -1.737615220501582
3792 -1.722279313625869
3793 -1.734576280915145
3794 -1.721214849528516
3795 -1.736081336711079
3796 -1.723620626307503
3797 -1.736504634509136
3798 -1.722726417436997
3799 -1.73144209481982
3800 -1.716066016068581
3801 -1.729458101731747
3802 -1.717785039687201
3803 -1.727473875982057
3804 -1.713230698443729
3805 -1.729177365037752
3806 -1.71993680274214
3807 -1.731979387500825
3808 -1.719655646118453
3809 -1.736715913795789
3810 -1.726375964199255
3811 -1.744678997876831
3812 -1.735166787915663
3813 -1.749489930102922
3814 -1.737962897295358
3815 -1.752552680915775
3816 -1.741388809968309
3817 -1.752977563711512
3818 -1.738819210912183
3819 -1.75099141148115
3820 -1.737270789114714
3821 -1.747287991627699
3822 -1.733913012274615
3823 -1.742071331676485
3824 -1.729855978621023
3825 -1.739845858522772
3826 -1.72640547816321
3827 -1.736441089264621
3828 -1.726067826803217
3829 -1.736516939341175
3830 -1.718355661861365
3831 -1.728594015442336
3832 -1.713999765838555
3833 -1.722623562451938
3834 -1.709700297913308
3835 -1.7208773473008
3836 -1.707432047139837
3837 -1.723611645554983
3838 -1.710843324036241
3839 -1.725883742531372
3840 -1.713503086072211
3841 -1.723921121656516
3842 -1.713060813217144
3843 -1.72697468319232
3844 -1.714435500805174
3845 -1.728294377199711
3846 -1.720948957959507
3847 -1.730910553079587
3848 -1.723866693829921
3849 -1.734303483119719
3850 -1.72872851150167
3851 -1.739511550118129
3852 -1.729860193636469
3853 -1.742929840877137
3854 -1.731472531251255
3855 -1.741568338782025
3856 -1.729517542730624
3857 -1.743103683338778
3858 -1.726983068462943
3859 -1.736867406387638
3860 -1.72578762135962
3861 -1.733779145652796
3862 -1.723429862242911
3863 -1.733954281289218
3864 -1.721962656939706
3865 -1.727267966516615
3866 -1.71488024867573
3867 -1.726137849037835
3868 -1.713365896298976
3869 -1.725779667072393
3870 -1.711725052693373
3871 -1.730706660479731
3872 -1.716024038870821
3873 -1.725772006159434
3874 -1.713217696217063
3875 -1.723286446543099
3876 -1.70697772126952
3877 -1.723013939547285
3878 -1.710246304325536
3879 -1.724522285997623
3880 -1.712880362503517
3881 -1.723000758013364
3882 -1.709691467311142
3883 -1.72173948480227
3884 -1.706251374068175
3885 -1.715933784664113
3886 -1.701144715559769
3887 -1.712098631131009
3888 -1.701030691521332
3889 -1.70786928326829
3890 -1.696098110305572
3891 -1.704068458239984
3892 -1.690655489203282
3893 -1.698309287550402
3894 -1.683515098252385
3895 -1.69043347851158
3896 -1.673923588095313
3897 -1.682696751086499
3898 -1.670948329994268
3899 -1.682824290124895
3900 -1.671141832402289
3901 -1.682855995822606
3902 -1.673375548063093
3903 -1.689607603643313
3904 -1.678266459799363
3905 -1.696484284331816
3906 -1.686565270741836
3907 -1.701649986114082
3908 -1.689668169149247
3909 -1.704467090835939
3910 -1.695422644217088
3911 -1.707015056962223
3912 -1.691538678939996
3913 -1.705473489835273
3914 -1.693468290128654
3915 -1.705003444550178
3916 -1.688808645000643
3917 -1.70078180849052
3918 -1.684051095084968
3919 -1.693696528987863
3920 -1.677263958474247
3921 -1.685986440167462
3922 -1.671942552854044
3923 -1.680835502610036
3924 -1.667858868245734
3925 -1.676595300169089
3926 -1.663519398158775
3927 -1.672090221563281
3928 -1.652457146327737
3929 -1.666781448731526
3930 -1.654436807839369
3931 -1.668942618673886
3932 -1.659147753556437
3933 -1.673009755754157
3934 -1.662312819286923
3935 -1.678685210822424
3936 -1.665374010707439
3937 -1.676496790137467
3938 -1.667228649168251
3939 -1.681126057520421
3940 -1.67156247946926
3941 -1.687413653877106
3942 -1.67641610371033
3943 -1.695789066703474
3944 -1.685389644926552
3945 -1.698218365574199
3946 -1.688570589930345
3947 -1.697270240519392
3948 -1.683781973199467
3949 -1.692437729886233
3950 -1.673414408686874
3951 -1.680701194438373
3952 -1.666321606618807
3953 -1.677288268706133
3954 -1.666160848667613
3955 -1.674674204933343
3956 -1.657540516473706
3957 -1.666415869592589
3958 -1.650487367239388
3959 -1.658717857156501
3960 -1.645250450358018
3961 -1.655000340829446
3962 -1.640228649304278
3963 -1.65099875569344
3964 -1.637942940580893
3965 -1.650635500446308
3966 -1.639875492200155
3967 -1.654022604672301
3968 -1.643143448356126
3969 -1.660501806216872
3970 -1.650105930009967
3971 -1.664404374296048
3972 -1.656016059490135
3973 -1.669693195487083
3974 -1.663458088502202
3975 -1.676047615066588
3976 -1.669131673571564
3977 -1.682383137687652
3978 -1.674352325229289
3979 -1.688305032433989
3980 -1.676442582549857
3981 -1.68550104588221
3982 -1.674083214661197
3983 -1.678672198403823
3984 -1.663953556545889
3985 -1.673319970662702
3986 -1.66281811665539
3987 -1.669007480488335
3988 -1.654599083116075
3989 -1.659744669081264
3990 -1.64578817834421
3991 -1.651001379584772
3992 -1.637143522143282
3993 -1.648335043090067
3994 -1.634631548205237
3995 -1.647123326642246
3996 -1.637969266420693
3997 -1.654588425766048
3998 -1.643757720069756
3999 -1.655162203589751
4000 -1.644896270542119
4001 -1.658962622679244
4002 -1.648223996784449
4003 -1.663856936905124
4004 -1.653416295740948
4005 -1.668095237842187
4006 -1.659834020366916
4007 -1.67457432002902
4008 -1.665047317470407
4009 -1.678234331170019
4010 -1.66629913704537
4011 -1.680715173184574
4012 -1.66835089175149
4013 -1.679335707463062
4014 -1.669314856846383
4015 -1.680211404522786
4016 -1.668320480177748
4017 -1.67937756501667
4018 -1.669123643869434
4019 -1.679048170860951
4020 -1.669487295961233
4021 -1.67984671408213
4022 -1.665491160759089
4023 -1.679724669044017
4024 -1.668945204072236
4025 -1.683659546931838
4026 -1.674956768390075
4027 -1.687812345796907
4028 -1.680097300609209
4029 -1.693148524341566
4030 -1.685200398469986
4031 -1.697291871603557
4032 -1.690302695998465
4033 -1.705586004362346
4034 -1.697129425125826
4035 -1.713551266181897
4036 -1.701197054393888
4037 -1.715057522644328
4038 -1.707646600638923
4039 -1.719663233744459
4040 -1.705579531941604
4041 -1.715896248918565
4042 -1.706896540010271
4043 -1.716178183376709
4044 -1.704006377023749
4045 -1.711878668415768
4046 -1.698293959425435
4047 -1.708265348014069
4048 -1.696867946315158
4049 -1.707030463684625
4050 -1.691660141069649
4051 -1.704480114732543
4052 -1.693939360381985
4053 -1.70618118925118
4054 -1.698505255237626
4055 -1.711943056945703
4056 -1.702721696995434
4057 -1.717335333049213
4058 -1.709182728497515
4059 -1.724882347174144
4060 -1.71745393959076
4061 -1.73059197830854
4062 -1.719880456336842
4063 -1.736644434175647
4064 -1.728914299509603
4065 -1.744653071654726
4066 -1.734543628406557
4067 -1.743647558451587
4068 -1.732218493512619
4069 -1.739837907144289
4070 -1.729541949030545
4071 -1.740927085467471
4072 -1.72730743774559
4073 -1.739031389706801
4074 -1.723546079020884
4075 -1.732713354399863
4076 -1.719548896702068
4077 -1.725938840186959
4078 -1.710691238079653
4079 -1.720746341064987
4080 -1.707263688989481
4081 -1.722161804020159
4082 -1.709513222700276
4083 -1.723607486884885
4084 -1.711963403179393
4085 -1.722142491103062
4086 -1.71244960413609
4087 -1.722641114917922
4088 -1.712698933208406
4089 -1.730214491114857
4090 -1.71995506875359
4091 -1.734676686183232
4092 -1.722406463520261
4093 -1.733989868932047
4094 -1.721110730438598
4095 -1.734299297399324
4096 -1.724220720255075
4097 -1.73601851632039
4098 -1.723132552966485
4099 -1.73802149964846
4100 -1.722278446407157
4101 -1.731877982734988
4102 -1.717210131889752
4103 -1.730201806911979
4104 -1.717132049424586
4105 -1.729255333445131
4106 -1.720806095345035
4107 -1.733928964024769
4108 -1.716513865791205
4109 -1.728189337493196
4110 -1.71244976968165
4111 -1.724016607828581
4112 -1.711581038572066
4113 -1.721140559356642
4114 -1.713599945069304
4115 -1.72831171771486
4116 -1.71754148425853
4117 -1.730965677760592
4118 -1.722119916098503
4119 -1.74088431676791
4120 -1.729303521857997
4121 -1.745715440658008
4122 -1.736970406148255
4123 -1.753070292093471
4124 -1.74223734800405
4125 -1.756150451830702
4126 -1.744377439824144
4127 -1.759131243060498
4128 -1.748916102658833
4129 -1.762855249541794
4130 -1.750437996955279
4131 -1.761545814196615
4132 -1.7508953804431
4133 -1.765340644041207
4134 -1.751533742445222
4135 -1.760592353350968
4136 -1.746008261731325
4137 -1.755916839822836
4138 -1.740174497698845
4139 -1.747410163399923
4140 -1.731998269577423
4141 -1.743664144490599
4142 -1.727001543843546
4143 -1.739241555723307
4144 -1.72529581954702
4145 -1.73634349301806
4146 -1.723019759811829
4147 -1.736253720253011
4148 -1.723795977065974
4149 -1.736353284699614
4150 -1.727571044455619
4151 -1.740376524115129
4152 -1.730665582317538
4153 -1.742296835773288
4154 -1.732368496738081
4155 -1.749800315169831
4156 -1.736557166337382
4157 -1.748883315626171
4158 -1.73645387876911
4159 -1.74910942225837
4160 -1.739070561008421
4161 -1.753755992985909
4162 -1.741891401798151
4163 -1.754843883101673
4164 -1.744020993767534
4165 -1.754023473232107
4166 -1.739504739911907
4167 -1.749510458469124
4168 -1.734291452443609
4169 -1.743070949686369
4170 -1.730031319684172
4171 -1.738185087150828
4172 -1.722575446384985
4173 -1.732494873405352
4174 -1.718552863755369
4175 -1.729603877323393
4176 -1.71850380336339
4177 -1.729375738463244
4178 -1.715050078752807
4179 -1.728135413587764
4180 -1.719008663724877
4181 -1.731436511725535
4182 -1.720263597861324
