"mx-rfile"
"Iteration" "mx"
("Iteration" "mx")
1 -6274.605853281458
2 -5874.765972301197
3 -4797.715520116175
4 -3960.218211984487
5 -2899.618473352189
6 -2230.089663379247
7 -1730.083168388481
8 -1253.006099593835
9 -850.807390301683
10 -444.4344528131319
11 -42.4847378745269
12 306.092588161947
13 512.9715573751282
14 640.6149768108803
15 680.3509213811221
16 659.0056921717941
17 595.419682230789
18 506.0810242208789
19 395.0540664070497
20 272.7606687069649
21 162.6108790435911
22 54.73590576526921
23 -41.57691852746198
24 -126.9095947598597
25 -194.6075332721823
26 -253.1328447944775
27 -293.7024341694855
28 -321.2230958705221
29 -331.4949389672499
30 -331.7229919523923
31 -323.518524224423
32 -309.4082299513633
33 -293.8664004525315
34 -278.7613732398058
35 -262.5656151312949
36 -247.181935029601
37 -234.4240308290788
38 -224.596387484307
39 -215.3327978898161
40 -207.0146956317347
41 -199.9233209136187
42 -194.5128494062119
43 -189.5852226048617
44 -185.7527348842199
45 -183.7061698357528
46 -183.3160197740879
47 -184.0096482467929
48 -185.6178563899493
49 -188.126126487399
50 -190.6401555288284
51 -193.2280344354747
52 -195.6510634820048
53 -197.8254464074652
54 -199.6832337729471
55 -201.4115881989173
56 -202.6487464705175
57 -203.7638652872148
58 -204.5197042342505
59 -205.2458717178536
60 -205.8512991282828
61 -206.3117506168926
62 -206.670056055134
63 -206.6440889872951
64 -206.4859233035103
65 -206.0339141283705
66 -205.5421781363945
67 -204.8101125346942
68 -204.1893993640339
69 -203.4336276089105
70 -202.9071099472583
71 -202.1123377365424
72 -201.5642463502565
73 -200.845930734533
74 -200.4765490475473
75 -199.9313592093038
76 -199.4534934314932
77 -198.816113516866
78 -198.282850377195
79 -197.5514037682942
80 -197.1870622274119
81 -196.402447215608
82 -196.0073683927637
83 -195.1199252996814
84 -194.6623369066676
85 -193.7175331488261
86 -192.9164941629556
87 -191.923611482695
88 -191.0504626179461
89 -190.0290364287525
90 -189.1497660720599
91 -188.1282173891057
92 -187.2598168398279
93 -186.2673552861444
94 -185.4139613929361
95 -184.4558316863595
96 -183.6599605565916
97 -182.692932052155
98 -182.2108995288181
99 -181.1776886165345
100 -180.6399787150135
101 -179.910931275147
102 -179.343750593145
103 -178.5632580018494
104 -177.9260537832477
105 -177.0703211477284
106 -176.3442604578256
107 -175.4256842668491
108 -174.62517537908
109 -173.6000898685917
110 -172.732114537544
111 -171.6313347833715
112 -170.6550512230128
113 -169.5008912900709
114 -168.4882982524151
115 -167.2914481660262
116 -166.2428373955081
117 -164.9953328015467
118 -163.9233700527136
119 -162.6540023017811
120 -161.5751779128469
121 -160.3145179924939
122 -159.2401204569309
123 -157.9827120691402
124 -156.8679539032021
125 -155.6085352978301
126 -154.4766463602567
127 -153.1972051077934
128 -152.0620766160495
129 -150.7872127620025
130 -149.6394486558083
131 -148.3558390161596
132 -147.2196775357962
133 -145.9245853838049
134 -144.7666898775152
135 -143.4698976315397
136 -142.3269405494291
137 -140.99061842431
138 -139.8147514361693
139 -138.4684237181522
140 -137.3037281800962
141 -135.938334707401
142 -134.7610914906297
143 -133.3896600147333
144 -132.2055964590578
145 -130.8130784099185
146 -129.6052582660119
147 -128.2236169778467
148 -127.0186236641753
149 -125.6259052592623
150 -124.3918560055962
151 -122.9839677638635
152 -121.7318603664707
153 -120.3000033580214
154 -119.0490894620277
155 -117.6400958167985
156 -116.3753879429579
157 -114.9553470971149
158 -113.6980025801991
159 -112.3183264712364
160 -111.0755449574805
161 -109.733307456752
162 -108.5051246696915
163 -107.1683226165225
164 -105.9779098634959
165 -104.6844604284672
166 -103.520757803569
167 -102.2766382889916
168 -101.1646369868725
169 -99.98036599621277
170 -98.91507069914951
171 -97.7653788435269
172 -96.76618505592606
173 -95.66703007124507
174 -94.70398227672504
175 -93.66800834740447
176 -92.77812056715452
177 -91.81638066040249
178 -91.00248509513327
179 -90.12773602751308
180 -89.3896583449481
181 -88.59752509413502
182 -87.93872524365614
183 -87.23736354883232
184 -86.65990374326422
185 -86.03718443834804
186 -85.54863786306335
187 -85.02012194256751
188 -84.61645328298331
189 -84.17023170732793
190 -83.85005917073968
191 -83.50213497911744
192 -83.27452782740333
193 -82.99368331404597
194 -82.84030596441016
195 -82.64414601627379
196 -82.59126071149917
197 -82.46682361758751
198 -82.48277984321452
199 -82.44349903969143
200 -82.54959624608
201 -82.59007949357927
202 -82.74948130519324
203 -82.84576989049845
204 -83.10005064741988
205 -83.25694948176444
206 -83.5518564041094
207 -83.78965348364258
208 -84.13954580270232
209 -84.41905000025389
210 -84.83537188377689
211 -85.17876524071472
212 -85.63156739015685
213 -86.0356744955172
214 -86.53059111071676
215 -86.98193760740969
216 -87.51500215064952
217 -87.98896188803779
218 -88.55912493195434
219 -89.07472250914078
220 -89.65876798574902
221 -90.20271724521078
222 -90.79623006809862
223 -91.36364598670639
224 -91.98085657620874
225 -92.56376755297016
226 -93.19063754841011
227 -93.77946552266387
228 -94.4103536671881
229 -94.97649664251496
230 -95.6044638063086
231 -96.17699587010041
232 -96.80321259093486
233 -97.35436177032567
234 -97.97036225255297
235 -98.50187118027367
236 -99.10941174149136
237 -99.61830157775785
238 -100.1942273956919
239 -100.6790466018178
240 -101.2330212215849
241 -101.6875839532579
242 -102.2155465145719
243 -102.6413944526498
244 -103.1494187796862
245 -103.5512919174998
246 -104.0176125448677
247 -104.3792778839223
248 -104.8274088393444
249 -105.1500839340478
250 -105.5665997574737
251 -105.8622706755406
252 -106.2595315158324
253 -106.5282548901793
254 -106.8846224065383
255 -107.1316033149795
256 -107.4664864086396
257 -107.6818159239721
258 -108.0007258383211
259 -108.1930537221126
260 -108.4870144934794
261 -108.6657573600623
262 -108.9350636079474
263 -109.0901824721668
264 -109.3519410283537
265 -109.4764313844485
266 -109.7303753284815
267 -109.8394168826691
268 -110.0870717619511
269 -110.1910961202528
270 -110.4070791907687
271 -110.4889867589406
272 -110.7025337622565
273 -110.7884618528827
274 -110.9902602859215
275 -111.0559675743199
276 -111.2459953510492
277 -111.3050351455435
278 -111.4925774077385
279 -111.5463046573744
280 -111.7238712880979
281 -111.7816149336401
282 -111.949262516327
283 -111.9904222491889
284 -112.1489285295925
285 -112.1963811628303
286 -112.3495523147334
287 -112.3829674103978
288 -112.5185967292782
289 -112.5484955448816
290 -112.683721864758
291 -112.7184570120174
292 -112.8428434987453
293 -112.8713385948935
294 -112.9969896072633
295 -113.0260981185076
296 -113.1386836599907
297 -113.1718839701891
298 -113.2786183111207
299 -113.3017152172757
300 -113.4029475870488
301 -113.4133128518681
302 -113.5172111712394
303 -113.524922951346
304 -113.6284264682647
305 -113.6369149751654
306 -113.7405685182221
307 -113.7462465973258
308 -113.8467774947703
309 -113.8478941991064
310 -113.9509230860251
311 -113.9492887933577
312 -114.0629099625451
313 -114.0508785487466
314 -114.1569451337235
315 -114.1504529333118
316 -114.2605111444299
317 -114.2439875597699
318 -114.3526138268994
319 -114.3325767892951
320 -114.4482871096227
321 -114.428946100704
322 -114.5445763970796
323 -114.5230289658268
324 -114.6494315923982
325 -114.6256772357935
326 -114.7441222056237
327 -114.7229870779139
328 -114.8417111798891
329 -114.829390441263
330 -114.9499073539991
331 -114.9387471040234
332 -115.0628182828561
333 -115.0562457520152
334 -115.1701444789219
335 -115.1730656795925
336 -115.29104407225
337 -115.2843131416019
338 -115.3980846188735
339 -115.4012964868765
340 -115.5177675188559
341 -115.5222788989909
342 -115.6364287064319
343 -115.6465746617952
344 -115.767630230456
345 -115.7862257493958
346 -115.9011652621968
347 -115.9225702035478
348 -116.0287352732453
349 -116.0508608467278
350 -116.1567569648406
351 -116.1765988117831
352 -116.2825572712606
353 -116.308240589786
354 -116.4186728541723
355 -116.4453711089624
356 -116.5580194565723
357 -116.5852581693489
358 -116.7041309091075
359 -116.7204723762781
360 -116.8447333362299
361 -116.8551449203039
362 -116.9879321856221
363 -117.000250049884
364 -117.1338253926692
365 -117.1523035220458
366 -117.2864455824016
367 -117.298889087936
368 -117.42808125935
369 -117.4380656910271
370 -117.569928962237
371 -117.5820106314931
372 -117.7045489321712
373 -117.7239270838527
374 -117.8420978093797
375 -117.8618230755923
376 -117.9848875071292
377 -118.0040350581989
378 -118.1243696910554
379 -118.1501994561823
380 -118.2649675042097
381 -118.293688748932
382 -118.4048641328994
383 -118.430467770952
384 -118.5432677621462
385 -118.5688532696178
386 -118.6811925671441
387 -118.7021796324786
388 -118.8147104190759
389 -118.8409647258445
390 -118.9601592469045
391 -118.9759065903862
392 -119.0972607325241
393 -119.1113644748635
394 -119.2258896071012
395 -119.2347272018026
396 -119.3571201489186
397 -119.3670948764461
398 -119.4862619932282
399 -119.4974735149366
400 -119.6162514961421
401 -119.6214271836057
402 -119.7354723883723
403 -119.741738065929
404 -119.853620785968
405 -119.8568456094213
406 -119.9700947176962
407 -119.9823115650217
408 -120.0984571369012
409 -120.0993862399049
410 -120.2067868659311
411 -120.2121387174854
412 -120.3171787342475
413 -120.3252363008712
414 -120.424530136555
415 -120.4424475839937
416 -120.5412295671123
417 -120.5467074174416
418 -120.6514971592236
419 -120.6601939188205
420 -120.7665156030708
421 -120.7687665200908
422 -120.869534874637
423 -120.8801158812696
424 -120.9811746024947
425 -120.9772737178395
426 -121.0843898197812
427 -121.0812108176943
428 -121.1886737736673
429 -121.1876273874967
430 -121.2919579610719
431 -121.2884965341619
432 -121.4009031651789
433 -121.3919293507359
434 -121.4999547466963
435 -121.5013135699626
436 -121.6111110443755
437 -121.6080712497678
438 -121.7067002545731
439 -121.7046791452279
440 -121.8130467644148
441 -121.7993571833958
442 -121.9073294717123
443 -121.9117853206889
444 -122.0143326826676
445 -122.0131987335445
446 -122.1108170371817
447 -122.1155688377983
448 -122.2101944077783
449 -122.2125914176807
450 -122.3088074007524
451 -122.3073429585572
452 -122.4055752356482
453 -122.394466703913
454 -122.490664153561
455 -122.4898064730167
456 -122.5918980961234
457 -122.5879385711296
458 -122.6809865554566
459 -122.681262527175
460 -122.7758269483473
461 -122.776847552312
462 -122.864976843881
463 -122.8615909460677
464 -122.9549775858764
465 -122.9403845535852
466 -123.0370252292115
467 -123.0327763778622
468 -123.1294693840964
469 -123.1278413989034
470 -123.2224271522406
471 -123.211893510153
472 -123.3147129803007
473 -123.3085533174991
474 -123.408727056009
475 -123.3962877233936
476 -123.5015234140748
477 -123.4770503322476
478 -123.5805024460089
479 -123.5706672729704
480 -123.6732771612668
481 -123.6643915888402
482 -123.7642914989958
483 -123.741910076806
484 -123.8505144981307
485 -123.8308335949897
486 -123.9294442604337
487 -123.9086308665554
488 -124.0132376221685
489 -123.9823697557763
490 -124.0930003736853
491 -124.062441504509
492 -124.1678994606236
493 -124.1516619166292
494 -124.2506196932583
495 -124.2246109499256
496 -124.3271888794397
497 -124.3076936796959
498 -124.4050833607339
499 -124.3813732547496
500 -124.4774684004605
501 -124.4528007966253
502 -124.5367080130554
503 -124.526625316439
504 -124.6122671823372
505 -124.5987812918359
506 -124.6811452019259
507 -124.6742106746782
508 -124.7530628710653
509 -124.742666378521
510 -124.8182896363314
511 -124.8044866397959
512 -124.8846758848613
513 -124.8633545715933
514 -124.9484717172822
515 -124.9290765772465
516 -125.0187195776554
517 -125.0038202815642
518 -125.0933479474452
519 -125.0714388246811
520 -125.1634775620946
521 -125.1517072502891
522 -125.2429865356967
523 -125.2194175377298
524 -125.3073078751163
525 -125.2792638338758
526 -125.3716350590523
527 -125.3499160502045
528 -125.4396968611484
529 -125.4162349370367
530 -125.5009670783634
531 -125.4757174425822
532 -125.5641790455533
533 -125.5319562460236
534 -125.6160325950151
535 -125.5887469431715
536 -125.6695766700829
537 -125.6463390815153
538 -125.7259410044343
539 -125.7028562803702
540 -125.7834913229805
541 -125.7621111050443
542 -125.8331335747008
543 -125.8186678738626
544 -125.8902272735814
545 -125.8589967411627
546 -125.9262538499143
547 -125.9159770052459
548 -125.9870261020199
549 -125.9736240919895
550 -126.0471579383743
551 -126.0309246471447
552 -126.1029453325685
553 -126.0880310885707
554 -126.1594889760408
555 -126.1417657307002
556 -126.2103240681676
557 -126.1897381222629
558 -126.2603369849809
559 -126.2473792749866
560 -126.3273650503577
561 -126.3009000863433
562 -126.3796954535877
563 -126.3523712685291
564 -126.4260818817996
565 -126.3972760364373
566 -126.4616102110259
567 -126.4392690618086
568 -126.508233135263
569 -126.4777433827256
570 -126.5477798884718
571 -126.5296175321248
572 -126.5992312707742
573 -126.5765753751667
574 -126.644339976685
575 -126.6226922088059
576 -126.693618331234
577 -126.6572791281843
578 -126.7307701794655
579 -126.6991754977392
580 -126.7760748543559
581 -126.7522126582282
582 -126.8250433747506
583 -126.8046435127924
584 -126.876194279529
585 -126.8330505220174
586 -126.9080068641091
587 -126.8801818833804
588 -126.9558052049615
589 -126.9234047708267
590 -126.9906941304839
591 -126.9659352542567
592 -127.0314266644093
593 -126.9902684823477
594 -127.0650820790469
595 -127.0359677116549
596 -127.1056091542441
597 -127.0698193024291
598 -127.1412717634239
599 -127.1105628073614
600 -127.1792160254084
601 -127.1361562799937
602 -127.2038837813902
603 -127.1789618265842
604 -127.2464672941292
605 -127.220676013775
606 -127.2802327930054
607 -127.2610056576332
608 -127.3211354138259
609 -127.2921638660638
610 -127.348120778169
611 -127.3228936417549
612 -127.3857093890848
613 -127.3627107293669
614 -127.4208734237722
615 -127.395875047138
616 -127.4543833063302
617 -127.417741471471
618 -127.4819746702707
619 -127.4580191275141
620 -127.5261529750945
621 -127.4980592121192
622 -127.5618826860634
623 -127.5289034814796
624 -127.599891319114
625 -127.5534171219362
626 -127.6264173045145
627 -127.5958579228036
628 -127.6643838400801
629 -127.6318153314962
630 -127.6948727467458
631 -127.6581813617662
632 -127.7304740720965
633 -127.6776823181608
634 -127.7512273086842
635 -127.7014101744459
636 -127.7803789757042
637 -127.7351745474371
638 -127.8054702792723
639 -127.7668525811987
640 -127.8367156477049
641 -127.7802780404465
642 -127.849972703541
643 -127.8049621408173
644 -127.8763266059581
645 -127.8403317256703
646 -127.9080332348029
647 -127.8692246015254
648 -127.9305665747386
649 -127.8816017042834
650 -127.9432917544692
651 -127.9161776202012
652 -127.9743718624103
653 -127.9442747662047
654 -127.9910491534719
655 -127.9684785581836
656 -128.017133215311
657 -127.9842254669617
658 -128.0353383559687
659 -128.0182155242297
660 -128.0756564036218
661 -128.0476387262111
662 -128.1000016731021
663 -128.0803826418425
664 -128.124569373311
665 -128.0861246130604
666 -128.1374107464719
667 -128.1124404518694
668 -128.1705709005543
669 -128.1439018710361
670 -128.1955649404554
671 -128.1658374168487
672 -128.225431579864
673 -128.1805527733643
674 -128.2376405533375
675 -128.2053751771439
676 -128.2626597011598
677 -128.2330558792798
678 -128.2865995754565
679 -128.2577183278732
680 -128.3117604331061
681 -128.2691390482574
682 -128.3189667395972
683 -128.2904143478187
684 -128.3442374399166
685 -128.3063190235705
686 -128.3589707714377
687 -128.3232693709238
688 -128.3843082234294
689 -128.3328335650176
690 -128.3980765587008
691 -128.3633251658834
692 -128.4231921033749
693 -128.3896608081334
694 -128.4487905945327
695 -128.4089814218057
696 -128.4668662668076
697 -128.4149004136249
698 -128.48449805494
699 -128.4371106029656
700 -128.5014288446673
701 -128.4555451942296
702 -128.5253334787174
703 -128.4745242177011
704 -128.5474705379598
705 -128.4784531095172
706 -128.5480138261761
707 -128.5043258374793
708 -128.5752401445453
709 -128.525183891689
710 -128.5859675412071
711 -128.5373353822349
712 -128.5998531770124
713 -128.5475875362281
714 -128.6107716336798
715 -128.5708395156946
716 -128.6287010402249
717 -128.5919874735849
718 -128.6402352030485
719 -128.6051059624091
720 -128.6619328648579
721 -128.6132778961678
722 -128.6676301660581
723 -128.6259493722832
724 -128.6837043494742
725 -128.6446443468353
726 -128.6994360292067
727 -128.6550594940571
728 -128.7109463750249
729 -128.6527411828778
730 -128.7163319301092
731 -128.6706206720459
732 -128.7380100106244
733 -128.6935396683313
734 -128.7578245905489
735 -128.7175882304174
736 -128.7781473103096
737 -128.7233440030242
738 -128.7892372987514
739 -128.7496119112712
740 -128.8172466636318
741 -128.7691166954664
742 -128.8297389256232
743 -128.7897624874651
744 -128.8484548555119
745 -128.7956290430942
746 -128.856013208828
747 -128.8154165674244
748 -128.8716723445845
749 -128.8341829190682
750 -128.8865086711549
751 -128.846081556913
752 -128.9014758807291
753 -128.8463339768414
754 -128.9054202496932
755 -128.8603411529606
756 -128.9212268396759
757 -128.8788422274143
758 -128.9260017003332
759 -128.8890411528921
760 -128.9378197728996
761 -128.8894505931248
762 -128.9371251299867
763 -128.9017845026096
764 -128.9502202171031
765 -128.9090838235054
766 -128.9572888308235
767 -128.9261890575353
768 -128.9716825018945
769 -128.9242860549041
770 -128.9776873468387
771 -128.9461712737252
772 -129.0084700154379
773 -128.9706841500232
774 -129.0280056182558
775 -128.9915624726886
776 -129.0477440987981
777 -129.0003739125163
778 -129.0583516949609
779 -129.0241914163292
780 -129.0838393148612
781 -129.0391134429948
782 -129.0868319899287
783 -129.0492482699608
784 -129.0942112015579
785 -129.0407802214117
786 -129.090419527728
787 -129.0538066892306
788 -129.1024919866286
789 -129.0652184482815
790 -129.1060588315646
791 -129.0693700569463
792 -129.1133787599473
793 -129.0701178073508
794 -129.1154895301992
795 -129.0806208510288
796 -129.1285877260047
797 -129.0942113458905
798 -129.1455258487934
799 -129.1086830352694
800 -129.1574196945759
801 -129.1085437107268
802 -129.1631945504821
803 -129.1304109332092
804 -129.179310409297
805 -129.1290954699137
806 -129.186512229536
807 -129.1475880252261
808 -129.2019935570621
809 -129.1530583885067
810 -129.2114982583197
811 -129.1701041754596
812 -129.2266139085364
813 -129.1812940585126
814 -129.2311120836668
815 -129.1904439622942
816 -129.247062532143
817 -129.1889572052364
818 -129.2450104239666
819 -129.2056980551836
820 -129.2666254762507
821 -129.2156106318814
822 -129.2727097144497
823 -129.2186129340632
824 -129.2759590820216
825 -129.2129191887619
826 -129.273665318833
827 -129.2241190433422
828 -129.281649407105
829 -129.2341991889912
830 -129.2864307428086
831 -129.2407249615069
832 -129.2979527965155
833 -129.2393666392287
834 -129.2948347477801
835 -129.2448747331973
836 -129.3004261973606
837 -129.2568727516191
838 -129.3092799988399
839 -129.2657713152896
840 -129.3196688922004
841 -129.2648270295635
842 -129.3238807871956
843 -129.2877884131164
844 -129.3432747708577
845 -129.2973182968115
846 -129.3509869774687
847 -129.3065827408405
848 -129.355166788923
849 -129.3017822052479
850 -129.3562390276771
851 -129.3141424954207
852 -129.3759475941399
853 -129.3295037758304
854 -129.3905738347305
855 -129.3386619586787
856 -129.3958232020505
857 -129.3313684164309
858 -129.3956236540535
859 -129.3423723414959
860 -129.4001584908893
861 -129.3478359418064
862 -129.4036486606966
863 -129.3528558598188
864 -129.4158195143143
865 -129.3530308390004
866 -129.4161557914761
867 -129.3636980330419
868 -129.4257843997702
869 -129.3727600532738
870 -129.4309652701692
871 -129.3809119190421
872 -129.4316852592953
873 -129.3692313940606
874 -129.4290090039389
875 -129.3785882803431
876 -129.4333258672891
877 -129.3869782729012
878 -129.4396139203662
879 -129.3976548644118
880 -129.44716857067
881 -129.390835048362
882 -129.4485188002754
883 -129.398306453994
884 -129.4554119746441
885 -129.4044437544703
886 -129.4640933687403
887 -129.4130980459298
888 -129.4721167249855
889 -129.4111669489956
890 -129.4705775292354
891 -129.4196183835695
892 -129.473388394107
893 -129.4328047137859
894 -129.4819337699022
895 -129.4350937072909
896 -129.4862854869493
897 -129.4309001506294
898 -129.4885637754473
899 -129.4519490654526
900 -129.5076108803338
901 -129.4599153673247
902 -129.5123955809763
903 -129.4726532418761
904 -129.5194088876014
905 -129.4624686600484
906 -129.512735731457
907 -129.46935422345
908 -129.5272696702683
909 -129.4793299342168
910 -129.5284249657643
911 -129.4819968504106
912 -129.5338316904792
913 -129.4718768763893
914 -129.5251190697171
915 -129.4738737801056
916 -129.5229752389063
917 -129.4837721392592
918 -129.536739090807
919 -129.4967758380698
920 -129.5499678447941
921 -129.4918125722438
922 -129.5403785403959
923 -129.5014667573234
924 -129.5557635803636
925 -129.513250534407
926 -129.5582394235515
927 -129.5191302477775
928 -129.5617157896349
929 -129.5140549231536
930 -129.5542295200635
931 -129.5153664216926
932 -129.560767973242
933 -129.5237357321221
934 -129.564677482952
935 -129.5293513339528
936 -129.5720111405341
937 -129.5235047350036
938 -129.5657937735855
939 -129.5242540484966
940 -129.572058046191
941 -129.5320326645613
942 -129.5681229669895
943 -129.5295221219733
944 -129.5716310820959
945 -129.5183300776074
946 -129.5648293064822
947 -129.5200865552089
948 -129.5695421191755
949 -129.5304456792355
950 -129.58527600742
951 -129.5398479566845
952 -129.5943886396538
953 -129.5348405199007
954 -129.6001768711563
955 -129.5470093313579
956 -129.6136779154102
957 -129.5628430297769
958 -129.6211666682847
959 -129.5758491433424
960 -129.6339095165367
961 -129.5668335633164
962 -129.6283273263987
963 -129.5783888380341
964 -129.6297117522736
965 -129.5776042163432
966 -129.6345569561334
967 -129.5842642524269
968 -129.6359504070982
969 -129.5717055035391
970 -129.6181022946839
971 -129.5672059479455
972 -129.6244105715926
973 -129.5800983643912
974 -129.6265846077212
975 -129.5814595030957
976 -129.6298803498927
977 -129.5730692214825
978 -129.6253997960285
979 -129.5818685923295
980 -129.6343160919726
981 -129.589329083911
982 -129.644101933101
983 -129.6031839770791
984 -129.6480001533919
985 -129.5956194332992
986 -129.6471097653082
987 -129.6035550057319
988 -129.645165957945
989 -129.6108472743625
990 -129.6514418143073
991 -129.6156440400945
992 -129.6627123564705
993 -129.6090055625213
994 -129.6596858700368
995 -129.6153480940421
996 -129.658864888079
997 -129.6161600016417
998 -129.6625922183713
999 -129.6221372062187
1000 -129.670813264269
1001 -129.6158390183622
1002 -129.668930070638
1003 -129.6221377799195
1004 -129.677177533668
1005 -129.632329923795
1006 -129.6857737791902
1007 -129.6320687235714
1008 -129.6850530181321
1009 -129.6226827334319
1010 -129.6818131284926
1011 -129.63493704104
1012 -129.6933224837058
1013 -129.6405232137236
1014 -129.691415614329
1015 -129.6376570928699
1016 -129.7029552775306
1017 -129.6407725417685
1018 -129.6977164140164
1019 -129.6467861087968
1020 -129.7104751686826
1021 -129.6565281205252
1022 -129.7042410896101
1023 -129.6566873802611
1024 -129.7016561196681
1025 -129.638899035707
1026 -129.683570494168
1027 -129.6430039367999
1028 -129.6939277327026
1029 -129.6524431134691
1030 -129.6971173491525
1031 -129.6564924639534
1032 -129.7008682322433
1033 -129.6531358471929
1034 -129.6994449894308
1035 -129.6548572579374
1036 -129.7024782603873
1037 -129.669188542247
1038 -129.7125252675102
1039 -129.6742079914723
1040 -129.7290619388586
1041 -129.6706165717578
1042 -129.7226818191072
1043 -129.676933586186
1044 -129.73164810392
1045 -129.6856168359794
1046 -129.7334956207204
1047 -129.6847628736569
1048 -129.7304309812903
1049 -129.6748741644131
1050 -129.7258913472117
1051 -129.6770648299504
1052 -129.7286245963681
1053 -129.6794370551199
1054 -129.730269442827
1055 -129.682941031829
1056 -129.7243127015709
1057 -129.6674227613433
1058 -129.7198615676243
1059 -129.6774063386141
1060 -129.7250269462507
1061 -129.6727007732251
1062 -129.7225637361628
1063 -129.6746867055208
1064 -129.7265191048675
1065 -129.6611964915627
1066 -129.7154647250543
1067 -129.6720034827076
1068 -129.7245519134756
1069 -129.6794228348581
1070 -129.7343044418812
1071 -129.6916947521287
1072 -129.7450541158688
1073 -129.6868742522689
1074 -129.7396339815398
1075 -129.6930957609783
1076 -129.7420378766286
1077 -129.6981230565042
1078 -129.7370160748689
1079 -129.7026317517019
1080 -129.7434299563546
1081 -129.6936842913342
1082 -129.7403798656152
1083 -129.7045708836134
1084 -129.74511518615
1085 -129.7073899022526
1086 -129.744048580935
1087 -129.7066562982427
1088 -129.7447756719808
1089 -129.7003210497004
1090 -129.7352501214406
1091 -129.6980278641495
1092 -129.7472697774762
1093 -129.7126873416062
1094 -129.7507512495712
1095 -129.7102894220467
1096 -129.7465069194852
1097 -129.6947685488535
1098 -129.7413160494647
1099 -129.7000921868042
1100 -129.7527903724697
1101 -129.7113272996135
1102 -129.7593620839478
1103 -129.7134448873543
1104 -129.7646280880531
1105 -129.7039953786682
1106 -129.764404948107
1107 -129.7072946790804
1108 -129.7641526518683
1109 -129.7121445753959
1110 -129.7642138023688
1111 -129.7153726986996
1112 -129.7732117029218
1113 -129.7115854112996
1114 -129.7723594994632
1115 -129.7168157315106
1116 -129.7752406410409
1117 -129.7290337380651
1118 -129.7779623624746
1119 -129.7268786398428
1120 -129.7877494708918
1121 -129.7262345828747
1122 -129.7836351142453
1123 -129.7274252103027
1124 -129.7882316362294
1125 -129.7352485895964
1126 -129.7897260193998
1127 -129.7309017659977
1128 -129.7817605032499
1129 -129.7142164439317
1130 -129.7757311428764
1131 -129.7217777746588
1132 -129.7753685310705
1133 -129.7225141710314
1134 -129.7741891731482
1135 -129.7201268774153
1136 -129.778139622931
1137 -129.7152736425671
1138 -129.7732700339228
1139 -129.7259333564036
1140 -129.7815715335792
1141 -129.7296196897759
1142 -129.7804135824529
1143 -129.7289876604691
1144 -129.7865339128675
1145 -129.7206921765349
1146 -129.7828927817847
1147 -129.7295998105398
1148 -129.786452109134
1149 -129.7398930490943
1150 -129.7942351725856
1151 -129.7413215723113
1152 -129.794584749765
1153 -129.7317510060894
1154 -129.7918954643705
1155 -129.738221336941
1156 -129.7937581801029
1157 -129.7454430459761
1158 -129.8025577567512
1159 -129.7535551351235
1160 -129.8098993186225
1161 -129.7395635706314
1162 -129.803762476938
1163 -129.7474320245427
1164 -129.8061964833882
1165 -129.753805108519
1166 -129.8049912651045
1167 -129.7565629768453
1168 -129.809680295463
1169 -129.7446649916065
1170 -129.8003885396343
1171 -129.7480909071176
1172 -129.808376205297
1173 -129.7535152702634
1174 -129.7990439685477
1175 -129.7542627102025
1176 -129.7978248929585
1177 -129.7492400195303
1178 -129.797286672973
1179 -129.7545448067542
1180 -129.7982833913417
1181 -129.7631939245841
1182 -129.805106914958
1183 -129.7669522658378
1184 -129.8028161239533
1185 -129.750677588637
1186 -129.8006627311812
1187 -129.7553345057896
1188 -129.7953933641612
1189 -129.7537719469805
1190 -129.8033661403108
1191 -129.7630575552798
1192 -129.8064173086959
1193 -129.7512696959083
1194 -129.8026610781218
1195 -129.753728910007
1196 -129.8109257565737
1197 -129.753915672499
1198 -129.8080196745692
1199 -129.7565979115871
1200 -129.8208342748434
1201 -129.7463440499214
1202 -129.8132502904456
1203 -129.7545053446008
1204 -129.815712903385
1205 -129.7577887889273
1206 -129.8133890956462
1207 -129.7565341710175
1208 -129.8102970276798
1209 -129.744250587477
1210 -129.8011319533646
1211 -129.7472688676886
1212 -129.8034220180265
1213 -129.7592079149556
1214 -129.8047471634673
1215 -129.7579324524826
1216 -129.8028173429601
1217 -129.751213021944
1218 -129.7924127615454
1219 -129.7638680095208
1220 -129.8092757150575
1221 -129.7795353677563
1222 -129.8167452827211
1223 -129.7769483240207
1224 -129.8152708542411
1225 -129.7717727236542
1226 -129.8104269593913
1227 -129.7746225296563
1228 -129.8082346469947
1229 -129.7754434086673
1230 -129.8017785434665
1231 -129.7656305020627
1232 -129.8026340594236
1233 -129.7624260487836
1234 -129.8099865174793
1235 -129.7676069023344
1236 -129.8112193018746
1237 -129.7683505140369
1238 -129.8105043920152
1239 -129.7671077693155
1240 -129.8104596359089
1241 -129.751008256634
1242 -129.8067514842209
1243 -129.7621522182701
1244 -129.8157309033096
1245 -129.7697030353852
1246 -129.8185386766039
1247 -129.7683917318308
1248 -129.8185888644759
1249 -129.7615966245964
1250 -129.8137047301163
1251 -129.7641973894014
1252 -129.8193656704753
1253 -129.7735297256351
1254 -129.8300173014563
1255 -129.7775963612206
1256 -129.8360706460138
1257 -129.7705479616974
1258 -129.8297846519373
1259 -129.7743393727243
1260 -129.8354652878458
1261 -129.7763138903905
1262 -129.8372764343188
1263 -129.7747859469573
1264 -129.8313108457279
1265 -129.7596771366272
1266 -129.8189947233738
1267 -129.7583984490092
1268 -129.8248646756045
1269 -129.768509852439
1270 -129.826039482901
1271 -129.7785199847183
1272 -129.8383581175715
1273 -129.7707974915061
1274 -129.8242605262727
1275 -129.7670322347009
1276 -129.8254384788272
1277 -129.7698102941318
1278 -129.8240500671936
1279 -129.7728598783385
1280 -129.8293647876736
1281 -129.7600085635377
1282 -129.8218756353124
1283 -129.769760870197
1284 -129.8228905149645
1285 -129.7716818260573
1286 -129.8314003237814
1287 -129.7791039337111
1288 -129.8295049933331
1289 -129.767482895327
1290 -129.8244601354976
1291 -129.7637487787396
1292 -129.8304254747763
1293 -129.7816296492971
1294 -129.8292297604486
1295 -129.7839959177264
1296 -129.8315835072701
1297 -129.7778635987963
1298 -129.8297732444434
1299 -129.785903688868
1300 -129.833080068033
1301 -129.7919286632878
1302 -129.8343792531366
1303 -129.7940247634785
1304 -129.8287563000582
1305 -129.7808183523503
1306 -129.8185546219343
1307 -129.787234556037
1308 -129.8218876842884
1309 -129.7874057032902
1310 -129.8284113041065
1311 -129.7983266171421
1312 -129.8268526949059
1313 -129.7795092748234
1314 -129.8213979247183
1315 -129.7831336470222
1316 -129.8179302225314
1317 -129.7875589222213
1318 -129.8172469196437
1319 -129.7879636178804
1320 -129.8279426016865
1321 -129.7876302907646
1322 -129.8272655020691
1323 -129.7952615728568
1324 -129.8377507716991
1325 -129.8007142719921
1326 -129.8390689363322
1327 -129.8020925171462
1328 -129.8447898725159
1329 -129.7960127250553
1330 -129.8404040173641
1331 -129.7990364874286
1332 -129.8522066867958
1333 -129.8033957624632
1334 -129.847945710288
1335 -129.7954964416442
1336 -129.8482339277575
1337 -129.7808324952433
1338 -129.8393688558629
1339 -129.78901835818
1340 -129.8439690080318
1341 -129.7911473114752
1342 -129.8453127495314
1343 -129.792343110232
1344 -129.8498420701252
1345 -129.7824332278804
1346 -129.8423461037636
1347 -129.7831486863849
1348 -129.8402604684962
1349 -129.7881603744248
1350 -129.8365501027909
1351 -129.7902352007547
1352 -129.8423234027556
1353 -129.780147538249
1354 -129.8315428711008
1355 -129.7876403289952
1356 -129.8350397491471
1357 -129.7944751865802
1358 -129.8385638607877
1359 -129.8009475017828
1360 -129.8379573557083
1361 -129.7947066425335
1362 -129.8371434062286
1363 -129.8017049422366
1364 -129.8420261982395
1365 -129.8025137816194
1366 -129.8337723897403
1367 -129.8048027738289
1368 -129.8399585345644
1369 -129.7950425449345
1370 -129.8359906736442
1371 -129.7990765893566
1372 -129.8377136417427
1373 -129.8005790683725
1374 -129.8333847212603
1375 -129.7921429619163
1376 -129.8357909208609
1377 -129.7844710909497
1378 -129.8283074965667
1379 -129.7932867971284
1380 -129.8393909380925
1381 -129.794909941692
1382 -129.843782923434
1383 -129.798867656137
1384 -129.8484077172413
1385 -129.7838466679964
1386 -129.854374147041
1387 -129.795633884511
1388 -129.8567486648333
1389 -129.8003864071311
1390 -129.8554884417998
1391 -129.8010499841123
1392 -129.8626066731024
1393 -129.7934559713798
1394 -129.8615978403348
1395 -129.7983135013142
1396 -129.8617123200923
1397 -129.8069680815571
1398 -129.8629390834742
1399 -129.8051347394587
1400 -129.8612897295689
1401 -129.7941386639817
1402 -129.8484468796906
1403 -129.7949123158004
1404 -129.8467711765144
1405 -129.7950380781396
1406 -129.8472841867036
1407 -129.8041083633459
1408 -129.844537026428
1409 -129.7912710473078
1410 -129.832997260684
1411 -129.7868218776986
1412 -129.8313656053405
1413 -129.7900549241775
1414 -129.8215477537558
1415 -129.7831060325975
1416 -129.8303284291588
1417 -129.7815136717992
1418 -129.8318081508035
1419 -129.7962496085505
1420 -129.8418341528105
1421 -129.7988948128426
1422 -129.8468936952444
1423 -129.803635811633
1424 -129.8546048371033
1425 -129.7996527183314
1426 -129.8439822816147
1427 -129.8037468148233
1428 -129.8518139881018
1429 -129.8066428508681
1430 -129.8564032410765
1431 -129.8082630441641
1432 -129.8531710200696
1433 -129.7939399087275
1434 -129.8485099807087
1435 -129.7967496421987
1436 -129.8561408782282
1437 -129.7999883897502
1438 -129.8605997955202
1439 -129.7999887441299
1440 -129.8662568036593
1441 -129.7850051829283
1442 -129.8580966842124
1443 -129.7892230984182
1444 -129.8623407958101
1445 -129.7873611867894
1446 -129.8559801388303
1447 -129.7860290032062
1448 -129.8535365180965
1449 -129.7739897195225
1450 -129.8441909509356
1451 -129.784424934289
1452 -129.8480273953573
1453 -129.7920072440569
1454 -129.8495083205613
1455 -129.7922649094698
1456 -129.8485054253071
1457 -129.7813982257916
1458 -129.8411674596383
1459 -129.7912070170021
1460 -129.8478434844706
1461 -129.8045038425794
1462 -129.8531157245304
1463 -129.805367699055
1464 -129.8531106733769
1465 -129.7968317314324
1466 -129.8453393217933
1467 -129.8044921189097
1468 -129.850267250553
1469 -129.8118115849949
1470 -129.8503757585805
1471 -129.812737578421
1472 -129.8571736978205
1473 -129.8046987104634
1474 -129.848877733133
1475 -129.8032275596077
1476 -129.8519127922017
1477 -129.8069024169301
1478 -129.8510379201279
1479 -129.8168987099219
1480 -129.8539765729303
1481 -129.8039035041706
1482 -129.8442798972799
1483 -129.8055959981522
1484 -129.8450888136288
1485 -129.806441091053
1486 -129.8372029723946
1487 -129.8003750721518
1488 -129.8366609202869
1489 -129.7896475514912
1490 -129.8277282895305
1491 -129.7969372608676
1492 -129.8399472958094
1493 -129.795800467825
1494 -129.8419745801017
1495 -129.7973584603942
1496 -129.849380874353
1497 -129.7876713871851
1498 -129.8393942709985
1499 -129.7959851454108
1500 -129.85154109811
1501 -129.8036480953976
1502 -129.8565772771472
1503 -129.8078947693964
1504 -129.8553779686241
1505 -129.7914822888042
1506 -129.845852900736
1507 -129.7943151271378
1508 -129.8539784055883
1509 -129.8027558542839
1510 -129.8509413917632
1511 -129.8050742423428
1512 -129.8583172498764
1513 -129.8010093672586
1514 -129.853985652295
1515 -129.8095702472077
1516 -129.8596842993619
1517 -129.8150838901849
1518 -129.8537505756217
1519 -129.8138092988813
1520 -129.8574525044526
1521 -129.8011536976109
1522 -129.8505846699841
1523 -129.805252604355
1524 -129.855541812498
1525 -129.8132151422331
1526 -129.8557995667841
1527 -129.8144015944023
1528 -129.8533381296434
1529 -129.7980954415869
1530 -129.8451357309557
1531 -129.7947203366329
1532 -129.8458210500129
1533 -129.8007905674175
1534 -129.8471647039737
1535 -129.796378000458
1536 -129.8504112072387
1537 -129.7895678624422
1538 -129.8484627809376
1539 -129.795270409979
1540 -129.8557316148763
1541 -129.798854032112
1542 -129.8581331716274
1543 -129.7978389305283
1544 -129.8626687484904
1545 -129.7860093279045
1546 -129.8530543697525
1547 -129.7876335069789
1548 -129.8610886754735
1549 -129.7964703815007
1550 -129.8599817999202
1551 -129.8045858154815
1552 -129.8708064297082
1553 -129.796650262512
1554 -129.8572256232108
1555 -129.7928515794674
1556 -129.8522775530764
1557 -129.8008013758383
1558 -129.850136388042
1559 -129.8019850875145
1560 -129.8585606023631
1561 -129.8063453869646
1562 -129.8490464538031
1563 -129.8074275049374
1564 -129.8491434345624
1565 -129.8089837300319
1566 -129.8498931471445
1567 -129.8121727662844
1568 -129.8480525721329
1569 -129.7996858316076
1570 -129.8384253669754
1571 -129.7967576416207
1572 -129.846025879258
1573 -129.8064866313014
1574 -129.8472511267176
1575 -129.8045135749136
1576 -129.8468608102476
1577 -129.7979939105646
1578 -129.8416484699177
1579 -129.8011317657028
1580 -129.8503954931164
1581 -129.8067293473527
1582 -129.8532640484963
1583 -129.8052862442856
1584 -129.8584988378916
1585 -129.7945314355041
1586 -129.8486005349078
1587 -129.7973472306466
1588 -129.8521438331264
1589 -129.8011056784587
1590 -129.8577985846106
1591 -129.8076467754968
1592 -129.8648150960133
1593 -129.8055783475623
1594 -129.8633903714264
1595 -129.8085118151253
1596 -129.8591678173513
1597 -129.8110687164508
1598 -129.8563382751216
1599 -129.8112994851695
1600 -129.8541291319223
1601 -129.7983626459627
1602 -129.8551311523522
1603 -129.8052901392506
1604 -129.850060825773
1605 -129.8075711517593
1606 -129.8469303044422
1607 -129.8039726011097
1608 -129.8465164525143
1609 -129.7978955398041
1610 -129.8429997554915
1611 -129.8025604861372
1612 -129.8422509908527
1613 -129.8097264654518
1614 -129.8556833093429
1615 -129.8077065758464
1616 -129.852942696168
1617 -129.8031244689183
1618 -129.8501182584129
1619 -129.8136492560836
1620 -129.8553816042576
1621 -129.8129934055256
1622 -129.8544525395098
1623 -129.8127395866237
1624 -129.8587329853763
1625 -129.8085199418942
1626 -129.8569473842463
1627 -129.8078940750462
1628 -129.8599575424215
1629 -129.8152935004648
1630 -129.8566749810678
1631 -129.8155359383402
1632 -129.8689280596735
1633 -129.8097477829702
1634 -129.8622902221238
1635 -129.8137975824341
1636 -129.8649326544895
1637 -129.8132148011371
1638 -129.8628224255611
1639 -129.816016482636
1640 -129.8649567376267
1641 -129.8078560326941
1642 -129.856964270728
1643 -129.8145447873636
1644 -129.8531111805929
1645 -129.8061274708187
1646 -129.8546151328802
1647 -129.8068059862235
1648 -129.8474238935729
1649 -129.7938739009668
1650 -129.8358498183721
1651 -129.7937214979299
1652 -129.8424019549797
1653 -129.7975888818354
1654 -129.841037811761
1655 -129.7968414143354
1656 -129.8439496520482
1657 -129.7865081170672
1658 -129.8399655672158
1659 -129.7925169580695
1660 -129.8497501602063
1661 -129.8020972171586
1662 -129.8531417296732
1663 -129.8002663305331
1664 -129.861763738281
1665 -129.7940083786861
1666 -129.8570076545645
1667 -129.8013021428824
1668 -129.866384248418
1669 -129.8092777607398
1670 -129.871275929206
1671 -129.8098641889969
1672 -129.8677777594579
1673 -129.7960527314708
1674 -129.862943205662
1675 -129.8024108934234
1676 -129.8704419976801
1677 -129.8086037421863
1678 -129.8649149263931
1679 -129.8090503380805
1680 -129.8695639561157
1681 -129.7959674763935
1682 -129.8544992274582
1683 -129.8023794840137
1684 -129.85985767642
1685 -129.8057877708624
1686 -129.8537467147325
1687 -129.8062815213076
1688 -129.855188947917
1689 -129.7961677151139
1690 -129.849490562836
1691 -129.8071079241041
1692 -129.8636293589739
1693 -129.8121518239228
1694 -129.8666824267222
1695 -129.8104860424741
1696 -129.8592570999029
1697 -129.7923681103448
1698 -129.846479943345
1699 -129.7969526076827
1700 -129.8529491912636
1701 -129.798303535037
1702 -129.8510964827692
1703 -129.8034031870028
1704 -129.8553393027258
1705 -129.7914219130655
1706 -129.8455682006272
1707 -129.7929563557232
1708 -129.853936464666
1709 -129.8027181941006
1710 -129.8566245777967
1711 -129.80579497994
1712 -129.8654518458794
1713 -129.7989603508736
1714 -129.8558475584564
1715 -129.8066144795904
1716 -129.8575156993284
1717 -129.8075863733703
1718 -129.8612470078014
1719 -129.8158857186085
1720 -129.8637562830622
1721 -129.8063225792166
1722 -129.8547743986757
1723 -129.8131309962142
1724 -129.8524158373482
1725 -129.8032879216687
1726 -129.8394940464421
1727 -129.8022588792155
1728 -129.8424267838449
1729 -129.7908292184945
1730 -129.8313706807991
1731 -129.7953060498887
1732 -129.8379973073569
1733 -129.7971575955588
1734 -129.8448007206469
1735 -129.7993288514239
1736 -129.8516137503331
1737 -129.7930816353078
1738 -129.8373884965704
1739 -129.8025811637596
1740 -129.8523329765484
1741 -129.806170895743
1742 -129.8513229063826
1743 -129.8107499078468
1744 -129.8592338943886
1745 -129.8016794083866
1746 -129.8551105183559
1747 -129.8067095951723
1748 -129.8565689154605
1749 -129.8117422815409
1750 -129.8492505626507
1751 -129.8065399303984
1752 -129.853142069178
1753 -129.7998754758528
1754 -129.8480063905885
1755 -129.7968596956748
1756 -129.8439196283814
1757 -129.8045055220626
1758 -129.8428319811605
1759 -129.796199727342
1760 -129.8514962067014
1761 -129.7958660884879
1762 -129.8444508577396
1763 -129.7903213457019
1764 -129.8489530010883
1765 -129.8049275136187
1766 -129.8639685870088
1767 -129.8077286135872
1768 -129.8643067719842
1769 -129.7963384263249
1770 -129.8556000730554
1771 -129.799852681368
1772 -129.8572758977776
1773 -129.8117728242697
1774 -129.8595128117584
1775 -129.8063862141104
1776 -129.8619968483414
1777 -129.805132848697
1778 -129.8554528617532
1779 -129.8156455278221
1780 -129.8624215283631
1781 -129.8172159372425
1782 -129.8606187496399
1783 -129.8169020869747
1784 -129.8608312401342
1785 -129.8010900768548
1786 -129.8430389898988
1787 -129.7999443078652
1788 -129.8481071288881
1789 -129.8069493080183
1790 -129.8436493567029
1791 -129.8031163494675
1792 -129.8480042197291
1793 -129.7939634084167
1794 -129.8426529690563
1795 -129.7918992578923
1796 -129.8356399184262
1797 -129.7957831794622
1798 -129.8417637913171
1799 -129.8033920225205
1800 -129.8441868026898
1801 -129.7911189995884
1802 -129.8353072875557
1803 -129.7982449341697
1804 -129.8456623044464
1805 -129.8051966858496
1806 -129.8421113741287
1807 -129.8038323010977
1808 -129.8482707375443
1809 -129.7950740502354
1810 -129.8460499278441
1811 -129.8034659263314
1812 -129.8562132687955
1813 -129.8123078386433
1814 -129.8596396817636
1815 -129.8168950629101
1816 -129.861968901261
1817 -129.8104033010875
1818 -129.8627399522679
1819 -129.8153292509627
1820 -129.8724063601362
1821 -129.8206921413323
1822 -129.8724140599456
1823 -129.8224631970914
1824 -129.8749657440587
1825 -129.8020604788344
1826 -129.860002769915
1827 -129.8000731720497
1828 -129.8604533197564
1829 -129.7994273795305
1830 -129.8620198354445
1831 -129.8049789634598
1832 -129.8700339045192
1833 -129.7921767216173
1834 -129.8549465024201
1835 -129.789590185899
1836 -129.859124734856
1837 -129.7968334999145
1838 -129.8518701012917
1839 -129.8067594257527
1840 -129.8616701643087
1841 -129.8004931648182
1842 -129.8564527527969
1843 -129.8092650219732
1844 -129.8590626211663
1845 -129.8080599240183
1846 -129.8556266974517
1847 -129.8144871288579
1848 -129.8571362145649
1849 -129.8013486961988
1850 -129.8470664427735
1851 -129.8135461684323
1852 -129.8554823606532
1853 -129.8175833802022
1854 -129.86217894224
1855 -129.822117135369
1856 -129.856555435971
1857 -129.8048508232745
1858 -129.8449194974516
1859 -129.8144087476446
1860 -129.8574900745775
1861 -129.8202015802193
1862 -129.8577321632175
1863 -129.8233592204561
1864 -129.8638545224071
1865 -129.8058417919661
1866 -129.8498090019306
1867 -129.807083049745
1868 -129.8480189053616
1869 -129.8073378027578
1870 -129.8512208811889
1871 -129.8088570357708
1872 -129.8542247803784
1873 -129.7975377782369
1874 -129.8520359853999
1875 -129.8054534612834
1876 -129.8578093557335
1877 -129.8049807660603
1878 -129.8540458699687
1879 -129.8092176942243
1880 -129.8599660301053
1881 -129.8022954551698
1882 -129.8562661449805
1883 -129.8081801681213
1884 -129.8587595660725
1885 -129.8126049030175
1886 -129.862671850153
1887 -129.8165550533655
1888 -129.8633646325412
1889 -129.8074509061906
1890 -129.8558839165637
1891 -129.8125140330827
1892 -129.8633938153775
1893 -129.8173112022211
1894 -129.8608368897599
1895 -129.8162878035084
1896 -129.8604698229916
1897 -129.8022372604837
1898 -129.8498877902572
1899 -129.8108240005905
1900 -129.8506952653394
1901 -129.8119860411335
1902 -129.8508868082749
1903 -129.8143897004642
1904 -129.8497757977548
1905 -129.7957123522954
1906 -129.840765808386
1907 -129.7979692603604
1908 -129.8441667307663
1909 -129.801217413161
1910 -129.8423611410596
1911 -129.8040122183765
1912 -129.8539739350063
1913 -129.8005297370398
1914 -129.8523660926259
1915 -129.8020588914932
1916 -129.8585861472876
1917 -129.8087403387584
1918 -129.8607429237469
1919 -129.8124137909886
1920 -129.8645737982171
1921 -129.7990448786406
1922 -129.8554263755461
1923 -129.8025642393401
1924 -129.8542819868145
1925 -129.8016478359779
1926 -129.8643173176314
1927 -129.8057947288517
1928 -129.8598282212939
1929 -129.7872721691845
1930 -129.8597136010414
1931 -129.7989054646279
1932 -129.8697619325977
1933 -129.8064953483133
1934 -129.8745088380183
1935 -129.8084155802124
1936 -129.8704964341603
1937 -129.7984930543959
1938 -129.8654310077546
1939 -129.8010787465239
1940 -129.8709517908395
1941 -129.8066247433586
1942 -129.8653785298509
1943 -129.8126008480062
1944 -129.8714114401645
1945 -129.7996962062203
1946 -129.8554001168644
1947 -129.7986717443885
1948 -129.8488234568579
1949 -129.8031148023559
1950 -129.8569865509142
1951 -129.8071044455674
1952 -129.8567118775786
1953 -129.7986645268412
1954 -129.8439529365388
1955 -129.8001973903921
1956 -129.847615031447
1957 -129.806174274779
1958 -129.8471891584146
1959 -129.8114165703084
1960 -129.856201249743
1961 -129.8057835433503
1962 -129.8509716117011
1963 -129.8030775053803
1964 -129.8538353899704
1965 -129.8059532654321
1966 -129.8518194974913
1967 -129.8031803817885
1968 -129.8558464215822
1969 -129.7981199415476
1970 -129.8493200294557
1971 -129.8018230260208
1972 -129.8572689985526
1973 -129.8153374205359
1974 -129.8683983944447
1975 -129.8207192615212
1976 -129.8742803249885
1977 -129.8097297797887
1978 -129.8692267971554
1979 -129.8231494220104
1980 -129.8705413256689
1981 -129.8229582654339
1982 -129.87138797619
1983 -129.8212593322099
1984 -129.8747827695548
1985 -129.8152719906878
1986 -129.8677702704902
1987 -129.8214264970219
1988 -129.8688823968781
1989 -129.8229683684997
1990 -129.8626101374811
1991 -129.820285987888
1992 -129.8651697755896
1993 -129.8034910916213
1994 -129.8572309852227
1995 -129.8130937839458
1996 -129.8565045850201
1997 -129.8215404602851
1998 -129.8549417021146
1999 -129.8230858222895
2000 -129.8628788589158
2001 -129.8149842923295
2002 -129.8577027363689
2003 -129.8158347347258
2004 -129.8590856755193
2005 -129.8161896397187
2006 -129.8619461922444
2007 -129.8182521567037
2008 -129.8618983559971
2009 -129.818614285185
2010 -129.8601734563872
2011 -129.8201276370508
2012 -129.8748912995009
2013 -129.8341610544664
2014 -129.8808327089609
2015 -129.8318299434173
2016 -129.8826979535777
2017 -129.8204974886421
2018 -129.8670052500634
2019 -129.8212921004194
2020 -129.8674350547448
2021 -129.8219466828285
2022 -129.8577853535857
2023 -129.8182449392235
2024 -129.8599400761478
2025 -129.8070457858768
2026 -129.8574797372518
2027 -129.8199836918409
2028 -129.8573687267373
2029 -129.8169584861609
2030 -129.8501463786978
2031 -129.8129286374245
2032 -129.8539090955157
2033 -129.8054122436339
2034 -129.8397598188818
2035 -129.807327900261
2036 -129.8464929219477
2037 -129.8131457932332
2038 -129.8518319933021
2039 -129.8143650594478
2040 -129.8567401313263
2041 -129.8091330854756
2042 -129.854357764098
2043 -129.8107102723865
2044 -129.8599646700182
2045 -129.8136990795834
2046 -129.8605853940481
2047 -129.8154770532835
2048 -129.8689183136435
2049 -129.8078226824012
2050 -129.8687823505343
2051 -129.8168106478032
2052 -129.8755565923422
2053 -129.8214021208389
2054 -129.8737771034349
2055 -129.8204549057892
2056 -129.8720091505427
2057 -129.8112031186705
2058 -129.865658369715
2059 -129.8134412704749
2060 -129.8764159039002
2061 -129.8266211151109
2062 -129.879589277194
2063 -129.8232669803484
2064 -129.8766812955813
2065 -129.8081562995376
2066 -129.8584047879021
2067 -129.8039229584932
2068 -129.85200602567
2069 -129.7990485048797
2070 -129.8538129244396
2071 -129.8078305381841
2072 -129.8609471708762
2073 -129.7926392669408
2074 -129.856339960227
2075 -129.8029672701566
2076 -129.8551652577871
2077 -129.80567169859
2078 -129.8633124535961
2079 -129.813647002696
2080 -129.8664654510955
2081 -129.8107481573116
2082 -129.8608268377745
2083 -129.814455677962
2084 -129.8643973174036
2085 -129.8143389918791
2086 -129.8553331687227
2087 -129.8115884216522
2088 -129.8595281772858
2089 -129.8118052471727
2090 -129.8582655899135
2091 -129.8184261308094
2092 -129.8706333461538
2093 -129.8294776843531
2094 -129.8715653670099
2095 -129.8297956243953
2096 -129.8823721027464
2097 -129.8253871307694
2098 -129.8784021901576
2099 -129.828699639794
2100 -129.8854092007983
2101 -129.8335327791303
2102 -129.8823185510008
2103 -129.8290145297478
2104 -129.8757486160857
2105 -129.8088701003728
2106 -129.8586036011079
2107 -129.8096671048108
2108 -129.8584534020785
2109 -129.8119513084343
2110 -129.8506192051214
2111 -129.8083096807075
2112 -129.8517575058246
2113 -129.7947603419235
2114 -129.8405381997667
2115 -129.7987471748835
2116 -129.8426985968277
2117 -129.8047906466506
2118 -129.8469020710291
2119 -129.8163224271216
2120 -129.8618721143351
2121 -129.8145774000749
2122 -129.8636764547593
2123 -129.8186757418288
2124 -129.8718876351246
2125 -129.8263959878094
2126 -129.8763696037798
2127 -129.826110697183
2128 -129.8746991986858
2129 -129.8150088607468
2130 -129.8638298155728
2131 -129.8174417300262
2132 -129.8696244285702
2133 -129.8197189241902
2134 -129.8662478430438
2135 -129.8155850956496
2136 -129.8702910423621
2137 -129.8115448862919
2138 -129.8634517667342
2139 -129.8134470126764
2140 -129.8611406971802
2141 -129.816094818577
2142 -129.8627067333751
2143 -129.814831662357
2144 -129.8682239092332
2145 -129.8045947528259
2146 -129.8608429903145
2147 -129.8093822529902
2148 -129.8676557049518
2149 -129.8149866331896
2150 -129.8690244434191
2151 -129.8178357549983
2152 -129.8728725277051
2153 -129.8104627025173
2154 -129.8658016359211
2155 -129.8115985468757
2156 -129.8688877440131
2157 -129.8169363389696
2158 -129.8693140048067
2159 -129.8193189845431
2160 -129.8750165182948
2161 -129.8122199572555
2162 -129.8624002218419
2163 -129.8150409126929
2164 -129.866530931444
2165 -129.8194898977536
2166 -129.8575345998993
2167 -129.8156073488317
2168 -129.8627175113371
2169 -129.8090383624022
2170 -129.8490636190126
2171 -129.8113946567865
2172 -129.8559000080352
2173 -129.816789128059
2174 -129.8512938987489
2175 -129.8171486562302
2176 -129.8526737844856
2177 -129.8079874538101
2178 -129.8457576902728
2179 -129.8142237294826
2180 -129.8561846820091
2181 -129.8232614551294
2182 -129.8581228731495
2183 -129.8256930367399
2184 -129.8663624151425
2185 -129.8136650761436
2186 -129.8509299057166
2187 -129.8061910604655
2188 -129.8487247594715
2189 -129.8120344354689
2190 -129.852293636088
2191 -129.8122169104322
2192 -129.8584348854922
2193 -129.8088905607042
2194 -129.8484566868751
2195 -129.8084566851955
2196 -129.8475442769681
2197 -129.8099081120072
2198 -129.8468146156192
2199 -129.8111553157751
2200 -129.8507448638889
2201 -129.8014857920208
2202 -129.8450192012156
2203 -129.8032957791434
2204 -129.8577656379367
2205 -129.8082174428813
2206 -129.8624758796673
2207 -129.8123962959336
2208 -129.8678649985165
2209 -129.8049082888904
2210 -129.869186029554
2211 -129.8057282113089
2212 -129.8716957527984
2213 -129.8125413584942
2214 -129.8703335929444
2215 -129.8135444559396
2216 -129.8694679756202
2217 -129.8027476954421
2218 -129.8620230969535
2219 -129.8091006817819
2220 -129.8700259677626
2221 -129.8138825431231
2222 -129.8754249231383
2223 -129.817499612063
2224 -129.8708491267008
2225 -129.8029370190294
2226 -129.8589196938588
2227 -129.8000954063037
2228 -129.8634488911498
2229 -129.8125147570696
2230 -129.8694143824612
2231 -129.8208996570736
2232 -129.8767266340484
2233 -129.8112004845486
2234 -129.8683415800849
2235 -129.8197800851499
2236 -129.8709283586008
2237 -129.8228215189253
2238 -129.8658337843649
2239 -129.8225900147548
2240 -129.8724343724307
2241 -129.8142448151482
2242 -129.8588263658304
2243 -129.8185869315327
2244 -129.8638185983941
2245 -129.8171788778608
2246 -129.8553533916628
2247 -129.8152115298821
2248 -129.8558931174028
2249 -129.7982391982878
2250 -129.8465641709893
2251 -129.8078025739716
2252 -129.8615937375681
2253 -129.8067904094901
2254 -129.8665269702121
2255 -129.8146911498729
2256 -129.8731942941902
2257 -129.8127934046506
2258 -129.8758936510266
2259 -129.8254521224572
2260 -129.8809981372993
2261 -129.8288557495743
2262 -129.8840708973034
2263 -129.8286993860802
2264 -129.880480764172
2265 -129.8087765531801
2266 -129.8693976576272
2267 -129.8195316180276
2268 -129.8694920182374
2269 -129.8218554835264
2270 -129.8607264455809
2271 -129.8222691883585
2272 -129.8590201724201
2273 -129.8155971141911
2274 -129.8511474136675
2275 -129.8203092818148
2276 -129.8506191820901
2277 -129.8230486345126
2278 -129.8590265238701
2279 -129.8305024822486
2280 -129.8681731022549
2281 -129.8185615927842
2282 -129.8592779971463
2283 -129.8230578017092
2284 -129.861155051215
2285 -129.8228541304931
2286 -129.8602174000359
2287 -129.8202684992825
2288 -129.8626887798053
2289 -129.8105060379999
2290 -129.8518907894498
2291 -129.8158566965832
2292 -129.8534717345289
2293 -129.8219529153513
2294 -129.8543975200795
2295 -129.818867208468
2296 -129.8537884611799
2297 -129.8072612851694
2298 -129.8548297949096
2299 -129.8183386636245
2300 -129.8649297152954
2301 -129.8255490441311
2302 -129.8751257377495
2303 -129.8297700193485
2304 -129.8821951433344
2305 -129.8226145740392
2306 -129.875604619682
2307 -129.8231848414442
2308 -129.8836594801568
2309 -129.8320440060165
2310 -129.8840275769748
2311 -129.8345480203396
2312 -129.8873547048926
2313 -129.8155033612925
2314 -129.8753815826352
2315 -129.8170840957631
2316 -129.8763889440243
2317 -129.8160552263401
2318 -129.8732745408033
2319 -129.8178605145389
2320 -129.8768761175252
2321 -129.8113122983183
2322 -129.8670629274964
2323 -129.8146401148791
2324 -129.8672554173875
2325 -129.8046235288406
2326 -129.8613615748348
2327 -129.8131703013328
2328 -129.8622978519371
2329 -129.8017382035421
2330 -129.8638826381548
2331 -129.8108157746947
2332 -129.8650293116316
2333 -129.8162516938753
2334 -129.8669774139607
2335 -129.8193025413478
2336 -129.86403029
2337 -129.8037927174351
2338 -129.8645180094784
2339 -129.8128331570642
2340 -129.8752407467282
2341 -129.8137388597745
2342 -129.8706585512721
2343 -129.8158080972696
2344 -129.8680522218768
2345 -129.8012948003228
2346 -129.8611664720806
2347 -129.8045805880317
2348 -129.8612545501674
2349 -129.8104412919847
2350 -129.8638284284584
2351 -129.8131196386137
2352 -129.8712926710932
2353 -129.8074445525038
2354 -129.8736177987878
2355 -129.8213203617685
2356 -129.8739251291201
2357 -129.8254353104104
2358 -129.8731824218875
2359 -129.8301512352974
2360 -129.8760987602213
2361 -129.8185091751128
2362 -129.8648519331859
2363 -129.8297007134713
2364 -129.8765993446944
2365 -129.8314286489756
2366 -129.8725618828334
2367 -129.8281605567538
2368 -129.8724503007559
2369 -129.8101134170886
2370 -129.8570922256931
2371 -129.8117299744961
2372 -129.8571755252372
2373 -129.8163587574671
2374 -129.8634638205307
2375 -129.8166168724118
2376 -129.8663868749086
2377 -129.8068953696806
2378 -129.8569351966932
2379 -129.8114001587073
2380 -129.8608306705429
2381 -129.8187537915192
2382 -129.8621088165758
2383 -129.8197888554682
2384 -129.8683489155972
2385 -129.8080232685644
2386 -129.8580780843258
2387 -129.8100072826948
2388 -129.8592851456056
2389 -129.8161904188194
2390 -129.8610969742506
2391 -129.8120965559438
2392 -129.858360855731
2393 -129.8046089378217
2394 -129.8506662557132
2395 -129.8081606292812
2396 -129.8572701614059
2397 -129.8181561845402
2398 -129.8544105084896
2399 -129.8184811575337
2400 -129.856519834407
2401 -129.8113411140548
2402 -129.8537669526027
2403 -129.8184042829214
2404 -129.8608525923523
2405 -129.8224763414746
2406 -129.8619219931567
2407 -129.8253178711956
2408 -129.8609363297679
2409 -129.8105493553016
2410 -129.8556404504679
2411 -129.8158983570564
2412 -129.8560027544973
2413 -129.8120251655092
2414 -129.8491505285661
2415 -129.8092548740654
2416 -129.8492504148053
2417 -129.7999619463372
2418 -129.8429691073908
2419 -129.8048746988735
2420 -129.8500029048086
2421 -129.8093231824564
2422 -129.8530934150622
2423 -129.8136912362295
2424 -129.8637989597266
2425 -129.8000720634229
2426 -129.8529298572383
2427 -129.8009763371948
2428 -129.8556536846028
2429 -129.813457305704
2430 -129.8629834557226
2431 -129.8160539446071
2432 -129.8690424910778
2433 -129.8197633333896
2434 -129.866906671078
2435 -129.8264407684217
2436 -129.8689204601683
2437 -129.8271329704204
2438 -129.8651668745617
2439 -129.8298337472108
2440 -129.8725534294198
2441 -129.8197487158027
2442 -129.8632364053448
2443 -129.8186121554691
2444 -129.8655053401898
2445 -129.8194926810882
2446 -129.8602800669366
2447 -129.813195403751
2448 -129.8592533018564
2449 -129.7979548748434
2450 -129.8512508209527
2451 -129.8089956431164
2452 -129.8624727615425
2453 -129.8059763370466
2454 -129.8554036348953
2455 -129.804639301476
2456 -129.8598735504206
2457 -129.7955232851158
2458 -129.8489599849044
2459 -129.8086168093966
2460 -129.8623348916823
2461 -129.8178003030324
2462 -129.8614009140097
2463 -129.8170828106982
2464 -129.8610722260441
2465 -129.7974541503
2466 -129.8543291360704
2467 -129.8066683746757
2468 -129.8585343398772
2469 -129.805967910022
2470 -129.8618246964115
2471 -129.8147774422883
2472 -129.874796894115
2473 -129.8135266859584
2474 -129.8712551359103
2475 -129.8225244672574
2476 -129.8770802230084
2477 -129.8269941402754
2478 -129.88113262513
2479 -129.8306794918099
2480 -129.8818581316143
2481 -129.8189715474213
2482 -129.8791719548231
2483 -129.8276362775739
2484 -129.8762210149155
2485 -129.8248193690628
2486 -129.8708831638826
2487 -129.8145669417891
2488 -129.8627583404181
2489 -129.8057008022338
2490 -129.863629355621
2491 -129.8208054878419
2492 -129.873360135741
2493 -129.822457426973
2494 -129.8730519187821
2495 -129.8297665539835
2496 -129.8740436998048
2497 -129.8168370715784
2498 -129.8597330063893
2499 -129.8175718028494
2500 -129.8649635583249
2501 -129.8222817065115
2502 -129.8677726953567
2503 -129.8196101057524
2504 -129.875622236607
2505 -129.8163258041765
2506 -129.8718893762385
2507 -129.8232159244046
2508 -129.8773143097592
2509 -129.8321494286537
2510 -129.8753338235871
2511 -129.8385247644713
2512 -129.8816514374163
2513 -129.8305285177836
2514 -129.8673736888718
2515 -129.8272461248389
2516 -129.8727998872885
2517 -129.831296243827
2518 -129.8700395641163
2519 -129.8319576079964
2520 -129.8774999125311
2521 -129.8173458494918
2522 -129.8615216092828
2523 -129.8171455909403
2524 -129.8655924422909
2525 -129.8132444701553
2526 -129.8653367413272
2527 -129.8146031242878
2528 -129.8677570731301
2529 -129.8093540020668
2530 -129.8597132730298
2531 -129.8121320765647
2532 -129.8690846222533
2533 -129.820606484196
2534 -129.8767120644561
2535 -129.828940062316
2536 -129.8779363647305
2537 -129.8186580088249
2538 -129.8722000742652
2539 -129.821791123165
2540 -129.8766839170703
2541 -129.8262098356971
2542 -129.8764719095403
2543 -129.8368248555456
2544 -129.883748794634
2545 -129.8244134071531
2546 -129.8717287220078
2547 -129.8241878903671
2548 -129.8699062526364
2549 -129.8255200125265
2550 -129.8677633929631
2551 -129.8232417543314
2552 -129.8704702320816
2553 -129.8160033817839
2554 -129.8561980005835
2555 -129.8152209224176
2556 -129.857982325565
2557 -129.8137636616499
2558 -129.855470708036
2559 -129.8169711076297
2560 -129.8604863213198
2561 -129.8127427612593
2562 -129.8585230856082
2563 -129.812127202633
2564 -129.8619521140273
2565 -129.8149368578499
2566 -129.8642663813451
2567 -129.8195222617563
2568 -129.8619653708979
2569 -129.8056597957552
2570 -129.8585012688882
2571 -129.8199669997793
2572 -129.8634105922269
2573 -129.8309477405085
2574 -129.865689864406
2575 -129.8267417713487
2576 -129.8682826393775
2577 -129.815923855768
2578 -129.8566778943195
2579 -129.8208081143431
2580 -129.8719689674189
2581 -129.8282025448588
2582 -129.8690902487731
2583 -129.8285038721419
2584 -129.8743419829597
2585 -129.8126283465546
2586 -129.8590730892791
2587 -129.8142369091599
2588 -129.8624008965689
2589 -129.8143175906863
2590 -129.8677293436942
2591 -129.8146936041774
2592 -129.8681839074702
2593 -129.8035433559977
2594 -129.8622083317994
2595 -129.8099287536041
2596 -129.8660488188242
2597 -129.8100903350399
2598 -129.8611498410928
2599 -129.8150120370947
2600 -129.8710015570997
2601 -129.8098753137376
2602 -129.8653999324429
2603 -129.8104014086108
2604 -129.8733803205022
2605 -129.8194879645226
2606 -129.8699918817913
2607 -129.8181573273248
2608 -129.8667460370562
2609 -129.8063914071216
2610 -129.8602084561216
2611 -129.8120079368855
2612 -129.8701318879662
2613 -129.8229729084005
2614 -129.8736850001827
2615 -129.8240034569602
2616 -129.8753659350647
2617 -129.8184269372121
2618 -129.8680382505023
2619 -129.8254613535813
2620 -129.86310652888
2621 -129.8240556509796
2622 -129.863248458513
2623 -129.8175429081001
2624 -129.8600694236598
2625 -129.80663630955
2626 -129.84848212537
2627 -129.805363178801
2628 -129.8501476827465
2629 -129.808640633357
2630 -129.8525933101842
2631 -129.8119923564552
2632 -129.8643803634174
2633 -129.8098699502542
2634 -129.8650078820859
2635 -129.8177383021124
2636 -129.8719825336077
2637 -129.8243418659556
2638 -129.8831019280316
2639 -129.8302876315349
2640 -129.8864938632746
2641 -129.8170248607923
2642 -129.8809918267888
2643 -129.8211155104846
2644 -129.8799010848769
2645 -129.8180083994277
2646 -129.880018880337
2647 -129.8186048092671
2648 -129.8791717221588
2649 -129.8110193998464
2650 -129.8681727106649
2651 -129.8160072572049
2652 -129.8748937429783
2653 -129.8283923183454
2654 -129.8691003864241
2655 -129.8250351674658
2656 -129.8739641244003
2657 -129.8153898701676
2658 -129.8557027464135
2659 -129.8175104685116
2660 -129.860623894785
2661 -129.8196201288183
2662 -129.8583767403564
2663 -129.8236257138864
2664 -129.8588915060852
2665 -129.8053739288569
2666 -129.8527528440173
2667 -129.8130752876545
2668 -129.8514694566154
2669 -129.8122403945465
2670 -129.8504894658622
2671 -129.8200234402386
2672 -129.8632780642916
2673 -129.8117117535573
2674 -129.8556342092801
2675 -129.8163447248629
2676 -129.8654084492946
2677 -129.8173555173295
2678 -129.8684624619134
2679 -129.8219990649637
2680 -129.8819630313149
2681 -129.8143139647948
2682 -129.8750087384462
2683 -129.812070726416
2684 -129.8733260630081
2685 -129.8161938218189
2686 -129.8797029705012
2687 -129.8168547164707
2688 -129.8794530668967
2689 -129.8115403484968
2690 -129.8732977789544
2691 -129.8191795537332
2692 -129.8700167759807
2693 -129.8177695518603
2694 -129.8657632869707
2695 -129.8177686590675
2696 -129.8639806610799
2697 -129.8113577303773
2698 -129.8523560882053
2699 -129.8110685974851
2700 -129.8593348440515
2701 -129.8202746854954
2702 -129.8626728416507
2703 -129.8211452566608
2704 -129.8675555676938
2705 -129.8091415196412
2706 -129.8534921638558
2707 -129.8107400384074
2708 -129.8586175176862
2709 -129.8142782626859
2710 -129.8590951089027
2711 -129.818195904284
2712 -129.8656507728222
2713 -129.8122298584715
2714 -129.8627894887842
2715 -129.8165471109028
2716 -129.8647794506263
2717 -129.8189931757886
2718 -129.8685820997738
2719 -129.8207933386827
2720 -129.875658214636
2721 -129.8143341722467
2722 -129.8683290779945
2723 -129.8203363975993
2724 -129.8767217520767
2725 -129.8278404072653
2726 -129.876775481518
2727 -129.8234645402794
2728 -129.8732350975483
2729 -129.8207232833644
2730 -129.8670302606974
2731 -129.8189429433864
2732 -129.8752790090047
2733 -129.8284887632645
2734 -129.8776133134
2735 -129.8258975391869
2736 -129.8726903996503
2737 -129.8148397871019
2738 -129.8695409439046
2739 -129.8241012359758
2740 -129.8703457032551
2741 -129.8242410870573
2742 -129.8746453244762
2743 -129.8264919591562
2744 -129.8716146969985
2745 -129.8127273490735
2746 -129.8654821354019
2747 -129.8127119598645
2748 -129.8636373789558
2749 -129.8189037343445
2750 -129.8701916564552
2751 -129.8220605809585
2752 -129.8747128764774
2753 -129.8177803664426
2754 -129.8676629804068
2755 -129.8194013071406
2756 -129.8742725990046
2757 -129.8236606117334
2758 -129.8693965986163
2759 -129.8209252835727
2760 -129.8739298578119
2761 -129.8117708252263
2762 -129.8680076480725
2763 -129.8159990639126
2764 -129.867504244622
2765 -129.8171196243729
2766 -129.870156610804
2767 -129.8195340349595
2768 -129.8708848292339
2769 -129.808772039731
2770 -129.8594688590029
2771 -129.8100726074846
2772 -129.8677833000762
2773 -129.8137449358747
2774 -129.8647883776255
2775 -129.8109037190623
2776 -129.8729386829362
2777 -129.8108709116678
2778 -129.8648609347575
2779 -129.8185764801505
2780 -129.8819298602548
2781 -129.8256160881641
2782 -129.8767282862829
2783 -129.8269412347159
2784 -129.8768302574289
2785 -129.8094295233317
2786 -129.8661737376606
2787 -129.8177426219132
2788 -129.8700437685942
2789 -129.8178223044685
2790 -129.8668387942305
2791 -129.8212562537758
2792 -129.8731671044803
2793 -129.8139914249234
2794 -129.8651794841194
2795 -129.8181976661212
2796 -129.8662718522513
2797 -129.8183141086697
2798 -129.8614188630682
2799 -129.8215047663431
2800 -129.8673667295848
2801 -129.8217225261511
2802 -129.8535356758844
2803 -129.8143157555486
2804 -129.8456609306799
2805 -129.8112119740258
2806 -129.8440147766582
2807 -129.8098050382073
2808 -129.8435192030479
2809 -129.8045071657658
2810 -129.8493758713419
2811 -129.8162319330656
2812 -129.8556049221287
2813 -129.8201471507994
2814 -129.8560875233471
2815 -129.8230981208616
2816 -129.8668081128349
2817 -129.816570193859
2818 -129.8683943452009
2819 -129.8238914058836
2820 -129.8725964548111
2821 -129.8299107089501
2822 -129.8720221064338
2823 -129.8301568588559
2824 -129.8689993523718
2825 -129.8197686166494
2826 -129.8534577959084
2827 -129.8164604553039
2828 -129.8562426032022
2829 -129.8134618433087
2830 -129.8517486008931
2831 -129.8127038187878
2832 -129.8565871576112
2833 -129.8042074498747
2834 -129.8513908756482
2835 -129.8087844006145
2836 -129.8520900840967
2837 -129.8100255220578
2838 -129.8546789389309
2839 -129.8173756116502
2840 -129.867878406149
2841 -129.8126713755126
2842 -129.8627155519552
2843 -129.8204980969178
2844 -129.8690581463416
2845 -129.8115107430993
2846 -129.8600658806813
2847 -129.814429858289
2848 -129.8671616374924
2849 -129.8159940272856
2850 -129.8616708391899
2851 -129.8216433771186
2852 -129.8807395512056
2853 -129.833580572453
2854 -129.8770513908075
2855 -129.8366595863139
2856 -129.882749320338
2857 -129.8247268950933
2858 -129.8743361630885
2859 -129.8243231143451
2860 -129.8759917903798
2861 -129.8259513116407
2862 -129.877507227921
2863 -129.8226226554963
2864 -129.8755499499537
2865 -129.8190026898812
2866 -129.8689412344095
2867 -129.8177958508505
2868 -129.8662535122821
2869 -129.8152103997642
2870 -129.8646298383142
2871 -129.8183417027973
2872 -129.8633039158444
2873 -129.8105661716338
2874 -129.8586307817918
2875 -129.8138593534793
2876 -129.866156397062
2877 -129.8230574206528
2878 -129.8658440461496
2879 -129.8202686900147
2880 -129.8754687399861
2881 -129.8115384273323
2882 -129.8683209690037
2883 -129.8179725876426
2884 -129.8796230002155
2885 -129.8165677597733
2886 -129.8734476349999
2887 -129.8204798324392
2888 -129.8765616931003
2889 -129.8078272225658
2890 -129.8709812415848
2891 -129.8226951872028
2892 -129.8792422982722
2893 -129.8275386243625
2894 -129.8841217778865
2895 -129.8368686407875
2896 -129.8839605435455
2897 -129.8228985764371
2898 -129.8757458808839
2899 -129.8321512259676
2900 -129.879053580231
2901 -129.8295901635802
2902 -129.8755730584957
2903 -129.8399425334742
2904 -129.8725933492
2905 -129.8216916195904
2906 -129.8608771595554
2907 -129.8221561067408
2908 -129.8566577787313
2909 -129.8198160101469
2910 -129.8544916422383
2911 -129.8219836544794
2912 -129.860141942597
2913 -129.8055053363827
2914 -129.8563053902874
2915 -129.8122227649581
2916 -129.8620499159885
2917 -129.8133688246279
2918 -129.8665838495377
2919 -129.8202059197352
2920 -129.8708860013129
2921 -129.8095385058454
2922 -129.8642368844646
2923 -129.8142215253376
2924 -129.8731209371441
2925 -129.8169598766488
2926 -129.8723552519004
2927 -129.8150549023258
2928 -129.8743017047095
2929 -129.8055143693806
2930 -129.862011963614
2931 -129.8110943348371
2932 -129.8669574164789
2933 -129.8136125746428
2934 -129.8673609408646
2935 -129.820424912135
2936 -129.8686186704545
2937 -129.8041038792692
2938 -129.858425824642
2939 -129.8125641694837
2940 -129.8658582634446
2941 -129.8198023970337
2942 -129.8674835579049
2943 -129.8221667498577
2944 -129.861623456021
2945 -129.8109511280093
2946 -129.8459620374005
2947 -129.8152322185746
2948 -129.854921070714
2949 -129.8228201401256
2950 -129.8540002684384
2951 -129.8242864801728
2952 -129.8581016713856
2953 -129.8168894002832
2954 -129.8541830253961
2955 -129.8156539788904
2956 -129.8625931677653
2957 -129.8260477055206
2958 -129.8671573740121
2959 -129.8305733395412
2960 -129.8827669089051
2961 -129.8263878955217
2962 -129.8753380748122
2963 -129.8268006299965
2964 -129.876083432995
2965 -129.8269717046769
2966 -129.870192239512
2967 -129.8215297673236
2968 -129.8662672161073
2969 -129.8084759880968
2970 -129.8517774572016
2971 -129.8095652812805
2972 -129.8656575990684
2973 -129.8141098304479
2974 -129.8687894465773
2975 -129.8199488957213
2976 -129.8683192980982
2977 -129.810274600543
2978 -129.8622910295419
2979 -129.8194248482132
2980 -129.8659827070119
2981 -129.8245981845072
2982 -129.867243678698
2983 -129.8273781922737
2984 -129.8691122085985
2985 -129.8174729229681
2986 -129.8571120721316
2987 -129.8222828430449
2988 -129.8605407708308
2989 -129.8312015273708
2990 -129.8701917484971
2991 -129.8420168950617
2992 -129.8808474786855
2993 -129.8353832509885
2994 -129.87774940954
2995 -129.8402603595194
2996 -129.8806398494281
2997 -129.8412176632494
2998 -129.8819616908941
2999 -129.846607659888
3000 -129.8842194038359
3001 -129.8342019740874
3002 -129.879769151582
3003 -129.8361417793896
3004 -129.8758984335237
3005 -129.8254315434639
3006 -129.8682732330354
3007 -129.8223502347729
3008 -129.8690399071247
3009 -129.8042871736286
3010 -129.8559620079877
3011 -129.8090087638529
3012 -129.8629745383396
3013 -129.8136274088939
3014 -129.8673058193135
3015 -129.8201441645939
3016 -129.8716472793867
3017 -129.8129800858975
3018 -129.8692145069571
3019 -129.8214585268842
3020 -129.8791110390794
3021 -129.8239224058366
3022 -129.8812072372319
3023 -129.8299975142056
3024 -129.8825262076125
3025 -129.8147064315852
3026 -129.8730957413058
3027 -129.8155910896678
3028 -129.8755078177792
3029 -129.8189449323905
3030 -129.8689309924077
3031 -129.8253325007696
3032 -129.8750958596309
3033 -129.8161717145722
3034 -129.8673906749621
3035 -129.8228513163236
3036 -129.8708714764703
3037 -129.8288547898103
3038 -129.8729297424798
3039 -129.8307315368295
3040 -129.8726277473995
3041 -129.8234639528413
3042 -129.8669108972586
3043 -129.8260511745314
3044 -129.8674020175272
3045 -129.821773784133
3046 -129.8656807886722
3047 -129.8262246136669
3048 -129.870804134114
3049 -129.8165398795268
3050 -129.8622680808671
3051 -129.8174196252764
3052 -129.8606176306224
3053 -129.8190556088826
3054 -129.8614898029689
3055 -129.8202469730113
3056 -129.8679979324745
3057 -129.8163610654106
3058 -129.8660127599293
3059 -129.821258522872
3060 -129.8720621008133
3061 -129.8240943751958
3062 -129.8753668303766
3063 -129.8235239262789
3064 -129.8758047453398
3065 -129.810502237333
3066 -129.8627697033026
3067 -129.8167745966438
3068 -129.87074411551
3069 -129.8214719936106
3070 -129.8774129370622
3071 -129.8238119500432
3072 -129.8798085429994
3073 -129.8208572651485
3074 -129.8772822055921
3075 -129.8213249165463
3076 -129.8692285307321
3077 -129.8195181262178
3078 -129.8732252359408
3079 -129.8238705255994
3080 -129.872766859634
3081 -129.8160486816853
3082 -129.8656031255368
3083 -129.8153399088537
3084 -129.8640664574805
3085 -129.8086220143734
3086 -129.8648245887437
3087 -129.8126328774851
3088 -129.8635156727778
3089 -129.8014979979737
3090 -129.8556078106804
3091 -129.8063112860877
3092 -129.8634610492967
3093 -129.816729566716
3094 -129.8639454203441
3095 -129.8111433020621
3096 -129.8669012155376
3097 -129.806603225324
3098 -129.8681267436907
3099 -129.8185688541784
3100 -129.869594938237
3101 -129.8235467600021
3102 -129.872977045838
3103 -129.8207567446312
3104 -129.8715830233935
3105 -129.8103779061151
3106 -129.862578926115
3107 -129.811762611783
3108 -129.8679343837895
3109 -129.8187454748951
3110 -129.866507743286
3111 -129.8182773086607
3112 -129.8686229036182
3113 -129.8094384322584
3114 -129.8609008341969
3115 -129.8126237558068
3116 -129.8626287192646
3117 -129.8189960844111
3118 -129.8568831553159
3119 -129.8211289343805
3120 -129.8614350187634
3121 -129.8158968545139
3122 -129.8603980035046
3123 -129.8146989943381
3124 -129.8585243612676
3125 -129.8184811156958
3126 -129.8570824581288
3127 -129.8184344865623
3128 -129.8597622388574
3129 -129.8091856527538
3130 -129.8457546676887
3131 -129.8128760787663
3132 -129.8562366447142
3133 -129.8230825089227
3134 -129.8706835130171
3135 -129.8294446957965
3136 -129.8723981634683
3137 -129.8206125156945
3138 -129.8692427631899
3139 -129.8208038682864
3140 -129.876518041492
3141 -129.8294597902649
3142 -129.8753362851808
3143 -129.8239220147894
3144 -129.8818911503157
3145 -129.8180710752694
3146 -129.8824337962652
3147 -129.8273846144083
3148 -129.8812630177151
3149 -129.8242123762032
3150 -129.8845426394229
3151 -129.8240772843074
3152 -129.8862370589828
3153 -129.8139623195966
3154 -129.877351405633
3155 -129.8119369476881
3156 -129.8747853452709
3157 -129.8151391687959
3158 -129.874858313358
3159 -129.819480341069
3160 -129.8731879210988
3161 -129.8052335166691
3162 -129.8676478249514
3163 -129.8086516673671
3164 -129.8646781142166
3165 -129.8115068303489
3166 -129.8614873371856
3167 -129.8078360276241
3168 -129.8651412959122
3169 -129.8021136430575
3170 -129.8551346442395
3171 -129.810480819493
3172 -129.8676116693738
3173 -129.8236738358744
3174 -129.8781405456161
3175 -129.8311408500984
3176 -129.8794917118051
3177 -129.816543279182
3178 -129.873302396061
3179 -129.8221502309244
3180 -129.8801672702526
3181 -129.8283833262628
3182 -129.8777414899827
3183 -129.8261564866612
3184 -129.8803450026853
3185 -129.8084529508628
3186 -129.8598985670264
3187 -129.8137503212845
3188 -129.8679510452873
3189 -129.8236760208861
3190 -129.8676544898184
3191 -129.8250041561887
3192 -129.8775381224524
3193 -129.8219124101171
3194 -129.8750135314271
3195 -129.824816071722
3196 -129.8723303886023
3197 -129.8307436184636
3198 -129.8797642714302
3199 -129.8347646965186
3200 -129.8850206954088
3201 -129.826254415342
3202 -129.8738326614406
3203 -129.829306873883
3204 -129.8712420278703
3205 -129.8291273852421
3206 -129.8678969024221
3207 -129.8263800605474
3208 -129.8659802608379
3209 -129.8146299028745
3210 -129.8612500332578
3211 -129.8187610672111
3212 -129.8652675136588
3213 -129.8177251120599
3214 -129.8630727425073
3215 -129.8144142108477
3216 -129.8671985017582
3217 -129.8055327655209
3218 -129.8572305655249
3219 -129.8157847853126
3220 -129.8709486698202
3221 -129.8156989128187
3222 -129.8747627934511
3223 -129.8258506509717
3224 -129.8797317875557
3225 -129.8132732740803
3226 -129.8709408451765
3227 -129.81877004709
3228 -129.8714482589956
3229 -129.8277490161739
3230 -129.8715456855863
3231 -129.8358172726904
3232 -129.8826267825645
3233 -129.822532366415
3234 -129.8751950286317
3235 -129.8255450426203
3236 -129.8720012597851
3237 -129.8239681881877
3238 -129.8669082500524
3239 -129.824257432874
3240 -129.868441831727
3241 -129.8148988588929
3242 -129.8638603962796
3243 -129.8230101521089
3244 -129.8675376149971
3245 -129.8250531682643
3246 -129.864194947442
3247 -129.8293410962027
3248 -129.8700638336156
3249 -129.8114431901907
3250 -129.8644513140277
3251 -129.8236618907422
3252 -129.873006675948
3253 -129.8192216228383
3254 -129.8703299347932
3255 -129.8237319495981
3256 -129.8713343382667
3257 -129.8083895181896
3258 -129.863808119021
3259 -129.8162723496183
3260 -129.8683998994586
3261 -129.8162831853151
3262 -129.8666918234451
3263 -129.8189791261321
3264 -129.8754409403004
3265 -129.8091032693195
3266 -129.8619789589412
3267 -129.8166150251958
3268 -129.8703689407196
3269 -129.8207227898251
3270 -129.8736440025397
3271 -129.8290258208135
3272 -129.8755116353476
3273 -129.8234042472068
3274 -129.8683169620835
3275 -129.8292505248615
3276 -129.8772658036036
3277 -129.8331650682278
3278 -129.8714511632504
3279 -129.8317339002023
3280 -129.8776705199815
3281 -129.8242492124443
3282 -129.8680667504996
3283 -129.8267514410709
3284 -129.8722386640679
3285 -129.8239117647011
3286 -129.865147335947
3287 -129.8246626417438
3288 -129.87081865182
3289 -129.8142132222859
3290 -129.8592627717337
3291 -129.814803959617
3292 -129.8584457004556
3293 -129.8099659939553
3294 -129.8655933903873
3295 -129.8137390031679
3296 -129.8656894639543
3297 -129.8062578219663
3298 -129.8655842532032
3299 -129.8191440503473
3300 -129.867910305433
3301 -129.8113981017307
3302 -129.8634638156698
3303 -129.8111961121385
3304 -129.8622645670123
3305 -129.7957481523223
3306 -129.8569517612059
3307 -129.7998885586666
3308 -129.8616830200942
3309 -129.8041746324285
3310 -129.8571871833492
3311 -129.8070005743807
3312 -129.8611876816501
3313 -129.7967061493927
3314 -129.8520575196677
3315 -129.8048397657047
3316 -129.8552480993356
3317 -129.8079035989431
3318 -129.85349477418
3319 -129.8103758395102
3320 -129.8680635158459
3321 -129.8019048069246
3322 -129.8555499055546
3323 -129.807527199396
3324 -129.8678427236628
3325 -129.8123879089329
3326 -129.8646532382294
3327 -129.8141826445864
3328 -129.8695772804093
3329 -129.8053286803908
3330 -129.8641650206103
3331 -129.8107402567594
3332 -129.873811191979
3333 -129.8198377386234
3334 -129.8729353707199
3335 -129.8166980530121
3336 -129.8700107209256
3337 -129.8092872471125
3338 -129.8619173481898
3339 -129.8167692108698
3340 -129.8718614616303
3341 -129.8231426795614
3342 -129.8783226168832
3343 -129.8268244766035
3344 -129.8800535243925
3345 -129.809782379853
3346 -129.8598616573827
3347 -129.808763519346
3348 -129.8584237427839
3349 -129.8103571253932
3350 -129.8528659675227
3351 -129.8177650610962
3352 -129.8613219665671
3353 -129.8138244872913
3354 -129.8657387936746
3355 -129.8215435067981
3356 -129.8620996403484
3357 -129.8269804372279
3358 -129.8644281165318
3359 -129.8268721294651
3360 -129.8671446934964
3361 -129.81860812309
3362 -129.8667389540208
3363 -129.8249735421227
3364 -129.8697687364697
3365 -129.8267831304159
3366 -129.8651880728891
3367 -129.8195121587669
3368 -129.8638037211924
3369 -129.8129275834393
3370 -129.8603676470675
3371 -129.8170220505896
3372 -129.8684013167976
3373 -129.8287268487153
3374 -129.8738618273908
3375 -129.8346737893889
3376 -129.8734419915829
3377 -129.8211969752653
3378 -129.8641098801061
3379 -129.8273227868789
3380 -129.8672665853148
3381 -129.8307579265731
3382 -129.8632844438773
3383 -129.8279785843455
3384 -129.8616475119497
3385 -129.8169843520359
3386 -129.8526013092213
3387 -129.8181964850877
3388 -129.8547240547983
3389 -129.8257769369046
3390 -129.8541925015026
3391 -129.8254979197513
3392 -129.8642171357137
3393 -129.8174764232684
3394 -129.861384005249
3395 -129.8226945442811
3396 -129.8739428536509
3397 -129.8268509160751
3398 -129.8665444712076
3399 -129.8227113915388
3400 -129.870599467671
3401 -129.8069924114069
3402 -129.867151320141
3403 -129.8119600568883
3404 -129.8718662286548
3405 -129.8144494265842
3406 -129.8818349427121
3407 -129.8239873367239
3408 -129.8840317689126
3409 -129.8159732664316
3410 -129.8719405847855
3411 -129.8195043836829
3412 -129.8783503943299
3413 -129.8270464515761
3414 -129.874571668658
3415 -129.8226034159391
3416 -129.8740078794033
3417 -129.8136189527246
3418 -129.8641953134839
3419 -129.8192878636117
3420 -129.8721075865108
3421 -129.8328209718434
3422 -129.8682338187839
3423 -129.8282184205547
3424 -129.8685056964451
3425 -129.8162420764801
3426 -129.858985308387
3427 -129.8185324002215
3428 -129.8544611888317
3429 -129.8162965557327
3430 -129.8577144737348
3431 -129.8262958116748
3432 -129.863070661235
3433 -129.8099876507775
3434 -129.8557897939254
3435 -129.8199764998503
3436 -129.863297978807
3437 -129.8210857486887
3438 -129.8699018498213
3439 -129.8245962401966
3440 -129.888254207241
3441 -129.8205193027828
3442 -129.8827472848351
3443 -129.8229765943231
3444 -129.8902940877213
3445 -129.8239326883764
3446 -129.884635988872
3447 -129.8208485007799
3448 -129.879678759834
3449 -129.8057684659257
3450 -129.8704002841454
3451 -129.8097979219494
3452 -129.8705660572809
3453 -129.8069651359858
3454 -129.8676740212147
3455 -129.8049918749209
3456 -129.865498425533
3457 -129.7992304706079
3458 -129.85504621007
3459 -129.809199110207
3460 -129.8622908869599
3461 -129.8112298407247
3462 -129.8576551058522
3463 -129.8110075242191
3464 -129.858276941909
3465 -129.797099254314
3466 -129.8437335414545
3467 -129.8007484950524
3468 -129.8499620942331
3469 -129.8061307273175
3470 -129.8550987196235
3471 -129.8174606746896
3472 -129.8720993344656
3473 -129.8114593016389
3474 -129.873999081388
3475 -129.8208657117136
3476 -129.8782163863633
3477 -129.8222891764252
3478 -129.8812401218956
3479 -129.8344019963397
3480 -129.8845986614043
3481 -129.8201695933284
3482 -129.8760263951456
3483 -129.8270633158805
3484 -129.8752043126003
3485 -129.8295261259819
3486 -129.8768778557061
3487 -129.8267638319631
3488 -129.8689599682966
3489 -129.8175400379003
3490 -129.8587011840012
3491 -129.8160527132267
3492 -129.8668699921561
3493 -129.8269462987451
3494 -129.8667024790565
3495 -129.8288155863642
3496 -129.8683037513524
3497 -129.8210717128763
3498 -129.8611300113562
3499 -129.8238933251816
3500 -129.8654862843405
3501 -129.82895403522
3502 -129.8725932577665
3503 -129.8334107497693
3504 -129.878596208255
3505 -129.8221564713562
3506 -129.8675927511422
3507 -129.8235296368718
3508 -129.8671264500051
3509 -129.8233249394946
3510 -129.8703313365739
3511 -129.8258211795974
3512 -129.8804867569224
3513 -129.8294856762244
3514 -129.8728990488626
3515 -129.8320022748641
3516 -129.8806448430182
3517 -129.8444000109515
3518 -129.8815847278993
3519 -129.8442985068106
3520 -129.8878873200633
3521 -129.8376106703229
3522 -129.877952432467
3523 -129.8427117666472
3524 -129.8846789094382
3525 -129.8428529211553
3526 -129.8802246822979
3527 -129.8374744803399
3528 -129.8776966862777
3529 -129.8237468104847
3530 -129.8669525673865
3531 -129.830529998293
3532 -129.8739185029621
3533 -129.8324119435887
3534 -129.8695140081299
3535 -129.8342411953703
3536 -129.8741100525225
3537 -129.8256691664148
3538 -129.8577009883777
3539 -129.8275573231419
3540 -129.8690142178831
3541 -129.8305015384838
3542 -129.8664332846614
3543 -129.826779104263
3544 -129.8701062763382
3545 -129.8126136695871
3546 -129.8641408607876
3547 -129.8090247182453
3548 -129.860643726728
3549 -129.8081653983551
3550 -129.8663597305668
3551 -129.8151298871242
3552 -129.8734981529747
3553 -129.8061867050528
3554 -129.8707947221995
3555 -129.8127947988992
3556 -129.8722254218885
3557 -129.814457247843
3558 -129.8782434750186
3559 -129.8205400803816
3560 -129.8797658651231
3561 -129.8090753172407
3562 -129.8775659772434
3563 -129.8100993585725
3564 -129.8722213009183
3565 -129.8164734125316
3566 -129.87666978626
3567 -129.8223327964729
3568 -129.8793037458182
3569 -129.8185209243346
3570 -129.8667021882234
3571 -129.8146059230149
3572 -129.8698102366926
3573 -129.8176207176869
3574 -129.8664023071391
3575 -129.8187710849274
3576 -129.8681381194518
3577 -129.8119585661039
3578 -129.8588729961088
3579 -129.8145619589613
3580 -129.8633390343063
3581 -129.820236200302
3582 -129.8685075076036
3583 -129.8167318371001
3584 -129.8650286791424
3585 -129.8017330769722
3586 -129.8510941354566
3587 -129.7994838324077
3588 -129.853042285245
3589 -129.8102883302915
3590 -129.857790949895
3591 -129.8155472718269
3592 -129.8665235225255
3593 -129.8085819785843
3594 -129.8620595128504
3595 -129.8117164968272
3596 -129.8667419484065
3597 -129.816867407154
3598 -129.8666818728475
3599 -129.8203828006361
3600 -129.8732660327444
3601 -129.8133741946043
3602 -129.8660750438977
3603 -129.8126040567529
3604 -129.8665229807828
3605 -129.8220707780991
3606 -129.874516375722
3607 -129.8241219765551
3608 -129.8755130522555
3609 -129.8189439231116
3610 -129.8711058282866
3611 -129.8181721075832
3612 -129.8758464731615
3613 -129.8237053594318
3614 -129.8749776596119
3615 -129.8245838232347
3616 -129.8697797318517
3617 -129.8040051613591
3618 -129.8597055540826
3619 -129.8116168049974
3620 -129.8592732049702
3621 -129.8151688716067
3622 -129.8631196045107
3623 -129.8213555611643
3624 -129.8658174530923
3625 -129.8071359906315
3626 -129.8610866087492
3627 -129.8150710285242
3628 -129.8589678081831
3629 -129.8200686591376
3630 -129.8714443170556
3631 -129.8351775261528
3632 -129.878474305046
3633 -129.8191011539145
3634 -129.8709532242008
3635 -129.8253138248274
3636 -129.873077309187
3637 -129.8305785572969
3638 -129.8780032007977
3639 -129.8302860930664
3640 -129.8745841296293
3641 -129.8220915821464
3642 -129.8668231558624
3643 -129.820658132243
3644 -129.8691167416774
3645 -129.8223304958728
3646 -129.8670452243106
3647 -129.8200814939542
3648 -129.8693607494981
3649 -129.8094061025755
3650 -129.8558572677522
3651 -129.8158526682535
3652 -129.8620522997706
3653 -129.8200243784959
3654 -129.8687142306883
3655 -129.8242606973492
3656 -129.8734444637995
3657 -129.8197317831903
3658 -129.8703863396155
3659 -129.8259499828859
3660 -129.8786747544214
3661 -129.8331640103808
3662 -129.8762948255628
3663 -129.8305813182582
3664 -129.8786616569845
3665 -129.8148593732496
3666 -129.8625430454171
3667 -129.8172393186938
3668 -129.8639331022809
3669 -129.8156630496346
3670 -129.8546135879954
3671 -129.8083560793754
3672 -129.8591374932433
3673 -129.8063567124937
3674 -129.8491875316077
3675 -129.810893601027
3676 -129.8484460191715
3677 -129.8156149567317
3678 -129.8533834163534
3679 -129.8173253047171
3680 -129.8557715507251
3681 -129.8119330473403
3682 -129.8527135232606
3683 -129.8145552838679
3684 -129.8547329369183
3685 -129.8136384987763
3686 -129.8593568135298
3687 -129.8170734807831
3688 -129.8643939228862
3689 -129.8111945018488
3690 -129.8663806682102
3691 -129.8185358903763
3692 -129.8704553811975
3693 -129.8284314676488
3694 -129.8730015539913
3695 -129.8258528137972
3696 -129.8701920780157
3697 -129.8155773989526
3698 -129.8641827325475
3699 -129.8181031000765
3700 -129.8670122169212
3701 -129.8224416340641
3702 -129.8669927955602
3703 -129.8214610547176
3704 -129.866127393536
3705 -129.8025036383459
3706 -129.8468120758402
3707 -129.8004748029064
3708 -129.8494432731025
3709 -129.8043357575331
3710 -129.8603773704955
3711 -129.8093088982441
3712 -129.8682427891003
3713 -129.8073070554607
3714 -129.8677077486738
3715 -129.8086952154884
3716 -129.8718112775872
3717 -129.8184252320947
3718 -129.8737805602553
3719 -129.8244264315699
3720 -129.8833351750215
3721 -129.8164299639263
3722 -129.8735685032649
3723 -129.8143784200555
3724 -129.8685525320515
3725 -129.8118371916577
3726 -129.866280994851
3727 -129.8116944760591
3728 -129.8637832788889
3729 -129.8010883849882
3730 -129.8524118226778
3731 -129.8113285153048
3732 -129.8655347053033
3733 -129.8123186335121
3734 -129.8702624865121
3735 -129.8227327069316
3736 -129.8705172695977
3737 -129.8153076192303
3738 -129.8640480047171
3739 -129.8234692608155
3740 -129.8693441178444
3741 -129.8201849502925
3742 -129.8666242244255
3743 -129.827722496807
3744 -129.8802517933601
3745 -129.8162845478447
3746 -129.8716707005879
3747 -129.8190015833198
3748 -129.8735110141776
3749 -129.8243391118614
3750 -129.8724398000543
3751 -129.8267020466738
3752 -129.8743618610688
3753 -129.8192617620778
3754 -129.8683126203004
3755 -129.8296976331597
3756 -129.8714312324852
3757 -129.8334041789607
3758 -129.8694649428183
3759 -129.8304679646567
3760 -129.8722973952208
3761 -129.8274657232965
3762 -129.8677442405219
3763 -129.8265240679677
3764 -129.8709612660845
3765 -129.831252914754
3766 -129.8721033012236
3767 -129.8340065279297
3768 -129.8759882026042
3769 -129.8210623172455
3770 -129.8636903893881
3771 -129.8228346513904
3772 -129.8685822004063
3773 -129.822093237429
3774 -129.8706734574497
3775 -129.821072981937
3776 -129.8783431359019
3777 -129.813877667324
3778 -129.8663886149808
3779 -129.8135025157569
3780 -129.8742254064964
3781 -129.820826128626
3782 -129.8719568199091
3783 -129.8186461564363
3784 -129.8667524878159
3785 -129.8051711233407
3786 -129.857322102396
3787 -129.8096956925178
3788 -129.8583861219587
3789 -129.8171806973938
3790 -129.8577662652382
3791 -129.8216588030367
3792 -129.8662806707498
3793 -129.8170326616357
3794 -129.8595805083616
3795 -129.8203236240163
3796 -129.8607964936945
3797 -129.8191984416967
3798 -129.8599419235274
3799 -129.8238760621524
3800 -129.868359847848
3801 -129.8164842601324
3802 -129.8569707029161
3803 -129.8162175279635
3804 -129.8618342595555
3805 -129.8199300958998
3806 -129.8686924035491
3807 -129.8239406820939
3808 -129.8687360843585
3809 -129.815336973492
3810 -129.8613805562885
3811 -129.8114642533332
3812 -129.8603104618699
3813 -129.8136809693328
3814 -129.8588427009605
3815 -129.8151220140152
3816 -129.8623565734457
3817 -129.8048904693179
3818 -129.8599240346144
3819 -129.816207348971
3820 -129.869290324695
3821 -129.821421386469
3822 -129.8697986593839
3823 -129.8233632931612
3824 -129.8712269562746
3825 -129.8048841420368
3826 -129.8571832984287
3827 -129.8128685945174
3828 -129.8631120180291
3829 -129.8167354273468
3830 -129.8655974593649
3831 -129.8198999089389
3832 -129.8631519318866
3833 -129.8101901667075
3834 -129.8603880467709
3835 -129.8109440835245
3836 -129.864757725568
3837 -129.8167050569572
3838 -129.8624972125851
3839 -129.8205594023649
3840 -129.8774687586842
3841 -129.815782128198
3842 -129.871380888555
3843 -129.8196333419129
3844 -129.8768262702466
3845 -129.8189433526751
3846 -129.866230431908
3847 -129.8170716593878
3848 -129.8630497046994
3849 -129.8072272772976
3850 -129.8501641674084
3851 -129.8069857514126
3852 -129.8587878073828
3853 -129.813562469162
3854 -129.8582030559304
3855 -129.8160755682887
3856 -129.8647006949526
3857 -129.810146638379
3858 -129.8522869456943
3859 -129.8150881776552
3860 -129.8663593519836
3861 -129.8244416076512
3862 -129.8694635270693
3863 -129.8315372699003
3864 -129.8812881628911
3865 -129.8259494718371
3866 -129.8752285410136
3867 -129.8277995239986
3868 -129.8769925368577
3869 -129.8340659611036
3870 -129.8790462714784
3871 -129.8291693680841
3872 -129.8861022933399
3873 -129.8206589773954
3874 -129.8805912562965
3875 -129.8287403282057
3876 -129.8895014496888
3877 -129.8315678019908
3878 -129.8854951128733
3879 -129.8244578197957
3880 -129.8823171350009
3881 -129.8151325056785
3882 -129.8805438115011
3883 -129.8200483457753
3884 -129.8824337226072
3885 -129.8185212581737
3886 -129.8710331522
3887 -129.8184015615243
3888 -129.8728366157568
3889 -129.8100802206168
3890 -129.8685132465148
3891 -129.8210991818472
3892 -129.8742814656464
3893 -129.8293477075533
3894 -129.8747111835704
3895 -129.8338731585024
3896 -129.8762029429537
3897 -129.8276335606907
3898 -129.8666346085654
3899 -129.8361380243777
3900 -129.8731269524854
3901 -129.8402082257786
3902 -129.8717477875297
3903 -129.8391811659074
3904 -129.8699920424567
3905 -129.8226821823167
3906 -129.86319417069
3907 -129.8280187329992
3908 -129.8626009460801
3909 -129.8265258767173
3910 -129.8611387907224
3911 -129.8313089787947
3912 -129.870952745546
3913 -129.8273116200346
3914 -129.8716263383286
3915 -129.835125037574
3916 -129.8791686297331
3917 -129.8401026299216
3918 -129.8709107816805
3919 -129.8448225412037
3920 -129.8767766441178
3921 -129.828118855758
3922 -129.8635119289685
3923 -129.8279631426865
3924 -129.866854605317
3925 -129.8173138267526
3926 -129.8598786788991
3927 -129.8141500123714
3928 -129.8623650226601
3929 -129.8038502763551
3930 -129.8576204202518
3931 -129.8069993030938
3932 -129.8647456608729
3933 -129.82005463198
3934 -129.8702661104951
3935 -129.826210402419
3936 -129.875935025156
3937 -129.8094541791583
3938 -129.8683574185839
3939 -129.8161528222887
3940 -129.8780791248012
3941 -129.8209935325697
3942 -129.8825093627976
3943 -129.825049101275
3944 -129.8827302726921
3945 -129.8134494300664
3946 -129.8700844186736
3947 -129.8105744750597
3948 -129.8756031421521
3949 -129.8231365180043
3950 -129.8715935742931
3951 -129.8123977350322
3952 -129.8692595077981
3953 -129.8068914655308
3954 -129.8524448456461
3955 -129.801061586635
3956 -129.8505668207908
3957 -129.8108363956173
3958 -129.8486966588268
3959 -129.8099556613117
3960 -129.8593129686338
3961 -129.8089348205221
3962 -129.8586076227896
3963 -129.8083114171521
3964 -129.8577286535318
3965 -129.8133856105342
3966 -129.8613862696866
3967 -129.81293144568
3968 -129.8579320695407
3969 -129.8035972613116
3970 -129.849420575579
3971 -129.8134189823882
3972 -129.8581142977367
3973 -129.8196131152315
3974 -129.8573137219184
3975 -129.8174688413465
3976 -129.8571839951039
3977 -129.8044022620387
3978 -129.8519016551677
3979 -129.8125098791272
3980 -129.8685620080633
3981 -129.8252365850674
3982 -129.8748156967922
3983 -129.8226042777823
3984 -129.8805927175989
3985 -129.8160285844868
3986 -129.8789408792772
3987 -129.8221608569183
3988 -129.8828796251114
3989 -129.8230842056498
3990 -129.8880333967423
3991 -129.819471844448
3992 -129.8898017734707
3993 -129.8141430243484
3994 -129.8807028484922
3995 -129.8209028554233
3996 -129.8897956866926
3997 -129.8250175387918
3998 -129.8846012401486
3999 -129.8308269563883
4000 -129.8874633795981
4001 -129.8231596238329
4002 -129.8817981975845
4003 -129.8285667668913
4004 -129.8767736769675
4005 -129.8193991334364
4006 -129.8638605571918
4007 -129.8222464105943
4008 -129.8651785404209
4009 -129.8146012370609
4010 -129.8519585260482
4011 -129.8189783353168
4012 -129.8618360086048
4013 -129.8275942712432
4014 -129.8644785228395
4015 -129.8296592304906
4016 -129.8789022397407
4017 -129.8227153058687
4018 -129.8632036097545
4019 -129.8292364373922
4020 -129.8707874413046
4021 -129.8253216501242
4022 -129.8727942342807
4023 -129.8364826648317
4024 -129.8790954732236
4025 -129.8285656447249
4026 -129.872043750268
4027 -129.8273283782568
4028 -129.8752697413974
4029 -129.8314413536859
4030 -129.8739076119485
4031 -129.8292754012881
4032 -129.883689016215
4033 -129.8234042801295
4034 -129.8799613484208
4035 -129.8308099284195
4036 -129.8870665812895
4037 -129.840631639193
4038 -129.8872460984569
4039 -129.8368239150416
4040 -129.8847233287772
4041 -129.8273870606223
4042 -129.8725709170434
4043 -129.8242999796561
4044 -129.8655696614489
4045 -129.8114628242986
4046 -129.8596915904491
4047 -129.8071689403912
4048 -129.8546329670357
4049 -129.7966516600734
4050 -129.8490071756259
4051 -129.8013087135228
4052 -129.8598108916963
4053 -129.8115135265922
4054 -129.8600993551461
4055 -129.8158541791314
4056 -129.8686685382977
4057 -129.8080900785154
4058 -129.8668361242667
4059 -129.8207955264951
4060 -129.8770822921896
4061 -129.8254173233482
4062 -129.8753719981899
4063 -129.8310050403436
4064 -129.876649738251
4065 -129.815854892492
4066 -129.8605292195698
4067 -129.8149725482528
4068 -129.8648849858107
4069 -129.8223124944693
4070 -129.8664125904527
4071 -129.8231209482266
4072 -129.8663654206042
4073 -129.8174927320263
4074 -129.8555907897449
4075 -129.8167246517113
4076 -129.8554794502071
4077 -129.8152564287685
4078 -129.8535873175276
4079 -129.8224177837588
4080 -129.8659218822283
4081 -129.8158070165923
4082 -129.8529921784848
4083 -129.8121195642094
4084 -129.8565138549536
4085 -129.8117400902293
4086 -129.8557892150376
4087 -129.8107232918182
4088 -129.8558077893285
4089 -129.8030584828601
4090 -129.849311384214
4091 -129.8087997526828
4092 -129.8612384226188
4093 -129.8118928806332
4094 -129.8703327208212
4095 -129.8205667111954
4096 -129.8701153613707
4097 -129.8091151189975
4098 -129.8594562459919
4099 -129.8080732926431
4100 -129.8675966760479
4101 -129.810736226159
4102 -129.8658269123027
4103 -129.8103979989411
4104 -129.8686485934908
4105 -129.7973470735579
4106 -129.8555225754798
4107 -129.7965024038757
4108 -129.8569676077647
4109 -129.799870649681
4110 -129.8612999676157
4111 -129.8064736197601
4112 -129.8682553288191
4113 -129.8052530931399
4114 -129.8605778719646
4115 -129.8046822568197
4116 -129.8595487218925
4117 -129.8083673062757
4118 -129.8629182999057
4119 -129.8171710286506
4120 -129.8676603839315
4121 -129.81446454498
4122 -129.8649873903533
4123 -129.8259250145748
4124 -129.8770404211962
4125 -129.8281949250195
4126 -129.870427672794
4127 -129.8363321475667
4128 -129.878751743232
4129 -129.8266428366049
4130 -129.8657858871301
4131 -129.8263874237148
4132 -129.8714100815128
4133 -129.832199277499
4134 -129.8661662722525
4135 -129.8252462942419
4136 -129.8668219207687
4137 -129.8167058355533
4138 -129.8567843055062
4139 -129.8203576317911
4140 -129.8679768327853
4141 -129.8232597384853
4142 -129.8694477966363
4143 -129.8259431985684
4144 -129.8762009306282
4145 -129.8082006697529
4146 -129.8677197556892
4147 -129.813220761853
4148 -129.8701487160967
4149 -129.8160060264469
4150 -129.870757935748
4151 -129.8231525894192
4152 -129.8770490465295
4153 -129.8139246045786
4154 -129.8731052664748
4155 -129.8248877215902
4156 -129.8771694916621
4157 -129.8295267175593
4158 -129.87629476305
4159 -129.8347688931269
4160 -129.8822899479809
4161 -129.827659615866
4162 -129.8700988349175
4163 -129.8317801380233
4164 -129.8623866043873
4165 -129.8236263338888
4166 -129.8651385454112
4167 -129.8307841243066
4168 -129.8570911461149
4169 -129.8135056536033
4170 -129.8539083786366
4171 -129.8193499550826
4172 -129.8583345866907
4173 -129.8251078558363
4174 -129.8615034996535
4175 -129.8244996215105
4176 -129.8688744916273
4177 -129.8146706316613
4178 -129.8641302877334
4179 -129.8265450984215
4180 -129.8753663729661
4181 -129.8398531960521
4182 -129.8812715596502
4183 -129.8372675894297
4184 -129.8832202743975
4185 -129.8245422434112
4186 -129.8706312932792
4187 -129.8269598030829
4188 -129.877191366047
4189 -129.8300157227881
4190 -129.869833448861
4191 -129.8238329818068
4192 -129.8689464308271
4193 -129.8156978217285
4194 -129.8654489358883
4195 -129.8188878319637
4196 -129.8670910340759
4197 -129.824109243436
4198 -129.8640341393817
4199 -129.8271772467727
4200 -129.8733188961196
4201 -129.8140327148316
4202 -129.8647362728343
4203 -129.8147207785547
4204 -129.8725796796743
4205 -129.8230870170729
4206 -129.8673021173226
4207 -129.8194046698802
4208 -129.8727614289604
4209 -129.8103514620295
4210 -129.8649643947306
4211 -129.8174853600076
4212 -129.8679346196198
4213 -129.8180285502931
4214 -129.8660815214553
4215 -129.8144288249499
4216 -129.8611344307732
4217 -129.8016605982606
4218 -129.8533925967097
4219 -129.8098665580112
4220 -129.8641055106139
4221 -129.820493020334
4222 -129.8629911149135
4223 -129.8215896227191
4224 -129.8620287883318
4225 -129.8025239582412
4226 -129.8519216116579
4227 -129.8112646140609
4228 -129.8519098890937
4229 -129.8167244674013
4230 -129.8605750570319
4231 -129.8185935578364
4232 -129.8681998028464
4233 -129.8182898730498
4234 -129.8673933963092
4235 -129.830840897503
4236 -129.8763167194946
4237 -129.8298348303727
4238 -129.8789762779153
4239 -129.8300148219679
4240 -129.8812403234521
4241 -129.8183505787024
4242 -129.876320824513
4243 -129.825968278997
4244 -129.8782765267337
4245 -129.8175830503481
4246 -129.871591502405
4247 -129.8192782537224
4248 -129.8728508386774
4249 -129.8076594244205
4250 -129.8642023081047
4251 -129.8111187058934
4252 -129.8744909112315
4253 -129.8225546178604
4254 -129.8783396473889
4255 -129.8192934196017
4256 -129.885364621512
4257 -129.8163532780832
4258 -129.8787503266192
4259 -129.82178903191
4260 -129.8896085547199
4261 -129.8179159262485
4262 -129.8818759028714
4263 -129.8159762313548
4264 -129.8831891910301
4265 -129.8054146018213
4266 -129.8724403563144
4267 -129.8126783606517
4268 -129.8776014542383
4269 -129.8174511311114
4270 -129.8741850322608
4271 -129.8199442061069
4272 -129.8794458875011
4273 -129.8121560300364
4274 -129.8756216420599
4275 -129.8230694937635
4276 -129.8819968117772
4277 -129.8289032637882
4278 -129.8746129651354
4279 -129.8316826432269
4280 -129.8922606368794
4281 -129.8341841486817
4282 -129.8752284486008
4283 -129.8336885191255
4284 -129.881695862958
4285 -129.8304471794511
4286 -129.8784651697116
4287 -129.8259447403246
4288 -129.8716961017045
4289 -129.8175341755909
4290 -129.8633574714159
4291 -129.8217574949383
4292 -129.8637374618345
4293 -129.8225007058899
4294 -129.8650336476616
4295 -129.8245649271819
4296 -129.8656628624766
4297 -129.8160702152063
4298 -129.8658401345029
4299 -129.822499720743
4300 -129.8685117202896
4301 -129.8235620370203
4302 -129.8660406471729
4303 -129.8213666971127
4304 -129.8707886505513
4305 -129.8118436191089
4306 -129.8605392392217
4307 -129.8154946183442
4308 -129.8681104077637
4309 -129.8211733162621
4310 -129.8682740881274
4311 -129.8185737457556
4312 -129.8674217920854
4313 -129.8095088224322
4314 -129.8639872326265
4315 -129.8057012261233
4316 -129.8607010700548
4317 -129.8122539686024
4318 -129.8652201091664
4319 -129.8225388839594
4320 -129.8752082894579
4321 -129.8171120280323
4322 -129.865612072737
4323 -129.8218236634258
4324 -129.865346652228
4325 -129.8237065407017
4326 -129.8596569866039
4327 -129.8174273234545
4328 -129.863902794832
4329 -129.8208153345075
4330 -129.8574777142124
4331 -129.8272049906765
4332 -129.8640597859745
4333 -129.8333191328793
4334 -129.8633122261886
4335 -129.8359541621617
4336 -129.8653612101664
4337 -129.8270044992352
4338 -129.8540660707236
4339 -129.8247074397196
4340 -129.8611315515269
4341 -129.8311807736744
4342 -129.8582899565015
4343 -129.8276653847184
4344 -129.8616632890937
4345 -129.8170360888305
4346 -129.8560289315471
4347 -129.8205509978966
4348 -129.8532615150142
4349 -129.8166051307706
4350 -129.8557331505216
4351 -129.811122160663
4352 -129.8608510495222
4353 -129.8076189674844
4354 -129.8606336608911
4355 -129.8077719039837
4356 -129.8714160840962
4357 -129.8159340406451
4358 -129.8765898037035
4359 -129.8197931897348
4360 -129.8892248044576
4361 -129.8227638180488
4362 -129.8896481233575
4363 -129.8299729900116
4364 -129.8938149401796
4365 -129.8284483493116
4366 -129.8861018287659
4367 -129.8276368674322
4368 -129.8825795553872
4369 -129.8155011330576
4370 -129.8742272181974
4371 -129.8163772331636
4372 -129.8717706838519
4373 -129.8216490352764
4374 -129.8745226377994
4375 -129.8268823107319
4376 -129.8761614233128
4377 -129.8211223032285
4378 -129.8683169813086
4379 -129.8227452162238
4380 -129.8700856325521
4381 -129.8287870419331
4382 -129.8671143320909
4383 -129.8211553170365
4384 -129.8715859482422
4385 -129.816513611581
4386 -129.861009380158
4387 -129.8088908151151
4388 -129.8588890778124
4389 -129.814548044575
4390 -129.8607865089774
4391 -129.8122840094348
4392 -129.8660213025022
4393 -129.8038871734397
4394 -129.8715252986493
4395 -129.8176407917242
4396 -129.8769830268245
4397 -129.8233004617248
4398 -129.880441169751
4399 -129.8239016769239
4400 -129.8791237266972
4401 -129.8179949342679
4402 -129.8675832498081
4403 -129.8169836894763
4404 -129.873064341447
4405 -129.8202798743852
4406 -129.8736792876216
4407 -129.825088180028
4408 -129.8767085279559
4409 -129.8196114752711
4410 -129.8701204264951
4411 -129.8259907151305
4412 -129.8848284216511
4413 -129.8432646217909
4414 -129.88401666802
4415 -129.8408637830238
4416 -129.8920949255738
4417 -129.8357714382796
4418 -129.8848766584017
4419 -129.8371640717683
4420 -129.8861123370231
4421 -129.8421541064345
4422 -129.8834959361354
4423 -129.8369988644227
4424 -129.8841601794089
4425 -129.8182376981708
4426 -129.8710243779863
4427 -129.8141190321685
4428 -129.8644145884863
4429 -129.8166011809406
4430 -129.8639841692358
4431 -129.8155441928124
4432 -129.8685838628503
4433 -129.8119790674838
4434 -129.8604550837769
4435 -129.8081843154726
4436 -129.8603671743511
4437 -129.815367940925
4438 -129.858423627421
4439 -129.8192376079994
4440 -129.8664174608664
4441 -129.8145302614132
4442 -129.8608524659
4443 -129.8184076124589
4444 -129.856791507938
4445 -129.8222532752223
4446 -129.8602097492207
4447 -129.8246294041284
4448 -129.8602658877448
4449 -129.813766683802
4450 -129.8568082146821
4451 -129.8228575290723
4452 -129.8619581030379
4453 -129.8254249421543
4454 -129.8575568945649
4455 -129.8211245593011
4456 -129.8513726916059
4457 -129.8068523237506
4458 -129.8453988236822
4459 -129.8084136397308
4460 -129.8611533467109
4461 -129.8229945067387
4462 -129.8603133637478
4463 -129.8186574400159
4464 -129.8676942518585
4465 -129.8116644401456
4466 -129.854656115697
4467 -129.817675207274
4468 -129.8579110659946
4469 -129.8161453700763
4470 -129.8643255997489
4471 -129.8273893223204
4472 -129.8713050960302
4473 -129.8197324390829
4474 -129.8609791391324
4475 -129.819345226145
4476 -129.8676077787374
4477 -129.8204780477503
4478 -129.8662540623592
4479 -129.8240160684307
4480 -129.8799604319546
4481 -129.8174408775993
4482 -129.874418734443
4483 -129.8193049907284
4484 -129.8786490124528
4485 -129.8193247721957
4486 -129.8698433245094
4487 -129.8182893580396
4488 -129.8712787848451
4489 -129.8112722908027
4490 -129.8623297457251
4491 -129.8197836648823
4492 -129.876534420482
4493 -129.8293723868356
4494 -129.872009380911
4495 -129.823234768399
4496 -129.8714234647992
4497 -129.8143954281105
4498 -129.86435187605
4499 -129.8169405202446
4500 -129.8717160828896
4501 -129.8225418098505
4502 -129.8703235640382
4503 -129.8267268386156
4504 -129.8767343657881
4505 -129.8248359959899
4506 -129.8696100880824
4507 -129.8195959817658
4508 -129.8709318514368
4509 -129.8297253185319
4510 -129.8698352464199
4511 -129.8257541620926
4512 -129.8791976229809
4513 -129.8272852003429
4514 -129.8754416277066
4515 -129.8304026135213
4516 -129.8818690693628
4517 -129.8339056734297
4518 -129.8854751599999
4519 -129.8353826382229
4520 -129.8861794429095
4521 -129.8251887577859
4522 -129.8821255388025
4523 -129.827270945333
4524 -129.8800036389759
4525 -129.8251284527564
4526 -129.871646137233
4527 -129.8185562767181
4528 -129.8693219058985
4529 -129.8089871806587
4530 -129.8679942331583
4531 -129.8158019071086
4532 -129.8731396613563
4533 -129.8272092482592
4534 -129.8738990530775
4535 -129.8178765399408
4536 -129.8789146528179
4537 -129.8184474519113
4538 -129.8798960965656
4539 -129.8226526315099
4540 -129.8817570337803
4541 -129.8287210859331
4542 -129.8850042270203
4543 -129.8279632150446
4544 -129.8881298594232
4545 -129.8219039163081
4546 -129.8785859793095
4547 -129.8212722866893
4548 -129.8762681890588
4549 -129.8243563201659
4550 -129.8803458744728
4551 -129.827979413784
4552 -129.8750082235302
4553 -129.8220869597702
4554 -129.8675528168022
4555 -129.8158879379965
4556 -129.8673392412068
4557 -129.8261266335908
4558 -129.8654383098751
4559 -129.8259894132116
4560 -129.869112234383
4561 -129.8192752719678
4562 -129.856768128012
4563 -129.8183034849001
4564 -129.8543321786247
4565 -129.817547356502
4566 -129.8434175497152
4567 -129.8056154356959
4568 -129.8498112352709
4569 -129.8003815511535
4570 -129.8419677737927
4571 -129.7996461540249
4572 -129.8519816710555
4573 -129.8042187844376
4574 -129.8589998276171
4575 -129.8077249415268
4576 -129.8624284170892
4577 -129.8028053738876
4578 -129.8618593203994
4579 -129.8108620355456
4580 -129.8683323483162
4581 -129.8131920465755
4582 -129.8701396839386
4583 -129.8187216224143
4584 -129.8785915320303
4585 -129.8071175969373
4586 -129.8665331162948
4587 -129.8045522667781
4588 -129.8638543740689
4589 -129.8105471877953
4590 -129.8726537838345
4591 -129.8154791810278
4592 -129.8726093368161
4593 -129.8093790303658
4594 -129.8637082270091
4595 -129.8086368396326
4596 -129.8640402767946
4597 -129.8148255348152
4598 -129.8625900272771
4599 -129.8222599753812
4600 -129.8616164305128
4601 -129.8090400877843
4602 -129.8523814309698
4603 -129.8094275946169
4604 -129.851229771647
4605 -129.816844461916
4606 -129.8472536706959
4607 -129.8148508275175
4608 -129.8478709692476
4609 -129.8047110081737
4610 -129.844537207361
4611 -129.8104973853138
4612 -129.8541681011209
4613 -129.819143817359
4614 -129.857486471701
4615 -129.8226933089639
4616 -129.8640382453065
4617 -129.8137342620459
4618 -129.8539708028933
4619 -129.8238320068534
4620 -129.8717330971862
4621 -129.8298409793124
4622 -129.8755817523698
4623 -129.8346137241089
4624 -129.878244663604
4625 -129.8180973277807
4626 -129.8686253794507
4627 -129.8187624966037
4628 -129.870441463283
4629 -129.823848592126
4630 -129.8655707881333
4631 -129.8265282950466
4632 -129.8759862847532
4633 -129.8219222531455
4634 -129.8720817771492
4635 -129.8243861732649
4636 -129.8649384583878
4637 -129.8199779360557
4638 -129.8632001380948
4639 -129.813007141515
4640 -129.8659177493783
4641 -129.8025960915346
4642 -129.8569051892246
4643 -129.8086865068443
4644 -129.8665341735083
4645 -129.8157686040177
4646 -129.8716452366963
4647 -129.8207990979228
4648 -129.8689208840392
4649 -129.8150790303258
4650 -129.8688749304093
4651 -129.8200667432461
4652 -129.8760035904324
4653 -129.8332631772281
4654 -129.8825833546024
4655 -129.8349972352131
4656 -129.8855842387527
4657 -129.8229907683291
4658 -129.8770090201281
4659 -129.8271140156863
4660 -129.880125182427
4661 -129.834680605018
4662 -129.8809598093438
4663 -129.830334525271
4664 -129.8774170079975
4665 -129.8152466206911
4666 -129.8665003332694
4667 -129.8238222435698
4668 -129.8708068960613
4669 -129.8278271800436
4670 -129.8714817178259
4671 -129.832220021073
4672 -129.8727508256696
4673 -129.823631410672
4674 -129.8631983928533
4675 -129.8248936844712
4676 -129.8744396358007
4677 -129.8334584667713
4678 -129.8720573740652
4679 -129.8312633378951
4680 -129.8866341526748
4681 -129.822254221231
4682 -129.8802286920991
4683 -129.8266084551728
4684 -129.8856303746388
4685 -129.8284922772264
4686 -129.8879937171108
4687 -129.8290179045729
4688 -129.8947269724649
4689 -129.8234910684875
4690 -129.8863465467941
4691 -129.8252423994875
4692 -129.8894327942466
4693 -129.8236966912721
4694 -129.8871196458636
4695 -129.8242958424297
4696 -129.8869184256841
4697 -129.8152113006208
4698 -129.8867916727589
4699 -129.8290090693552
4700 -129.8944620847398
4701 -129.8366214525901
4702 -129.8826070952503
4703 -129.8334668723006
4704 -129.8795069724734
4705 -129.8156484617587
4706 -129.8656662273522
4707 -129.8209531140379
4708 -129.8564515025465
4709 -129.8261092735217
4710 -129.8600416992858
4711 -129.8284441561938
4712 -129.8629183837239
4713 -129.8209761406453
4714 -129.8521174088125
4715 -129.8232156236222
4716 -129.8593159802105
4717 -129.8332464872097
4718 -129.8635174763969
4719 -129.8376150120814
4720 -129.8758372224102
4721 -129.8298636144697
4722 -129.8664001468989
4723 -129.826807943904
4724 -129.8750995924882
4725 -129.8353234230261
4726 -129.8732445927376
4727 -129.8348085955803
4728 -129.875317004892
4729 -129.8211431604639
4730 -129.8761145587711
4731 -129.8241616036629
4732 -129.8773067069562
4733 -129.8245028053732
4734 -129.8744797383691
4735 -129.8182929660415
4736 -129.8763467445312
4737 -129.807905010069
4738 -129.8617544985501
4739 -129.8167284055119
4740 -129.8718040909519
4741 -129.8181856735203
4742 -129.8734789827255
4743 -129.82244483494
4744 -129.8739383919504
4745 -129.8164884344193
4746 -129.8589405219855
4747 -129.8102270537383
4748 -129.8664319310511
4749 -129.8196147943093
4750 -129.8634522104593
4751 -129.8174138274724
4752 -129.8750294241045
4753 -129.825663451128
4754 -129.8718389292074
4755 -129.8268714147394
4756 -129.8732006035801
4757 -129.8323435180481
4758 -129.8718606712317
4759 -129.8262253523881
4760 -129.8721686451959
4761 -129.8223389398996
4762 -129.8575162001062
4763 -129.8109490105507
4764 -129.8594212290002
4765 -129.8166560674719
4766 -129.8601568228033
4767 -129.8123027806346
4768 -129.8561270199999
4769 -129.810830182146
4770 -129.8578822049514
4771 -129.8130740236967
4772 -129.8643032371278
4773 -129.8179187485666
4774 -129.8622564192105
4775 -129.8219521141747
4776 -129.8697182456023
4777 -129.8178270110229
4778 -129.8667906287442
4779 -129.8230962226773
4780 -129.8680786634378
4781 -129.8265649591901
4782 -129.8658977624868
4783 -129.8266664195395
4784 -129.8741796878462
4785 -129.811288492856
4786 -129.8640070882652
4787 -129.8155248158471
4788 -129.8703042886586
4789 -129.8169523615211
4790 -129.8737146887885
4791 -129.8219266477061
4792 -129.8794784983643
4793 -129.8192589899825
4794 -129.8757167035628
4795 -129.8258534008712
4796 -129.8840899908357
4797 -129.8347082675151
4798 -129.8841527396365
4799 -129.8360769017537
4800 -129.8876608417639
4801 -129.8239821349614
4802 -129.8725735627323
4803 -129.8221982371273
4804 -129.8684517545644
4805 -129.8179939609503
4806 -129.8658363679914
4807 -129.8214985521421
4808 -129.8589599435382
4809 -129.8119070730349
4810 -129.8533147132225
4811 -129.8157659778018
4812 -129.8571672550388
4813 -129.8201839247765
4814 -129.8566432440243
4815 -129.8208660392282
4816 -129.860616300314
4817 -129.8139324251238
4818 -129.8543826895434
4819 -129.8152662944318
4820 -129.8674654292992
4821 -129.8263593208519
4822 -129.8697137488673
4823 -129.8285141232615
4824 -129.8826343496976
4825 -129.8189740632961
4826 -129.8717777345208
4827 -129.8204854604521
4828 -129.8735683537928
4829 -129.8245819124436
4830 -129.8777962859915
4831 -129.8269550553321
4832 -129.8769122069433
4833 -129.8116821921894
4834 -129.8621179827471
4835 -129.8110809608818
4836 -129.8598968175579
4837 -129.8065885987398
4838 -129.851727647794
4839 -129.8069002042737
4840 -129.8587514497415
4841 -129.800000863641
4842 -129.8551018559131
4843 -129.8010239276711
4844 -129.8654454180709
4845 -129.8172764512805
4846 -129.8675202311413
4847 -129.82184765245
4848 -129.8732616723462
4849 -129.8169358891091
4850 -129.8725473598599
4851 -129.8215141055708
4852 -129.873542330144
4853 -129.8320303734132
4854 -129.8734689434867
4855 -129.8285621950497
4856 -129.8716068103721
4857 -129.8177206799799
4858 -129.8543065544775
4859 -129.820843590568
4860 -129.8667087857262
4861 -129.8282777751922
4862 -129.8724469865144
4863 -129.8295304510316
4864 -129.8653539195494
4865 -129.8192337946035
4866 -129.8617540878084
4867 -129.8191883846627
4868 -129.8593183750102
4869 -129.825202625
4870 -129.8560187528846
4871 -129.8250423698367
4872 -129.8723068295091
4873 -129.820710327261
4874 -129.8644038218353
4875 -129.8181957318172
4876 -129.8662580907592
4877 -129.822340627491
4878 -129.8706113588658
4879 -129.8241429371314
4880 -129.8748725155407
4881 -129.8172902655859
4882 -129.8649870844758
4883 -129.8221689627592
4884 -129.8713415394502
4885 -129.8270367681501
4886 -129.8684551306624
4887 -129.8246693559591
4888 -129.8678872740215
4889 -129.8173353166895
4890 -129.8630933525417
4891 -129.8226502048235
4892 -129.8708777948217
4893 -129.8334560110416
4894 -129.8764516894741
4895 -129.8404249170432
4896 -129.8901792276284
4897 -129.8311079434553
4898 -129.8795406146805
4899 -129.8364718281141
4900 -129.8913707653089
4901 -129.8461687497167
4902 -129.8853714362564
4903 -129.8414983286926
4904 -129.8882665443753
4905 -129.8273862830098
4906 -129.8758472438291
4907 -129.8251629026394
4908 -129.8728167172555
4909 -129.8272901281263
4910 -129.877827773634
4911 -129.8274793574571
4912 -129.8732863710115
4913 -129.8163988123629
4914 -129.863858117918
4915 -129.8156898692658
4916 -129.8633113826837
4917 -129.8204214852645
4918 -129.8599179204965
4919 -129.8256645223628
4920 -129.872412872326
4921 -129.8226204945806
4922 -129.8647715415247
4923 -129.8227256771377
4924 -129.8656664490528
4925 -129.824397270955
4926 -129.8640287708178
4927 -129.8216784355028
4928 -129.8642507745458
4929 -129.8140861176393
4930 -129.8540727196629
4931 -129.8132501994745
4932 -129.8575174839943
4933 -129.8156166815972
4934 -129.8656054644052
4935 -129.8193959961606
4936 -129.8674998976783
4937 -129.8114828950634
4938 -129.8683456343659
4939 -129.8195593446928
4940 -129.875887362693
4941 -129.8266609843813
4942 -129.8737370039712
4943 -129.8175876420911
4944 -129.8737838536993
4945 -129.8132523074479
4946 -129.8690321324365
4947 -129.8122085036836
4948 -129.8746465681442
4949 -129.816009729489
4950 -129.8705935510369
4951 -129.8086184560697
4952 -129.8737862925697
4953 -129.8034169112863
4954 -129.8719660434874
4955 -129.8062031410506
4956 -129.8707622665563
4957 -129.8131054753152
4958 -129.8713134080049
4959 -129.8198999274288
4960 -129.8803754991273
4961 -129.8122656580425
4962 -129.8708612513064
4963 -129.8182179773642
4964 -129.8755575367756
4965 -129.8217484665682
4966 -129.8703629445364
4967 -129.8184127481634
4968 -129.8721492591843
4969 -129.8150672700078
4970 -129.8684368937998
4971 -129.8249845575315
4972 -129.8784477257244
4973 -129.8312210707645
4974 -129.8725351943527
4975 -129.819436265658
4976 -129.8643616984307
4977 -129.804175598005
4978 -129.851834364465
4979 -129.8060676258001
4980 -129.8557113854135
4981 -129.8069380303936
4982 -129.8531877484936
4983 -129.8088528215408
4984 -129.8512721876968
4985 -129.7966288248816
4986 -129.8530610579495
4987 -129.7994257836326
4988 -129.8479677126514
4989 -129.8082342157973
4990 -129.8555463462945
4991 -129.812870037154
4992 -129.8603657950479
4993 -129.8102909481013
4994 -129.8568258222782
4995 -129.8192519948675
4996 -129.8616151283571
4997 -129.8259945332543
4998 -129.8583438172605
4999 -129.8231203917664
5000 -129.8684097062734
5001 -129.8212045396212
5002 -129.8620961255219
5003 -129.82977654652
5004 -129.8680440257725
5005 -129.8315273892126
5006 -129.8670513690683
5007 -129.8322888913949
5008 -129.8699596164216
5009 -129.8218858263237
5010 -129.8654934062119
5011 -129.8246374099306
5012 -129.8723865165616
5013 -129.8299836100648
5014 -129.8781914595923
5015 -129.83084347125
5016 -129.8775960989005
5017 -129.8187761527818
5018 -129.8640161090533
5019 -129.8162660165771
5020 -129.8683014283996
5021 -129.8261203873579
5022 -129.8727210983488
5023 -129.8232513519406
5024 -129.8786113069476
5025 -129.823988277879
5026 -129.8665069136422
5027 -129.8246335997086
5028 -129.867041109866
5029 -129.8244679969981
5030 -129.8660449132974
5031 -129.8263210776522
5032 -129.8695505997767
5033 -129.821750288064
5034 -129.8762368049313
5035 -129.8276319832464
5036 -129.8801131304652
5037 -129.8380172814242
5038 -129.8892037282558
5039 -129.846678745471
5040 -129.8933967169773
5041 -129.8328008317889
5042 -129.8770663719719
5043 -129.8268633640916
5044 -129.8755741884523
5045 -129.822801041181
5046 -129.8703867128731
5047 -129.8224696104994
5048 -129.8710231533311
5049 -129.8129052046017
5050 -129.8597149959384
5051 -129.8116080843515
5052 -129.8659877210423
5053 -129.8210329119449
5054 -129.8606784003399
5055 -129.8150321383978
5056 -129.862371752812
5057 -129.8078719204352
5058 -129.8624859080115
5059 -129.8117524727565
5060 -129.8623955049235
5061 -129.8163564516759
5062 -129.8683169743774
5063 -129.8204235645711
5064 -129.8748047628743
5065 -129.8070717049043
5066 -129.8694299215786
5067 -129.8078021672936
5068 -129.8711719012077
