"mz-rfile"
"Iteration" "mz"
("Iteration" "mz")
1 -2700.099042738785
2 -2568.599977312056
3 -2129.126623034769
4 -1752.699876256136
5 -1253.003380503191
6 -921.6430902879315
7 -664.7919576998745
8 -414.0925600019864
9 -197.7276810290036
10 27.15783034154297
11 254.0374798929478
12 445.6600273766472
13 556.4283677209504
14 620.2857767589667
15 635.9954192475358
16 618.4859979967307
17 578.4164532776031
18 524.0642622231752
19 459.3348447125908
20 389.9197201968827
21 328.4620338977149
22 268.2764753703236
23 214.664836003936
24 167.659893545392
25 130.7712886528278
26 99.44816956022345
27 78.17732165140509
28 64.62658194904512
29 60.44550729903161
30 62.03967491488617
31 68.09644534321286
32 77.47935963481569
33 87.32015565870458
34 96.65655706522807
35 106.3747540967665
36 115.6030613448622
37 123.043246532898
38 128.7279704940767
39 133.9486240414521
40 138.5360334209639
41 142.2906428721377
42 145.0424414309236
43 147.3154813724084
44 148.8761348018886
45 149.3450226727401
46 148.9216919451917
47 147.8276688741718
48 146.3709337641464
49 144.3471461023541
50 142.4806888631444
51 140.5686024924368
52 138.8699460660404
53 137.3181352577082
54 136.0407911569682
55 134.8287189969787
56 133.9661453729196
57 133.1673648656009
58 132.6340126233921
59 132.0570263151648
60 131.6134323039001
61 131.182789205609
62 130.8466887401742
63 130.6902717186815
64 130.6147845053465
65 130.674514894311
66 130.8155272533997
67 131.0667498738802
68 131.2984006489905
69 131.591439139996
70 131.8226516517985
71 132.1537203192764
72 132.4088396737206
73 132.7307768810099
74 132.8998513012602
75 133.1410287486498
76 133.3732822820101
77 133.6702307382695
78 133.9399226911411
79 134.2879523711535
80 134.4820180008077
81 134.8692845288437
82 135.087403545494
83 135.5424767536186
84 135.8004938984582
85 136.2941472151028
86 136.759470121919
87 137.2944169970284
88 137.8154446800934
89 138.3894155281683
90 138.9258638722509
91 139.5055637448834
92 140.0443298888025
93 140.6162770259897
94 141.1489664690499
95 141.7078400238692
96 142.2169153759179
97 142.7878438999287
98 143.1078915031809
99 143.7182437927119
100 144.0715833973689
101 144.4987419854488
102 144.8801659037857
103 145.3512173248997
104 145.7899295831452
105 146.3200338491115
106 146.814786773328
107 147.3926045628695
108 147.9468416802663
109 148.5979821651134
110 149.2090547547138
111 149.927349339354
112 150.6132901576808
113 151.3777969686743
114 152.1019342984799
115 152.9023361137262
116 153.6513864464669
117 154.4893196236439
118 155.2603790122083
119 156.1233966018573
120 156.9066433112521
121 157.7655619309828
122 158.5522911108049
123 159.4166753791122
124 160.2321685837976
125 161.1104221341209
126 161.9437841357067
127 162.8411650054149
128 163.6860685643822
129 164.5917870682487
130 165.4478786029635
131 166.3634269031564
132 167.2245269712494
133 168.1578676600833
134 169.0394667756191
135 169.9788021543906
136 170.8670002583778
137 171.8411330818841
138 172.7564603005447
139 173.7463755850752
140 174.6701120912753
141 175.6771603027792
142 176.6197454801014
143 177.6306070777786
144 178.5737994699497
145 179.6085712516733
146 180.57614067677
147 181.6030135413543
148 182.5686182531722
149 183.6101681399307
150 184.5985312771245
151 185.6455550311568
152 186.6367559199934
153 187.6925172801637
154 188.678254132191
155 189.7175278802599
156 190.7041490351554
157 191.7406190243078
158 192.7108867063465
159 193.7153580385922
160 194.6620966611526
161 195.6351663737814
162 196.5624977140048
163 197.5162799308926
164 198.4040740414437
165 199.3245311323558
166 200.1777044971243
167 201.0553837667872
168 201.8642636247667
169 202.6868983985524
170 203.4503692347793
171 204.2321673636193
172 204.9405094481629
173 205.6781404403253
174 206.3422953405609
175 207.0168947993398
176 207.6242191070125
177 208.2348518407024
178 208.7731992748273
179 209.3188424427622
180 209.7931714360033
181 210.2655753467007
182 210.6687106948193
183 211.0656679418561
184 211.3968160801607
185 211.7253138370716
186 211.9841587598421
187 212.2384114600085
188 212.4308138023964
189 212.616730819071
190 212.7385861892287
191 212.8484941069023
192 212.9019938895244
193 212.9546906331776
194 212.9500464511024
195 212.9343794396385
196 212.8569705836767
197 212.785411928208
198 212.650975227711
199 212.5170894109369
200 212.3253501537623
201 212.1367270977284
202 211.8998133155755
203 211.6688638221843
204 211.3749267389556
205 211.099454858081
206 210.7688564322182
207 210.446554962171
208 210.0816280205238
209 209.7279210186918
210 209.3220685629882
211 208.9321793249264
212 208.5069723581926
213 208.0864365116949
214 207.634875201333
215 207.1911861718185
216 206.721403283423
217 206.2674938452028
218 205.7809384748543
219 205.3100428550296
220 204.8211977143384
221 204.3445703965799
222 203.8580569119221
223 203.3772548569255
224 202.8899725176254
225 202.4128646856662
226 201.9275764754134
227 201.4556306552329
228 200.9827849013229
229 200.532662554066
230 200.0735028522546
231 199.6337386833524
232 199.1910818793096
233 198.773567596554
234 198.3486081381772
235 197.9522699930051
236 197.5473898878789
237 197.1791291744827
238 196.7998931803013
239 196.455705001633
240 196.1018105356328
241 195.7863482336767
242 195.4590973169308
243 195.1695415489418
244 194.8647280748348
245 194.6001213788292
246 194.3267172313736
247 194.0901277139028
248 193.8393350893842
249 193.6323753499057
250 193.4048386599002
251 193.2202134333222
252 193.0141626077806
253 192.8486016121191
254 192.6666803917424
255 192.5205894182388
256 192.3555204578454
257 192.2295242025995
258 192.0774117116453
259 191.9657142435245
260 191.8307251609004
261 191.7313914960256
262 191.6096620529495
263 191.524518822416
264 191.4099969231352
265 191.3387928899735
266 191.2313365086237
267 191.1705490561571
268 191.0680995197108
269 191.0108512466031
270 190.9208002609151
271 190.8745567085805
272 190.7879720194418
273 190.7415128745873
274 190.6585260016996
275 190.6207230459802
276 190.5451799149362
277 190.5095640559684
278 190.4341475175158
279 190.4018874988973
280 190.331430841982
281 190.2984146095594
282 190.2307434950343
283 190.2027494211647
284 190.1391273285679
285 190.1111533990865
286 190.0499601178158
287 190.0259085248469
288 189.970258749104
289 189.9479016802045
290 189.8926985165114
291 189.8691310533946
292 189.8165554114408
293 189.7953049484094
294 189.741087534777
295 189.7188437991043
296 189.6703947696206
297 189.6479690777404
298 189.6016547332277
299 189.5823414098122
300 189.5380456402212
301 189.5244318052629
302 189.479749267702
303 189.46700251641
304 189.4220676551379
305 189.4077335407915
306 189.3629724303588
307 189.3488735200177
308 189.3056195693982
309 189.294049854456
310 189.2504046769936
311 189.2369993473936
312 189.1897481012888
313 189.1810151153511
314 189.1352373946369
315 189.1242486433462
316 189.0773675961703
317 189.0682165299562
318 189.0203259358472
319 189.0117702237137
320 188.9604969707809
321 188.9511792234786
322 188.8992067820665
323 188.8898781782641
324 188.8340124289833
325 188.8244635880045
326 188.7703569311393
327 188.7597458140554
328 188.7042235016801
329 188.6900724061861
330 188.6337125630361
331 188.6177119941352
332 188.5598430670761
333 188.5427183529116
334 188.4874256970516
335 188.4668112004029
336 188.4088145099257
337 188.3903922373111
338 188.3347045767666
339 188.3122861895927
340 188.2553344089106
341 188.2330506181728
342 188.1757374721084
343 188.1510343154815
344 188.090709531658
345 188.0635640018723
346 188.0052578618275
347 187.9757276257465
348 187.92042906282
349 187.8912643038755
350 187.8356487713649
351 187.8070411751794
352 187.7511555661108
353 187.7198224448903
354 187.6638359416864
355 187.6309905351364
356 187.5736310257425
357 187.5417405877705
358 187.4832936089024
359 187.4547875345327
360 187.3934758147329
361 187.3679398961161
362 187.3045527618463
363 187.2788447595396
364 187.2142898410261
365 187.18712611359
366 187.1220316092227
367 187.0965429517489
368 187.033325008331
369 187.0091689541262
370 186.9472905788407
371 186.9219985054522
372 186.8628632281193
373 186.8359319738942
374 186.7787307895231
375 186.7521606207749
376 186.6929687625876
377 186.6668395224855
378 186.6098810820869
379 186.5807313811595
380 186.5261908520473
381 186.4976622065805
382 186.4438478841614
383 186.4164959404006
384 186.361532838794
385 186.3332213140406
386 186.280514464966
387 186.254656123303
388 186.2025335807044
389 186.1756376381395
390 186.1196199903245
391 186.0958872320345
392 186.0402575055816
393 186.018057933301
394 185.9653418369591
395 185.9453356516051
396 185.8898212604157
397 185.8693021601981
398 185.8149713266031
399 185.7943515922026
400 185.7407498028581
401 185.7230917894829
402 185.6710228540829
403 185.6519143088688
404 185.6010914411338
405 185.5844471610403
406 185.5335146638136
407 185.5141883894767
408 185.4620558079591
409 185.4457658089554
410 185.3968122418304
411 185.3796991922934
412 185.3323849298564
413 185.315055575503
414 185.2698546416969
415 185.2482951132243
416 185.2027391048297
417 185.185835771007
418 185.1401368013969
419 185.1211248253911
420 185.0741629869071
421 185.0573979510211
422 185.0130437141863
423 184.9942390672779
424 184.9497322051023
425 184.9355235580003
426 184.8889821091666
427 184.8738939940593
428 184.8283034118203
429 184.8132397692315
430 184.7682167462012
431 184.754204436088
432 184.7058011249751
433 184.6929293146075
434 184.6459798322892
435 184.6308286737883
436 184.5830146694202
437 184.5692776328401
438 184.5258112439685
439 184.5112961968939
440 184.4648026621369
441 184.455219238287
442 184.4079319745331
443 184.392359176232
444 184.3467566545535
445 184.3332656005094
446 184.2894226217349
447 184.2732084029365
448 184.2298537010856
449 184.2153548903155
450 184.1713134199636
451 184.1571089023606
452 184.1136038468755
453 184.1039059574352
454 184.0598493091246
455 184.0467955169278
456 184.0002669043469
457 183.9884925309869
458 183.9452718664206
459 183.931061958784
460 183.8879656279734
461 183.8745951317139
462 183.8338228850473
463 183.8218772956838
464 183.7793879393214
465 183.7717419258676
466 183.7274646026304
467 183.7161258292767
468 183.6727845882672
469 183.6593060692857
470 183.6170701358781
471 183.6079203011008
472 183.5624059328689
473 183.5523131023791
474 183.5079351011798
475 183.4990581326904
476 183.4536224962549
477 183.449844564252
478 183.4049484886129
479 183.3950481874947
480 183.3497055627458
481 183.3396397634851
482 183.2963290875079
483 183.2905290700253
484 183.2447835079485
485 183.2391331563839
486 183.1963387808161
487 183.1893667238754
488 183.1459220393409
489 183.1434219298697
490 183.0977425212957
491 183.0960117907279
492 183.051626122805
493 183.0444911040719
494 183.0031700704589
495 183.000229553129
496 182.9575105989688
497 182.9529822713368
498 182.9118504089432
499 182.9079793733079
500 182.867576482925
501 182.8662243183173
502 182.8302479310138
503 182.8230982198839
504 182.785495717218
505 182.7801410131994
506 182.7445546334637
507 182.7372012486369
508 182.7024736845226
509 182.6967167367337
510 182.6640261172067
511 182.6582656437849
512 182.6246094884381
513 182.6227214945027
514 182.5866661271671
515 182.583683137979
516 182.5457880531887
517 182.5400151580194
518 182.503587775577
519 182.5009193819397
520 182.4621816896017
521 182.4570189124633
522 182.4190276461145
523 182.4167344632242
524 182.3808871886579
525 182.3813807627955
526 182.3429266845186
527 182.3407236203951
528 182.3029165732526
529 182.3021460061217
530 182.2673506403691
531 182.2668381741967
532 182.2297009542002
533 182.2329173363631
534 182.1978411746444
535 182.1987740814323
536 182.1659181918445
537 182.1655493154737
538 182.1329428018535
539 182.1321683875215
540 182.0995717636981
541 182.098402966594
542 182.0698763977032
543 182.0674992099385
544 182.0371978487092
545 182.0409350446111
546 182.0127482645773
547 182.007750580739
548 181.9794502981379
549 181.975371396847
550 181.9456971563914
551 181.9426023457758
552 181.9133455306356
553 181.908586768888
554 181.881103142834
555 181.8777818435365
556 181.8499768439809
557 181.8484329128648
558 181.8205119877047
559 181.8146884447147
560 181.7849408617039
561 181.7846695146043
562 181.754267804164
563 181.7544647870426
564 181.726522603441
565 181.7269706734813
566 181.7034465767943
567 181.7016184399838
568 181.6750027970521
569 181.6780279772023
570 181.6504240667611
571 181.6487021378624
572 181.6222293125745
573 181.6224139679617
574 181.5960180855332
575 181.5959151883718
576 181.5676143176123
577 181.5734291660109
578 181.5454916842111
579 181.5488128211052
580 181.5196256851727
581 181.5200722416046
582 181.4929251211136
583 181.4922523852846
584 181.4659709459964
585 181.4736085906128
586 181.4463983376104
587 181.4473554524191
588 181.4196845529097
589 181.4222981610093
590 181.3981874277605
591 181.3984825106705
592 181.3741142818199
593 181.3805402374822
594 181.3537805360993
595 181.3549946359279
596 181.3306876483163
597 181.3348737185101
598 181.3091456316583
599 181.3119361664577
600 181.287272453259
601 181.2955780532725
602 181.2715309768452
603 181.2737506581451
604 181.2474241492853
605 181.2504618783711
606 181.2270598570341
607 181.227591896405
608 181.2055487078761
609 181.2100189038464
610 181.1887285835129
611 181.1913690227564
612 181.1673272491061
613 181.1692474169819
614 181.1469174881543
615 181.1491360516947
616 181.1266496447871
617 181.1343110283083
618 181.1090702508095
619 181.1117312046583
620 181.086993429809
621 181.0902321001314
622 181.0659346675618
623 181.0715239124791
624 181.0448331225988
625 181.0548268122419
626 181.0295496308267
627 181.033948697325
628 181.0087890461876
629 181.0143250519575
630 180.9921817176757
631 180.9984989263315
632 180.9733241977347
633 180.98660125186
634 180.9607333677293
635 180.9713405805933
636 180.9446726611746
637 180.9534400794496
638 180.9311829475705
639 180.9373213611397
640 180.9141738260862
641 180.9278978622071
642 180.9034061525764
643 180.9122862046687
644 180.8888182680232
645 180.8943982672633
646 180.8719829768484
647 180.8781835934134
648 180.8572637411517
649 180.868010064422
650 180.8477720267146
651 180.8503361429365
652 180.8293148231959
653 180.8330332687471
654 180.8162826481546
655 180.8178349455328
656 180.8013513517864
657 180.8074017664835
658 180.7891985404348
659 180.7893188325401
660 180.7682947388963
661 180.7731472229615
662 180.7552216521959
663 180.7567608504366
664 180.7407708305447
665 180.7494890388346
666 180.7309148936655
667 180.7349512800909
668 180.7144370944995
669 180.719679441369
670 180.7011370231398
671 180.7063662699985
672 180.685389650492
673 180.6965981885787
674 180.6769383671783
675 180.6836993063685
676 180.6636600008931
677 180.6693146535912
678 180.6506339565873
679 180.6550975502455
680 180.6369419325096
681 180.6477829077276
682 180.6303965597576
683 180.6351961633435
684 180.6163633309168
685 180.6248293519112
686 180.607815178526
687 180.6149969767327
688 180.5938831040801
689 180.6073462476213
690 180.5843256343296
691 180.5915695665968
692 180.5711790363661
693 180.5789012741587
694 180.5588036505913
695 180.5670506961473
696 180.5471439352582
697 180.5608370712389
698 180.5384268978607
699 180.5495199386026
700 180.5280367136643
701 180.5392876395508
702 180.5154770589535
703 180.5281247599685
704 180.5046518092712
705 180.5248817009809
706 180.5022381886897
707 180.5122646557527
708 180.4890328256222
709 180.5014238571749
710 180.4822530883245
711 180.4943161982548
712 180.4736695545215
713 180.4872966336454
714 180.465940663645
715 180.475562207404
716 180.4568186891998
717 180.4658135422488
718 180.4491483041452
719 180.4566385121797
720 180.4375389429907
721 180.4503277129199
722 180.4334622626378
723 180.4435322601397
724 180.4242307542915
725 180.4337902840203
726 180.4153017530852
727 180.4258355695307
728 180.4079134239189
729 180.4240980963299
730 180.4015162448189
731 180.41310353827
732 180.3896507989739
733 180.4001216684039
734 180.3798204060809
735 180.3886077836903
736 180.3682907768565
737 180.3828765546518
738 180.3613513679318
739 180.3690948261946
740 180.3476976181661
741 180.3596231128232
742 180.3396366509204
743 180.3483567422369
744 180.3290226034226
745 180.3428312801916
746 180.3242221122148
747 180.333220500231
748 180.3156364634191
749 180.3238234862309
750 180.3060181049984
751 180.3156691141062
752 180.2979998537895
753 180.3141396026759
754 180.2943662253892
755 180.3056814413827
756 180.2845711043045
757 180.2958796218089
758 180.2807815041176
759 180.2904423696497
760 180.272900829702
761 180.2872053833592
762 180.270941147378
763 180.2797080253313
764 180.2635996791565
765 180.2750886082993
766 180.2585143089274
767 180.2665328126288
768 180.2510530065483
769 180.2644472320253
770 180.2467924445632
771 180.2543933294894
772 180.2323033835879
773 180.2423728541205
774 180.2226677461656
775 180.2314003197762
776 180.2133960491761
777 180.2262968593299
778 180.2075664930201
779 180.214834931628
780 180.1947639195225
781 180.2064242579577
782 180.1913536053982
783 180.2002788757857
784 180.185641515542
785 180.20150528427
786 180.1848809834632
787 180.1936802682931
788 180.1788996259972
789 180.1885200546857
790 180.175349024932
791 180.1838748269911
792 180.1700140512026
793 180.1821225187983
794 180.1675608680537
795 180.1765588065753
796 180.1608014709159
797 180.169688408628
798 180.1531768553337
799 180.1614141258717
800 180.1468759730661
801 180.1607470314389
802 180.1430853197845
803 180.1503063690537
804 180.1357716485133
805 180.1487734871912
806 180.1317748881284
807 180.1410934089218
808 180.1246912809452
809 180.1383044312444
810 180.1191673117733
811 180.1288830322071
812 180.1119150580395
813 180.1239822704464
814 180.1078493176315
815 180.1179928861075
816 180.0988291773225
817 180.1154862421765
818 180.098261708004
819 180.1075711797243
820 180.0882721887501
821 180.1018294667317
822 180.0828665855509
823 180.0976611453111
824 180.0800276796592
825 180.0991105300245
826 180.0803213616265
827 180.0939533797248
828 180.0757831266789
829 180.0882321511983
830 180.072333763219
831 180.0847411346819
832 180.0669245442294
833 180.0841578687906
834 180.0666934473132
835 180.0801274696975
836 180.0630226512935
837 180.0747875570804
838 180.0592410595188
839 180.0697658625924
840 180.0529387952324
841 180.0688917597394
842 180.050523980335
843 180.0604996293716
844 180.0423134830211
845 180.0550039469209
846 180.0379965135568
847 180.0493373024357
848 180.0352560513295
849 180.0503604891319
850 180.0332321161588
851 180.0432390431097
852 180.0236345732077
853 180.0351692094184
854 180.0170526506695
855 180.0305521497534
856 180.0123547320842
857 180.0310203646305
858 180.0106537648178
859 180.023792422265
860 180.0073666702595
861 180.0213257831705
862 180.0034909261304
863 180.0175513192507
864 179.998365399333
865 180.0167292092038
866 179.9980288466206
867 180.0128054572689
868 179.9937851838646
869 180.0095215238703
870 179.9901665879513
871 180.0046007599975
872 179.9898863333833
873 180.0091930429705
874 179.9906604976578
875 180.0050683182859
876 179.9875636798326
877 180.0014798645838
878 179.9857636917312
879 179.9969497443795
880 179.9817639596843
881 179.9993555261958
882 179.9802930630532
883 179.994965565836
884 179.977840976135
885 179.9924115747509
886 179.9738035627929
887 179.9876068036407
888 179.9696241939575
889 179.986605436852
890 179.9683042050648
891 179.9821447145118
892 179.9651391523585
893 179.9755959206661
894 179.9595428670594
895 179.9723725926954
896 179.9560769863729
897 179.9724796520215
898 179.953308853226
899 179.9627824198294
900 179.9449363649364
901 179.9579111079151
902 179.9425049413175
903 179.9531196356674
904 179.9390214445285
905 179.9571254507864
906 179.9418305322617
907 179.9528861722661
908 179.9371642538013
909 179.9507316016168
910 179.9356314838537
911 179.9482932224879
912 179.9317143007692
913 179.9503313177506
914 179.9349451175608
915 179.948876336878
916 179.9342905914413
917 179.9444620942831
918 179.9281073289558
919 179.9371485856925
920 179.9224200221942
921 179.9391086419324
922 179.9246523381345
923 179.9340489668888
924 179.916539143602
925 179.9271453205442
926 179.913979917946
927 179.924115234441
928 179.9115369570787
929 179.9252166005168
930 179.9135926565431
931 179.9240690167724
932 179.9109508539826
933 179.9210075396855
934 179.9086668159401
935 179.9180326604742
936 179.9053584624866
937 179.9195644993565
938 179.9082682490493
939 179.9201055127864
940 179.9054785435626
941 179.9173481183869
942 179.9059135712463
943 179.9167621924726
944 179.9051840020627
945 179.9216364684652
946 179.9060102594876
947 179.9189556017821
948 179.9031422828483
949 179.9139592593826
950 179.8966424530022
951 179.909818159654
952 179.8916003109097
953 179.9099284872659
954 179.8882145392965
955 179.9038148489743
956 179.8828986059242
957 179.897873732818
958 179.8789643068352
959 179.8916207859873
960 179.872728411263
961 179.8942020356182
962 179.8754656372763
963 179.8906014022668
964 179.8750009280568
965 179.8909318610597
966 179.8731703470176
967 179.8878672500845
968 179.8734464233299
969 179.8935818269996
970 179.8799158205397
971 179.8940574796399
972 179.8768479722865
973 179.8890335148475
974 179.876775387993
975 179.88860010015
976 179.8748749081113
977 179.8912867954816
978 179.876083430977
979 179.8871636858919
980 179.8723065405904
981 179.8841682307863
982 179.8672775300035
983 179.8776289718097
984 179.8645990649431
985 179.8784045560584
986 179.8640673449432
987 179.8751022449446
988 179.8629773517639
989 179.8712884614256
990 179.8589625261662
991 179.867737797115
992 179.85272236355
993 179.8700469433085
994 179.853562953456
995 179.8663246932866
996 179.8528080472437
997 179.8650797948278
998 179.8511687338398
999 179.8623383509511
1000 179.8477781535699
1001 179.8645479754166
1002 179.8471523253624
1003 179.8606968145128
1004 179.8445446619671
1005 179.8569717117561
1006 179.8402815628027
1007 179.8559655725765
1008 179.839881975104
1009 179.8587234419251
1010 179.841384982485
1011 179.8544737013938
1012 179.8367041963825
1013 179.8523344980379
1014 179.8374992892224
1015 179.8519451216962
1016 179.8335640377034
1017 179.8510719056923
1018 179.8350240743248
1019 179.8486200030457
1020 179.8296199594096
1021 179.8445005845488
1022 179.831352054185
1023 179.8445457532644
1024 179.8318696017447
1025 179.8511179304832
1026 179.8382977599097
1027 179.8487155884654
1028 179.8340879941026
1029 179.8451814288024
1030 179.8324489282121
1031 179.8428717680157
1032 179.8296528742117
1033 179.843836925582
1034 179.8310008230979
1035 179.8440138415918
1036 179.8298067571299
1037 179.8382275140984
1038 179.8251010433603
1039 179.8353292486209
1040 179.8197934110716
1041 179.8376160355174
1042 179.8221327807518
1043 179.8353743635373
1044 179.8189392793213
1045 179.8314300737126
1046 179.8184456627468
1047 179.8320531035031
1048 179.8193135203647
1049 179.8360245045535
1050 179.8207845095152
1051 179.8345305064493
1052 179.8190379270073
1053 179.8338768052863
1054 179.8179922196188
1055 179.8308858846725
1056 179.8189325541318
1057 179.8354750964223
1058 179.8212314083562
1059 179.8326178817624
1060 179.8195472953472
1061 179.8348205424259
1062 179.819596226869
1063 179.8332563242271
1064 179.8184955686062
1065 179.838499682685
1066 179.8222142931576
1067 179.8343558439355
1068 179.8181367069796
1069 179.8302714622644
1070 179.8145367748243
1071 179.8267332827083
1072 179.8103809992663
1073 179.8281890521945
1074 179.811631661302
1075 179.8255325589913
1076 179.8101828809535
1077 179.8236945331596
1078 179.8113830997954
1079 179.8211022478407
1080 179.8078910260515
1081 179.8244864853375
1082 179.8091172919272
1083 179.8202339577404
1084 179.806714549624
1085 179.8185154260268
1086 179.8060528367135
1087 179.8169680272707
1088 179.8050828023606
1089 179.8202886624988
1090 179.8084314774044
1091 179.8198036310832
1092 179.8034539605108
1093 179.8136054441691
1094 179.8031364343708
1095 179.8145911211043
1096 179.8038623677884
1097 179.8199891300037
1098 179.8066285169151
1099 179.8175399027334
1100 179.8024715818881
1101 179.8136103106116
1102 179.7988121142857
1103 179.8115195110746
1104 179.7972941295392
1105 179.814907490843
1106 179.7983439380084
1107 179.8141884114745
1108 179.7984462143849
1109 179.8125812719559
1110 179.7975337371085
1111 179.8104125900439
1112 179.7944273843036
1113 179.8122518913637
1114 179.7949121447056
1115 179.809866138402
1116 179.7921985518083
1117 179.8048207652812
1118 179.7918808355884
1119 179.8053893998955
1120 179.7868766725644
1121 179.8055533197341
1122 179.7878360800937
1123 179.8042120199896
1124 179.7859027783786
1125 179.8016577519143
1126 179.7850407603562
1127 179.8012348662821
1128 179.7863021976544
1129 179.806738894554
1130 179.7883673703436
1131 179.803931985054
1132 179.7882158327832
1133 179.8036228158004
1134 179.7884461703185
1135 179.8039796475291
1136 179.7880985441956
1137 179.8076106495734
1138 179.7901052714827
1139 179.8030479217907
1140 179.7872553023941
1141 179.8016232862803
1142 179.787391877617
1143 179.8022119135799
1144 179.7853848470104
1145 179.8053933261933
1146 179.7859897736795
1147 179.8009258705135
1148 179.7842904683666
1149 179.7974538526229
1150 179.7795803421082
1151 179.794854748929
1152 179.7778509292975
1153 179.7966570270756
1154 179.7790096859391
1155 179.7936125822845
1156 179.7775631985603
1157 179.7914149527468
1158 179.773621822743
1159 179.7862885978128
1160 179.7714720749841
1161 179.7927341011723
1162 179.7725100490321
1163 179.7884265429327
1164 179.7709306606219
1165 179.7854169883909
1166 179.7711406806975
1167 179.7841288870585
1168 179.769679538692
1169 179.7897185977674
1170 179.7736268482662
1171 179.7885879272748
1172 179.7721522532231
1173 179.7879513968149
1174 179.7757131071016
1175 179.7878604725604
1176 179.7757148989601
1177 179.7900773542025
1178 179.7771830563632
1179 179.7895811081846
1180 179.7768862561569
1181 179.7861201598264
1182 179.7736870555215
1183 179.7838465811743
1184 179.7747868633574
1185 179.7908658800219
1186 179.7760659731968
1187 179.7884470640669
1188 179.7768997745713
1189 179.7887360882866
1190 179.7747517561531
1191 179.7861404401261
1192 179.7730644478814
1193 179.7900227668752
1194 179.7745318153884
1195 179.7880546408894
1196 179.7712820480597
1197 179.7885628345988
1198 179.7718406254358
1199 179.7864756418457
1200 179.76680874522
1201 179.7902020409667
1202 179.770462970375
1203 179.7882440660984
1204 179.7702969141924
1205 179.7878816674883
1206 179.7712101683007
1207 179.7879356173676
1208 179.7731011779513
1209 179.7937098061496
1210 179.7766334274159
1211 179.7924992207341
1212 179.7752265691552
1213 179.7875093258346
1214 179.7753157987845
1215 179.7885783675271
1216 179.7759078633135
1217 179.7915301432529
1218 179.7790705392299
1219 179.7865437506457
1220 179.7730697195579
1221 179.7808924770225
1222 179.7684839610848
1223 179.7796266575822
1224 179.7681299302885
1225 179.7808099531899
1226 179.7694317245911
1227 179.7797600259971
1228 179.7699647401681
1229 179.7791499203748
1230 179.771793134153
1231 179.7817411472896
1232 179.7713375160066
1233 179.7843542431465
1234 179.7698852208846
1235 179.7817049924512
1236 179.769479525186
1237 179.7806409741757
1238 179.770818899297
1239 179.7816712715762
1240 179.7707189027433
1241 179.7877947333746
1242 179.7715183610924
1243 179.7834871083908
1244 179.7695448080277
1245 179.78182563594
1246 179.7675325447503
1247 179.7809296628944
1248 179.7666177001336
1249 179.7824388780214
1250 179.7676484121218
1251 179.7814220131161
1252 179.7639153590734
1253 179.7765750158183
1254 179.7594165757331
1255 179.7740096499209
1256 179.7571586877397
1257 179.7777035055785
1258 179.7595079872123
1259 179.7760258404925
1260 179.7567094077409
1261 179.7752639658075
1262 179.7560877054532
1263 179.7757641970538
1264 179.7587396825525
1265 179.7816683503174
1266 179.7635282697771
1267 179.7822087487507
1268 179.7626389994493
1269 179.780392934214
1270 179.7619446513998
1271 179.7761343271093
1272 179.7573078894872
1273 179.7788841656272
1274 179.7630772391602
1275 179.7804868376951
1276 179.7625378349113
1277 179.7791410059466
1278 179.7626690101045
1279 179.7772824607031
1280 179.7609363307443
1281 179.7822631362141
1282 179.7622049554832
1283 179.7779375648941
1284 179.7621550430513
1285 179.7762058983802
1286 179.7584093913476
1287 179.7737792729808
1288 179.7585773923827
1289 179.7774846853409
1290 179.7596523444061
1291 179.7781383845658
1292 179.7576908762234
1293 179.7717527147847
1294 179.7572870048313
1295 179.7699091192588
1296 179.7565022206917
1297 179.7725903757321
1298 179.7579875856849
1299 179.7701158543097
1300 179.7566956402697
1301 179.7687017813996
1302 179.7558378538417
1303 179.7672814306423
1304 179.7584272363235
1305 179.7733904716639
1306 179.7616473792147
1307 179.769597217654
1308 179.7592630728435
1309 179.768299826128
1310 179.7572052899691
1311 179.7649945505419
1312 179.758045048411
1313 179.7720971475911
1314 179.7594358563501
1315 179.7701606875173
1316 179.7608345540735
1317 179.7684108946774
1318 179.7603997385815
1319 179.7676162110694
1320 179.7557051458759
1321 179.7668556750326
1322 179.755505346753
1323 179.7647246303318
1324 179.7517060656198
1325 179.7618662466803
1326 179.7502008635329
1327 179.7599270280143
1328 179.7484794874072
1329 179.7631421217567
1330 179.7501046597882
1331 179.7620698042817
1332 179.746626981655
1333 179.7609984512601
1334 179.7489834977179
1335 179.763806164191
1336 179.7483180814159
1337 179.7690048373522
1338 179.7509079381269
1339 179.7649679564361
1340 179.7499212226574
1341 179.7656495503012
1342 179.7489015002297
1343 179.7646408088228
1344 179.7471641465214
1345 179.7676455496815
1346 179.7504018687637
1347 179.768029875143
1348 179.7510033942058
1349 179.7664114250362
1350 179.752586762836
1351 179.7656551201243
1352 179.7512117372301
1353 179.7705778923084
1354 179.7552226240913
1355 179.7681082630463
1356 179.7540676735903
1357 179.7652341978226
1358 179.7534587879005
1359 179.7638815150024
1360 179.7535229808889
1361 179.766701026702
1362 179.7529520181832
1363 179.7632596759618
1364 179.7527539786729
1365 179.7640247233354
1366 179.7542307600857
1367 179.7617432928064
1368 179.7515220127362
1369 179.7648047465294
1370 179.7535385210189
1371 179.7643874453458
1372 179.7525752522758
1373 179.7639357470813
1374 179.7545336684659
1375 179.7663649113368
1376 179.7529496237152
1377 179.7698736445493
1378 179.7562803233084
1379 179.7657758735066
1380 179.7513299371979
1381 179.7640383749917
1382 179.749090649686
1383 179.7627170463494
1384 179.7484316717623
1385 179.7684194623225
1386 179.7464789976913
1387 179.7638873716202
1388 179.7468318450074
1389 179.7631658240464
1390 179.7469494616527
1391 179.7625099007882
1392 179.7447527954512
1393 179.7645967053271
1394 179.7463155777243
1395 179.7644105899062
1396 179.7461715152513
1397 179.7615825983742
1398 179.7460421907742
1399 179.761260687523
1400 179.7471010681267
1401 179.7669174651553
1402 179.7514305176836
1403 179.7666849408658
1404 179.7523114686427
1405 179.7660656095908
1406 179.7527189519893
1407 179.7635691166502
1408 179.7534013223873
1409 179.768597995434
1410 179.7565269536361
1411 179.7690367961661
1412 179.7570293089809
1413 179.7689197313889
1414 179.7597534338151
1415 179.7697899689266
1416 179.7558452692128
1417 179.7700934156
1418 179.755756312663
1419 179.7649792906544
1420 179.7514613128571
1421 179.7628128465096
1422 179.7479666011001
1423 179.7601731722078
1424 179.7457447408655
1425 179.7625396377071
1426 179.7495282341243
1427 179.7604658719678
1428 179.7461732833094
1429 179.758622844284
1430 179.7449080862057
1431 179.7588116675394
1432 179.74601114271
1433 179.7635060348099
1434 179.7480671008166
1435 179.7619661721321
1436 179.7453578072412
1437 179.7613647579897
1438 179.743734052653
1439 179.7605561932232
1440 179.7416390495693
1441 179.7667005328661
1442 179.7454317898398
1443 179.7663382362039
1444 179.7449560120506
1445 179.7670645306476
1446 179.7459316018703
1447 179.7659455964965
1448 179.7473277354701
1449 179.7717719944471
1450 179.7498311715205
1451 179.7671727009916
1452 179.7469118144222
1453 179.7636213012445
1454 179.7466910479861
1455 179.7637582882649
1456 179.7461897825609
1457 179.7679019079271
1458 179.7486103877038
1459 179.7639487024634
1460 179.7465330644588
1461 179.759889492787
1462 179.7439668756424
1463 179.7587479152086
1464 179.7431096823815
1465 179.761375526659
1466 179.7463673135504
1467 179.7592479500666
1468 179.7451030912036
1469 179.7570166800368
1470 179.7450912534584
1471 179.7566107596685
1472 179.7436479642195
1473 179.7612942221448
1474 179.7474778224943
1475 179.7611751510636
1476 179.746399667553
1477 179.7592032356914
1478 179.747584854149
1479 179.7568164954068
1480 179.7471348610484
1481 179.7621966690868
1482 179.7499631512448
1483 179.7607124426859
1484 179.7503524221364
1485 179.7613299839146
1486 179.7523601837083
1487 179.7619603330228
1488 179.7515326328821
1489 179.7644050972305
1490 179.7545401921112
1491 179.761506035444
1492 179.7499234810197
1493 179.7616654412255
1494 179.7490184517838
1495 179.7603234801338
1496 179.7471292469566
1497 179.765149464165
1498 179.7511036852857
1499 179.7622207766289
1500 179.7463437323791
1501 179.7594303019779
1502 179.7445523932856
1503 179.7582686952726
1504 179.7447123624007
1505 179.7640763756121
1506 179.7476919954919
1507 179.7623443731451
1508 179.7453477614697
1509 179.7601300436797
1510 179.7463677082488
1511 179.7586828527473
1512 179.7422556715889
1513 179.7592961523424
1514 179.7443770414361
1515 179.7569701052726
1516 179.7419791339268
1517 179.7541439275009
1518 179.7438817673044
1519 179.7538238739286
1520 179.741883924232
1521 179.7595872174565
1522 179.7445496425629
1523 179.7574282231957
1524 179.7430801878182
1525 179.7547411388165
1526 179.7439337487221
1527 179.7555943809555
1528 179.7450734111962
1529 179.7621461626503
1530 179.7493503227088
1531 179.7637410536403
1532 179.7497685822057
1533 179.7624127265445
1534 179.7496055155425
1535 179.7638450897452
1536 179.747980043875
1537 179.7668072986749
1538 179.7499425290787
1539 179.7659329864838
1540 179.7469900461513
1541 179.7649108594068
1542 179.7455423901623
1543 179.7639773062324
1544 179.7439468927873
1545 179.7687478559758
1546 179.747400300053
1547 179.7667743094808
1548 179.7433365251349
1549 179.7633022744299
1550 179.74332094815
1551 179.7598960764884
1552 179.7398297369107
1553 179.7635701169264
1554 179.7444793774909
1555 179.763839418265
1556 179.7466932836197
1557 179.7623022493123
1558 179.7480015227688
1559 179.761111958978
1560 179.7449329269841
1561 179.7601668348359
1562 179.74852689803
1563 179.7605840753077
1564 179.7490150456104
1565 179.7600458734617
1566 179.7496086453085
1567 179.759528703286
1568 179.7505351263948
1569 179.7652904425764
1570 179.754853925131
1571 179.7662942981634
1572 179.7516050417855
1573 179.7620380909435
1574 179.7519706637679
1575 179.7629001911638
1576 179.7513283621002
1577 179.7652174603901
1578 179.7526850798918
1579 179.7626197654049
1580 179.7496626466234
1581 179.7612953157519
1582 179.7476086632411
1583 179.7609541137911
1584 179.7450721788572
1585 179.7638770436695
1586 179.748226702584
1587 179.7616895347801
1588 179.7450569294531
1589 179.7597646515026
1590 179.7434152707392
1591 179.7568642481867
1592 179.7406959759212
1593 179.7594368885502
1594 179.7421618153602
1595 179.7583502709052
1596 179.742748196229
1597 179.7572185449307
1598 179.7442153683235
1599 179.7571643722808
1600 179.7449183458904
1601 179.7627422862372
1602 179.7451915463514
1603 179.7603566848967
1604 179.7479481422776
1605 179.7603733566336
1606 179.7488310886197
1607 179.7608087343092
1608 179.7480417040646
1609 179.7629558648122
1610 179.7494285201294
1611 179.7615376469929
1612 179.7489914833549
1613 179.7583031167838
1614 179.7437603939175
1615 179.7573650873181
1616 179.7445646193923
1617 179.7599653165054
1618 179.7449452400181
1619 179.7549541637645
1620 179.7426802442003
1621 179.7547235209019
1622 179.7431148793801
1623 179.755073162177
1624 179.741245541796
1625 179.7572486589336
1626 179.7427070519691
1627 179.7564066107797
1628 179.741527670012
1629 179.7549821788967
1630 179.7427937513793
1631 179.7540342098648
1632 179.7378050555356
1633 179.7562992786633
1634 179.7410748092148
1635 179.7556900623037
1636 179.7404760210581
1637 179.7560346834081
1638 179.7412632778635
1639 179.7543760996759
1640 179.7415337054661
1641 179.7590053599767
1642 179.7447700019424
1643 179.7561401894088
1644 179.7455472082267
1645 179.7585401159369
1646 179.7456194044845
1647 179.7586870564501
1648 179.7476091687819
1649 179.7639502708886
1650 179.7521398800581
1651 179.7635303376246
1652 179.7504146779974
1653 179.7631621448263
1654 179.7504470531046
1655 179.7625798928127
1656 179.7489253831836
1657 179.7658875532339
1658 179.7511329489027
1659 179.7643040349326
1660 179.747317754333
1661 179.7602143925158
1662 179.744807016014
1663 179.7597999347486
1664 179.7423913063495
1665 179.7640436833067
1666 179.7450134811739
1667 179.7607495492284
1668 179.7408301812266
1669 179.7574039035848
1670 179.739023794881
1671 179.7565451585106
1672 179.7395540754022
1673 179.7612108678753
1674 179.7405713415149
1675 179.7582822446366
1676 179.7380297259633
1677 179.7563010375578
1678 179.7395834041063
1679 179.7555578553483
1680 179.7366496982336
1681 179.7600656684736
1682 179.7428290051805
1683 179.7589688740358
1684 179.7403164566211
1685 179.7571274281693
1686 179.7433148774768
1687 179.7569243843297
1688 179.742913692324
1689 179.7619452300503
1690 179.7459556282285
1691 179.7587684721756
1692 179.7415424721145
1693 179.7571578639045
1694 179.7416229865272
1695 179.7584090721456
1696 179.7444926515067
1697 179.765838665681
1698 179.7496604811652
1699 179.7638651256586
1700 179.7484370409654
1701 179.7650185854281
1702 179.7486786085595
1703 179.7619595555817
1704 179.7467821993087
1705 179.7660020988273
1706 179.7508198895012
1707 179.7656120052476
1708 179.7467442612906
1709 179.7619468483544
1710 179.74654179528
1711 179.7602670598029
1712 179.7433089250764
1713 179.7637664648848
1714 179.7474509213287
1715 179.7609509333006
1716 179.7466720193055
1717 179.760033696366
1718 179.7462642703877
1719 179.7579502505826
1720 179.7446372297809
1721 179.7617441653084
1722 179.7478140754211
1723 179.7584331033779
1724 179.7486814801319
1725 179.7624389344052
1726 179.7524619044135
1727 179.7616366583873
1728 179.7510850009578
1729 179.7655533660181
1730 179.7558308846286
1731 179.7649661241881
1732 179.7530928494013
1733 179.7637175402442
1734 179.7497203075466
1735 179.7620007548087
1736 179.7472100884207
1737 179.7650110152243
1738 179.752297404823
1739 179.7610737097623
1740 179.7461073456054
1741 179.7593788398355
1742 179.746908936132
1743 179.7576096959848
1744 179.7436095587972
1745 179.7615917889375
1746 179.7446242219067
1747 179.7591559811867
1748 179.7443525662836
1749 179.7581221923954
1750 179.7464173247565
1751 179.7584550093945
1752 179.7442689726565
1753 179.7609088723789
1754 179.7461826815425
1755 179.7622303911012
1756 179.7482672698378
1757 179.7596159850333
1758 179.7481544628781
1759 179.7612508233057
1760 179.7448027584371
1761 179.7624975667477
1762 179.7474273796412
1763 179.7633508508652
1764 179.7453943404322
1765 179.7586170812398
1766 179.7413863191161
1767 179.7577531307114
1768 179.7410322366628
1769 179.7621957415982
1770 179.7452198466805
1771 179.7609499901358
1772 179.7452182908099
1773 179.7585066275906
1774 179.7443456055506
1775 179.7589992534511
1776 179.7427705954928
1777 179.7595898736154
1778 179.7460025745668
1779 179.7563519213409
1780 179.7432066469529
1781 179.7559987061318
1782 179.7432300158377
1783 179.7545166432345
1784 179.7431185155119
1785 179.7609748740045
1786 179.7494044973861
1787 179.7606891928145
1788 179.7469815644218
1789 179.7583650636364
1790 179.7495171032173
1791 179.7605691835934
1792 179.7474214895333
1793 179.7639160989438
1794 179.7494576416047
1795 179.7638536401069
1796 179.7523957559448
1797 179.763079017118
1798 179.7502082202053
1799 179.7602035685149
1800 179.7480852577054
1801 179.7646728167257
1802 179.7517715603553
1803 179.7623780629843
1804 179.7479483616839
1805 179.7596990456003
1806 179.7489915829474
1807 179.7587030874249
1808 179.74615045649
1809 179.7631033731908
1810 179.7467459051837
1811 179.7583617802899
1812 179.7423986564881
1813 179.7545891205923
1814 179.7408032871119
1815 179.7524476720862
1816 179.7394889472139
1817 179.7548745701753
1818 179.7395753770058
1819 179.7525090663251
1820 179.7364759635484
1821 179.7514809639286
1822 179.7358761981634
1823 179.7499960505926
1824 179.7350659768823
1825 179.7568536549187
1826 179.7416593981384
1827 179.7590380040532
1828 179.7418120968969
1829 179.7598619799253
1830 179.7416596718233
1831 179.7575732849162
1832 179.7392866294075
1833 179.7635331078428
1834 179.7443981856347
1835 179.7639354424652
1836 179.7422085169902
1837 179.7607383320589
1838 179.7447679810184
1839 179.7569325552058
1840 179.7409219797518
1841 179.7600222712291
1842 179.7415613756484
1843 179.7553855658741
1844 179.7407081499642
1845 179.7568597549957
1846 179.7417748042175
1847 179.7531351804953
1848 179.7399304578907
1849 179.7578157990643
1850 179.7438334606397
1851 179.7538679509534
1852 179.7411909061452
1853 179.7524944260232
1854 179.7394262186454
1855 179.7504468656057
1856 179.7422698916211
1857 179.7588907982797
1858 179.7480828429165
1859 179.7558370061383
1860 179.7439521577816
1861 179.7545342538023
1862 179.7441413773892
1863 179.7544051575479
1864 179.7433459570607
1865 179.7613671829133
1866 179.7482279466481
1867 179.7605579069099
1868 179.7501359632139
1869 179.7616725921908
1870 179.7483741511089
1871 179.7599997695695
1872 179.7468046206002
1873 179.763820225856
1874 179.7482165346728
1875 179.761622730005
1876 179.7462157216706
1877 179.7616047446033
1878 179.7471018878762
1879 179.75855120483
1880 179.7443488692572
1881 179.7615393274795
1882 179.7449304774309
1883 179.7577555070146
1884 179.742542667498
1885 179.7551398492135
1886 179.7408772931032
1887 179.7534548650761
1888 179.7408655762537
1889 179.7582168313616
1890 179.7436476335732
1891 179.7557559952653
1892 179.7415501515161
1893 179.755098218407
1894 179.742607298165
1895 179.7547548836798
1896 179.7430873078497
1897 179.7604154277828
1898 179.7476810857843
1899 179.7584235331709
1900 179.7475809355569
1901 179.7579178430531
1902 179.7467941261691
1903 179.7562522175864
1904 179.7478827586171
1905 179.7642961303788
1906 179.7518799354057
1907 179.7635169261095
1908 179.7505207258237
1909 179.7613417794975
1910 179.7511002803832
1911 179.7602387697736
1912 179.7461413289664
1913 179.760974444927
1914 179.745335398164
1915 179.7581658145284
1916 179.743036817124
1917 179.7569146259185
1918 179.7416579984104
1919 179.7547355296235
1920 179.7391158113055
1921 179.759597059549
1922 179.7424823079582
1923 179.7584165724332
1924 179.7435319381657
1925 179.7592114037881
1926 179.7394260845326
1927 179.7575066802871
1928 179.7421921428802
1929 179.7656974610425
1930 179.7427801441156
1931 179.7619485298547
1932 179.7394491639482
1933 179.7588528400276
1934 179.7385289567133
1935 179.7590679655297
1936 179.7405789677529
1937 179.763071045549
1938 179.7426827091097
1939 179.7613986887796
1940 179.7408270299266
1941 179.7602246025631
1942 179.7424297280046
1943 179.7569336580666
1944 179.7402081838251
1945 179.7622072852587
1946 179.7459530754807
1947 179.7626208503271
1948 179.7491197931754
1949 179.7622465958426
1950 179.7465950695384
1951 179.7593200214687
1952 179.7457883553799
1953 179.7637860751756
1954 179.7510836833376
1955 179.7626047871429
1956 179.7486931223412
1957 179.760003969012
1958 179.7492931149562
1959 179.7580282209774
1960 179.7451042068791
1961 179.7606273825357
1962 179.7468303919532
1963 179.7607743681757
1964 179.7462663277488
1965 179.7602192305145
1966 179.7462529423447
1967 179.7598553216243
1968 179.7438438393444
1969 179.7608563488128
1970 179.745970406419
1971 179.7590620548862
1972 179.7413590513742
1973 179.7541645366128
1974 179.7372217122802
1975 179.7501767043306
1976 179.7346160642071
1977 179.754337349528
1978 179.7359144293764
1979 179.7479470152695
1980 179.7345857345191
1981 179.748107126875
1982 179.7344467488575
1983 179.7480955348087
1984 179.7331682079671
1985 179.7510498841081
1986 179.7347486903812
1987 179.7476982078723
1988 179.7351916003547
1989 179.7489029952663
1990 179.7376490767034
1991 179.7491144121732
1992 179.7354511734075
1993 179.7547379536274
1994 179.7397863846551
1995 179.7522968625578
1996 179.7404549905732
1997 179.7499768798232
1998 179.7410823175219
1999 179.748837398744
2000 179.7381294395575
2001 179.7531634723938
2002 179.7400830301058
2003 179.7521877387195
2004 179.7396598960978
2005 179.7515290191818
2006 179.7387594820423
2007 179.751509000178
2008 179.7381751428114
2009 179.751142800268
2010 179.7389171052114
2011 179.7500123894678
2012 179.7337940286891
2013 179.7459875889315
2014 179.7318745031122
2015 179.7462523917982
2016 179.7314081193771
2017 179.751183396487
2018 179.7380836909846
2019 179.7517182946665
2020 179.7377056782898
2021 179.7515931503129
2022 179.7410641036769
2023 179.7525906348318
2024 179.7406987514331
2025 179.7575415522821
2026 179.7423721314533
2027 179.7532788694406
2028 179.7427943266165
2029 179.7550954856051
2030 179.7464535180005
2031 179.7573210843016
2032 179.744916023779
2033 179.7604173633849
2034 179.7499745453906
2035 179.7592551819971
2036 179.7491437561535
2037 179.7576413147931
2038 179.7465531254925
2039 179.7567669371258
2040 179.7453494383292
2041 179.7589666534486
2042 179.7463702803733
2043 179.7590541589958
2044 179.7452309262959
2045 179.7575711188953
2046 179.7440182115545
2047 179.7560054341641
2048 179.7412529304954
2049 179.7591554432899
2050 179.7411308615678
2051 179.7551200606197
2052 179.7375822060415
2053 179.7526681414471
2054 179.7378473715233
2055 179.7527687771078
2056 179.7379730736658
2057 179.7564477043755
2058 179.7397788615473
2059 179.7546987575828
2060 179.736459775257
2061 179.7513531170626
2062 179.7344128156236
2063 179.7514142636001
2064 179.7355790667794
2065 179.7562384776627
2066 179.7424371901449
2067 179.7583888544559
2068 179.744453176692
2069 179.7605600203347
2070 179.7436177711269
2071 179.757073153998
2072 179.7415584260253
2073 179.7631177447299
2074 179.7442038714015
2075 179.7595102217865
2076 179.7440455309814
2077 179.7573999946963
2078 179.7418256581263
2079 179.7553316128324
2080 179.7400201179184
2081 179.7569157554938
2082 179.7406207962116
2083 179.7543818049752
2084 179.7405546007278
2085 179.7552609521386
2086 179.7429199964504
2087 179.7552359917511
2088 179.7413126931091
2089 179.7556701761479
2090 179.7425070060221
2091 179.7530117541276
2092 179.7374747608372
2093 179.7488658946035
2094 179.7365328795809
2095 179.7473310813964
2096 179.7327494273897
2097 179.7501745317753
2098 179.7348158317562
2099 179.7480598772039
2100 179.731512456044
2101 179.7464761396768
2102 179.7333574370358
2103 179.7485030602616
2104 179.7361328386188
2105 179.7559413337729
2106 179.7425322666355
2107 179.7554212244201
2108 179.7435072268261
2109 179.7558572035791
2110 179.7452642105207
2111 179.7558482528544
2112 179.7446400844451
2113 179.7608888468083
2114 179.7496031634
2115 179.7607890877009
2116 179.7488245576748
2117 179.7583250390407
2118 179.7462325761555
2119 179.7536385736493
2120 179.7415978966505
2121 179.7548953452817
2122 179.7401168447083
2123 179.7526484162194
2124 179.7364641937568
2125 179.7491974995086
2126 179.7350706300198
2127 179.7495813487251
2128 179.7346612846459
2129 179.7536896818012
2130 179.7383541654586
2131 179.7514543284091
2132 179.7359158993144
2133 179.7512017528481
2134 179.7373810692617
2135 179.7514785083906
2136 179.7351624014629
2137 179.7529795380221
2138 179.7381588946957
2139 179.752992160486
2140 179.7394437318678
2141 179.7521169013239
2142 179.7385660512103
2143 179.7518953888296
2144 179.7371390277449
2145 179.756727586953
2146 179.7400371403304
2147 179.7540566681707
2148 179.736928188211
2149 179.7512255276404
2150 179.7364689362593
2151 179.7505374424889
2152 179.7350008568471
2153 179.7538969722449
2154 179.7374592108714
2155 179.7532767557223
2156 179.7372291852316
2157 179.7525804344937
2158 179.7368752663644
2159 179.7513826398351
2160 179.7346298275003
2161 179.754516126086
2162 179.7402820145977
2163 179.7540024826652
2164 179.7383302756325
2165 179.7525865179302
2166 179.7419527282519
2167 179.7528812152148
2168 179.7403813372567
2169 179.75739871467
2170 179.745926998457
2171 179.75633967095
2172 179.7426195341647
2173 179.7539426854121
2174 179.7444977947764
2175 179.7533627965472
2176 179.7433356750254
2177 179.7567965088638
2178 179.744955712681
2179 179.7537221088087
2180 179.7419504841177
2181 179.751325970517
2182 179.740723026145
2183 179.7495854159498
2184 179.7378367732789
2185 179.7537650050774
2186 179.7445956289202
2187 179.7576955259938
2188 179.7457356073199
2189 179.7559046314722
2190 179.7453782187898
2191 179.7559820741534
2192 179.7434417535268
2193 179.7587302174556
2194 179.747806255663
2195 179.7584591913226
2196 179.7481186352077
2197 179.7581819672641
2198 179.7492965266597
2199 179.7582254229331
2200 179.7475787773325
2201 179.7624545702835
2202 179.749403241496
2203 179.7604723124275
2204 179.7452841379239
2205 179.7595087621807
2206 179.7420839095003
2207 179.7556919419264
2208 179.7387443860142
2209 179.756807087513
2210 179.7378630733615
2211 179.7560017387746
2212 179.7357983437352
2213 179.753221423149
2214 179.7355617012857
2215 179.7520944388391
2216 179.7359624027953
2217 179.7560869706733
2218 179.7382928974588
2219 179.7531780471635
2220 179.7342896196854
2221 179.7514071140257
2222 179.7330461766851
2223 179.7508112922769
2224 179.7349274317284
2225 179.7570950904502
2226 179.7395965580805
2227 179.7575141409253
2228 179.7394632769466
2229 179.7546240238984
2230 179.7372194590177
2231 179.7505191217375
2232 179.734888865479
2233 179.7545258313635
2234 179.7384817388982
2235 179.7520324066221
2236 179.7377325270679
2237 179.7509736699496
2238 179.7388555825172
2239 179.7504241487029
2240 179.7365212946948
2241 179.7547800649239
2242 179.7411906163314
2243 179.7523249425586
2244 179.7390521005324
2245 179.7519464362798
2246 179.7421088279997
2247 179.7530109972861
2248 179.7421425789516
2249 179.7592432607796
2250 179.7452838830931
2251 179.7564894846267
2252 179.7415515784691
2253 179.7574316032508
2254 179.7386874552022
2255 179.753672320699
2256 179.7365285903319
2257 179.7546203541463
2258 179.7361450785702
2259 179.7505584128274
2260 179.7339575884553
2261 179.7490578470826
2262 179.7325114777895
2263 179.7483847317958
2264 179.7342803018158
2265 179.7563823623092
2266 179.7378113537277
2267 179.7518747268115
2268 179.7372502239994
2269 179.7504724769016
2270 179.7405780043931
2271 179.7509394487595
2272 179.740767487332
2273 179.753405611503
2274 179.7436694121685
2275 179.7508476110051
2276 179.744136732691
2277 179.7506773807309
2278 179.7406673166203
2279 179.7470042935237
2280 179.7365510043027
2281 179.7511380055196
2282 179.7404522712657
2283 179.7506816948488
2284 179.7403909031696
2285 179.7511681734644
2286 179.7404696721705
2287 179.7510478132155
2288 179.7398377486595
2289 179.7551433243216
2290 179.7429792512814
2291 179.7523655358061
2292 179.7420321625676
2293 179.7497861857266
2294 179.7418796248959
2295 179.7512363983035
2296 179.7420156415718
2297 179.7554607627358
2298 179.7410368986163
2299 179.7505219184687
2300 179.7378375121642
2301 179.7483912789732
2302 179.7327477896236
2303 179.744939390865
2304 179.7295300197738
2305 179.7473843024785
2306 179.7323929002643
2307 179.7470714358638
2308 179.7294051587564
2309 179.7444783183788
2310 179.7287257230961
2311 179.7429472644101
2312 179.7278990154524
2313 179.7512394984986
2314 179.7326387008587
2315 179.7499342077589
2316 179.7324246127669
2317 179.750152432838
2318 179.7346799551172
2319 179.7505618197685
2320 179.7336083574243
2321 179.7541935068905
2322 179.7376040405488
2323 179.7532993549428
2324 179.7386406025811
2325 179.757430743969
2326 179.740671412574
2327 179.7536139294166
2328 179.7391567196792
2329 179.756922283399
2330 179.7392184531398
2331 179.7542181481283
2332 179.7380281066436
2333 179.7518938079146
2334 179.7368143012749
2335 179.7499594319581
2336 179.7378021150088
2337 179.7564714822681
2338 179.7378074126944
2339 179.7526160081534
2340 179.7340267656295
2341 179.7523707498801
2342 179.7355109805455
2343 179.7517685359212
2344 179.7367069749593
2345 179.7578481481454
2346 179.7388840253975
2347 179.7555007207626
2348 179.7388784303752
2349 179.7546171811559
2350 179.7374777117866
2351 179.7525048673661
2352 179.7340619908635
2353 179.754134842784
2354 179.7342699199683
2355 179.7499551202611
2356 179.7338081836223
2357 179.7484067772477
2358 179.7348965023014
2359 179.7462121917081
2360 179.733970952665
2361 179.7517837696237
2362 179.7379442456984
2363 179.7473488327949
2364 179.7342012137234
2365 179.7465086071057
2366 179.7362690790201
2367 179.7485003364216
2368 179.736846096603
2369 179.7555936344569
2370 179.7423320566961
2371 179.7546536791057
2372 179.743260515772
2373 179.7539777974146
2374 179.7413478172774
2375 179.7536872057193
2376 179.7402230146239
2377 179.7576918717533
2378 179.7451137289842
2379 179.7573958862588
2380 179.7434893791323
2381 179.7552215802225
2382 179.7426891537265
2383 179.7542473182415
2384 179.7401206067734
2385 179.7597290643855
2386 179.7442470921762
2387 179.7583629032765
2388 179.7434139818843
2389 179.755910506283
2390 179.7430549778489
2391 179.7580651972149
2392 179.7440999344106
2393 179.7613706035556
2394 179.7478862138244
2395 179.760209414138
2396 179.7457726645468
2397 179.7575892892649
2398 179.7460303083786
2399 179.7555553838594
2400 179.7441816480907
2401 179.7579097666892
2402 179.7455357229015
2403 179.7555225513446
2404 179.7424261126078
2405 179.7536416090231
2406 179.7420495683415
2407 179.7513529298253
2408 179.7424195943576
2409 179.7573238500804
2410 179.7437780624498
2411 179.7546524784876
2412 179.7423556633815
2413 179.7548636043591
2414 179.7455433316824
2415 179.7559252666872
2416 179.7449947236106
2417 179.7600406212751
2418 179.7476116733476
2419 179.7576202163332
2420 179.7458066012479
2421 179.757558720366
2422 179.7444640169326
2423 179.7554536334729
2424 179.7404216286265
2425 179.7601980273216
2426 179.7452886135577
2427 179.7604581141877
2428 179.74475887642
2429 179.756306318737
2430 179.7414895932306
2431 179.7547026072941
2432 179.7394051773281
2433 179.7550625079217
2434 179.7406045756098
2435 179.7518379573698
2436 179.738553989358
2437 179.75045197979
2438 179.7399725376348
2439 179.7499238186503
2440 179.7371915060316
2441 179.7536492072273
2442 179.7406060046837
2443 179.7533463071636
2444 179.7398897985552
2445 179.7539088579213
2446 179.7421575457539
2447 179.7552702583976
2448 179.742219110149
2449 179.7609069422431
2450 179.7459664004981
2451 179.7581399846892
2452 179.7424047344919
2453 179.7591567190154
2454 179.7451834518929
2455 179.7588084744657
2456 179.7443960660454
2457 179.7639816869183
2458 179.748417487485
2459 179.7589723097387
2460 179.7425968901815
2461 179.7548719852483
2462 179.7428109027617
2463 179.7548312436988
2464 179.7424588989821
2465 179.762666456682
2466 179.7449598376585
2467 179.7587742980778
2468 179.7435411905042
2469 179.7584637468692
2470 179.7416385672906
2471 179.7543908242613
2472 179.7353760465088
2473 179.7537589066393
2474 179.736777635781
2475 179.750918561903
2476 179.7345832919242
2477 179.7490257615656
2478 179.7324837854536
2479 179.7460921073255
2480 179.7316680079378
2481 179.7513721900095
2482 179.731925660259
2483 179.746290469462
2484 179.7322020803654
2485 179.7468584224337
2486 179.7345550080591
2487 179.7505897382449
2488 179.7377369623976
2489 179.7545587482867
2490 179.7381179835189
2491 179.7490157637059
2492 179.7351147068625
2493 179.7495741243142
2494 179.7351323211077
2495 179.7459582680739
2496 179.7339023200904
2497 179.750121434576
2498 179.7404825260604
2499 179.7506061094137
2500 179.7381681992233
2501 179.7492752602893
2502 179.7370150936324
2503 179.7494303689313
2504 179.7347974541794
2505 179.7514121010609
2506 179.7357115145553
2507 179.7482694452903
2508 179.7326633235438
2509 179.7445252015353
2510 179.7323087718241
2511 179.7419833643183
2512 179.7290962161451
2513 179.7440739148394
2514 179.732818391693
2515 179.7443579771586
2516 179.731286538622
2517 179.7437567796731
2518 179.7320200186982
2519 179.7435403264801
2520 179.7303051257838
2521 179.7501888668268
2522 179.7368374634463
2523 179.7509763760659
2524 179.7367944587955
2525 179.7527501560079
2526 179.7377086062108
2527 179.7521647593666
2528 179.7371403408376
2529 179.7563093395873
2530 179.7410861791672
2531 179.7551570801085
2532 179.7376649736682
2533 179.7521715773493
2534 179.7358586313669
2535 179.7495034866153
2536 179.7348696397749
2537 179.7536536829743
2538 179.73724169093
2539 179.7516611718818
2540 179.7357576550995
2541 179.750472645754
2542 179.7343473596855
2543 179.7454972516198
2544 179.7305676866576
2545 179.7491353017115
2546 179.7354330015786
2547 179.7501230293888
2548 179.7361012130976
2549 179.7499866330252
2550 179.7367114162357
2551 179.7504200820905
2552 179.7364754319908
2553 179.7542534410602
2554 179.7425413942802
2555 179.7542496641293
2556 179.7421465007105
2557 179.7548126917439
2558 179.7442355745996
2559 179.7543641490959
2560 179.7424206649187
2561 179.7570369769657
2562 179.7430248982523
2563 179.7557580414261
2564 179.742895924471
2565 179.7558057933011
2566 179.7412719126002
2567 179.7522684758927
2568 179.7404978842031
2569 179.756335033495
2570 179.7417275256161
2571 179.7516253678942
2572 179.7394976734873
2573 179.7478190517576
2574 179.738451778958
2575 179.7486105718546
2576 179.7373387158878
2577 179.7535226077459
2578 179.7418902899348
2579 179.7519961260749
2580 179.7366901903579
2581 179.7489825333118
2582 179.7375611727361
2583 179.7496473553295
2584 179.7365426872686
2585 179.7554559163738
2586 179.741632728601
2587 179.7547164006995
2588 179.7416922468792
2589 179.7560323279183
2590 179.7396624036691
2591 179.7549161167925
2592 179.738938558816
2593 179.7588036756181
2594 179.741379612835
2595 179.7555723860553
2596 179.7383607636954
2597 179.7543068721098
2598 179.7395884947116
2599 179.7512770284107
2600 179.7357193598916
2601 179.754090157189
2602 179.7370960972739
2603 179.7529892852635
2604 179.7330873914073
2605 179.7485018512228
2606 179.7344529455238
2607 179.749313148148
2608 179.7355063449268
2609 179.754069981835
2610 179.7391574738248
2611 179.7531816909577
2612 179.7367345930045
2613 179.7505658968462
2614 179.7363145199341
2615 179.7501036219261
2616 179.7353164776866
2617 179.7527642371129
2618 179.7388834193235
2619 179.7512082806822
2620 179.7405488524012
2621 179.7514882811616
2622 179.7399141459952
2623 179.7530186617716
2624 179.7417296441942
2625 179.7579656935325
2626 179.7456800545244
2627 179.757520269635
2628 179.7446859921344
2629 179.7555399975419
2630 179.7433796846056
2631 179.7540881353071
2632 179.7385572141507
2633 179.7546745540985
2634 179.7382466884986
2635 179.7509339310222
2636 179.7357107672245
2637 179.7492356344972
2638 179.7313236394857
2639 179.7455423716497
2640 179.7290460472409
2641 179.750108482892
2642 179.7311487810038
2643 179.7490615303899
2644 179.7310859312362
2645 179.7497897631139
2646 179.7314947152824
2647 179.7493601063374
2648 179.7330011542817
2649 179.7537062989595
2650 179.7366615612648
2651 179.7513133213149
2652 179.7342992184818
2653 179.746725303784
2654 179.7369170772578
2655 179.7485118551005
2656 179.7346210173906
2657 179.7522672351347
2658 179.7412921977044
2659 179.751101148447
2660 179.7396882889216
2661 179.7507404644181
2662 179.7403385012144
2663 179.7490214093992
2664 179.7393272580751
2665 179.754760413998
2666 179.7424489722878
2667 179.7526223079956
2668 179.7421364448978
2669 179.7524755839412
2670 179.7417757825798
2671 179.7494065290918
2672 179.7374198132338
2673 179.7538584654546
2674 179.7405454335234
2675 179.7518174239716
2676 179.7363038860966
2677 179.7506849267138
2678 179.7362012037499
2679 179.7492109263206
2680 179.7310497498189
2681 179.7521398415938
2682 179.7333893374339
2683 179.7528103431872
2684 179.7354634629362
2685 179.7522670248503
2686 179.7330648034021
2687 179.7514342745233
2688 179.7332259527213
2689 179.7539277611405
2690 179.7367678733308
2691 179.7531745250373
2692 179.73769481336
2693 179.7530316250711
2694 179.7389094541506
2695 179.7525012812332
2696 179.740229583754
2697 179.756235231863
2698 179.7448659885112
2699 179.7559037917669
2700 179.7418825254473
2701 179.7527232915947
2702 179.7404894890772
2703 179.7528075131529
2704 179.7386385019149
2705 179.7567571087834
2706 179.7430315000007
2707 179.7551478060047
2708 179.742107299841
2709 179.7543395309409
2710 179.741257503141
2711 179.7528161529443
2712 179.7389696240869
2713 179.7553177978783
2714 179.7403200244655
2715 179.7539784333243
2716 179.7391141247829
2717 179.7529511298308
2718 179.7385033690416
2719 179.7520964762549
2720 179.7357470196785
2721 179.7547613332751
2722 179.7381154631373
2723 179.7516136770071
2724 179.7340626686213
2725 179.7476067631772
2726 179.7336772744085
2727 179.7494748945911
2728 179.7346590017017
2729 179.7502377157154
2730 179.7364858596225
2731 179.7506194032044
2732 179.733909630818
2733 179.7473112738352
2734 179.7326112414452
2735 179.7467073269809
2736 179.7336735844095
2737 179.7507294227083
2738 179.7363171307542
2739 179.7485297206823
2740 179.7354034957389
2741 179.7479448646552
2742 179.733474880152
2743 179.7469125397243
2744 179.7357241055639
2745 179.753780998871
2746 179.7383242960647
2747 179.7538315836763
2748 179.7391269978828
2749 179.7510094479457
2750 179.7375706297215
2751 179.7504159654783
2752 179.7353160051374
2753 179.7525383032238
2754 179.7379461026658
2755 179.7516378397538
2756 179.7367778719456
2757 179.7509143808128
2758 179.7385590589935
2759 179.7513908157771
2760 179.7359919976432
2761 179.7550204968549
2762 179.7388635366144
2763 179.7541800693356
2764 179.7391093192488
2765 179.7536429435721
2766 179.7375530880627
2767 179.75217957276
2768 179.7377752959488
2769 179.7576528976145
2770 179.742267251437
2771 179.7569185905151
2772 179.738995643634
2773 179.7551171177668
2774 179.7407315423074
2775 179.7566452323076
2776 179.7371076133698
2777 179.7562354071203
2778 179.7405874396622
2779 179.7531838735643
2780 179.7351938381369
2781 179.7513531448104
2782 179.7359109330405
2783 179.7499864121992
2784 179.735931789552
2785 179.7564748143102
2786 179.7409486576072
2787 179.7547284880281
2788 179.7393838506475
2789 179.7541989967685
2790 179.7404777526131
2791 179.7527407916908
2792 179.7389218715089
2793 179.7567548191867
2794 179.7423675644499
2795 179.7549714264081
2796 179.7412101441545
2797 179.7544865974672
2798 179.7434865757012
2799 179.7537505632318
2800 179.7401913412697
2801 179.7537542082339
2802 179.744268617609
2803 179.7553162473363
2804 179.747186893158
2805 179.7560488244785
2806 179.7470526072995
2807 179.7554268328974
2808 179.7466984054477
2809 179.7574370319031
2810 179.7446736113813
2811 179.7534878619592
2812 179.7413857013807
2813 179.7512195653376
2814 179.7403816497194
2815 179.7491281719613
2816 179.736670813143
2817 179.7529060501152
2818 179.7377496473516
2819 179.7500398570162
2820 179.7356957326579
2821 179.7474396276832
2822 179.7359186269384
2823 179.7481421644096
2824 179.7371971344328
2825 179.7524557147294
2826 179.7434976090616
2827 179.7538182449308
2828 179.7428072929779
2829 179.7557407337509
2830 179.7440175014766
2831 179.7548962841656
2832 179.7410853144794
2833 179.7570175716037
2834 179.7439990861545
2835 179.7558052985278
2836 179.7425371980778
2837 179.7549867142964
2838 179.7424313469429
2839 179.7519040353638
2840 179.7380910387469
2841 179.7551438660987
2842 179.7391854606688
2843 179.7511901072011
2844 179.7366278825925
2845 179.7535382370292
2846 179.7398537374998
2847 179.7525402169972
2848 179.736275881819
2849 179.7523872201036
2850 179.7383481837271
2851 179.7499992948606
2852 179.7320156179191
2853 179.7467971601298
2854 179.7340216254672
2855 179.7456245330087
2856 179.7306941759732
2857 179.7497667215749
2858 179.7350920478919
2859 179.7501553857626
2860 179.733672550495
2861 179.7488429811035
2862 179.7336405647654
2863 179.7498385695983
2864 179.7346776038191
2865 179.7522657175981
2866 179.7379569222443
2867 179.751897010658
2868 179.7377366102779
2869 179.7519834818531
2870 179.7383328875103
2871 179.7509598570772
2872 179.7379791833648
2873 179.7533301278896
2874 179.7394027040753
2875 179.7503326991807
2876 179.7369090500076
2877 179.7481457932421
2878 179.7372200445668
2879 179.7485223638908
2880 179.7333007088628
2881 179.751497125968
2882 179.7364214477818
2883 179.7499497823229
2884 179.7327167470731
2885 179.7508854001724
2886 179.7353564585574
2887 179.7488621718449
2888 179.7342891874038
2889 179.7548754402692
2890 179.7365239793593
2891 179.7495071626209
2892 179.732281800157
2893 179.7470600897565
2894 179.7309730516004
2895 179.7440647810719
2896 179.7303478081563
2897 179.7494308820624
2898 179.7334783775603
2899 179.7456711642169
2900 179.7322895192035
2901 179.7466051011106
2902 179.7328166244762
2903 179.7425369247409
2904 179.7339094948883
2905 179.7492652421157
2906 179.7388692667299
2907 179.7501843899604
2908 179.7402348928655
2909 179.7511470874421
2910 179.7413287373977
2911 179.7509933034904
2912 179.7402401538679
2913 179.7582893132146
2914 179.7430320149482
2915 179.756408215257
2916 179.7418650294809
2917 179.7556929895389
2918 179.7414229250568
2919 179.7540669121877
2920 179.7398912459285
2921 179.7589311162047
2922 179.7420027173139
2923 179.7566042054444
2924 179.7397844198957
2925 179.7574233482098
2926 179.7405817062304
2927 179.7570849280352
2928 179.7387795239951
2929 179.7603855049599
2930 179.7439784296328
2931 179.7584156888076
2932 179.7410834678658
2933 179.7569108863648
2934 179.7398864216098
2935 179.7535220431911
2936 179.7390457494587
2937 179.7596272097159
2938 179.7422152080987
2939 179.7555589560993
2940 179.738473012432
2941 179.7522733625689
2942 179.737864664398
2943 179.7521864568361
2944 179.7398518769752
2945 179.7566912212722
2946 179.7456792545534
2947 179.7544363709783
2948 179.7430950994295
2949 179.7526615924473
2950 179.7436491239816
2951 179.7517623222244
2952 179.7415572134318
2953 179.7545312341325
2954 179.7442956901196
2955 179.7552738237822
2956 179.74129963935
2957 179.7514787422753
2958 179.7392108284581
2959 179.7479026184922
2960 179.7335063928267
2961 179.7506208964436
2962 179.7363817493881
2963 179.7496868675846
2964 179.7353916479953
2965 179.7482563307954
2966 179.7372118823619
2967 179.7502571884562
2968 179.7370454458397
2969 179.7542084408506
2970 179.7417877844382
2971 179.7530686247648
2972 179.7363315113923
2973 179.751278892769
2974 179.7346802725795
2975 179.7476642609663
2976 179.7345873121418
2977 179.7512714851283
2978 179.7370156706439
2979 179.7486037777216
2980 179.7354568893742
2981 179.7463695864415
2982 179.7340699018666
2983 179.7443073556468
2984 179.7343790197793
2985 179.7496080394095
2986 179.7386984226309
2987 179.7470646022956
2988 179.7361354691523
2989 179.743300879436
2990 179.7330248953181
2991 179.7395272408137
2992 179.728495872843
2993 179.7419259878581
2994 179.7290142605686
2995 179.7395290133362
2996 179.7280779104429
2997 179.7400550172456
2998 179.7282056842604
2999 179.7377601611942
3000 179.7265525914863
3001 179.7422224604042
3002 179.7290090376324
3003 179.7422885042695
3004 179.7309548121843
3005 179.7463364258013
3006 179.7337999364348
3007 179.7473062691721
3008 179.734113462626
3009 179.7553797394718
3010 179.7402298681405
3011 179.7540528967229
3012 179.7373693704356
3013 179.7521260067595
3014 179.7361632886485
3015 179.7500164072304
3016 179.7351020120402
3017 179.7529273319031
3018 179.7359018149247
3019 179.748895255896
3020 179.7325408576845
3021 179.7483064050029
3022 179.7307590371659
3023 179.7451621936874
3024 179.7305445162595
3025 179.7506359092889
3026 179.7354485485152
3027 179.7515907808024
3028 179.7340195901616
3029 179.7501012372755
3030 179.7364561126218
3031 179.7473132058079
3032 179.7341402169635
3033 179.7517072156712
3034 179.7364823554743
3035 179.7486976185177
3036 179.7352772018364
3037 179.7466244751873
3038 179.7358931509443
3039 179.7467476269349
3040 179.7356500512913
3041 179.7505621993021
3042 179.7378124232291
3043 179.7495271653818
3044 179.7388957952472
3045 179.7512936314488
3046 179.7392662438585
3047 179.749122254758
3048 179.7363465980476
3049 179.7527664647112
3050 179.7407281274626
3051 179.7534030998707
3052 179.740695439142
3053 179.7524132234849
3054 179.7396041140966
3055 179.7514120201684
3056 179.737118951874
3057 179.7530419817515
3058 179.7384508527342
3059 179.7507311595956
3060 179.7357912518187
3061 179.7495980137182
3062 179.7350624077772
3063 179.7502975602121
3064 179.7354939202209
3065 179.755528466417
3066 179.7399733826683
3067 179.7526981945902
3068 179.7375502801344
3069 179.7521863478109
3070 179.7354106281777
3071 179.7502937575396
3072 179.7342655926684
3073 179.7515266625713
3074 179.7360452655928
3075 179.7520624984633
3076 179.7388870701975
3077 179.7530971666894
3078 179.7381009064214
3079 179.7518851340627
3080 179.7384163842797
3081 179.7565004284806
3082 179.741655904243
3083 179.7565583757239
3084 179.7417344917717
3085 179.7579158317483
3086 179.742398475953
3087 179.7571548884061
3088 179.742079977802
3089 179.7616058768337
3090 179.7445449372518
3091 179.7592432456206
3092 179.7420269938642
3093 179.7561622039353
3094 179.7413640151165
3095 179.7566484204284
3096 179.7393677371329
3097 179.7581516284428
3098 179.739744925057
3099 179.7541370868144
3100 179.7385568912969
3101 179.7519314429106
3102 179.7367782767251
3103 179.7519999682671
3104 179.7371011840532
3105 179.7566918787767
3106 179.7410005102713
3107 179.7556546267578
3108 179.7380873299738
3109 179.7524247937093
3110 179.7395166046595
3111 179.7530617891461
3112 179.738300035843
3113 179.755189692872
3114 179.7411382053935
3115 179.7533957948877
3116 179.7402071242394
3117 179.7517800099683
3118 179.7416838656872
3119 179.7499279408804
3120 179.7395108546364
3121 179.7523833837074
3122 179.7408492845192
3123 179.7537792908434
3124 179.7411563405537
3125 179.7520431975941
3126 179.7411704017424
3127 179.7510898792304
3128 179.7400196524181
3129 179.7548496166305
3130 179.7443467668811
3131 179.7527703402982
3132 179.7392687793387
3133 179.7484840901341
3134 179.7351772378675
3135 179.7467546922472
3136 179.733842809258
3137 179.7499780513102
3138 179.7350732394048
3139 179.7491905282888
3140 179.7322058352903
3141 179.746272772206
3142 179.7325826494994
3143 179.7475646132879
3144 179.7301016784125
3145 179.7497966409407
3146 179.7313092575373
3147 179.7473945042814
3148 179.7317672224507
3149 179.7489160380443
3150 179.7306824104072
3151 179.7483273250926
3152 179.7299616147757
3153 179.7525248621718
3154 179.7339999786429
3155 179.7530261061155
3156 179.7350585173996
3157 179.7520042560579
3158 179.7355662747498
3159 179.7508032648475
3160 179.7354166362516
3161 179.7557867375446
3162 179.7372710585191
3163 179.7542875658904
3164 179.7381602585781
3165 179.7534816178709
3166 179.7399615680381
3167 179.7544263118126
3168 179.737619536987
3169 179.7561225390388
3170 179.7426994835245
3171 179.7540459140023
3172 179.7374173702671
3173 179.7491719524931
3174 179.7338573653202
3175 179.7457060413523
3176 179.7335272693848
3177 179.752037513253
3178 179.7355274753559
3179 179.7493192930836
3180 179.7319531971827
3181 179.7466088038845
3182 179.7324781040465
3183 179.747466031047
3184 179.731660773487
3185 179.7540530126244
3186 179.7385815305898
3187 179.7517403235004
3188 179.7358903988099
3189 179.7490070840794
3190 179.7354640941282
3191 179.7471878182577
3192 179.7307003692943
3193 179.7480682822842
3194 179.7325606683567
3195 179.7478364068896
3196 179.7340871210385
3197 179.7456776733473
3198 179.7323030712469
3199 179.7438551566771
3200 179.7301461072214
3201 179.7486369722247
3202 179.7344730000905
3203 179.7471053319017
3204 179.7356398142883
3205 179.7476641811999
3206 179.7376972815198
3207 179.7489948814703
3208 179.7386625168938
3209 179.7544793886428
3210 179.7410549339259
3211 179.7523498033615
3212 179.7397732813632
3213 179.7534691232088
3214 179.7400539645644
3215 179.7533384602706
3216 179.7378477864115
3217 179.7565467615232
3218 179.7424951936959
3219 179.7538257401484
3220 179.7369679839396
3221 179.7537144299164
3222 179.7355522977343
3223 179.7495540008145
3224 179.7335117551884
3225 179.7541759299143
3226 179.7368897455307
3227 179.7514997598815
3228 179.7354272344712
3229 179.7477009502924
3230 179.7358909876035
3231 179.7456348987821
3232 179.7310837024249
3233 179.7496358681116
3234 179.7334922598306
3235 179.7479690240827
3236 179.7353444024033
3237 179.7495867821456
3238 179.7373691915086
3239 179.7486845851207
3240 179.7357851743827
3241 179.752470465152
3242 179.7384040856672
3243 179.7506872844206
3244 179.7377834685049
3245 179.7506202408445
3246 179.7394552139186
3247 179.7489370990301
3248 179.7383817367462
3249 179.7575684385001
3250 179.7416842855855
3251 179.7531007010809
3252 179.7383330125839
3253 179.7536431250112
3254 179.73956362997
3255 179.7521866652298
3256 179.7390573953444
3257 179.7575671669585
3258 179.7416131633734
3259 179.7543311958051
3260 179.7401409923007
3261 179.7547014005313
3262 179.7394001054317
3263 179.752496662014
3264 179.7354132734316
3265 179.7556444181944
3266 179.740667576853
3267 179.7530007479983
3268 179.7365203487743
3269 179.7502691714984
3270 179.7342273650907
3271 179.7463911057002
3272 179.7332783112705
3273 179.7493103293828
3274 179.7359539964159
3275 179.7472319370054
3276 179.7327911523284
3277 179.7460823580193
3278 179.7365558508233
3279 179.7480257042506
3280 179.7344980015357
3281 179.7517067824801
3282 179.738928684872
3283 179.7503282017679
3284 179.737933234318
3285 179.7521926591635
3286 179.7408300635868
3287 179.7513152794492
3288 179.7378973584661
3289 179.7550664577555
3290 179.7429750795769
3291 179.755114326548
3292 179.7432946367337
3293 179.7566752446922
3294 179.7408327530129
3295 179.7546250925845
3296 179.7408381998311
3297 179.7580604577974
3298 179.7414178704088
3299 179.7531438429362
3300 179.7393066764174
3301 179.7546878386524
3302 179.7407073557889
3303 179.7560635334696
3304 179.7411350269361
3305 179.761215677067
3306 179.7430357556007
3307 179.7596569827845
3308 179.7415582376225
3309 179.7587800721565
3310 179.7432948140228
3311 179.7573826078945
3312 179.7408222452887
3313 179.7614442606064
3314 179.7449475743078
3315 179.7595657155961
3316 179.7441969583698
3317 179.7590979453498
3318 179.7450409991818
3319 179.7571142989821
3320 179.7393446537089
3321 179.7613412701145
3322 179.7433193553823
3323 179.7578196827622
3324 179.7384796690052
3325 179.7549132892691
3326 179.7395140990958
3327 179.7543227725627
3328 179.7369140424008
3329 179.757654263573
3330 179.738925493324
3331 179.7548487624777
3332 179.7359722638504
3333 179.7521950732371
3334 179.7363871245394
3335 179.7526489099807
3336 179.7365334194833
3337 179.7549030085011
3338 179.7410358936454
3339 179.7535696437482
3340 179.7367310440765
3341 179.7509254095664
3342 179.7339958120401
3343 179.7489941820203
3344 179.7343240642308
3345 179.7560857607021
3346 179.7415664709992
3347 179.7558302386457
3348 179.7417123157588
3349 179.7551423955743
3350 179.7435320253824
3351 179.7525646233042
3352 179.7403917641995
3353 179.7538097981961
3354 179.73926015417
3355 179.7507471218568
3356 179.7402538386104
3357 179.7495199273962
3358 179.7392020920814
3359 179.7481167889953
3360 179.7363906949677
3361 179.7509506232989
3362 179.7371752323434
3363 179.7493620738837
3364 179.7360517119843
3365 179.7483729998024
3366 179.7381162361019
3367 179.7502198414545
3368 179.7383974549322
3369 179.7534068914451
3370 179.739381678115
3371 179.7512421236321
3372 179.7360261011443
3373 179.7464172208904
3374 179.7343325219325
3375 179.7455707874721
3376 179.7349413290472
3377 179.7512793463334
3378 179.7390494690046
3379 179.7488452626093
3380 179.7383780891681
3381 179.7484383883029
3382 179.7395025736364
3383 179.7486378708323
3384 179.7393805287288
3385 179.7525673974727
3386 179.7428327396097
3387 179.7522311587539
3388 179.7422493842228
3389 179.7499832923989
3390 179.7426003388182
3391 179.7493094416914
3392 179.7393918177792
3393 179.75333270681
3394 179.7398195538819
3395 179.7497778098951
3396 179.7351941312319
3397 179.7480571500594
3398 179.737613837021
3399 179.7489298697425
3400 179.7362146556961
3401 179.7550656095692
3402 179.7371958028377
3403 179.7527753088456
3404 179.7361083591106
3405 179.7524700918303
3406 179.7320132996971
3407 179.7480797219636
3408 179.7297906818383
3409 179.7499340707253
3410 179.73464957539
3411 179.7498237533025
3412 179.7329905680497
3413 179.7481263172222
3414 179.7345176903229
3415 179.7493978749719
3416 179.7356672304446
3417 179.7545007647144
3418 179.74058514833
3419 179.7530422163804
3420 179.7375391713394
3421 179.7482625733539
3422 179.7399932121886
3423 179.750578566419
3424 179.7398513927114
3425 179.7555047623626
3426 179.7426770821566
3427 179.7535072921316
3428 179.7445777369522
3429 179.7556501495961
3430 179.7425592472895
3431 179.7503734000858
3432 179.7390222201997
3433 179.7550649424188
3434 179.7418029256092
3435 179.7513967969466
3436 179.7390062339934
3437 179.7505117085142
3438 179.7362935000965
3439 179.7484393433619
3440 179.7304138071916
3441 179.7514017814695
3442 179.7331244789063
3443 179.7504844904706
3444 179.7306843232808
3445 179.7498428398224
3446 179.7328207687406
3447 179.7522363299846
3448 179.7357523584211
3449 179.7581841533014
3450 179.7396874001226
3451 179.7570295882214
3452 179.7400845745112
3453 179.7594708457432
3454 179.7418757770096
3455 179.7597450946998
3456 179.7419698249952
3457 179.762253693442
3458 179.7461583615901
3459 179.7593470704988
3460 179.7430145468454
3461 179.758789160026
3462 179.7436087262984
3463 179.7566907124866
3464 179.7433816636354
3465 179.76245650846
3466 179.7470725696684
3467 179.7597291279001
3468 179.7435932077217
3469 179.756206345826
3470 179.7412020732048
3471 179.7514296745785
3472 179.734352093543
3473 179.7538794554266
3474 179.7339687810871
3475 179.7495285060982
3476 179.731790116334
3477 179.7485069048477
3478 179.7305349638788
3479 179.7431719602356
3480 179.7272152168433
3481 179.7474016156859
3482 179.7303506088931
3483 179.7458720262346
3484 179.7314510198185
3485 179.7450066189299
3486 179.7307777770324
3487 179.7451030879965
3488 179.7334832433287
3489 179.7496454366484
3490 179.7375193940795
3491 179.7483032106804
3492 179.733768086469
3493 179.7438208825932
3494 179.7340184608578
3495 179.7429767040299
3496 179.7328717646807
3497 179.7459842519806
3498 179.7360219728392
3499 179.7445329285476
3500 179.7341884108488
3501 179.7440477413208
3502 179.7321188258528
3503 179.7416416400257
3504 179.7291676342043
3505 179.7453817208837
3506 179.7339248985995
3507 179.7453445650514
3508 179.733597851358
3509 179.7462377527959
3510 179.7324716744814
3511 179.7443842784637
3512 179.7287585379002
3513 179.7452889301214
3514 179.7319386267515
3515 179.7440519814317
3516 179.7285151354525
3517 179.7392493198659
3518 179.7288569646496
3519 179.7397450563678
3520 179.7259302576121
3521 179.7427165939945
3522 179.7293716881576
3523 179.7403962252688
3524 179.7280789915059
3525 179.7410689092058
3526 179.7297593977396
3527 179.7425256044938
3528 179.7307470724257
3529 179.747985530141
3530 179.7353019062199
3531 179.7463135286967
3532 179.7339939255603
3533 179.7459863117505
3534 179.7355053793471
3535 179.7451437431759
3536 179.7350142246658
3537 179.7502990038184
3538 179.7408189738452
3539 179.7487742297751
3540 179.7370683612665
3541 179.7480088452432
3542 179.7381165282693
3543 179.7492738844956
3544 179.7373323631527
3545 179.7557188235348
3546 179.7405896786281
3547 179.7567263139233
3548 179.742103132553
3549 179.7578067959174
3550 179.7405919982604
3551 179.7545324266927
3552 179.7368518829716
3553 179.7570469448438
3554 179.7383232784236
3555 179.7552719138633
3556 179.7375597608159
3557 179.7540529743981
3558 179.7348687305924
3559 179.7510032357278
3560 179.7347616101335
3561 179.7558917950912
3562 179.7352319056982
3563 179.754555109826
3564 179.736301455312
3565 179.7515599325729
3566 179.7336628043368
3567 179.7494212371802
3568 179.7329591051024
3569 179.7521677081636
3570 179.7383468316719
3571 179.7532871232414
3572 179.7374468993281
3573 179.7534232529129
3574 179.7395733336589
3575 179.7520194737281
3576 179.7386562358087
3577 179.7552775997476
3578 179.7432069171594
3579 179.7549408223265
3580 179.7419360127583
3581 179.7535263931671
3582 179.7398624749401
3583 179.7545326551977
3584 179.7422091189536
3585 179.7610344872051
3586 179.7476258863788
3587 179.7618233892181
3588 179.7467580976753
3589 179.7571115138361
3590 179.7448574382013
3591 179.7555191188308
3592 179.7414294412561
3593 179.7579484402317
3594 179.7423001283572
3595 179.755469606219
3596 179.7405729034182
3597 179.7541418929266
3598 179.7396670101041
3599 179.7518157712036
3600 179.7365280352801
3601 179.7547375723319
3602 179.7382489045997
3603 179.7544310628039
3604 179.7382144530184
3605 179.7511066777065
3606 179.7350374352074
3607 179.7499047328202
3608 179.735520319451
3609 179.7540709762205
3610 179.7378945473212
3611 179.7540589768076
3612 179.7358103200005
3613 179.751874944607
3614 179.7369236216344
3615 179.7521208937114
3616 179.7380300575061
3617 179.758839492751
3618 179.7419017612675
3619 179.755804689579
3620 179.7422907623614
3621 179.7548981818534
3622 179.7394143245064
3623 179.7512565336156
3624 179.7381318544939
3625 179.7556580688944
3626 179.7399414417975
3627 179.7533341392108
3628 179.7405858768066
3629 179.7515356357619
3630 179.7354654494547
3631 179.7446312585381
3632 179.7329345858031
3633 179.7513313137186
3634 179.7359424501966
3635 179.7487072406907
3636 179.7350087093838
3637 179.7467946728807
3638 179.7343963072699
3639 179.7474932200012
3640 179.7348113198748
3641 179.7511624398509
3642 179.7376091369238
3643 179.7510840519672
3644 179.7374135585841
3645 179.751243480783
3646 179.7379613019278
3647 179.7511996489747
3648 179.7361346401696
3649 179.7546508828331
3650 179.7407884305165
3651 179.7527437889802
3652 179.7382659646093
3653 179.7509013394647
3654 179.7360913576938
3655 179.7486916290437
3656 179.7353951342022
3657 179.7516537633931
3658 179.7364828077387
3659 179.7485430585315
3660 179.7336479271275
3661 179.745157156361
3662 179.7341774567825
3663 179.7463527211769
3664 179.7332453174012
3665 179.7520877789918
3666 179.7391277814014
3667 179.751352004227
3668 179.7391285138798
3669 179.7526619929682
3670 179.7426509985891
3671 179.7552989135102
3672 179.7410835231575
3673 179.7571750998975
3674 179.7468010846175
3675 179.7569242797591
3676 179.7472395428864
3677 179.7560008094959
3678 179.7449059038835
3679 179.7543772985565
3680 179.7444525169708
3681 179.7583451534058
3682 179.7458778467221
3683 179.7567831344248
3684 179.7449661952466
3685 179.7564145978435
3686 179.7430579194649
3687 179.7543873900257
3688 179.741100992585
3689 179.7565138014453
3690 179.7403747430263
3691 179.7537816275496
3692 179.738005444478
3693 179.750000333511
3694 179.7364132525828
3695 179.7493500777241
3696 179.7363416819328
3697 179.7526983164566
3698 179.73851538264
3699 179.7524416409727
3700 179.7376723779512
3701 179.7508548423545
3702 179.737495364697
3703 179.7506064682954
3704 179.7381860291865
3705 179.758728226498
3706 179.7452324240641
3707 179.7593391450652
3708 179.7452821516325
3709 179.7585394994724
3710 179.7422309157082
3711 179.7571133598804
3712 179.7388812730448
3713 179.7582651814359
3714 179.7394789998505
3715 179.7559893819449
3716 179.7384051174232
3717 179.7535602303913
3718 179.7368770538167
3719 179.7502958081604
3720 179.732843133289
3721 179.7528352792212
3722 179.7359033623177
3723 179.7531406660182
3724 179.7369246606904
3725 179.7533184365078
3726 179.7369523175323
3727 179.7526484344638
3728 179.7380333577682
3729 179.757510134761
3730 179.7412320081756
3731 179.7530182498099
3732 179.7359663217445
3733 179.7514544903748
3734 179.7338608638102
3735 179.7480906609908
3736 179.7338414894184
3737 179.7513442676526
3738 179.7364462886434
3739 179.7484156064529
3740 179.7350569003359
3741 179.7503567553724
3742 179.735782956615
3743 179.7469895243458
3744 179.7318160755689
3745 179.7518887669848
3746 179.7365009616441
3747 179.751819814178
3748 179.7357683805119
3749 179.7498339145417
3750 179.7362948383653
3751 179.7488670073617
3752 179.7365030170669
3753 179.7537332796245
3754 179.7388858845864
3755 179.7490996152958
3756 179.7374395163187
3757 179.7470225875987
3758 179.73865819661
3759 179.7478530650507
3760 179.7359680312433
3761 179.748618812534
3762 179.7378130131381
3763 179.7479840356973
3764 179.737365604944
3765 179.7472838916301
3766 179.7367569795385
3767 179.745572665218
3768 179.7357996595467
3769 179.750586381321
3770 179.7409616994422
3771 179.7507341301383
3772 179.7387921719784
3773 179.7500983312734
3774 179.7370099513946
3775 179.7499315348217
3776 179.7352145236963
3777 179.7543714866817
3778 179.7397231511418
3779 179.7547111934066
3780 179.7370941990432
3781 179.7524829056132
3782 179.7385477835001
3783 179.7538055724829
3784 179.7393548839346
3785 179.7582119942807
3786 179.7432248555842
3787 179.7560111265406
3788 179.7421269167131
3789 179.7544880319904
3790 179.7418754886839
3791 179.7516312159605
3792 179.738169149218
3793 179.7532958868056
3794 179.7415257535498
3795 179.752981620264
3796 179.7402286583665
3797 179.7530347848364
3798 179.7408439995631
3799 179.7502410269994
3800 179.7380651272323
3801 179.7543435475715
3802 179.741071594738
3803 179.7532954217192
3804 179.7394039839149
3805 179.7517044054066
3806 179.7373736034398
3807 179.7509101673773
3808 179.7369049968208
3809 179.7537003835631
3810 179.7392942469654
3811 179.7546621389082
3812 179.740073883571
3813 179.7540827632407
3814 179.7408925808377
3815 179.7524543655777
3816 179.7383939531927
3817 179.7559967712535
3818 179.7405706959151
3819 179.7524692587415
3820 179.7372811805763
3821 179.7507012258267
3822 179.7359447508502
3823 179.7484629812342
3824 179.7358970045315
3825 179.7563437689773
3826 179.740512087126
3827 179.7522249505327
3828 179.7376685265532
3829 179.7499791966036
3830 179.737239384301
3831 179.7492514144164
3832 179.7379694419505
3833 179.7533009712958
3834 179.739419989822
3835 179.7527493871191
3836 179.7375054731856
3837 179.7518536966062
3838 179.7386202830841
3839 179.7500602698044
3840 179.733592919442
3841 179.7521513225966
3842 179.736784027652
3843 179.7523002484356
3844 179.7352305694918
3845 179.7525141633939
3846 179.7393345674171
3847 179.7527178404459
3848 179.7407265827939
3849 179.7575802167257
3850 179.7443441702328
3851 179.7569116862054
3852 179.7405887324552
3853 179.7534737023674
3854 179.740214506457
3855 179.7518477717884
3856 179.7362960986267
3857 179.752960865611
3858 179.7399736377008
3859 179.7500140796541
3860 179.7345744602131
3861 179.7470519034166
3862 179.7321515082327
3863 179.7428710541409
3864 179.7271143580738
3865 179.744945438719
3866 179.7307328246838
3867 179.7446491656803
3868 179.7300857915839
3869 179.742309063505
3870 179.7296522475689
3871 179.7439357765587
3872 179.7278278235332
3873 179.7477705839565
3874 179.7304087830757
3875 179.7449258275755
3876 179.727397892033
3877 179.7441260671475
3878 179.7301558873138
3879 179.7476532772226
3880 179.7313903535145
3881 179.7515323265872
3882 179.7327158632272
3883 179.7494721511324
3884 179.7325365831416
3885 179.7506602221323
3886 179.7363211054037
3887 179.7498247612266
3888 179.7341551998607
3889 179.7520472450871
3890 179.7358618248161
3891 179.7483223871336
3892 179.7321620997729
3893 179.7445644807118
3894 179.7311623051502
3895 179.7417133782957
3896 179.729694423933
3897 179.7446814292098
3898 179.7333064497589
3899 179.7411225580007
3900 179.7300912845621
3901 179.7395686213314
3902 179.731369435394
3903 179.7412960210938
3904 179.7325196124426
3905 179.7482897524309
3906 179.7366205009903
3907 179.7470328997497
3908 179.7384656914249
3909 179.7492043631113
3910 179.739538255123
3911 179.7475672317432
3912 179.7362272599957
3913 179.7490134066805
3914 179.7380043459255
3915 179.7478134942642
3916 179.7351988799439
3917 179.746000364341
3918 179.7377588652713
3919 179.7436572528833
3920 179.7349638229188
3921 179.7497034129423
3922 179.7394422718125
3923 179.7495793463845
3924 179.7383618055137
3925 179.7528590968084
3926 179.7422447849323
3927 179.754722911851
3928 179.7413031820723
3929 179.7590625162333
3930 179.7423226380292
3931 179.7574181858025
3932 179.7401528916635
3933 179.7537030345941
3934 179.7379485099156
3935 179.7510135972812
3936 179.7356003432418
3937 179.7569854392588
3938 179.7391701608676
3939 179.7553972073031
3940 179.7362226038638
3941 179.7538753970291
3942 179.7344343919459
3943 179.7519787835188
3944 179.7354626551432
3945 179.7575469112347
3946 179.74059521468
3947 179.7587550649038
3948 179.7388193198455
3949 179.7533675371333
3950 179.7401851646858
3951 179.757685208024
3952 179.7397554550082
3953 179.7585390253655
3954 179.7461375417919
3955 179.7592152104608
3956 179.7463750416449
3957 179.7565053544812
3958 179.7470531098666
3959 179.7560353790492
3960 179.7423572526777
3961 179.7565009224088
3962 179.7433076232282
3963 179.7569207927391
3964 179.7432425142749
3965 179.7549319305846
3966 179.7411751667465
3967 179.7528563884069
3968 179.7423224217137
3969 179.7577917256195
3970 179.7438936867724
3971 179.7531835616306
3972 179.7402742730711
3973 179.7506621908771
3974 179.7412013832109
3975 179.7522285784886
3976 179.7402219534717
3977 179.7566463715894
3978 179.7426406917066
3979 179.7534042239414
3980 179.7359177227495
3981 179.7486571021188
3982 179.7336520444837
3983 179.7485115512372
3984 179.7306356323278
3985 179.7502845579947
3986 179.7322563733167
3987 179.7488613940395
3988 179.7301700562861
3989 179.7476989927519
3990 179.7277447646497
3991 179.7479684652522
3992 179.7270750130895
3993 179.7506992977794
3994 179.7300523300742
3995 179.7478944870309
3996 179.727051787214
3997 179.7462484666447
3998 179.7292707770015
3999 179.7446194428298
4000 179.7271480796315
4001 179.7476959351431
4002 179.7296161061107
4003 179.7456089089501
4004 179.7319220953501
4005 179.7501776323352
4006 179.7368415887433
4007 179.7496154910389
4008 179.7366234063632
4009 179.7523111275262
4010 179.7428104979207
4011 179.7519999564846
4012 179.7388368007637
4013 179.7481158779188
4014 179.7371539971583
4015 179.7465576544398
4016 179.7325504636815
4017 179.7493471253379
4018 179.7383495833646
4019 179.7468279387907
4020 179.7344875207577
4021 179.7468503863903
4022 179.7336732481854
4023 179.7426542174819
4024 179.7307101050943
4025 179.7452600949294
4026 179.7328869554605
4027 179.7449084881766
4028 179.7318227018712
4029 179.7442060877279
4030 179.7317047943737
4031 179.7440712535681
4032 179.7278396892443
4033 179.7464966446661
4034 179.730464779816
4035 179.744936496089
4036 179.7281462713857
4037 179.7417782898352
4038 179.7289794521517
4039 179.7426051821305
4040 179.7303602304262
4041 179.7482316645414
4042 179.734775187333
4043 179.7487486077686
4044 179.7379287671561
4045 179.7530847309673
4046 179.741059199674
4047 179.7558804148485
4048 179.7427812742701
4049 179.7602859646652
4050 179.7456233022788
4051 179.7587952375457
4052 179.7425977364154
4053 179.7557176836668
4054 179.7426579638135
4055 179.753940347009
4056 179.7390820680567
4057 179.7568115337442
4058 179.7405444933636
4059 179.7531878151874
4060 179.7363701844836
4061 179.7513245589593
4062 179.735604539227
4063 179.7480024066001
4064 179.7350363804581
4065 179.7542718225767
4066 179.7407867537381
4067 179.7540042319799
4068 179.7392388377124
4069 179.7515441826387
4070 179.7386444056662
4071 179.7520874954215
4072 179.7391623112605
4073 179.7548466519127
4074 179.7434926663098
4075 179.7541103487957
4076 179.7430056082867
4077 179.7553277932342
4078 179.7436791391907
4079 179.7516499407008
4080 179.7396519254296
4081 179.7546163060129
4082 179.7453155359484
4083 179.7572158396132
4084 179.744320130865
4085 179.7571683182098
4086 179.7453990932157
4087 179.7575221043134
4088 179.745656461302
4089 179.7617702069192
4090 179.7484698337686
4091 179.7599874122619
4092 179.7441716565429
4093 179.7573781417124
4094 179.7419194945601
4095 179.7557365173893
4096 179.7413397757106
4097 179.7596742380788
4098 179.7456615408451
4099 179.7600760993931
4100 179.7426075200013
4101 179.7592327770006
4102 179.742804144726
4103 179.7586576671266
4104 179.7411019788987
4105 179.7639494767614
4106 179.7468577317041
4107 179.7638622311896
4108 179.7452154262796
4109 179.7619344008702
4110 179.7421273523178
4111 179.7581409783309
4112 179.7395187903757
4113 179.7595472685569
4114 179.7425269312106
4115 179.7588464946205
4116 179.741425288836
4117 179.7563724268769
4118 179.7412280042458
4119 179.7534793453171
4120 179.7382615299481
4121 179.753709192142
4122 179.7391639492825
4123 179.7491486593415
4124 179.7336636329549
4125 179.7473629064027
4126 179.7353810287678
4127 179.7437128036914
4128 179.7318504641482
4129 179.7464495965193
4130 179.736370683826
4131 179.747532489122
4132 179.7340139468134
4133 179.7452629201603
4134 179.7359044790362
4135 179.7474085462185
4136 179.7360486810915
4137 179.7513680246042
4138 179.7395950289758
4139 179.75008402715
4140 179.7361875359093
4141 179.7492113996074
4142 179.7365858258665
4143 179.748835548537
4144 179.7340399717279
4145 179.7555787794204
4146 179.7381493648284
4147 179.7533951167898
4148 179.7373259354544
4149 179.7524638570672
4150 179.7365158626267
4151 179.7487536108488
4152 179.7328426692378
4153 179.7508420009466
4154 179.7341961311051
4155 179.7465140810168
4156 179.7315572631564
4157 179.7443256091384
4158 179.7313302781074
4159 179.7418793663204
4160 179.7285459457213
4161 179.7449762502625
4162 179.7327177684924
4163 179.7432115285158
4164 179.7350755356851
4165 179.7453887888502
4166 179.7345932951427
4167 179.7438621000375
4168 179.7375652272975
4169 179.750627666747
4170 179.7392356572751
4171 179.7493085800653
4172 179.7380950563158
4173 179.7483587835509
4174 179.7373669687014
4175 179.747950583887
4176 179.7345520912176
4177 179.7516566519273
4178 179.7385420290018
4179 179.7490351199438
4180 179.7339922851167
4181 179.7444605241879
4182 179.7317150869612
4183 179.7443137241189
4184 179.7307965905142
4185 179.7499767465143
4186 179.7352295434429
4187 179.7483450993823
4188 179.7323257320084
4189 179.7466404797443
4190 179.7352766518748
4191 179.7490711291927
4192 179.7345725067636
4193 179.751564443697
4194 179.7364944689622
4195 179.7501658818201
4196 179.7363857520214
4197 179.7495218196973
4198 179.7386039399742
4199 179.748779710584
4200 179.7353128832395
4201 179.7537325629203
4202 179.7400537003612
4203 179.7549510527605
4204 179.737797918142
4205 179.7526091135556
4206 179.7402229517452
4207 179.7535886615522
4208 179.7391432466898
4209 179.7579801769689
4210 179.7420164590363
4211 179.7557358659374
4212 179.7407813802591
4213 179.7555714457403
4214 179.7426723714717
4215 179.7569521124597
4216 179.7436907419069
4217 179.7620007643175
4218 179.7463797563718
4219 179.7576706643403
4220 179.7416812678726
4221 179.7540369794371
4222 179.7407910130227
4223 179.7519989597518
4224 179.7399533322197
4225 179.7585293939158
4226 179.7446340411055
4227 179.7559922685407
4228 179.7440251517628
4229 179.7543156357092
4230 179.7411581993773
4231 179.7531672880627
4232 179.7382440602255
4233 179.7535580464475
4234 179.7388033446448
4235 179.7489358182051
4236 179.735636098088
4237 179.7484090173792
4238 179.7347323882111
4239 179.7483256923613
4240 179.7326326889137
4241 179.7523557062902
4242 179.7344663553907
4243 179.7490615033828
4244 179.7345848100921
4245 179.7523778466483
4246 179.7366744905761
4247 179.7508372048873
4248 179.7363118102494
4249 179.754940284489
4250 179.739708780334
4251 179.7539825793248
4252 179.7358338468177
4253 179.74934327536
4254 179.733035470584
4255 179.748931560599
4256 179.7304602799052
4257 179.7509040470648
4258 179.7329623923227
4259 179.7482548440432
4260 179.728884400313
4261 179.7487526191582
4262 179.7315758648949
4263 179.7501911487658
4264 179.7314745781191
4265 179.7545486997703
4266 179.7358448288031
4267 179.7520798342572
4268 179.7337511722492
4269 179.7506050597905
4270 179.7340498368845
4271 179.748808234014
4272 179.7312681864406
4273 179.7513382686849
4274 179.733535249039
4275 179.7480058294948
4276 179.7309154720709
4277 179.7457840871133
4278 179.7334688815669
4279 179.7436188078088
4280 179.7273931562689
4281 179.7443655559463
4282 179.7327888266185
4283 179.7440446970729
4284 179.7306347831876
4285 179.7448038818755
4286 179.7326647788738
4287 179.7477584963612
4288 179.7354079496086
4289 179.7519420170654
4290 179.7393897683532
4291 179.7505987216948
4292 179.7392810442699
4293 179.7514364284195
4294 179.7385620026531
4295 179.7498053758221
4296 179.7377170286988
4297 179.7528242865136
4298 179.739327414639
4299 179.751539122478
4300 179.7388934697029
4301 179.7519887304401
4302 179.7394222445979
4303 179.7520995013276
4304 179.7386955096237
4305 179.7569295421673
4306 179.742449486711
4307 179.755453191723
4308 179.7399411786734
4309 179.7528958133818
4310 179.7400653501047
4311 179.7546189231834
4312 179.7402921682303
4313 179.7575976604356
4314 179.7415759038479
4315 179.7578302419985
4316 179.7412279437782
4317 179.7547898843392
4318 179.7378550229969
4319 179.7490238537639
4320 179.7329689712222
4321 179.75047314357
4322 179.7354728490643
4323 179.7492116595236
4324 179.7354886715821
4325 179.7481812339431
4326 179.7370177115958
4327 179.7489832754308
4328 179.7358066027372
4329 179.750142152559
4330 179.7379078259841
4331 179.7470712480923
4332 179.736179054767
4333 179.7448153274957
4334 179.7365838600714
4335 179.7442737011008
4336 179.7361477585185
4337 179.7485270631287
4338 179.7415334351696
4339 179.7494818337917
4340 179.7401099509763
4341 179.7486294950039
4342 179.7412106659672
4343 179.7492521838938
4344 179.7396229653853
4345 179.752606679207
4346 179.7428223912342
4347 179.7517372720716
4348 179.7430291517529
4349 179.7522558299341
4350 179.7409950269535
4351 179.7528461835956
4352 179.7394504121352
4353 179.7548742575924
4354 179.7385232307935
4355 179.7533526792467
4356 179.7344068561895
4357 179.7497892947634
4358 179.7322854771144
4359 179.7481568835157
4360 179.7274259503928
4361 179.7475043422518
4362 179.7270396150148
4363 179.7443890170805
4364 179.725671103889
4365 179.7455032922135
4366 179.7274438221961
4367 179.7449166232247
4368 179.7290224341953
4369 179.7496682051516
4370 179.7331650751661
4371 179.750803530612
4372 179.7341517330501
4373 179.7486633038136
4374 179.7342278234171
4375 179.747269713364
4376 179.7342121280971
4377 179.7502875603251
4378 179.7362702753596
4379 179.7486950886029
4380 179.7349605541719
4381 179.7465801464657
4382 179.7363309786252
4383 179.7498552489596
4384 179.7351508520485
4385 179.7522687738839
4386 179.7385477828558
4387 179.7534755173918
4388 179.7396322149783
4389 179.7519166115408
4390 179.7382901673728
4391 179.7521507319401
4392 179.7353805389437
4393 179.7549251798711
4394 179.7342978528155
4395 179.7505253212594
4396 179.7314742812049
4397 179.7483350828395
4398 179.7296122099469
4399 179.7470517369036
4400 179.7303385634862
4401 179.7506285458446
4402 179.734998589142
4403 179.7505696287683
4404 179.732705704562
4405 179.7487117623907
4406 179.7326721697182
4407 179.7471111227195
4408 179.7319886602286
4409 179.7499854598958
4410 179.7346181621061
4411 179.7476547799359
4412 179.7299693886275
4413 179.7422946558106
4414 179.73059870348
4415 179.7423893303672
4416 179.7277078040257
4417 179.7438613848122
4418 179.7310213912509
4419 179.7444208171178
4420 179.7310843209149
4421 179.7429907563995
4422 179.7319948200708
4423 179.7442067757887
4424 179.7325841371826
4425 179.7521782959097
4426 179.7380382118018
4427 179.7538598124231
4428 179.7408535836246
4429 179.7533526046664
4430 179.7416419506102
4431 179.7545923128572
4432 179.7400515338582
4433 179.7565982010433
4434 179.7437395276042
4435 179.7577090434792
4436 179.7443111257394
4437 179.7569277786629
4438 179.7453479226777
4439 179.7555214182584
4440 179.7416285395021
4441 179.7569367490379
4442 179.7439081390323
4443 179.7561341211016
4444 179.7454014537377
4445 179.7548964609558
4446 179.7440699058691
4447 179.7539568406251
4448 179.7445146310623
4449 179.7586601726106
4450 179.7450023582042
4451 179.7548855442357
4452 179.7421781565847
4453 179.752600943303
4454 179.7428217114191
4455 179.7539577162513
4456 179.74515955022
4457 179.7586567850375
4458 179.7468992770246
4459 179.7571498591132
4460 179.7405619321308
4461 179.7517300202998
4462 179.7401452198489
4463 179.7521252426355
4464 179.7376474800823
4465 179.7551605461895
4466 179.7431423929264
4467 179.7539701288235
4468 179.742237560859
4469 179.7540298946458
4470 179.7395016100421
4471 179.7490493606011
4472 179.7374293745977
4473 179.7528895590601
4474 179.7409524852895
4475 179.7524383081215
4476 179.738031547154
4477 179.7506981767818
4478 179.7384477680687
4479 179.7498501060606
4480 179.7333914359858
4481 179.7523208862627
4482 179.7342921949744
4483 179.7507638251162
4484 179.7334371266003
4485 179.7506474132992
4486 179.7358279817456
4487 179.7494520953193
4488 179.7333821162586
4489 179.7510337855779
4490 179.7354467158481
4491 179.7480745771292
4492 179.7308609036348
4493 179.7444372435454
4494 179.7313851597169
4495 179.7456151866271
4496 179.7322107959201
4497 179.7501744123929
4498 179.7349526099133
4499 179.7487011017827
4500 179.732718424242
4501 179.74686705677
4502 179.73384758111
4503 179.7464620435857
4504 179.7328657957381
4505 179.7485652167628
4506 179.7364776009537
4507 179.7502143475522
4508 179.7361658811541
4509 179.7479650608935
4510 179.7366393945016
4511 179.7484609064932
4512 179.7323522251277
4513 179.7474391704568
4514 179.7343649180777
4515 179.7466172879071
4516 179.732513071797
4517 179.7456934392413
4518 179.7313059124704
4519 179.744155333156
4520 179.7309150935352
4521 179.7491001513061
4522 179.7315000884429
4523 179.7470864341666
4524 179.7312438403471
4525 179.7471081894316
4526 179.7345761742663
4527 179.7499414178691
4528 179.7350533622078
4529 179.7540628365864
4530 179.7362132748048
4531 179.7513447542213
4532 179.7348316582352
4533 179.7481475501917
4534 179.7343075846573
4535 179.7505375152656
4536 179.7319269220009
4537 179.7507701209801
4538 179.7336141165846
4539 179.7503753993134
4540 179.7329634573622
4541 179.7483187216936
4542 179.7317475558941
4543 179.7477809421173
4544 179.7314793183275
4545 179.7517783703559
4546 179.7352454777809
4547 179.7517063945012
4548 179.7354952643545
4549 179.7502195892609
4550 179.7335257172674
4551 179.7490773017029
4552 179.7354443087474
4553 179.7520316253258
4554 179.7383559573277
4555 179.7532839998009
4556 179.7387515565439
4557 179.7504812566867
4558 179.7390055630387
4559 179.7497504868318
4560 179.7373640754158
4561 179.7527695649031
4562 179.7421768087103
4563 179.7539372703507
4564 179.7424601468461
4565 179.7535968070987
4566 179.7470248969794
4567 179.7580328674984
4568 179.7457281941347
4569 179.7607297883462
4570 179.7484890561571
4571 179.7603717915622
4572 179.7450540937054
4573 179.7583305290904
4574 179.7434174633438
4575 179.7573990492263
4576 179.7418962655491
4577 179.7600650186559
4578 179.7427328747028
4579 179.7570122260075
4580 179.7416353578188
4581 179.7576279412465
4582 179.7405364176274
4583 179.7545093086695
4584 179.7367299744082
4585 179.7582790302984
4586 179.7412858085844
4587 179.7587921669936
4588 179.7413677534262
4589 179.7568347383906
4590 179.7378049453862
4591 179.7547743133134
4592 179.7381510420126
4593 179.7585501569839
4594 179.7425179402114
4595 179.759167738003
4596 179.7424276259567
4597 179.7566570281641
4598 179.7435511840514
4599 179.7549787337935
4600 179.7436408680225
4601 179.7600651078852
4602 179.7464455002671
4603 179.7596878754923
4604 179.7476290488869
4605 179.7582315426619
4606 179.7490124002307
4607 179.7580214211894
4608 179.748356546298
4609 179.7615309424585
4610 179.7490343135187
4611 179.7585650890341
4612 179.7449754147758
4613 179.7543970880313
4614 179.7429531836878
4615 179.7518516834974
4616 179.7400527110308
4617 179.7551779797638
4618 179.7420064553516
4619 179.7502680834519
4620 179.735217391013
4621 179.7470023985929
4622 179.7329398403078
4623 179.7446654869626
4624 179.7316242403421
4625 179.7506966626626
4626 179.7359562422069
4627 179.7504550440155
4628 179.7360212461117
4629 179.7493947124886
4630 179.7370843773746
4631 179.7479193321306
4632 179.7335634663206
4633 179.7495799724063
4634 179.7360573021093
4635 179.7494457723506
4636 179.7388738123699
4637 179.7513483294041
4638 179.7397915791039
4639 179.752668179904
4640 179.738864464554
4641 179.7570880723768
4642 179.7419605012164
4643 179.7545572335895
4644 179.7383032618107
4645 179.7511418057148
4646 179.7364767490179
4647 179.7497250679492
4648 179.7369154107042
4649 179.7515875588109
4650 179.7362411226177
4651 179.7492119988631
4652 179.7321285601369
4653 179.7436523801831
4654 179.7291412843335
4655 179.7412754202589
4656 179.7263931405221
4657 179.744943743495
4658 179.7298570036439
4659 179.7435602811898
4660 179.7278165225232
4661 179.7411676366787
4662 179.7278567701672
4663 179.7416017319371
4664 179.7294740587028
4665 179.748461565351
4666 179.7338755427163
4667 179.7452257577853
4668 179.7328748754599
4669 179.7436178268374
4670 179.7332913785142
4671 179.7433274882898
4672 179.732857164531
4673 179.7466769538263
4674 179.73628416849
4675 179.7462729627198
4676 179.7332091126796
4677 179.7438110537045
4678 179.7345727455209
4679 179.7447233039098
4680 179.7283549876588
4681 179.7470980391967
4682 179.7309475787744
4683 179.7456814571709
4684 179.728383260048
4685 179.7441965691955
4686 179.7266301987312
4687 179.7434708462059
4688 179.7249664991694
4689 179.7468207103725
4690 179.7279802930233
4691 179.7461401660009
4692 179.7265565646359
4693 179.7458636398988
4694 179.7278311415856
4695 179.7458625011103
4696 179.7276655637732
4697 179.74944317903
4698 179.728688995725
4699 179.7452896993758
4700 179.7261631333203
4701 179.7434122586685
4702 179.7304591619133
4703 179.7449154159194
4704 179.7315094295861
4705 179.7514788957893
4706 179.7375684291825
4707 179.7515298034365
4708 179.7411374520841
4709 179.7495529475415
4710 179.7402462706764
4711 179.7487319213016
4712 179.7391699236881
4713 179.7518734718509
4714 179.7427080227896
4715 179.7504706454813
4716 179.7394577039251
4717 179.7463478537248
4718 179.7388464448141
4719 179.7452584304668
4720 179.7328175213607
4721 179.748246104394
4722 179.7367417247536
4723 179.7482767597198
4724 179.7337901331658
4725 179.7462596073117
4726 179.7343695466544
4727 179.7453821860976
4728 179.732246601528
4729 179.7493062341601
4730 179.7330596232878
4731 179.7489389896579
4732 179.7324759811843
4733 179.7485951437777
4734 179.7341459395899
4735 179.750534178902
4736 179.7342076146944
4737 179.7555447726852
4738 179.7401255787538
4739 179.7521207572565
4740 179.7365345747926
4741 179.7516534149732
4742 179.7365480957061
4743 179.7514332873351
4744 179.7374849757117
4745 179.7543019059512
4746 179.7429264492851
4747 179.755490110314
4748 179.7406991879779
4749 179.7532498458053
4750 179.741262476839
4751 179.7525989257059
4752 179.7369102793224
4753 179.7497392138145
4754 179.7384478249827
4755 179.750040892609
4756 179.736571446487
4757 179.7473853428095
4758 179.7374684621716
4759 179.7491200631414
4760 179.7365395141917
4761 179.7519368792782
4762 179.7413401679375
4763 179.7549211741271
4764 179.7402097573307
4765 179.7524680855736
4766 179.7415985011179
4767 179.7551044516626
4768 179.7427983029837
4769 179.7564968967064
4770 179.7420280180642
4771 179.7554190752298
4772 179.7400304947139
4773 179.7537719862764
4774 179.7401734266766
4775 179.7514823231091
4776 179.7363582429107
4777 179.7523004720439
4778 179.7382302855555
4779 179.7508372180262
4780 179.7365846395364
4781 179.7480677224458
4782 179.7349474865984
4783 179.7466631334148
4784 179.7321288244318
4785 179.7524594128471
4786 179.7359987659849
4787 179.7507453858903
4788 179.7337600807762
4789 179.7495117600602
4790 179.732810300407
4791 179.7484666971888
4792 179.7301373663586
4793 179.7487336060155
4794 179.7323464000893
4795 179.7460888359359
4796 179.7293539857081
4797 179.7443131930691
4798 179.7301865240523
4799 179.7434221103991
4800 179.7284293152938
4801 179.7481598612629
4802 179.7344193980465
4803 179.7499131696916
4804 179.7362431852867
4805 179.7512725872978
4806 179.7375462045997
4807 179.7501022871981
4808 179.7408825572683
4809 179.7550624306603
4810 179.7425287298418
4811 179.7531854718732
4812 179.7407310315621
4813 179.7502908745633
4814 179.741157031231
4815 179.7509814741919
4816 179.7386817228961
4817 179.7532757011247
4818 179.7411813216495
4819 179.7522147292694
4820 179.7367561924052
4821 179.7484659900067
4822 179.7354634697898
4823 179.7471235337934
4824 179.7305799180221
4825 179.7503388396348
4826 179.7357985344397
4827 179.7505025135897
4828 179.7352642222094
4829 179.7489804673627
4830 179.7333894677398
4831 179.7476885478673
4832 179.7348458181487
4833 179.7554614867615
4834 179.740860041806
4835 179.7550282000052
4836 179.7413744649521
4837 179.7561180495187
4838 179.7454401148894
4839 179.7568304131435
4840 179.7425619025173
4841 179.759708934478
4842 179.7443273001616
4843 179.7590157546533
4844 179.7408580930215
4845 179.7543678113573
4846 179.7407561623845
4847 179.7522476991377
4848 179.7373431324882
4849 179.7525491090399
4850 179.7376156858338
4851 179.7510349821039
4852 179.7351120186374
4853 179.7458179210153
4854 179.7340627597953
4855 179.7456699349877
4856 179.7344017669151
4857 179.7505482605142
4858 179.7399946024101
4859 179.7494191477202
4860 179.7355091933017
4861 179.7470499409987
4862 179.7336364558949
4863 179.7467239621879
4864 179.7359116133271
4865 179.7510182779752
4866 179.7370927336397
4867 179.7503069778163
4868 179.7388662212042
4869 179.7498919759176
4870 179.7399566276709
4871 179.7491394306119
4872 179.7333098206007
4873 179.7502786264845
4874 179.7370252874088
4875 179.7516485059566
4876 179.7360420545456
4877 179.7496598556201
4878 179.734930850763
4879 179.7483556990299
4880 179.7329859624785
4881 179.7515092124934
4882 179.7363880282203
4883 179.7490089545811
4884 179.7336066922605
4885 179.7464814250105
4886 179.7349697210504
4887 179.7476896843396
4888 179.7358388417538
4889 179.750749277474
4890 179.737622459572
4891 179.7483203052479
4892 179.7352882773691
4893 179.745044600029
4894 179.7336007087854
4895 179.7417659687161
4896 179.7286924527309
4897 179.7456237358553
4898 179.7340371425589
4899 179.7451197853978
4900 179.7294015034784
4901 179.7421183499607
4902 179.731751855557
4903 179.7431884197228
4904 179.7304271026005
4905 179.749433321468
4906 179.7350496977046
4907 179.7497817165233
4908 179.7355793226334
4909 179.7482037046135
4910 179.7334268886167
4911 179.7483535540572
4912 179.7345956159634
4913 179.7526285006602
4914 179.7386462453081
4915 179.7527528782142
4916 179.7391790453902
4917 179.7518104509105
4918 179.7403925755241
4919 179.7494766795434
4920 179.735441138595
4921 179.7505854102361
4922 179.7390507599492
4923 179.7519002580071
4924 179.7391720497716
4925 179.751328099161
4926 179.739753306173
4927 179.7522272814649
4928 179.7405573245857
4929 179.7563927205831
4930 179.7450035750716
4931 179.7568675122789
4932 179.743265094698
4933 179.7555141541019
4934 179.7416949842826
4935 179.7543599957723
4936 179.7403603216817
4937 179.7575241629699
4938 179.7407168933765
4939 179.7539934784267
4940 179.7374284523054
4941 179.7520672496057
4942 179.7373403943685
4943 179.7539109220685
4944 179.7357558925848
4945 179.7550884968495
4946 179.7383344707446
4947 179.7554197149052
4948 179.7354311419322
4949 179.7530589754069
4950 179.7362200998193
4951 179.754950127496
4952 179.735220462388
4953 179.7576203348281
4954 179.7369454289804
4955 179.7564902153534
4956 179.7369623678555
4957 179.7541377790137
4958 179.7382523919801
4959 179.7532736953475
4960 179.734997388641
4961 179.7558660013586
4962 179.7381938447764
4963 179.7529251468489
4964 179.7370211734579
4965 179.7523573519226
4966 179.7389619951377
4967 179.7533611887444
4968 179.7383169234843
4969 179.7550850452091
4970 179.7404732579469
4971 179.7523040377657
4972 179.7371471515855
4973 179.7500745649276
4974 179.7385814440698
4975 179.7525815375525
4976 179.7416890106533
4977 179.7600654288468
4978 179.7464883494766
4979 179.75925245143
4980 179.7441157584638
4981 179.7581228386942
4982 179.7445638712847
4983 179.7575695789371
4984 179.745032050091
4985 179.7617789629216
4986 179.7449403200857
4987 179.760366668889
4988 179.7461745184893
4989 179.7567968535815
4990 179.7430808836858
4991 179.754297397972
4992 179.7400218868513
4993 179.7543457341925
4994 179.7413650853601
4995 179.7515599586073
4996 179.7390555714838
4997 179.7488934508262
4998 179.7403560228208
4999 179.7488806902355
5000 179.7364810276447
5001 179.7503900704904
5002 179.7379636902651
5003 179.746542136244
5004 179.7351153191002
5005 179.744698012512
5006 179.7354894334395
5007 179.7448832389869
5008 179.7344858384221
5009 179.7489744486488
5010 179.736019352416
5011 179.7473200692
5012 179.7338585035699
5013 179.7459150881462
5014 179.7316526910607
5015 179.744978738903
5016 179.7308254161206
5017 179.7484724960892
5018 179.7365771592472
5019 179.749976909849
5020 179.7345516882049
5021 179.7466455844346
5022 179.732397689779
5023 179.7464360789347
5024 179.7307954966995
5025 179.7475652964696
5026 179.7358607235222
5027 179.7468810460088
5028 179.7352082334122
5029 179.7468427335027
5030 179.7355131178286
5031 179.7464484940791
5032 179.7344231475999
5033 179.7482453801056
5034 179.7320450116798
5035 179.7451929114704
5036 179.7303545311766
5037 179.7424683137491
5038 179.7278084482835
5039 179.7391442184747
5040 179.7258644900104
5041 179.7446000058999
5042 179.7330641562496
5043 179.7482495663002
5044 179.7337539767789
5045 179.7491198015858
5046 179.7362507499942
5047 179.748871574625
5048 179.7364310062859
5049 179.75389440507
5050 179.74055361912
5051 179.7538625951333
5052 179.738013989286
5053 179.7499214518496
5054 179.7401109449416
5055 179.7524720132112
5056 179.7397999381408
5057 179.756182761207
5058 179.7403077684936
5059 179.7539310447363
5060 179.7410579537231
5061 179.753203180068
5062 179.7391538531149
5063 179.7514581698047
5064 179.7360189618582
5065 179.7559782759977
5066 179.7400405375253
5067 179.757613343871
5068 179.7397470680555
5069 179.7549212906932
5070 179.7376589567541
5071 179.7560211939862
5072 179.7350360921488
5073 179.7558853869113
5074 179.7404431552638
5075 179.7562461819798
5076 179.7377617462988
5077 179.7518062115907
5078 179.7389662217188
5079 179.7508388248974
5080 179.7345657577539
5081 179.7533037136673
5082 179.7400854433071
5083 179.7540826798866
5084 179.7404359180683
5085 179.7556722944327
5086 179.7429065377453
5087 179.7545900893031
5088 179.7424821602758
5089 179.7584720634367
5090 179.7439320837811
5091 179.756161116414
5092 179.7445915310001
5093 179.7566285533485
5094 179.7458269731917
5095 179.758487846237
5096 179.7451943090521
5097 179.76114328325
5098 179.7491713988295
5099 179.7605521088361
5100 179.7429797543838
5101 179.7551712790768
5102 179.7446161889766
5103 179.7564053249529
5104 179.7450651131046
5105 179.7576284784385
5106 179.7472798447496
5107 179.7568020779384
5108 179.7476088312589
5109 179.7558025921691
5110 179.7443305395419
5111 179.7525114996961
5112 179.7402562168822
5113 179.7539753049163
5114 179.7398184454953
5115 179.752962582271
5116 179.739651080687
5117 179.751477357577
5118 179.7387283633865
5119 179.7513455849267
5120 179.7351693379839
5121 179.7544835774082
5122 179.738290169349
5123 179.7535917946146
5124 179.7357406437041
5125 179.7526988097883
5126 179.7383708204641
5127 179.756681671386
5128 179.7404333792765
5129 179.7574510131361
5130 179.7429234888713
5131 179.7566640396897
5132 179.7378405211437
5133 179.7513421646773
5134 179.7355985286725
5135 179.7489275200091
5136 179.7334760949847
5137 179.7489863828535
5138 179.7380464863975
5139 179.7503444616893
5140 179.7365256212216
5141 179.7470588674221
5142 179.733317510671
5143 179.7446892598216
5144 179.7316076427911
5145 179.7460793043461
5146 179.7342147492547
5147 179.7452227749893
5148 179.7306317060512
5149 179.7433442151035
5150 179.7300924146188
5151 179.7415353275587
5152 179.7267636634825
5153 179.7428721680357
5154 179.7278529974967
5155 179.7400224287973
5156 179.7276890069053
5157 179.7401011577997
5158 179.7288052534212
5159 179.73740157953
5160 179.7253976980585
5161 179.740989657226
5162 179.7265426004884
5163 179.7391644035485
5164 179.7266634856134
5165 179.741795144452
5166 179.7298997833568
5167 179.7435956770112
5168 179.7303815076754
5169 179.7475614268522
5170 179.7336264348158
5171 179.7465237049887
5172 179.7301643436714
5173 179.7424924508593
5174 179.7292008152164
5175 179.7433109082087
5176 179.7287374957438
5177 179.7451948002527
5178 179.7326140906663
5179 179.7454787761742
5180 179.7309052972905
5181 179.7455798050876
5182 179.7339093967333
5183 179.746064099161
5184 179.7322651896203
5185 179.7516092819801
5186 179.7362284102526
5187 179.7495080718502
5188 179.7365819620011
5189 179.7495978888056
5190 179.7368897644296
5191 179.7491990865856
5192 179.7350094467777
5193 179.7556098434184
5194 179.7388037297232
5195 179.7546193641079
5196 179.7370806654461
5197 179.7533385568621
5198 179.7393598609124
5199 179.7537241173819
5200 179.7331531497525
5201 179.7537917683181
5202 179.7353000877246
5203 179.7516379396495
5204 179.7336693948641
5205 179.7510276578333
5206 179.7372113745027
5207 179.7537529321077
5208 179.7379919664304
5209 179.7568998398745
5210 179.742692339674
5211 179.7579741838872
5212 179.7418170764915
5213 179.7542204887284
5214 179.7424556322353
5215 179.7524647955328
5216 179.7405566176909
5217 179.7534485462035
5218 179.7446206169786
5219 179.7536418243036
5220 179.7383791178433
5221 179.7487850577582
5222 179.7383609126489
5223 179.7499870741891
5224 179.7360372308962
5225 179.7504588788437
5226 179.7393230794954
5227 179.7530708115451
5228 179.7385334831955
5229 179.7504941846688
5230 179.7371322329934
5231 179.7506716292956
5232 179.7379386620686
5233 179.7549537297851
5234 179.7424165502759
5235 179.7562090107224
5236 179.7428511474496
5237 179.7535710721469
5238 179.7420657329883
5239 179.7499613932378
5240 179.7385030398404
5241 179.7540336710827
5242 179.7384429262573
5243 179.7485450844383
5244 179.7359416950159
5245 179.7482031876355
5246 179.736880981847
5247 179.7471957347198
5248 179.7345159910199
5249 179.7495732380579
5250 179.7372577860775
5251 179.7467064530048
5252 179.7336305499919
5253 179.7454482110997
5254 179.7345093464828
5255 179.7450732623372
5256 179.7326280091319
5257 179.7498005147694
5258 179.7392049247573
5259 179.7512605090624
5260 179.7366716238838
5261 179.7480834931573
5262 179.7356868649561
5263 179.747778437986
5264 179.7351411357817
5265 179.7529391204073
5266 179.7390134602374
5267 179.7518274624678
5268 179.7369402069192
5269 179.7499534821215
5270 179.7358420430371
5271 179.7480451806194
5272 179.7340076888636
5273 179.7499343961341
5274 179.7343994684987
5275 179.7490134164641
5276 179.7332994156145
5277 179.7467850408848
5278 179.7339375396358
5279 179.7453779875984
5280 179.7306834393083
5281 179.7503806794521
5282 179.7347975689068
5283 179.750045093596
5284 179.733870077819
5285 179.7507872937286
5286 179.7358112160753
5287 179.7508708232599
