"x-rfile"
"Iteration" "x"
("Iteration" "x")
1 6594.265848229242
2 5922.540440094553
3 4456.863087532414
4 3549.231643222032
5 2578.878472276067
6 1996.750326166092
7 1579.875244102852
8 1218.304391692538
9 926.7238919668398
10 653.5823378924028
11 408.9181676042019
12 200.2415572077573
13 69.85349107649357
14 -26.11194338479234
15 -72.46155225866244
16 -90.96624090647218
17 -89.11056549172213
18 -74.15022366629479
19 -51.3542206921514
20 -24.47321142197917
21 0.6248897581869635
22 25.79499253427138
23 48.94623179525548
24 69.28268635466345
25 87.08250360268502
26 103.5490008645255
27 116.2696648446078
28 126.7236953956467
29 133.440452576136
30 138.5698035668389
31 141.5588864211852
32 143.6518484188199
33 144.6576532467216
34 144.6303650721082
35 144.3392394493342
36 143.4578367062824
37 142.5621677626908
38 141.3220401647295
39 140.0301580504394
40 138.4008223120406
41 136.8251341958434
42 134.964014938646
43 132.9602560537084
44 130.6081229850649
45 128.6450317613059
46 126.6599997472943
47 124.8108962683733
48 123.185831713371
49 121.7157918496423
50 120.3344892323098
51 119.218261001436
52 118.1229956312577
53 117.2138372033969
54 116.2878723891558
55 115.5092527276441
56 114.6950263843572
57 114.0026012026961
58 113.2713290513078
59 112.5584050267914
60 111.8038218123294
61 111.0643375651499
62 110.19983089025
63 109.4826252683255
64 108.5543017983769
65 107.8090268296229
66 106.9649526284263
67 106.300022718472
68 105.5299182582527
69 104.9357480502573
70 104.286200594517
71 103.7293711829726
72 103.1094578392129
73 102.6223634077105
74 102.0557034527276
75 101.6158500062498
76 101.0409839137854
77 100.5865378203161
78 99.99722306027606
79 99.53530635648863
80 99.01995021518468
81 98.54350718834951
82 98.02796467387022
83 97.54582258483784
84 97.03542650497592
85 96.55723632841112
86 95.9557229720408
87 95.50051170832124
88 94.92587831456481
89 94.50152924309171
90 93.95387469105376
91 93.56140807425277
92 93.04512201289054
93 92.68650111277552
94 92.19619391000448
95 91.8655915031805
96 91.40493402346904
97 91.10720168422871
98 90.73820296751627
99 90.4533204197929
100 90.10336562671328
101 89.89632332066722
102 89.55932031334228
103 89.36092102136212
104 89.0318440414861
105 88.8425633018792
106 88.52582450866116
107 88.34093225374468
108 88.03053252075873
109 87.86288494335145
110 87.56729771646255
111 87.40806184623126
112 87.12498829329974
113 86.98017263703123
114 86.7148202281338
115 86.57978087989223
116 86.3259776898463
117 86.20757947324651
118 85.97093975774504
119 85.86470488710611
120 85.64101934331967
121 85.54890856735946
122 85.34271992447475
123 85.2599354667568
124 85.06869667073111
125 84.99613739802355
126 84.82019139517681
127 84.76205963640912
128 84.5969092538905
129 84.54787484594347
130 84.39853879219204
131 84.36289319678404
132 84.22442470555681
133 84.19685285205888
134 84.0725777310733
135 84.05835672478652
136 83.94296718550856
137 83.94032204882042
138 83.83615255355987
139 83.84488731331393
140 83.74677077234227
141 83.76458707688326
142 83.67504681825503
143 83.70138019637329
144 83.6161542424979
145 83.65122804429035
146 83.57353399569864
147 83.61678983527489
148 83.54145570297598
149 83.5932172374654
150 83.52787679439516
151 83.58598665035537
152 83.52192347880427
153 83.58535654688492
154 83.53052593347405
155 83.59937536489255
156 83.54361416420632
157 83.61636025384021
158 83.56962724641286
159 83.64452408738599
160 83.59973489503565
161 83.67811683287437
162 83.63898050983752
163 83.71990369870286
164 83.68029957399096
165 83.76223162677415
166 83.7265109921828
167 83.81200737781377
168 83.77581041362254
169 83.8615565180193
170 83.82852290745979
171 83.91485687767111
172 83.88095890894438
173 83.96967298865775
174 83.93767967863657
175 84.02635365815789
176 83.99408955041244
177 84.08311182929678
178 84.05341828759201
179 84.14153486340018
180 84.10675573600948
181 84.19417460256692
182 84.16109044594609
183 84.24807772182083
184 84.21128142271444
185 84.29590842577548
186 84.25850298495796
187 84.34343399174534
188 84.30264713363236
189 84.38450861324981
190 84.34423895912036
191 84.42238409144508
192 84.37960700274378
193 84.45436098213408
194 84.41054188607629
195 84.48311607940255
196 84.4367322386406
197 84.50437477821602
198 84.45779819816202
199 84.52270083903839
200 84.47120932603691
201 84.53114409748277
202 84.48034547419678
203 84.53697082260958
204 84.48139715843261
205 84.53347261717568
206 84.47620229860962
207 84.52423218053282
208 84.46288205258125
209 84.50929931295826
210 84.44577995388383
211 84.49070370370274
212 84.42419573993918
213 84.4653270285235
214 84.39656696750303
215 84.43757642642245
216 84.36566191089901
217 84.40439318014006
218 84.33052318081207
219 84.36638433145706
220 84.28968478658361
221 84.32502171411511
222 84.24867412677074
223 84.28350594069099
224 84.20533834401678
225 84.23944238526255
226 84.16319477883688
227 84.19710391915967
228 84.12181056557237
229 84.15402809174965
230 84.07974213347488
231 84.11390320409706
232 84.04009601655234
233 84.07286775548798
234 83.99886794196259
235 84.03316375433558
236 83.96065330643015
237 83.99171391461083
238 83.9197175585637
239 83.95430083520802
240 83.88084069238133
241 83.91561097343453
242 83.84444236133835
243 83.88232502113578
244 83.80938153805393
245 83.84756498980803
246 83.77570843288501
247 83.8177158069917
248 83.74446969761726
249 83.78514181894337
250 83.71390667152438
251 83.75714112763612
252 83.68259061504288
253 83.72667138693522
254 83.65314012679796
255 83.69881028739294
256 83.62581225755173
257 83.67238719525159
258 83.59830638881093
259 83.64620810142226
260 83.57256549358557
261 83.62135398692494
262 83.5485514675109
263 83.5975821097683
264 83.52528917691875
265 83.57381040152514
266 83.50372650711439
267 83.55169900441599
268 83.48171799679366
269 83.52728905293823
270 83.4598901195348
271 83.50713681901574
272 83.43781776266906
273 83.48374924005566
274 83.41912314385844
275 83.46559560699228
276 83.39943195117627
277 83.44598594084734
278 83.38100568664063
279 83.42978309482749
280 83.36535398056722
281 83.41283202810942
282 83.34926026378754
283 83.39879301625587
284 83.33687713286952
285 83.38379764241611
286 83.32141214764754
287 83.36984950894831
288 83.30795306154181
289 83.3572113798966
290 83.29469162614427
291 83.34435199561439
292 83.28226474983552
293 83.33092125717353
294 83.26947400797884
295 83.31801651589309
296 83.25660461569632
297 83.30540595129726
298 83.2452566152249
299 83.29441217354406
300 83.23397733387307
301 83.2829011173653
302 83.22112050319105
303 83.27209851091929
304 83.21158024210797
305 83.26300276001253
306 83.20201200713966
307 83.25340623917502
308 83.19399166194465
309 83.2441495692789
310 83.18381988692521
311 83.23721740117627
312 83.17458940176925
313 83.22910065237303
314 83.16550148506299
315 83.22078269754712
316 83.15829408965566
317 83.21284267420016
318 83.14898230428446
319 83.20735238749869
320 83.14121848012175
321 83.2010476940472
322 83.13555053178425
323 83.19602444766295
324 83.12964997632264
325 83.18911319819161
326 83.12246676009696
327 83.18220972437409
328 83.11845015863427
329 83.17565188205229
330 83.11050199178949
331 83.169455477585
332 83.10287709804378
333 83.16076444537397
334 83.09804678588856
335 83.15556978597174
336 83.09246492502996
337 83.1502559938377
338 83.08774210599783
339 83.14525895416497
340 83.08539406944678
341 83.14084924006382
342 83.08107596458979
343 83.1388572109966
344 83.07936532631999
345 83.13467855201263
346 83.07830664893436
347 83.13293450656029
348 83.07667567555609
349 83.12915848549476
350 83.07272771294961
351 83.12614341531165
352 83.07216706482376
353 83.12519607893759
354 83.07065502310566
355 83.12248551274095
356 83.06743531891401
357 83.11746237051489
358 83.06314234944401
359 83.11435832476826
360 83.05903980798453
361 83.11116089087699
362 83.05611099427999
363 83.10906109990697
364 83.05395838910073
365 83.1070182254757
366 83.05061089029334
367 83.10567445357589
368 83.04945793695747
369 83.10210676122099
370 83.04616131349063
371 83.10092747533669
372 83.04310143013426
373 83.09819627971771
374 83.04058233230296
375 83.09579520686701
376 83.04081412927425
377 83.09596815281661
378 83.03859721477725
379 83.09440173910183
380 83.03917109079468
381 83.09190337519435
382 83.0375670653724
383 83.08970340426542
384 83.03577825886209
385 83.08710100525954
386 83.03453128596306
387 83.08380546636165
388 83.03241343526514
389 83.08042230682459
390 83.02910718378178
391 83.07864211246942
392 83.0276373431812
393 83.07764904553659
394 83.0235358072587
395 83.07568743736893
396 83.02037045605599
397 83.07385060728697
398 83.01635975182251
399 83.07030814176058
400 83.01290883712383
401 83.06787768567214
402 83.00860991430389
403 83.06505264053416
404 83.00544197436859
405 83.06188113086414
406 83.00379909833761
407 83.05907542051293
408 82.99874895868857
409 83.05641527826445
410 82.9969533734286
411 83.0554423982815
412 82.99736149738864
413 83.05457868109036
414 82.99527618105904
415 83.0529394195227
416 82.99362894975073
417 83.05211399401972
418 82.99153412633932
419 83.04933498389541
420 82.98844963499961
421 83.0455456296784
422 82.98522811403335
423 83.04149131228266
424 82.98302465297655
425 83.04006750264848
426 82.9817380066314
427 83.03981050484589
428 82.98218083007792
429 83.0375462229723
430 82.98256231136604
431 83.03929630610808
432 82.98005470093696
433 83.03728778182466
434 82.97836813599422
435 83.03426695960086
436 82.97760388686987
437 83.03278322622859
438 82.97444822743985
439 83.03014573999502
440 82.97227313159644
441 83.02811794512323
442 82.96957289645303
443 83.02629225498742
444 82.96774051118598
445 83.02388515038047
446 82.96714177437964
447 83.0209043370629
448 82.96649059432028
449 83.01938964196441
450 82.96422092711391
451 83.01746910588781
452 82.96083160622813
453 83.01499137790705
454 82.95965815914234
455 83.01306677946718
456 82.95708320683924
457 83.01050665204278
458 82.95319672409485
459 83.00632730053573
460 82.95126224812725
461 83.00355824667989
462 82.9487652512302
463 83.00150899956478
464 82.9459604368714
465 82.99971098419704
466 82.94695659787656
467 83.00022560503967
468 82.94396384061511
469 82.9975930905147
470 82.94246354196417
471 82.99820991593448
472 82.94085748893674
473 82.99689776631111
474 82.93944609463524
475 82.99641804718843
476 82.93530469408047
477 82.99154461109896
478 82.9316713498073
479 82.99070491505748
480 82.92882386781697
481 82.98795722600309
482 82.92652717019317
483 82.98527138564049
484 82.92323863748344
485 82.98421474987201
486 82.92161020925064
487 82.98264859120752
488 82.92204586136737
489 82.98047755981005
490 82.91982364966144
491 82.97897776713582
492 82.91775436816964
493 82.97683121256331
494 82.91498532665597
495 82.9742744464064
496 82.91628551662389
497 82.9732584541463
498 82.91527494931533
499 82.97302544083561
500 82.91455272969766
501 82.97034648088737
502 82.91238363958071
503 82.96919544902563
504 82.91131931072684
505 82.96797933751003
506 82.90944802132167
507 82.9647609977424
508 82.90844375646252
509 82.96174207683181
510 82.90516234504706
511 82.95933499500326
512 82.90381470753925
513 82.95609715492009
514 82.9019402134095
515 82.95576283067585
516 82.90263103174877
517 82.95393596633436
518 82.89899658759968
519 82.95212305783431
520 82.89768865202075
521 82.9520582872596
522 82.89733031224021
523 82.95229672011307
524 82.89749248891819
525 82.9508945067291
526 82.89867969819325
527 82.95044338381834
528 82.89529295677318
529 82.94852557094156
530 82.89437785101774
531 82.94691572455798
532 82.89344573123448
533 82.94583325595603
534 82.89238752159103
535 82.94621006073037
536 82.89258484424698
537 82.94453741724239
538 82.88986434971211
539 82.94351315638991
540 82.88794227015893
541 82.94035919794293
542 82.88457198693791
543 82.93664827681896
544 82.88192138468496
545 82.935421510129
546 82.88134669746312
547 82.93453891459039
548 82.87904812110368
549 82.93166340433619
550 82.87731756319891
551 82.93174172174635
552 82.87626702334836
553 82.93188191414374
554 82.87589571066323
555 82.93174924827419
556 82.87568009240759
557 82.93172739547106
558 82.87408111065783
559 82.9322057397288
560 82.8721825252702
561 82.93194005619088
562 82.8715958719055
563 82.93098239663222
564 82.86965579044542
565 82.92933895155475
566 82.86799006972711
567 82.92716829669207
568 82.86697610470515
569 82.92592012913242
570 82.86686343284634
571 82.92571264304807
572 82.86535471245084
573 82.92324681196287
574 82.86482907785405
575 82.92302321055391
576 82.86198358702036
577 82.92159269639757
578 82.86144676742448
579 82.91966825312639
580 82.86156699586066
581 82.9194510618743
582 82.86014865511743
583 82.91827472633364
584 82.85924883911801
585 82.91716785859664
586 82.86163241794061
587 82.91605380170459
588 82.85970648395046
589 82.91407231591654
590 82.8588497133394
591 82.91314903336969
592 82.85867077206399
593 82.91344672475006
594 82.86015926782225
595 82.91416875959501
596 82.858802207704
597 82.91175418836848
598 82.85650985639793
599 82.91037775299992
600 82.85439247573058
601 82.90913748370605
602 82.85332891389248
603 82.90660110526106
604 82.85117148424469
605 82.90518259001551
606 82.84993612730318
607 82.90488087444915
608 82.84930356984918
609 82.90277544188986
610 82.84797291990921
611 82.90262311911638
612 82.84591427295908
613 82.90094762877072
614 82.84498014340394
615 82.89954266912386
616 82.8474330624579
617 82.9002703622275
618 82.84789881278255
619 82.90152308283048
620 82.84829096346984
621 82.90044285203014
622 82.84836675322984
623 82.90022988449496
624 82.84747245116058
625 82.90079474375152
626 82.84736228980006
627 82.90015088271932
628 82.8459548433831
629 82.89918499850565
630 82.84149862275702
631 82.89827674079262
632 82.83918189157868
633 82.89673061594694
634 82.83588673360337
635 82.89614066496389
636 82.83501550952616
637 82.89468805550499
638 82.83316067586348
639 82.89256367398733
640 82.83089882823252
641 82.89150217527573
642 82.83093822096143
643 82.89142506888462
644 82.83058795286168
645 82.89019462455856
646 82.83122082160345
647 82.88957168841
648 82.83159884581168
649 82.88967876697257
650 82.83190289768623
651 82.88998051469494
652 82.83235021420666
653 82.89001403090874
654 82.83408367511831
655 82.88992883030291
656 82.83389611621732
657 82.88784448949161
658 82.83351874611132
659 82.88695205419175
660 82.83065855308749
661 82.88528766967444
662 82.82965371917309
663 82.88203123096606
664 82.82834805643063
665 82.88118512653622
666 82.82839205837496
667 82.88191294345476
668 82.82992945579177
669 82.88044483083812
670 82.82979421280189
671 82.88055070822779
672 82.82886260957746
673 82.8812049132825
674 82.82905339391664
675 82.87925750136358
676 82.83020614548778
677 82.87834783483339
678 82.82843879312287
679 82.87779459267774
680 82.82946003814236
681 82.87846021386717
682 82.8287177294451
683 82.8774918880965
684 82.8271231055932
685 82.87745421422893
686 82.82588128757801
687 82.87720600898619
688 82.82252760351099
689 82.87658835043136
690 82.8222257383281
691 82.87706278526552
692 82.82025903015216
693 82.87446131235399
694 82.82001148890596
695 82.87427214892404
696 82.81923266137683
697 82.8757303509234
698 82.81911651967275
699 82.87651068192491
700 82.81829940979462
701 82.87668024458397
702 82.81673303592858
703 82.87684265595348
704 82.81666195234962
705 82.87684380550654
706 82.81854858351596
707 82.87679220812109
708 82.81702948620178
709 82.87632313736393
710 82.81613019436398
711 82.87688958768912
712 82.81707483863528
713 82.87684506755284
714 82.81704725719668
715 82.8755577974507
716 82.81482922685421
717 82.87166586578878
718 82.81263398649445
719 82.87081421099094
720 82.81282634483341
721 82.86983468357742
722 82.81265454438972
723 82.86916581641555
724 82.81319347777411
725 82.86957749516448
726 82.81341317613537
727 82.8708069268249
728 82.81366386781852
729 82.87103825563315
730 82.81383759149631
731 82.87133368916825
732 82.81249153222566
733 82.87234597201905
734 82.81383053109931
735 82.87086039160626
736 82.81401217525243
737 82.87153631077352
738 82.81342686380552
739 82.87174930411275
740 82.81377345908122
741 82.87169270806002
742 82.81381296221531
743 82.87036806866899
744 82.81372733046921
745 82.87091326828569
746 82.81375904833706
747 82.86935195207856
748 82.8136169457958
749 82.86771457477643
750 82.81409061390353
751 82.86768081338215
752 82.81206857985185
753 82.8659430935908
754 82.81203511283258
755 82.86579548765012
756 82.80887038394002
757 82.86366107223326
758 82.80804608174545
759 82.86339739578494
760 82.8095612205456
761 82.86398536594083
762 82.80978013247785
763 82.86675314640533
764 82.81064190689996
765 82.86636549839017
766 82.81247883220254
767 82.8669255282347
768 82.81259262024535
769 82.86727032906178
770 82.81419979807305
771 82.8676564551788
772 82.81298672245275
773 82.86655165913211
774 82.81254277633533
775 82.86610079216206
776 82.81276690293261
777 82.86564637455785
778 82.81076642893265
779 82.86440508913273
780 82.80857441783282
781 82.86193466395378
782 82.80739979757287
783 82.85948730388155
784 82.80630811587145
785 82.85977665627162
786 82.80604862649361
787 82.85986302293601
788 82.8072968012864
789 82.85917964943349
790 82.80650344919376
791 82.86077384152252
792 82.80567611454622
793 82.86256062812343
794 82.80622948216973
795 82.86258386905749
796 82.80530509536058
797 82.86222365006076
798 82.80281398483534
799 82.86250397432082
800 82.80243859134474
801 82.86369963815035
802 82.80422914029994
803 82.86406711306104
804 82.80315397521714
805 82.86471212246258
806 82.8038677105335
807 82.86346114302677
808 82.80326212831379
809 82.86313259075104
810 82.80335489076516
811 82.86294722342177
812 82.80163590974544
813 82.86132559179943
814 82.80091974946113
815 82.85998933898082
816 82.79972038336196
817 82.86003558244357
818 82.80024436219364
819 82.85869032172401
820 82.80099123551952
821 82.8576922904483
822 82.79948347959822
823 82.85662300391547
824 82.80088162696897
825 82.85619060513979
826 82.80256274938446
827 82.85656437714616
828 82.80298972428282
829 82.85674321215006
830 82.80322256888422
831 82.85775641665413
832 82.80418168670936
833 82.85751164948843
834 82.80500462915094
835 82.85872478607517
836 82.80560599573982
837 82.85700163331096
838 82.80078038560262
839 82.8556960063123
840 82.79981704582609
841 82.85519560757702
842 82.79956213392883
843 82.85415934590144
844 82.79875935821035
845 82.85466076666094
846 82.79928396375078
847 82.8558344357772
848 82.80029346629797
849 82.85676061708001
850 82.80021575706843
851 82.85782889137712
852 82.79911772438859
853 82.85845301027618
854 82.79810770455784
855 82.85761087158052
856 82.79857192476777
857 82.85673007160577
858 82.79705376520045
859 82.85750972627379
860 82.79772230923381
861 82.85757619048908
862 82.79817088772893
863 82.85757189492982
864 82.79690259631805
865 82.85769326278091
866 82.79758649967843
867 82.85734669422828
868 82.7968145854978
869 82.85638163757615
870 82.79381293005608
871 82.85632496936987
872 82.79321093139876
873 82.85615415600883
874 82.79512977579277
875 82.85626132306791
876 82.79469110969291
877 82.855397540404
878 82.79582603930214
879 82.85535220088249
880 82.79602688207751
881 82.85546422488534
882 82.79555031866299
883 82.85565742213421
884 82.7973013804707
885 82.85538846846701
886 82.79847686979237
887 82.85556116917586
888 82.79831045365501
889 82.85576663340885
890 82.79809386589878
891 82.85656023332838
892 82.79872200574599
893 82.85614023657533
894 82.79747935521938
895 82.85551304799174
896 82.79773932921444
897 82.85453174349124
898 82.79767455986361
899 82.85441379804779
900 82.79646873033138
901 82.85264127701663
902 82.79553534953362
903 82.85084225771651
904 82.79600239658781
905 82.8512842712812
906 82.79499943337167
907 82.85101614207892
908 82.79421767004771
909 82.8491023973391
910 82.79411894291965
911 82.84937554021744
912 82.79334110199252
913 82.85171639918964
914 82.79696710333613
915 82.85263720607301
916 82.79785843223154
917 82.85336737459939
918 82.79554098220994
919 82.85441812565325
920 82.79727701690146
921 82.8556134609556
922 82.79856410963846
923 82.8560354232948
924 82.79885006576859
925 82.85565200352912
926 82.7987224518042
927 82.85400158106791
928 82.79919640489815
929 82.85275245475209
930 82.79885425528221
931 82.85191459210846
932 82.79772278183287
933 82.84966366491423
934 82.7952517365493
935 82.8477436841145
936 82.79459428141321
937 82.84809479272272
938 82.79232110531038
939 82.8471244578609
940 82.7929794845635
941 82.84707892565622
942 82.79339233903356
943 82.84740566039751
944 82.79522797999037
945 82.84873759194116
946 82.79652844968885
947 82.850065636667
948 82.79732251515098
949 82.85156488038297
950 82.79802110989647
951 82.85349156308938
952 82.79907639205179
953 82.85607418967294
954 82.79843809986419
955 82.8562429681658
956 82.79719666873122
957 82.85523215819897
958 82.79412785189665
959 82.85454926261981
960 82.79191240077689
961 82.85393683319398
962 82.79025473110816
963 82.85154203691766
964 82.78915643952443
965 82.85067953820486
966 82.78600643863589
967 82.84932447673084
968 82.78743076587845
969 82.8485556252426
970 82.78827410983727
971 82.84895555734684
972 82.78893214782906
973 82.84836647690528
974 82.79110910518658
975 82.84777621071348
976 82.79300262522261
977 82.84863858412663
978 82.79285165896208
979 82.84958440880844
980 82.79464540804838
981 82.85036248377949
982 82.79626806559061
983 82.85077578575211
984 82.79644660943246
985 82.85124410995726
986 82.79640049716703
987 82.84980419521541
988 82.79740300970516
989 82.84868607700153
990 82.79566224680002
991 82.8485081771736
992 82.79417677787517
993 82.84878465924037
994 82.79184378371087
995 82.84785732370773
996 82.79154563987684
997 82.8476672328915
998 82.7937110773657
999 82.84959823587744
1000 82.79427422746275
1001 82.84964078050014
1002 82.79470334728043
1003 82.8511370537656
1004 82.79458985390494
1005 82.84944388314837
1006 82.79581595819371
1007 82.85067197650432
1008 82.79464324092989
1009 82.84987455289033
1010 82.7949651620427
1011 82.8507626104272
1012 82.79430646627297
1013 82.85017991688467
1014 82.79323835072904
1015 82.85008308471205
1016 82.79171365790452
1017 82.84878970043286
1018 82.79090309522535
1019 82.84921166369118
1020 82.78903245734018
1021 82.84779771593091
1022 82.78734332608828
1023 82.84682638977029
1024 82.78638438580799
1025 82.84856667755712
1026 82.7861913769798
1027 82.84923196463292
1028 82.78609987868498
1029 82.8488278833489
1030 82.78584855337255
1031 82.84945801525012
1032 82.78699746734164
1033 82.85040105221073
1034 82.78773149100086
1035 82.8493178004599
1036 82.79091744171637
1037 82.84840265353125
1038 82.78994417552192
1039 82.84906305643305
1040 82.79280795576453
1041 82.85028007145841
1042 82.79476470238036
1043 82.85049549847162
1044 82.79411967824653
1045 82.8498534726005
1046 82.79446680694448
1047 82.84853971416811
1048 82.79473962410779
1049 82.84800597146507
1050 82.7939133239817
1051 82.84822317112119
1052 82.79369274458466
1053 82.84662122132794
1054 82.79265698767692
1055 82.84576186173433
1056 82.79153137568318
1057 82.84683120005327
1058 82.79014159181773
1059 82.84615869707105
1060 82.79058466836993
1061 82.84683358672798
1062 82.79051043343455
1063 82.84776231395544
1064 82.79078224887206
1065 82.84866074926899
1066 82.79343174826516
1067 82.84915601493107
1068 82.79252776608068
1069 82.84845034237102
1070 82.79375291817139
1071 82.84928318790537
1072 82.79372469848562
1073 82.8493169465808
1074 82.79379018881087
1075 82.84913741139792
1076 82.79440584085172
1077 82.8478710175746
1078 82.79539935688238
1079 82.84856234079521
1080 82.79477113535151
1081 82.84805892161771
1082 82.79429452287901
1083 82.8466128639329
1084 82.79413269831663
1085 82.84573570985528
1086 82.79324988456777
1087 82.84622446687584
1088 82.79412188554836
1089 82.84605302061131
1090 82.7943491608598
1091 82.8466280590151
1092 82.79304546347549
1093 82.84635810521731
1094 82.79208718700684
1095 82.84486646999092
1096 82.79276156185871
1097 82.845924931776
1098 82.790680816508
1099 82.84562781334793
1100 82.79020990125088
1101 82.84580203721075
1102 82.79039317030035
1103 82.84613706203299
1104 82.78964766477618
1105 82.84727468052917
1106 82.79045876403016
1107 82.8487270606775
1108 82.79016105637214
1109 82.84796213992827
1110 82.79036244697659
1111 82.84880606788876
1112 82.79029089621419
1113 82.8491477782358
1114 82.79008778254507
1115 82.84954184084995
1116 82.78859081520621
1117 82.84799256536108
1118 82.7872287896774
1119 82.84753725956548
1120 82.78608639398442
1121 82.84695437590874
1122 82.78525137325006
1123 82.84771600927998
1124 82.7862290552325
1125 82.84762240073711
1126 82.78726882346992
1127 82.84922335489949
1128 82.78709287208449
1129 82.84978568195309
1130 82.78767656654954
1131 82.85170242911674
1132 82.7882952562413
1133 82.8516866876224
1134 82.78732273818295
1135 82.85085465131716
1136 82.78693173811469
1137 82.84980117665958
1138 82.78583563703167
1139 82.84918158407172
1140 82.78639946850845
1141 82.8475820250585
1142 82.78649897935271
1143 82.84604542781737
1144 82.78682341416679
1145 82.84563430327668
1146 82.78791570728178
1147 82.84620867190644
1148 82.79110576224764
1149 82.8448054636534
1150 82.79147112764828
1151 82.84612887529134
1152 82.79193657537016
1153 82.84777473570568
1154 82.79379600553874
1155 82.84773060483178
1156 82.7955851461229
1157 82.84778292418386
1158 82.79354256902249
1159 82.84749951170123
1160 82.79304736424766
1161 82.84756866993699
1162 82.7931373032538
1163 82.84681473571466
1164 82.79272788034869
1165 82.84638557154871
1166 82.79301397442259
1167 82.84631383357488
1168 82.7921863030672
1169 82.84649992316831
1170 82.79031790027032
1171 82.84588561211429
1172 82.7884829480472
1173 82.84420005654238
1174 82.78714490895976
1175 82.84324527152424
1176 82.78644924593571
1177 82.84333274059476
1178 82.78540172495106
1179 82.84399500612628
1180 82.78702842795744
1181 82.84536367643088
1182 82.78715874832039
1183 82.84705027585892
1184 82.78739109884883
1185 82.84731105632204
1186 82.78704712099064
1187 82.84868669614549
1188 82.78740905599118
1189 82.84819714202293
1190 82.78816006309629
1191 82.84878257916925
1192 82.78907251929432
1193 82.8490652054716
1194 82.78864021188072
1195 82.84867377695835
1196 82.78989308909081
1197 82.84790702060941
1198 82.7896427277384
1199 82.84758837595862
1200 82.78955728198962
1201 82.84685688195992
1202 82.78856819804956
1203 82.84501256559105
1204 82.78703268518974
1205 82.84328933987766
1206 82.78750866993977
1207 82.8438177748279
1208 82.78768251068615
1209 82.84174618035657
1210 82.78688414536876
1211 82.84230089460291
1212 82.78683226515035
1213 82.84195061679875
1214 82.78758001654708
1215 82.84124221110916
1216 82.7895107017865
1217 82.8414332081298
1218 82.78983062070367
1219 82.84252222374397
1220 82.79177533143718
1221 82.84299730358588
1222 82.79138745432726
1223 82.84310290957123
1224 82.79391122226127
1225 82.84474217683754
1226 82.79496007459032
1227 82.8445534039424
1228 82.79458951530805
1229 82.84400436494697
1230 82.79300050681935
1231 82.84467449407822
1232 82.79192647784754
1233 82.84458854140603
1234 82.79057079699952
1235 82.84533420467092
1236 82.79083575260103
1237 82.84639623218783
1238 82.7896856453646
1239 82.84591739370771
1240 82.78833349849523
1241 82.84712699853172
1242 82.78703309608414
1243 82.8472905922214
1244 82.78578981508106
1245 82.84673595102939
1246 82.78616315395524
1247 82.84833729886316
1248 82.78892888560306
1249 82.85035838147991
1250 82.79069321819945
1251 82.85194854845921
1252 82.79194494871599
1253 82.85146978841392
1254 82.79167012691887
1255 82.85074685250345
1256 82.79157499235927
1257 82.84913888349288
1258 82.79048622992842
1259 82.84984166110463
1260 82.78909868945885
1261 82.84736679444103
1262 82.7872279191445
1263 82.84595604399664
1264 82.78563672320334
1265 82.84477355081299
1266 82.78486905187388
1267 82.84534769825632
1268 82.78666064876039
1269 82.84432243071481
1270 82.78680384906167
1271 82.84477775726047
1272 82.78528945095647
1273 82.84555139263217
1274 82.78770223727687
1275 82.84621828514739
1276 82.79005130812708
1277 82.84731569807632
1278 82.78826190332224
1279 82.84728319276006
1280 82.78837451796761
1281 82.84817168003852
1282 82.78841400358394
1283 82.84656606852508
1284 82.78712520931533
1285 82.84714129940998
1286 82.78850661693545
1287 82.84816567599979
1288 82.78934185539705
1289 82.84935093402842
1290 82.78899482606111
1291 82.8494474330039
1292 82.78721726587618
1293 82.84729758660528
1294 82.78728077834649
1295 82.84708520481651
1296 82.7857222180312
1297 82.84612269438564
1298 82.78535029469919
1299 82.84598254902888
1300 82.78702307630184
1301 82.84690259731919
1302 82.78750653431584
1303 82.84735341935145
1304 82.78946770902472
1305 82.84730959369458
1306 82.79127496162566
1307 82.8479012820992
1308 82.79257877719878
1309 82.8479241082746
1310 82.79291073198435
1311 82.84743355661581
1312 82.79102927307365
1313 82.847736899975
1314 82.79156024810268
1315 82.84694257594344
1316 82.79284200948833
1317 82.84580123183771
1318 82.79165583755082
1319 82.84583468032132
1320 82.79096442412366
1321 82.84522494394807
1322 82.79098806968209
1323 82.84413196346843
1324 82.79144788049372
1325 82.84363418601799
1326 82.79192999000071
1327 82.84414136233389
1328 82.79220371135779
1329 82.84336310562665
1330 82.79265419893143
1331 82.84469720625567
1332 82.78982154551019
1333 82.84303378705731
1334 82.79004951578887
1335 82.84355749477353
1336 82.79065623925705
1337 82.84482159171182
1338 82.78912616938197
1339 82.84648820597737
1340 82.78943361966317
1341 82.84731721269922
1342 82.78974411363463
1343 82.84850757532215
1344 82.78878556682686
1345 82.84967013903238
1346 82.79083738861686
1347 82.85089897538649
1348 82.79064284871038
1349 82.84980311202952
1350 82.78868793742832
1351 82.84862140407078
1352 82.78566943004668
1353 82.84799926866779
1354 82.78680933239418
1355 82.84726547682983
1356 82.78601023674022
1357 82.84727248373544
1358 82.78777872899681
1359 82.84724652470101
1360 82.7880535734125
1361 82.84686471407564
1362 82.78900728559081
1363 82.84706494126944
1364 82.78942402942428
1365 82.84520680543781
1366 82.79119273947194
1367 82.84505910896945
1368 82.79005929690302
1369 82.84586980246534
1370 82.79185041845264
1371 82.84653720694857
1372 82.7918576094021
1373 82.84582834654421
1374 82.79176767493584
1375 82.84551346782756
1376 82.79262321974724
1377 82.84516204989758
1378 82.79169859569799
1379 82.84505995384434
1380 82.79207865614792
1381 82.84470248550883
1382 82.78971410126724
1383 82.84299633137525
1384 82.79039892283826
1385 82.84476902408993
1386 82.79016876726618
1387 82.8458369879577
1388 82.7925950526562
1389 82.84576253273757
1390 82.79172486523289
1391 82.84650340528964
1392 82.78941144851068
1393 82.84686882699006
1394 82.78769953295688
1395 82.84600489854232
1396 82.7889492790751
1397 82.84602203151692
1398 82.78637967712417
1399 82.84606732999924
1400 82.7873329915821
1401 82.84671258197176
1402 82.78780295325896
1403 82.84641349315751
1404 82.78712248744969
1405 82.84593642393658
1406 82.78753967694851
1407 82.84560706673155
1408 82.7872710701041
1409 82.84535179706788
1410 82.78836320691143
1411 82.84669592756987
1412 82.78802285926555
1413 82.84446288698632
1414 82.78700358170997
1415 82.84364546011375
1416 82.78509145261287
1417 82.84357776123564
1418 82.78407922963211
1419 82.84381559692399
1420 82.78466115091615
1421 82.84510001327328
1422 82.78385532416134
1423 82.84595755854542
1424 82.78299886694536
1425 82.84493599825834
1426 82.7844466425212
1427 82.84525517653027
1428 82.78455066253765
1429 82.84547989968169
1430 82.78698471735167
1431 82.84727571358371
1432 82.78793634007745
1433 82.84849632248022
1434 82.79015638038743
1435 82.85047055811174
1436 82.79079137906218
1437 82.84902224807232
1438 82.78873101071461
1439 82.84756924491971
1440 82.78818656396986
1441 82.84674609341928
1442 82.78668912277567
1443 82.84454946910311
1444 82.78519895146562
1445 82.84345149026876
1446 82.78390065343568
1447 82.84399826212982
1448 82.78528918936442
1449 82.84301471512985
1450 82.78291010185735
1451 82.84177165095218
1452 82.78246931003488
1453 82.84132859146447
1454 82.78356180037909
1455 82.84103164006707
1456 82.78552516038131
1457 82.84231135046984
1458 82.78541101426838
1459 82.84437444007656
1460 82.78901508907437
1461 82.84573630584595
1462 82.78925512380111
1463 82.84607629898355
1464 82.79119171180307
1465 82.84767788890102
1466 82.7919187053525
1467 82.84777597826763
1468 82.79183956631341
1469 82.84652921201973
1470 82.78994691882683
1471 82.84453701233664
1472 82.78862147260442
1473 82.84167978327643
1474 82.78805857835845
1475 82.84009654556476
1476 82.78761581718616
1477 82.83886654439856
1478 82.78544845757672
1479 82.83808657116099
1480 82.78628537172985
1481 82.83852771398386
1482 82.78809043336888
1483 82.83945719244497
1484 82.78922352372385
1485 82.83985112912347
1486 82.7915232761722
1487 82.84079622777831
1488 82.79143119987511
1489 82.84272741577587
1490 82.79197044244378
1491 82.84400085297179
1492 82.79178397527005
1493 82.84581534396736
1494 82.791477321749
1495 82.84730979762573
1496 82.79073397214263
1497 82.84794289551216
1498 82.78894705209397
1499 82.84847494021531
1500 82.78805816228035
1501 82.84856377841317
1502 82.78571612073218
1503 82.84643246053433
1504 82.78423420068893
1505 82.84562952311182
1506 82.78268660200492
1507 82.84561198957095
1508 82.78185977600471
1509 82.84342095904385
1510 82.78168673424943
1511 82.84342531596235
1512 82.78244498878287
1513 82.84494779888423
1514 82.78511504920893
1515 82.845129804896
1516 82.78761821316122
1517 82.84441995679759
1518 82.7870302296176
1519 82.84654265493106
1520 82.78850191249866
1521 82.84707731768178
1522 82.78893023424494
1523 82.846336436001
1524 82.78961289290899
1525 82.84591343964604
1526 82.78924289729999
1527 82.84627515175788
1528 82.79010170996602
1529 82.84752508316296
1530 82.79073719125495
1531 82.84819875224952
1532 82.78935135445715
1533 82.84641503746714
1534 82.78912238688254
1535 82.84461427993705
1536 82.78860755051149
1537 82.84403534918637
1538 82.78913716902584
1539 82.84418499211139
1540 82.79015518379367
1541 82.8436853356273
1542 82.79117583281473
1543 82.84598998984198
1544 82.79305065396535
1545 82.84593106962531
1546 82.794521908695
1547 82.84653605963545
1548 82.79422704998524
1549 82.84648246110767
1550 82.79507309246166
1551 82.84794101730236
1552 82.79356914847899
1553 82.84714722497753
1554 82.79161854834905
1555 82.84792826844958
1556 82.79135634603881
1557 82.84609650797749
1558 82.78820898862071
1559 82.84547339208747
1560 82.78801164714378
1561 82.8451071952946
1562 82.78722052039521
1563 82.84435796436726
1564 82.78568112814804
1565 82.84412251419221
1566 82.78461793765776
1567 82.84467698681181
1568 82.78744127536461
1569 82.84580221378791
1570 82.78814966049367
1571 82.84628911209013
1572 82.78835619407955
1573 82.84725864162121
1574 82.78844713677634
1575 82.84622804878558
1576 82.7902242298598
1577 82.84566889326581
1578 82.7885778593576
1579 82.8460676515151
1580 82.78824379123921
1581 82.84552067804925
1582 82.78902048265688
1583 82.84598341189734
1584 82.79009822469435
1585 82.84722326832096
1586 82.79111943830083
1587 82.84733021602078
1588 82.78892141731775
1589 82.84507712326921
1590 82.78715726181146
1591 82.84521883954713
1592 82.785979651774
1593 82.84438917974065
1594 82.786297891381
1595 82.84408276877036
1596 82.78559234068649
1597 82.84267577601457
1598 82.78632767779226
1599 82.84348540195049
1600 82.7858321430445
1601 82.84355721207292
1602 82.78577598208086
1603 82.84373517842548
1604 82.78545319009237
1605 82.8427708951897
1606 82.78670290725188
1607 82.84384714813221
1608 82.78907919207852
1609 82.84618533226089
1610 82.79154095331091
1611 82.84876244392115
1612 82.79304993863985
1613 82.84830672859448
1614 82.792742032539
1615 82.84831609601935
1616 82.7935771352856
1617 82.84669022402375
1618 82.79245377401161
1619 82.8464393754076
1620 82.79062464903043
1621 82.84488974573034
1622 82.7899786293755
1623 82.84431690496841
1624 82.78926087277226
1625 82.84354401857166
1626 82.7891695205782
1627 82.84535808767774
1628 82.78997495822887
1629 82.84320730953135
1630 82.78879433811008
1631 82.84320634842142
1632 82.78872994233257
1633 82.84572389538837
1634 82.79045830002536
1635 82.84555808362749
1636 82.79289598331064
1637 82.84639200622993
1638 82.79120406342945
1639 82.84662252023392
1640 82.79210838739678
1641 82.84617223696044
1642 82.79133183970472
1643 82.84405676346199
1644 82.78960105366852
1645 82.84362547987345
1646 82.79001019612951
1647 82.84425729707301
1648 82.79173831500682
1649 82.84448550664867
1650 82.79119969581039
1651 82.84526330997892
1652 82.79015107412289
1653 82.84335409160262
1654 82.78766467863684
1655 82.84240694236146
1656 82.78696935687779
1657 82.8438637263872
1658 82.78580044076183
1659 82.84412033310331
1660 82.78469471810217
1661 82.84468422786496
1662 82.78347726582322
1663 82.84654142612497
1664 82.78276797496879
1665 82.84640611974413
1666 82.78351101403105
1667 82.84782058255338
1668 82.78450976261333
1669 82.84812017128921
1670 82.78493868824528
1671 82.84997217965497
1672 82.7859000758171
1673 82.85082043984603
1674 82.78728093398439
1675 82.85134123642219
1676 82.78773771556581
1677 82.84952031595967
1678 82.78585672024712
1679 82.84840760779049
1680 82.78467737558175
1681 82.84798605226376
1682 82.78600883427191
1683 82.84681948647363
1684 82.78667994411738
1685 82.84570750354658
1686 82.78451507161276
1687 82.84499936772137
1688 82.78701892060191
1689 82.84469649599775
1690 82.78789487062417
1691 82.84528223482339
1692 82.78678143859709
1693 82.84522867722231
1694 82.78815446543392
1695 82.84412039227203
1696 82.78912525561934
1697 82.84398509730808
1698 82.78917511178527
1699 82.84445426197759
1700 82.79062956037058
1701 82.84485076242267
1702 82.79074160448953
1703 82.84445499940817
1704 82.79203662269306
1705 82.84640714781212
1706 82.79294278871711
1707 82.84644327661549
1708 82.79256976682544
1709 82.84643154444176
1710 82.79089755710655
1711 82.84603415469815
1712 82.78954207139778
1713 82.8458267501489
1714 82.78747811980882
1715 82.84316321404575
1716 82.78566623601748
1717 82.84314477524555
1718 82.78455217109288
1719 82.84309544537854
1720 82.78324433769063
1721 82.84288068976861
1722 82.78362713949146
1723 82.84407925018138
1724 82.78574815265831
1725 82.84312739797464
1726 82.78647668290525
1727 82.84447380730536
1728 82.7872292171175
1729 82.8451151772264
1730 82.78736548895716
1731 82.84656106295856
1732 82.78757715660147
1733 82.84685261073686
1734 82.78770338814572
1735 82.84689983600897
1736 82.79007566577621
1737 82.8473757012809
1738 82.78921810535272
1739 82.846588450165
1740 82.78770538543921
1741 82.84524348736447
1742 82.78766576124927
1743 82.84427532067191
1744 82.78741300834724
1745 82.84443542423587
1746 82.78734265723457
1747 82.84464012015977
1748 82.78803541437689
1749 82.84345619145505
1750 82.78454999910203
1751 82.84207039187598
1752 82.78444146639261
1753 82.84370898381849
1754 82.78647908189946
1755 82.84488010406191
1756 82.78999878829862
1757 82.84548036457345
1758 82.79002116856164
1759 82.84742178937107
1760 82.79243215699232
1761 82.8480454881535
1762 82.79253816978444
1763 82.84834739245562
1764 82.79361380811879
1765 82.8477093607101
1766 82.79189491382444
1767 82.84720382975001
1768 82.79004085591123
1769 82.84653435499123
1770 82.78997420783531
1771 82.84740323455914
1772 82.78969714193494
1773 82.84614264298379
1774 82.78914158484314
1775 82.84629080067434
1776 82.7889006264308
1777 82.84589342485525
1778 82.7894590770486
1779 82.8457152872156
1780 82.78889722387233
1781 82.8451107058991
1782 82.78808551141805
1783 82.84504831281049
1784 82.78763060216154
1785 82.84514843447178
1786 82.78872368800259
1787 82.84591464007129
1788 82.78871632683575
1789 82.84538121101799
1790 82.78847686677973
1791 82.84611163164568
1792 82.78718239779425
1793 82.84512374943964
1794 82.78866820900187
1795 82.8465346504172
1796 82.79090872683986
1797 82.84521870440621
1798 82.78910034107851
1799 82.84588122710583
1800 82.78933748390948
1801 82.84579281840149
1802 82.78854115149772
1803 82.8441636195643
1804 82.78740283225014
1805 82.84276788863318
1806 82.78834129328381
1807 82.84461194053556
1808 82.78945383594223
1809 82.84491903873594
1810 82.7900212946294
1811 82.84607349896127
1812 82.79019264495689
1813 82.84700931327853
1814 82.79004475613947
1815 82.84638232123574
1816 82.79068300427829
1817 82.84777179021202
1818 82.78884712426162
1819 82.84877949305873
1820 82.78848607123479
1821 82.84809436937667
1822 82.78614610401092
1823 82.84601793420174
1824 82.78576020558742
1825 82.84668566154386
1826 82.78609703438227
1827 82.84584394664699
1828 82.78434900488364
1829 82.84441134205699
1830 82.78220234920404
1831 82.84401594360617
1832 82.78212441775115
1833 82.84442899646908
1834 82.78113599549496
1835 82.84425998785792
1836 82.78083367668054
1837 82.84468855460233
1838 82.78338490024787
1839 82.84601896057525
1840 82.78488506610731
1841 82.84661954799401
1842 82.78696419803198
1843 82.84873140851816
1844 82.78976048376614
1845 82.84823288208271
1846 82.79207094155717
1847 82.84854374262129
1848 82.79303621444353
1849 82.84912775108533
1850 82.79385151032126
1851 82.8484931484019
1852 82.79333318031222
1853 82.84728509269645
1854 82.79254783227766
1855 82.84619991940572
1856 82.79323197085544
1857 82.84526173115809
1858 82.79095518558756
1859 82.84355397106711
1860 82.78987757083458
1861 82.84192030352149
1862 82.78684757450125
1863 82.83985469344883
1864 82.78663474660065
1865 82.84029894872371
1866 82.78673542249875
1867 82.84054994175047
1868 82.78839685357053
1869 82.83913343138312
1870 82.7876973690869
1871 82.84087284318721
1872 82.78714002885404
1873 82.84133857687841
1874 82.78843999369835
1875 82.84089655849007
1876 82.78673348883956
1877 82.84066501727921
1878 82.7868199925732
1879 82.84252556718674
1880 82.78925806080302
1881 82.84481423932299
1882 82.79082330045523
1883 82.84625586769907
1884 82.79131328521159
1885 82.84645062432344
1886 82.79123097582018
1887 82.84522066089704
1888 82.79013213625873
1889 82.84534124840428
1890 82.78884910123757
1891 82.84549075745868
1892 82.78829746658609
1893 82.84494480581674
1894 82.78642445388793
1895 82.84417984755756
1896 82.78621585247303
1897 82.84538234206789
1898 82.78763826791513
1899 82.84581429491786
1900 82.78642158132156
1901 82.8438371646433
1902 82.78547275882929
1903 82.84406196699381
1904 82.7851411793423
1905 82.84371373485337
1906 82.78555124167565
1907 82.84418589176408
1908 82.78523291474744
1909 82.8435554672849
1910 82.78575998144353
1911 82.84503350069731
1912 82.78696067070921
1913 82.84663115550747
1914 82.78909687307805
1915 82.84803541578167
1916 82.79069382932322
1917 82.84809971188351
1918 82.79007082453187
1919 82.84797422849724
1920 82.78874202767494
1921 82.84715682454208
1922 82.78820894399996
1923 82.84552878474071
1924 82.78662264395568
1925 82.8440812177388
1926 82.78462777551101
1927 82.8439628001037
1928 82.78500077827076
1929 82.84426368078947
1930 82.78530035286335
1931 82.84554524077834
1932 82.78393081579989
1933 82.84476657153796
1934 82.78540559769141
1935 82.84388324474462
1936 82.78657680404383
1937 82.84415580637332
1938 82.78483132853276
1939 82.84453110375166
1940 82.78763676672369
1941 82.84548721992159
1942 82.78799882909998
1943 82.84571947760276
1944 82.78893422094139
1945 82.84761503602662
1946 82.79037860556173
1947 82.84787802105262
1948 82.79028811756601
1949 82.84697920424281
1950 82.78974291435125
1951 82.8470585604841
1952 82.78867718809084
1953 82.84608119790174
1954 82.78856642094168
1955 82.8442639734063
1956 82.78853889186806
1957 82.84368473004309
1958 82.78616192488523
1959 82.84261872089537
1960 82.78596901367557
1961 82.8424430983179
1962 82.78537535009235
1963 82.84367171875269
1964 82.78548556972973
1965 82.84304760519902
1966 82.78695990585105
1967 82.84464002521641
1968 82.78762983686289
1969 82.84574014943763
1970 82.78869420983216
1971 82.84780607978298
1972 82.7889974154763
1973 82.84714545110252
1974 82.78820064169349
1975 82.84797382061564
1976 82.78846757857572
1977 82.84702362901803
1978 82.78723005045708
1979 82.84651434115622
1980 82.78677296826665
1981 82.84545054763936
1982 82.78480144618123
1983 82.84322358593741
1984 82.78321061191582
1985 82.84286576747834
1986 82.78431266883062
1987 82.84347550293212
1988 82.78475101972619
1989 82.84143259236517
1990 82.78314342107741
1991 82.84161743327492
1992 82.784124123297
1993 82.84370591575481
1994 82.78674894956976
1995 82.843293390155
1996 82.78855576379242
1997 82.84300567408278
1998 82.78816885584396
1999 82.84432826949067
2000 82.7888009379533
2001 82.84503378410342
2002 82.7905886653636
2003 82.84555386676689
2004 82.79127485541963
2005 82.84611027304298
2006 82.79161652545407
2007 82.84540787797948
2008 82.79141993232327
2009 82.84463623225587
2010 82.79119280741587
2011 82.84553733362841
2012 82.79052349379495
2013 82.84423590804931
2014 82.7873329127024
2015 82.84279722062614
2016 82.78568970920546
2017 82.84280450488059
2018 82.7870115409937
2019 82.84170848280471
2020 82.7869379416033
2021 82.84130370824776
2022 82.78732830326601
2023 82.84184100801546
2024 82.78770099845026
2025 82.84242965086288
2026 82.79050530905099
2027 82.84363586209898
2028 82.79168571803322
2029 82.84422636726038
2030 82.79293643986234
2031 82.84531210046354
2032 82.79385801863863
2033 82.84739050335317
2034 82.79524051287963
2035 82.84724085127128
2036 82.79425546380381
2037 82.84590194791272
2038 82.79011642371616
2039 82.84590769742474
2040 82.78953219490342
2041 82.84480524084006
2042 82.78783623495843
2043 82.84386263780871
2044 82.78569646012389
2045 82.84308100570763
2046 82.78521579402253
2047 82.8436956241685
2048 82.78644296516686
2049 82.84458059990256
2050 82.78630820442802
2051 82.846920938916
2052 82.78595349498696
2053 82.8476776033026
2054 82.78534907309563
2055 82.84615052686426
2056 82.78664977365878
2057 82.84705812872434
2058 82.78624592731438
2059 82.84791680776422
2060 82.78664705776448
2061 82.8472012844887
2062 82.78489898685619
2063 82.84572183053288
2064 82.78438154678857
2065 82.84578376215717
2066 82.78730579380674
2067 82.84652307872463
2068 82.78859497120393
2069 82.84715668184739
2070 82.78743385385698
2071 82.84747045083236
2072 82.78648895292284
2073 82.84601222059385
2074 82.78540999645244
2075 82.84513003027274
2076 82.78491583603544
2077 82.84537141524133
2078 82.78550928447635
2079 82.84526831485913
2080 82.78619290832663
2081 82.84505998248902
2082 82.78682463660627
2083 82.84527765558717
2084 82.78700241356447
2085 82.84497283051036
2086 82.78941142489047
2087 82.84663371176974
2088 82.79031654110264
2089 82.84710120809682
2090 82.79047066446967
2091 82.84720606497613
2092 82.78932605742986
2093 82.84592270313296
2094 82.79132563940695
2095 82.84744606226603
2096 82.79268045260407
2097 82.8471097445109
2098 82.79061941932505
2099 82.84708155026132
2100 82.78989898943512
2101 82.84589101623914
2102 82.7882495322436
2103 82.84445830809973
2104 82.78824031731057
2105 82.84494977164802
2106 82.7890585295234
2107 82.84583886481281
2108 82.78814539659962
2109 82.84353180158877
2110 82.78706422982184
2111 82.84468886948149
2112 82.78630213136567
2113 82.84600770787294
2114 82.78716724653867
2115 82.84568583161665
2116 82.78869328519109
2117 82.84560567365126
2118 82.78797368397511
2119 82.84540148861402
2120 82.78894743681728
2121 82.84590511434293
2122 82.78744854496357
2123 82.84479401733475
2124 82.78811822749969
2125 82.84410420040459
2126 82.78844889708492
2127 82.84313674908395
2128 82.78770692285748
2129 82.84333576471211
2130 82.78837521889818
2131 82.84538227182404
2132 82.7885467071505
2133 82.84475168846082
2134 82.78829275926159
2135 82.84481632682343
2136 82.78983490881583
2137 82.84661618400364
2138 82.78921182289412
2139 82.84647736671431
2140 82.78984511929465
2141 82.84686910265759
2142 82.78782919081479
2143 82.84726173870774
2144 82.78733478498276
2145 82.84725334354357
2146 82.78926245385826
2147 82.84887865163928
2148 82.7882985409623
2149 82.84894393279387
2150 82.78749374404138
2151 82.849389840714
2152 82.78677977363358
2153 82.84952380733392
2154 82.78806664808987
2155 82.84981874002557
2156 82.78725438050223
2157 82.84728628814885
2158 82.78702777578792
2159 82.8469067542937
2160 82.78596955379685
2161 82.84443225522692
2162 82.78577694453135
2163 82.84299148679315
2164 82.78574119322967
2165 82.84187812878454
2166 82.78673434072714
2167 82.84323184928671
2168 82.79061251182368
2169 82.84381940933322
2170 82.79276987606058
2171 82.84589124390006
2172 82.79286278389563
2173 82.84512234367128
2174 82.7934044779588
2175 82.84436911263606
2176 82.79432971525115
2177 82.84523447099991
2178 82.79372434803605
2179 82.84605563348394
2180 82.79374151712025
2181 82.84570380967041
2182 82.79292912462297
2183 82.84463459283194
2184 82.79257360018003
2185 82.84620859948636
2186 82.79318449282529
2187 82.84649844004755
2188 82.79403769411181
2189 82.84540460191076
2190 82.79197806811551
2191 82.84509976499405
2192 82.79037540449134
2193 82.84305711336067
2194 82.78888651898387
2195 82.84228397026267
2196 82.78788612792086
2197 82.8421094296362
2198 82.78575598595786
2199 82.84184643889724
2200 82.78561817937842
2201 82.84304007764264
2202 82.78619800024181
2203 82.84431342010126
2204 82.78606899773911
2205 82.84422933755826
2206 82.78668945284764
2207 82.8453608607435
2208 82.78607978109676
2209 82.8470569959517
2210 82.78484231966773
2211 82.8475726808291
2212 82.7848943061984
2213 82.84865754444614
2214 82.78715043990395
2215 82.84983018106745
2216 82.78759950396837
2217 82.85050738257289
2218 82.7872924232238
2219 82.85026468626157
2220 82.78668559311797
2221 82.84983279746569
2222 82.78684548549018
2223 82.84884093169093
2224 82.78588077351301
2225 82.84774162322958
2226 82.78640529580372
2227 82.84774198045346
2228 82.78776074584812
2229 82.84646324548652
2230 82.78723243577353
2231 82.84561220627157
2232 82.78671828451566
2233 82.84592871397868
2234 82.78781840056777
2235 82.84411103496443
2236 82.7885785842772
2237 82.84341596431595
2238 82.78816689582249
2239 82.84449458773199
2240 82.79033446086636
2241 82.84556152987989
2242 82.79104889689854
2243 82.84500667481362
2244 82.79144624415659
2245 82.84528607112144
2246 82.79216657098222
2247 82.84421507130004
2248 82.79115210066212
2249 82.84551246836153
2250 82.79036269038622
2251 82.84592478446694
2252 82.78720045778016
2253 82.84448545134147
2254 82.78657213148126
2255 82.84377550762376
2256 82.78672497859027
2257 82.84453861000136
2258 82.78815300037549
2259 82.84553718600702
2260 82.78862721526642
2261 82.84518398959921
2262 82.78742217407999
2263 82.84593626116862
2264 82.78662317358581
2265 82.84578735714794
2266 82.78959653726592
2267 82.84640758589835
2268 82.78921655342863
2269 82.84535596542392
2270 82.78889314401563
2271 82.84552214216261
2272 82.78814958526604
2273 82.84501497324271
2274 82.78973857001171
2275 82.84558094412316
2276 82.79091837400031
2277 82.8444558976643
2278 82.78781605924976
2279 82.84286819589826
2280 82.78676265278696
2281 82.84176145159913
2282 82.78507796137086
2283 82.83970888419593
2284 82.7834911056101
2285 82.83869584939137
2286 82.78252367950346
2287 82.83885777461184
2288 82.78427870610984
2289 82.84030395501324
2290 82.7850966738977
2291 82.84180886499483
2292 82.78675656589655
2293 82.84362203019771
2294 82.78854743789174
2295 82.84495067219223
2296 82.79103847113906
2297 82.84649297920802
2298 82.79205007646345
2299 82.84883644713327
2300 82.79290368607026
2301 82.84792170067452
2302 82.7921986550015
2303 82.84745329077914
2304 82.79147064180292
2305 82.84762242607283
2306 82.79139365937891
2307 82.8468136025116
2308 82.78832466712757
2309 82.84509941727551
2310 82.78786528400833
2311 82.84561632823319
2312 82.78649038510048
2313 82.84503413627674
2314 82.78503201674312
2315 82.84340458248387
2316 82.78343208013381
2317 82.84268222601696
2318 82.78240260273093
2319 82.84326092896957
2320 82.78212782577886
2321 82.84270513907103
2322 82.7819310489518
2323 82.84329551485716
2324 82.783833275688
2325 82.84373104224632
2326 82.78706010501359
2327 82.84475515466968
2328 82.78861918709755
2329 82.84609988632236
2330 82.79040645070712
2331 82.84678657143115
2332 82.79077161242462
2333 82.8465217148885
2334 82.79083694341443
2335 82.8463832274051
2336 82.79186727283526
2337 82.84659889538135
2338 82.79083385999458
2339 82.84675061674244
2340 82.78836456415937
2341 82.84410293165638
2342 82.78665930453619
2343 82.84203022880249
2344 82.78799381479895
2345 82.8420262492011
2346 82.78690062785155
2347 82.84240695493503
2348 82.78717249501588
2349 82.84090414532365
2350 82.78630602095025
2351 82.84168332066808
2352 82.78538645649432
2353 82.84287971837369
2354 82.78654305635324
2355 82.8429147110102
2356 82.7870496283235
2357 82.84294041907813
2358 82.78402675543084
2359 82.84388867021248
2360 82.78534199264925
2361 82.84542940109081
2362 82.78617093645829
2363 82.84708743287253
2364 82.78664558853443
2365 82.84799755850491
2366 82.78684405614246
2367 82.84782761507684
2368 82.78494992435654
2369 82.84796613837166
2370 82.78421371654115
2371 82.84668344376878
2372 82.78458803913583
2373 82.84538922440937
2374 82.78389186087661
2375 82.84483443853438
2376 82.7846057396052
2377 82.84633885755883
2378 82.78668416864116
2379 82.84712533601592
2380 82.7880728687385
2381 82.84701125220408
2382 82.78784343176385
2383 82.84749189535512
2384 82.78903862220852
2385 82.84710387603346
2386 82.79257240738227
2387 82.84765290234672
2388 82.79186921206059
2389 82.84643858902909
2390 82.79167130317597
2391 82.84715780490261
2392 82.79132165488372
2393 82.84764058681492
2394 82.79077262863214
2395 82.84651530847299
2396 82.78841483232463
2397 82.84420549240436
2398 82.78616666947765
2399 82.84418538356657
2400 82.78856271941953
2401 82.84466386846191
2402 82.78838808889167
2403 82.84296217071783
2404 82.78920477670847
2405 82.84304774165466
2406 82.78928942583072
2407 82.84376635916772
2408 82.79091513952156
2409 82.84343326817796
2410 82.78990997413416
2411 82.84420604486165
2412 82.78838972785913
2413 82.84376743284048
2414 82.79071981499887
2415 82.84389524700258
2416 82.79178104565105
2417 82.84411443894811
2418 82.79147759750806
2419 82.84504471833871
2420 82.79205281026179
2421 82.8449056655494
2422 82.79139602517056
2423 82.84425428181619
2424 82.7888838845505
2425 82.84507995577101
2426 82.7904317147657
2427 82.84517888817474
2428 82.79132218983338
2429 82.84480497683822
2430 82.79026202089887
2431 82.84581138073139
2432 82.78989995305736
2433 82.84500076024854
2434 82.78927136746778
2435 82.84395608022561
2436 82.78924546719627
2437 82.84422770968321
2438 82.78925851759227
2439 82.84421910528495
2440 82.78959047799887
2441 82.8441282829446
2442 82.78933166166078
2443 82.845262810859
2444 82.78938590754859
2445 82.84447276729335
2446 82.7910026193931
2447 82.8456862938059
2448 82.78857960615773
2449 82.84555645423775
2450 82.78992106713135
2451 82.84742206003006
2452 82.7885801356489
2453 82.84751759442774
2454 82.78992124485454
2455 82.84800519280626
2456 82.79043894474026
2457 82.84884228546338
2458 82.78854318204064
2459 82.84825900532331
2460 82.78759644815455
2461 82.84785791023451
2462 82.78667960056873
2463 82.84741326132207
2464 82.78581148902394
2465 82.84823211099589
2466 82.78495065970201
2467 82.8479218504266
2468 82.78637153746068
2469 82.84799324967786
2470 82.78483882721397
2471 82.84699762952823
2472 82.7841409421607
2473 82.84767682867871
2474 82.78611017240175
2475 82.84713021385687
2476 82.78766542800038
2477 82.8474740179298
2478 82.78553684475837
2479 82.84700050246356
2480 82.78710549336317
2481 82.8469366722676
2482 82.78855999523714
2483 82.84649423335024
2484 82.7887542721385
2485 82.84574541332833
2486 82.7896936645795
2487 82.84538274920301
2488 82.79035252581174
2489 82.84428211459046
2490 82.79059746236355
2491 82.84472432806679
2492 82.78959571158155
2493 82.8439064418553
2494 82.78963341490652
2495 82.84238775877991
2496 82.79029871606616
2497 82.84348304923304
2498 82.79173233639361
2499 82.84484068291631
2500 82.79099693673699
2501 82.84516525331256
2502 82.7886283463699
2503 82.84488686362462
2504 82.78965487663737
2505 82.84547685589396
2506 82.79246236066668
2507 82.84606054733506
2508 82.79130174695507
2509 82.84608240994871
2510 82.79147333318302
2511 82.84685138388419
2512 82.79042824807264
2513 82.84706761171995
2514 82.79054473129158
2515 82.84761227137064
2516 82.79080544189539
2517 82.84680658316898
2518 82.78748668314041
2519 82.84586862007467
2520 82.78473772081242
2521 82.84543898716132
2522 82.78396401666406
2523 82.84511020921803
2524 82.78421406126503
2525 82.84629813862854
2526 82.78412849499981
2527 82.84713180666589
2528 82.7865358225465
2529 82.84761618306237
2530 82.78546293596131
2531 82.84769093828638
2532 82.7848912549368
2533 82.84819991287689
2534 82.78218743451909
2535 82.84574562151283
2536 82.78436218946828
2537 82.8471613525782
2538 82.78399539700679
2539 82.84713203661964
2540 82.78771643850662
2541 82.84736618858955
2542 82.7881310337126
2543 82.84546853554292
2544 82.7891471570249
2545 82.84671340398789
2546 82.79126173592982
2547 82.84606389050464
2548 82.79261022624409
2549 82.84592510771759
2550 82.79056469636336
2551 82.84385247585823
2552 82.7894373195833
2553 82.84230665941334
2554 82.78915538169643
2555 82.84040794813968
2556 82.7880152187134
2557 82.84052072862445
2558 82.78827544632894
2559 82.83948248664082
2560 82.78879130821447
2561 82.84048135152651
2562 82.78899245964303
2563 82.84253212432435
2564 82.78836329908218
2565 82.84198618989313
2566 82.79105766184364
2567 82.84280872428853
2568 82.79051675791379
2569 82.84340822820589
2570 82.79236082915149
2571 82.84588100012654
2572 82.79301784410063
2573 82.84703711112827
2574 82.79310430250808
2575 82.8483032723867
2576 82.79415554546603
2577 82.84930918784438
2578 82.79219117187768
2579 82.84882252624284
2580 82.79033396181725
2581 82.84743567116911
2582 82.78828244070075
2583 82.84553557407159
2584 82.78676714672989
2585 82.84533234139845
2586 82.78624074690964
2587 82.84617212306262
2588 82.78590561254398
2589 82.84452588147654
2590 82.78482300356461
2591 82.84471432533522
2592 82.78474835634435
2593 82.84443221415879
2594 82.78732123458441
2595 82.84381556198998
2596 82.78887614836117
2597 82.84292507576625
2598 82.78922943131057
2599 82.84459921835322
2600 82.79213871904891
2601 82.84595298186161
2602 82.79342816535856
2603 82.8467523807693
2604 82.79444894022083
2605 82.84793782469183
2606 82.79397806759688
2607 82.84664182730563
2608 82.79274314322033
2609 82.84649514314361
2610 82.78966539629121
2611 82.84645741754491
2612 82.78804847814416
2613 82.8445122031831
2614 82.78577204621975
2615 82.84414362475617
2616 82.78345644182852
2617 82.84394398430445
2618 82.78208192606654
2619 82.8434626885024
2620 82.78555531895012
2621 82.84430629669473
2622 82.78307388097215
2623 82.84452520142484
2624 82.78316994744139
2625 82.84395345162746
2626 82.78546768099589
2627 82.84565580616118
2628 82.78581109251753
2629 82.84570102801048
2630 82.78678459302297
2631 82.84718358458672
2632 82.78743956413925
2633 82.8476620740571
2634 82.78912321087338
2635 82.84768919301646
2636 82.79044654711794
2637 82.84689139226188
2638 82.78939011556041
2639 82.84705216516021
2640 82.78806323807723
2641 82.84673662367582
2642 82.78799074431657
2643 82.84585236053528
2644 82.78755218489147
2645 82.8467695594906
2646 82.78491151965325
2647 82.84748988244132
2648 82.78525845415564
2649 82.84655830682613
2650 82.78548917035938
2651 82.8459053600323
2652 82.78592028951969
2653 82.84615461843018
2654 82.78776729855748
2655 82.84554943498333
2656 82.7897112356313
2657 82.84559091675568
2658 82.79023875361959
2659 82.84537559049306
2660 82.79208798265306
2661 82.84510896886867
2662 82.79151494255517
2663 82.84289489509545
2664 82.79074257373864
2665 82.84244096171659
2666 82.79098385887106
2667 82.84047126860571
2668 82.79024819866893
2669 82.84092832982731
2670 82.79016851821392
2671 82.84163951265631
2672 82.78834055152296
2673 82.84087159730667
2674 82.78687140972023
2675 82.84059566614027
2676 82.78766557309366
2677 82.84404556662392
2678 82.78791566133795
2679 82.84467845021399
2680 82.78879265647664
2681 82.84682391496145
2682 82.78773414795207
2683 82.84794165158725
2684 82.78719009070687
2685 82.84727995938913
2686 82.78699244307745
2687 82.84768855856495
2688 82.78696991638728
2689 82.84787588217121
2690 82.78772034524069
2691 82.84881109510553
2692 82.78732218565848
2693 82.84737378322939
2694 82.78781267763183
2695 82.84718788084894
2696 82.7881900272199
2697 82.84604645037059
2698 82.78744870800155
2699 82.8457588942823
2700 82.7864347488003
2701 82.84339194270423
2702 82.7863720861248
2703 82.84203626120554
2704 82.78662489039856
2705 82.84149767666742
2706 82.7878178883178
2707 82.84339387935759
2708 82.78959352219087
2709 82.84399641982601
2710 82.78904994070746
2711 82.84479559414216
2712 82.78908297769441
2713 82.84582274952059
2714 82.78945715413083
2715 82.84510688798275
2716 82.79024622927234
2717 82.84456247010836
2718 82.78577450407107
2719 82.84404600074869
2720 82.78666011231563
2721 82.84408001465125
2722 82.78765892518793
2723 82.84390334249957
2724 82.78933145845197
2725 82.84537866661836
2726 82.78999978567752
2727 82.8451008869919
2728 82.79087776137229
2729 82.84437965817737
2730 82.79039518399807
2731 82.84511981824144
2732 82.78976658019526
2733 82.84263422836666
2734 82.78854067877243
2735 82.84230330264847
2736 82.78628238520764
2737 82.8417662743951
2738 82.78669272566761
2739 82.84273949851739
2740 82.78781858499701
2741 82.84407240891836
2742 82.78703972573796
2743 82.84579894745208
2744 82.7871528798053
2745 82.84522847985019
2746 82.78728124399994
2747 82.84528434226
2748 82.78751648498253
2749 82.84567731744716
2750 82.78534123846316
2751 82.84579583575645
2752 82.78547540042595
2753 82.84647529904156
2754 82.78518060771644
2755 82.84662456603159
2756 82.78731414226615
2757 82.84754812570701
2758 82.78585205138201
2759 82.84789951342505
2760 82.78561059136322
2761 82.8484829518833
2762 82.78658685583477
2763 82.84818810352077
2764 82.78755168466793
2765 82.84807223872377
2766 82.78738282033491
2767 82.84781802869759
2768 82.78717175951437
2769 82.84638951105445
2770 82.7875565344563
2771 82.8466321552288
2772 82.7862090479897
2773 82.84664150350584
2774 82.78681511721919
2775 82.84687649818174
2776 82.7889570959515
2777 82.84693953947834
2778 82.78909428105503
2779 82.84789749597901
2780 82.78859077586671
2781 82.84680755701109
2782 82.78820064033499
2783 82.84500942971351
2784 82.78847110585905
2785 82.84507740975532
2786 82.78911946331888
2787 82.84442362284031
2788 82.78952283138317
2789 82.84522814900018
2790 82.78877806927186
2791 82.84512486322524
2792 82.78846366794096
2793 82.84396369250045
2794 82.78980666725427
2795 82.84439751478412
2796 82.78921173973644
2797 82.84451181110597
2798 82.78982843536238
2799 82.84386823647129
2800 82.78986556298028
2801 82.84378339461924
2802 82.79100764957185
2803 82.84595195352151
2804 82.79102968499717
2805 82.84508695985329
2806 82.79186694585437
2807 82.84477959041816
2808 82.79097459114122
2809 82.84391600419326
2810 82.78967079602819
2811 82.84374513377233
2812 82.78959521362388
2813 82.84435560293022
2814 82.79141526724963
2815 82.84467770964874
2816 82.79163373775236
2817 82.84407755543926
2818 82.78971693229178
2819 82.84313670576127
2820 82.79006289549797
2821 82.8426864351962
2822 82.7887324153794
2823 82.84162903037176
2824 82.78717891986992
2825 82.84044191920347
2826 82.78713410660986
2827 82.84127213140296
2828 82.78795439935153
2829 82.84084234432841
2830 82.78801626306338
2831 82.84239243775636
2832 82.78730473997805
2833 82.84412207717857
2834 82.7892729225176
2835 82.84454377271015
2836 82.79098344905871
2837 82.84576159831396
2838 82.79090586500641
2839 82.84691332301757
2840 82.79133549360418
2841 82.84676450743429
2842 82.79172907154775
2843 82.84738621349931
2844 82.79157687164295
2845 82.84895513338938
2846 82.79159579178663
2847 82.84756998600652
2848 82.79012330021251
2849 82.84785973323848
2850 82.78691133118072
2851 82.84760914485598
2852 82.7859422210057
2853 82.84759001331369
2854 82.78567785711674
2855 82.84599533327203
2856 82.7842706556995
2857 82.84673228673313
2858 82.784747200175
2859 82.84748800478046
2860 82.78542574788484
2861 82.84773474875702
2862 82.7851545753104
2863 82.84766913311091
2864 82.7859851320826
2865 82.84669662548419
2866 82.78810920060184
2867 82.84647540344632
2868 82.78839989088227
2869 82.84750457305159
2870 82.78970068968036
2871 82.8470759194206
2872 82.79003091654666
2873 82.84645384343619
2874 82.79271960732656
2875 82.8480921520006
2876 82.79349497507319
2877 82.84613284701298
2878 82.7925806532988
2879 82.84508986240002
2880 82.79021596749219
2881 82.84417635034468
2882 82.78939629751716
2883 82.84351155157582
2884 82.7885114852385
2885 82.84292872245622
2886 82.78765234482768
2887 82.84324970107792
2888 82.78867469368448
2889 82.84366225866285
2890 82.78922034185015
2891 82.84399433265519
2892 82.78588445447083
2893 82.84451772078972
2894 82.7870010933315
2895 82.84421775896749
2896 82.78744768914824
2897 82.84504344226536
2898 82.78688905881081
2899 82.84620657891195
2900 82.78866596633677
2901 82.84658384346126
2902 82.78770653358708
2903 82.84537438306803
2904 82.78773081091332
2905 82.84626260728831
2906 82.78790681459424
2907 82.84622533150187
2908 82.78803648619696
2909 82.84567682757999
2910 82.78754909295559
2911 82.84628444171929
2912 82.78702348770618
2913 82.84615788827708
2914 82.78656240649487
2915 82.84631145612792
2916 82.78446113290921
2917 82.84570407666374
2918 82.78414251048653
2919 82.84622895068655
2920 82.78403758693445
2921 82.84628628543246
2922 82.7844085525477
2923 82.84741610135349
2924 82.7856413313218
2925 82.84721529930748
2926 82.78711485991211
2927 82.84765553847052
2928 82.78703394518732
2929 82.84778909516665
2930 82.79033514511045
2931 82.84793162975947
2932 82.78925380900026
2933 82.84620334249966
2934 82.78966803992436
2935 82.84557811261791
2936 82.78973250645511
2937 82.84566096824553
2938 82.78925404724302
2939 82.8452262577251
2940 82.7882973971588
2941 82.84466871888526
2942 82.78780314255401
2943 82.84381111503689
2944 82.7890496735637
2945 82.84369645513894
2946 82.78849709899076
2947 82.84389895335165
2948 82.79065191311226
2949 82.8435271633617
2950 82.7896557553843
2951 82.84430808835346
2952 82.78979056563685
2953 82.84508543150413
2954 82.79086035980478
2955 82.84584375514707
2956 82.79110087990806
2957 82.84479725743427
2958 82.78859310391279
2959 82.84488142371382
2960 82.78868678197239
2961 82.84494757603477
2962 82.78734821384667
2963 82.84417074796268
2964 82.78733872078843
2965 82.84467286906997
2966 82.7880464904643
2967 82.84392252212699
2968 82.78654413867636
2969 82.8439926400855
2970 82.78759636136873
2971 82.84445920697436
2972 82.78671867722407
2973 82.84346198975138
2974 82.78691977429355
2975 82.84274896452933
2976 82.78571089495276
2977 82.84300443686752
2978 82.78787827919538
2979 82.84310504083092
2980 82.78834702245653
2981 82.84205393303083
2982 82.78848113822936
2983 82.84266482681265
2984 82.7890997974508
2985 82.8422955499057
2986 82.78967465649018
2987 82.84212454970829
2988 82.79081518798245
2989 82.84197826412311
2990 82.79164858621064
2991 82.84374100884679
2992 82.79136579239319
2993 82.84518799031221
2994 82.7937214213012
2995 82.84671872557394
2996 82.7939929734026
2997 82.84690536888903
2998 82.79218796905944
2999 82.8467298772113
3000 82.78994142728327
3001 82.84565245719169
3002 82.78774388733254
3003 82.84350351094929
3004 82.78598268160381
3005 82.843766621767
3006 82.7853573778369
3007 82.8442294072269
3008 82.78496496392842
3009 82.84540922356577
3010 82.7840317603068
3011 82.84548107986053
3012 82.78360593470534
3013 82.84724041240692
3014 82.78295717462274
3015 82.84707861387704
3016 82.78497437363482
3017 82.84794877760847
3018 82.78401582558273
3019 82.84885571842004
3020 82.78582889372559
3021 82.84984981023091
3022 82.78546126682949
3023 82.84931839828181
3024 82.7865995979849
3025 82.84963867269803
3026 82.78893994790177
3027 82.84964223588049
3028 82.78842731265482
3029 82.8478244945283
3030 82.78848465169662
3031 82.84715202314679
3032 82.78949216981088
3033 82.84686089177515
3034 82.79034397272237
3035 82.84616814017483
3036 82.79099423225664
3037 82.84609178249346
3038 82.79021634128846
3039 82.84435600559891
3040 82.7895149717594
3041 82.84334089147377
3042 82.78898098954156
3043 82.84313117768045
3044 82.78943874497175
3045 82.8425055456743
3046 82.79073888359946
3047 82.84234786319152
3048 82.79037680212856
3049 82.84297871925828
3050 82.79132413553415
3051 82.84417160656498
3052 82.79117879859
3053 82.84420170079657
3054 82.79153667318649
3055 82.84428047101164
3056 82.79094713215581
3057 82.8447691189894
3058 82.78864676992347
3059 82.84452881488153
3060 82.7882803496809
3061 82.84429525477273
3062 82.78634117184058
3063 82.84364374487477
3064 82.78593605180787
3065 82.84449525974642
3066 82.78745923266148
3067 82.84766631068898
3068 82.78809524754712
3069 82.8476493770544
3070 82.78794807513574
3071 82.84905761165632
3072 82.78703737120121
3073 82.84919277106518
3074 82.78647087792024
3075 82.8479457419492
3076 82.78688135245531
3077 82.84665576972408
3078 82.78472956317803
3079 82.84538525133189
3080 82.78672151256234
3081 82.84652551043638
3082 82.7868490184993
3083 82.84568001810794
3084 82.78713017032688
3085 82.84515911471182
3086 82.78705477579136
3087 82.84271602582039
3088 82.7876293325378
3089 82.84124515676613
3090 82.78876076708652
3091 82.84168130396398
3092 82.78704256886557
3093 82.84058191453299
3094 82.78602851370518
3095 82.83934887565901
3096 82.78737150050168
3097 82.84079044395418
3098 82.78642995676238
3099 82.84105985259926
3100 82.78709308212234
3101 82.84130527459146
3102 82.78629084039991
3103 82.84248327016719
3104 82.78739404990949
3105 82.84299626263443
3106 82.78972121009959
3107 82.84412741747884
3108 82.78869231018351
3109 82.84383115510134
3110 82.78706164124753
3111 82.84299462329653
3112 82.78641205762102
3113 82.84330935069954
3114 82.78816608913505
3115 82.84433290728735
3116 82.79060297279872
3117 82.84445343940682
3118 82.78915267868703
3119 82.84432490926717
3120 82.78867414580256
3121 82.84375210169557
3122 82.78859347637632
3123 82.84306630543314
3124 82.78816682447041
3125 82.8421084391107
3126 82.78843094058932
3127 82.84378187489916
3128 82.79001983291846
3129 82.84386540853987
3130 82.79130335894813
3131 82.84524732888327
3132 82.7903803137866
3133 82.84598774277458
3134 82.79124314755788
3135 82.84621040181106
3136 82.79276841192844
3137 82.84630294233308
3138 82.79315347640242
3139 82.84769708156917
3140 82.79302495161943
3141 82.84734628785382
3142 82.79336463613286
3143 82.8459658755297
3144 82.79144475240155
3145 82.84484894008651
3146 82.79062280376993
3147 82.84435563311283
3148 82.78960445965981
3149 82.84339520169158
3150 82.78722917244922
3151 82.84341602347
3152 82.78551269940564
3153 82.84325220755647
3154 82.78763768410188
3155 82.84445382298333
3156 82.78692667383469
3157 82.84391819567865
3158 82.78599140427292
3159 82.84471486679675
3160 82.78590802350412
3161 82.8450105105992
3162 82.78575046981439
3163 82.84684475830007
3164 82.78611709807792
3165 82.84623684150174
3166 82.7875454006691
3167 82.84846971624451
3168 82.78639364872937
3169 82.84801466401379
3170 82.78782211269282
3171 82.84971617241148
3172 82.78734877373311
3173 82.8490476839297
3174 82.78629140125359
3175 82.84866912704506
3176 82.78675646460458
3177 82.84801881599191
3178 82.78438396575986
3179 82.84615583712655
3180 82.78402152405839
3181 82.84389936733142
3182 82.78504074322869
3183 82.84247353475372
3184 82.78480437978594
3185 82.84224132656415
3186 82.78645757301643
3187 82.84186095351615
3188 82.79003577336006
3189 82.84124913113178
3190 82.7915636265827
3191 82.84327293747261
3192 82.79253539665987
3193 82.84459220409747
3194 82.7937568259574
3195 82.84484408018668
3196 82.79628354984121
3197 82.84500899601437
3198 82.79435705986836
3199 82.8449547896347
3200 82.79414647929703
3201 82.84574766337026
3202 82.7940848910399
3203 82.84436808735265
3204 82.79437675203552
3205 82.84487262007872
3206 82.79379589882258
3207 82.84443978747332
3208 82.79210906988281
3209 82.84449583876076
3210 82.79179293374257
3211 82.84429975928474
3212 82.79208773824358
3213 82.84398039927582
3214 82.79148766237954
3215 82.8434486864108
3216 82.79140954014605
3217 82.84395989033148
3218 82.79174206149733
3219 82.84417106332357
3220 82.79035936763118
3221 82.84520321388521
3222 82.79084626044772
3223 82.84628901850624
3224 82.79029821513792
3225 82.84564149303209
3226 82.7917166602296
3227 82.84598880878052
3228 82.79046135122691
3229 82.84605508123107
3230 82.79100215220407
3231 82.84674059363276
3232 82.78890394134972
3233 82.84754826957705
3234 82.78929578260423
3235 82.84798057025682
3236 82.78983178131763
3237 82.8477926421192
3238 82.78748922162626
3239 82.84752681860404
3240 82.78694083950012
3241 82.84654086554259
3242 82.78529424143119
3243 82.84421279780808
3244 82.78450648924655
3245 82.84379415979916
3246 82.78534575102374
3247 82.84411717859908
3248 82.78702985033088
3249 82.84361153587128
3250 82.78531530033048
3251 82.84199209431283
3252 82.78443527184196
3253 82.8423150617603
3254 82.78684487020992
3255 82.84092187747925
3256 82.78721966942923
3257 82.8424017759525
3258 82.78751927319331
3259 82.84341118090462
3260 82.78938384270802
3261 82.84577346580824
3262 82.79081246100651
3263 82.84559543050608
3264 82.79170180495176
3265 82.84737959042558
3266 82.79370880690888
3267 82.84654449589375
3268 82.79337140913751
3269 82.84661776650722
3270 82.79177076666863
3271 82.84581789827236
3272 82.79070101948712
3273 82.84548323968932
3274 82.79097225382858
3275 82.84530418802194
3276 82.79063759650739
3277 82.84575232748962
3278 82.79051692714455
3279 82.84640021407954
3280 82.7887999284933
3281 82.84492900017317
3282 82.78644006421757
3283 82.84553054657997
3284 82.7860484162813
3285 82.84525749566775
3286 82.78757887143585
3287 82.84705568657481
3288 82.78910616029658
3289 82.84790306053614
3290 82.79063588316276
3291 82.84972358146908
3292 82.79104251046003
3293 82.84970563287601
3294 82.79061679659162
3295 82.84893124323716
3296 82.79079834058035
3297 82.84736637450523
3298 82.78934506362759
3299 82.8465199426965
3300 82.78845759755077
3301 82.84593723710256
3302 82.78684940184749
3303 82.84387559658603
3304 82.78559305618438
3305 82.84357357790367
3306 82.78549164281685
3307 82.84385877647068
3308 82.78532542260773
3309 82.84251355482007
3310 82.78470208353656
3311 82.84295018205154
3312 82.78447129284106
3313 82.84502519657021
3314 82.78639246743609
3315 82.84579446082699
3316 82.78750452244108
3317 82.84549754362574
3318 82.78645909616057
3319 82.84706794341049
3320 82.78705630071116
3321 82.8483239785445
3322 82.78830226112079
3323 82.84872781708245
3324 82.78919756486954
3325 82.84932804682597
3326 82.78810960987128
3327 82.84752695264748
3328 82.78588789491403
3329 82.84711947286993
3330 82.78718908650296
3331 82.84760845860875
3332 82.78677037355686
3333 82.84693595793516
3334 82.78608394553028
3335 82.84555563529334
3336 82.78498360024986
3337 82.84506911957168
3338 82.7856268113994
3339 82.8447092193601
3340 82.78544949259337
3341 82.84430079681798
3342 82.78442524908725
3343 82.84334039815815
3344 82.78593564420115
3345 82.84342174144147
3346 82.78784789707849
3347 82.8441158328696
3348 82.78931101882225
3349 82.84505407442479
3350 82.79070297319747
3351 82.84604219027224
3352 82.79156978993541
3353 82.84754899776777
3354 82.79095090996715
3355 82.84812874425381
3356 82.7924661535678
3357 82.84770120474319
3358 82.78964610569172
3359 82.84615243802592
3360 82.78923991365116
3361 82.84562858392087
3362 82.78949915751204
3363 82.84384440528954
3364 82.78893232644184
3365 82.84277676509916
3366 82.78851539468056
3367 82.84274133063352
3368 82.79005608610515
3369 82.84256332308684
3370 82.78929015693605
3371 82.84256609040825
3372 82.78951360460908
3373 82.84255885447209
3374 82.79033430008174
3375 82.84160871539262
3376 82.79008523569878
3377 82.84064226046789
3378 82.78904677490277
3379 82.8415077355631
3380 82.78935312541989
3381 82.84141804961969
3382 82.7858286461268
3383 82.84066709116888
3384 82.78670749916932
3385 82.84252856966349
3386 82.78930761794413
3387 82.84358138482888
3388 82.78814321424812
3389 82.84410922117578
3390 82.78715975915806
3391 82.84434076350237
3392 82.78610665683905
3393 82.84457922675573
3394 82.78664014007651
3395 82.84451783353569
3396 82.78636754488251
3397 82.84474054321609
3398 82.78607663449962
3399 82.84517407272736
3400 82.78651915490934
3401 82.84699111909043
3402 82.78573302708892
3403 82.84831454258652
3404 82.78595469613484
3405 82.84773974658958
3406 82.7883811223988
3407 82.84802614534101
3408 82.78884781145561
3409 82.84810548085346
3410 82.7899744514468
3411 82.84898859198532
3412 82.78817589499002
3413 82.84654689200417
3414 82.7879633212856
3415 82.84612327426737
3416 82.79022361628161
3417 82.84619017958931
3418 82.78552168089018
3419 82.84500058708002
3420 82.78489294055203
3421 82.84365107293901
3422 82.78436364230032
3423 82.84291400266672
3424 82.78274954375016
3425 82.84228033464096
3426 82.78342951272828
3427 82.8422148672488
3428 82.78661789908497
3429 82.84177658494418
3430 82.78677282698861
3431 82.84259607476811
3432 82.7876702481626
3433 82.84494009266305
3434 82.78938987300877
3435 82.84429099261919
3436 82.79260148305013
3437 82.84614534241864
3438 82.79071916489205
3439 82.84684451202645
3440 82.79087267919385
3441 82.84742886761276
3442 82.79194803509688
3443 82.84636706862189
3444 82.79157429228347
3445 82.84726366968113
3446 82.79161190216193
3447 82.84636392964704
3448 82.79011398260042
3449 82.84641834055056
3450 82.79018802275519
3451 82.84639687994905
3452 82.78822399432465
3453 82.8450471091822
3454 82.78742191804699
3455 82.84477915141983
3456 82.78515425596416
3457 82.84458920772036
3458 82.78510448350883
3459 82.8441143952806
3460 82.78569070488879
3461 82.84416989764975
3462 82.78511455468568
3463 82.84545499268455
3464 82.78610891718496
3465 82.84630024738718
3466 82.78788311708713
3467 82.8470213131903
3468 82.78851855717947
3469 82.84783151495061
3470 82.78878603566446
3471 82.848828642825
3472 82.78807306952147
3473 82.84897064809954
3474 82.78722614823886
3475 82.84830078824285
3476 82.78847897173469
3477 82.84695708930214
3478 82.78765513339889
3479 82.84636328029612
3480 82.78555471303774
3481 82.84521492081218
3482 82.78534429088668
3483 82.84347464457952
3484 82.7843524389518
3485 82.84332023869703
3486 82.78290782748425
3487 82.84358118909945
3488 82.7841266883426
3489 82.84244492371984
3490 82.78414484981722
3491 82.84327618015153
3492 82.78475406668133
3493 82.84381056069388
3494 82.78496943453248
3495 82.84354345186321
3496 82.78682804287163
3497 82.84303069353571
3498 82.78650425745755
3499 82.84445499094804
3500 82.7885371708241
3501 82.84396460057776
3502 82.78853652498385
3503 82.84340828788882
3504 82.78818250495419
3505 82.84191327613679
3506 82.78906287676676
3507 82.84103275886174
3508 82.79004222011771
3509 82.84269375974533
3510 82.78970113786586
3511 82.84336680426655
3512 82.79142333359754
3513 82.84417041688462
3514 82.79188730424119
3515 82.84403211427085
3516 82.7916659746524
3517 82.84442789847168
3518 82.79179121515004
3519 82.84379964820187
3520 82.79143300387192
3521 82.84335010202646
3522 82.7904669975194
3523 82.84315459325499
3524 82.79026248822065
3525 82.84284540939151
3526 82.79208425133956
3527 82.8443214434799
3528 82.7916287437082
3529 82.84482948183556
3530 82.79344870268018
3531 82.84698474676138
3532 82.79047338351738
3533 82.84542207909008
3534 82.78974326311736
3535 82.84517874532055
3536 82.79074518577919
3537 82.84423722705239
3538 82.79079020271499
3539 82.84504549430088
3540 82.78938122336059
3541 82.84396897946253
3542 82.78737554836525
3543 82.84386155283624
3544 82.78757745732759
3545 82.84468939653296
3546 82.78774657223722
3547 82.84718778612384
3548 82.78821645441997
3549 82.84672017081576
3550 82.7877360956664
3551 82.84783553117869
3552 82.78518165215179
3553 82.84806367217516
3554 82.78584656354688
3555 82.84763790665265
3556 82.78599347790849
3557 82.84693260169172
3558 82.78412361392307
3559 82.84704909393257
3560 82.78395953027903
3561 82.84667581360846
3562 82.78238674664229
3563 82.84679880463928
3564 82.78365565904876
3565 82.8467806833649
3566 82.7851874050163
3567 82.846342940097
3568 82.7857640812411
3569 82.84644808903808
3570 82.78670369716652
3571 82.84686257265096
3572 82.78654121453951
3573 82.84525409877192
3574 82.78512567299111
3575 82.84317742281209
3576 82.78491180969837
3577 82.84355776639931
3578 82.78574895538897
3579 82.84303477628434
3580 82.78683911109667
3581 82.84336529197674
3582 82.78720095312703
3583 82.84406043863363
3584 82.78852985565673
3585 82.84430883221229
3586 82.79087207624808
3587 82.84496523679306
3588 82.79169236022408
3589 82.84494413796256
3590 82.79151792712825
3591 82.84592832264158
3592 82.79036193796712
3593 82.84576983801691
3594 82.79055674718718
3595 82.84729806244901
3596 82.79232470079708
3597 82.84684906294073
3598 82.79146510263138
3599 82.8477550900745
3600 82.78988744320881
3601 82.8466772682937
3602 82.78828993533909
3603 82.84570827508023
3604 82.78700247158217
3605 82.8444001794486
3606 82.78475297311277
3607 82.84464813069278
3608 82.78561395604849
3609 82.84466596007864
3610 82.78566296919728
3611 82.84570597623723
3612 82.78594797777829
3613 82.84617801389446
3614 82.78607447036116
3615 82.84467680146579
3616 82.78776840843338
3617 82.84581851056961
3618 82.78715667657703
3619 82.84556727969508
3620 82.78836602620261
3621 82.84621867922735
3622 82.78998938312346
3623 82.84683684835153
3624 82.79116227021089
3625 82.84830452616028
3626 82.79153254831601
3627 82.84722320522754
3628 82.79228535110235
3629 82.84574963962993
3630 82.79035335735543
3631 82.84351759851933
3632 82.7876163214578
3633 82.84234918493739
3634 82.78737596412559
3635 82.84156733185301
3636 82.78849834150309
3637 82.84245194004238
3638 82.78785812108273
3639 82.84213944700232
3640 82.78971340617856
3641 82.84314855694976
3642 82.78945163691117
3643 82.8443014385914
3644 82.78970030332526
3645 82.84321913930066
3646 82.79239320811293
3647 82.84398130186258
3648 82.79296010786008
3649 82.84588088714737
3650 82.79389710625178
3651 82.84698116111053
3652 82.79455047102526
3653 82.84822194258859
3654 82.79314637240705
3655 82.84782273128906
3656 82.79256201565526
3657 82.84767842586487
3658 82.79134887469128
3659 82.84745265770751
3660 82.79146167344291
3661 82.84676916771842
3662 82.79053822613297
3663 82.84623222703453
3664 82.78977475386681
3665 82.84621683685788
3666 82.78947573001152
3667 82.84634230634236
3668 82.78929250588482
3669 82.84485469808331
3670 82.78645318293907
3671 82.84444358006651
3672 82.78414363923652
3673 82.84413623282796
3674 82.78519846938428
3675 82.84356285795741
3676 82.78815961031093
3677 82.84464750713612
3678 82.78788452913506
3679 82.84571836817766
3680 82.79005344091453
3681 82.84677224447961
3682 82.79107882791125
3683 82.84575054835932
3684 82.79102903545528
3685 82.84561437180064
3686 82.79072402277095
3687 82.84377197243442
3688 82.79102503456636
3689 82.84481226365145
3690 82.79128698550502
3691 82.844613924334
3692 82.79037520900782
3693 82.84323071827043
3694 82.78948195490545
3695 82.84271674788093
3696 82.7889024542303
3697 82.84300923025495
3698 82.78899964056293
3699 82.84238622848491
3700 82.78949888201689
3701 82.84279850660687
3702 82.78607379804676
3703 82.84289213080281
3704 82.78661744631887
3705 82.8444433009205
3706 82.78875360423704
3707 82.8460476211289
3708 82.78925336231573
3709 82.84697241689952
3710 82.78899433469648
3711 82.84880891962803
3712 82.78880774678504
3713 82.8488423558004
3714 82.78828589469246
3715 82.85006159775629
3716 82.7881287397923
3717 82.84903183325018
3718 82.78599883618327
3719 82.84869234988733
3720 82.78406191483606
3721 82.84688298637379
3722 82.78269293452553
3723 82.84528877500159
3724 82.78228808870809
3725 82.8451635136681
3726 82.78224274453633
3727 82.84533033010432
3728 82.78373580491542
3729 82.84500851367712
3730 82.7860859951912
3731 82.84671180463113
3732 82.7868156009654
3733 82.84872805310033
3734 82.78865606568765
3735 82.84805819380789
3736 82.79043508871625
3737 82.8474182491848
3738 82.78993568378013
3739 82.84710383818256
3740 82.79038745475468
3741 82.84735497935358
3742 82.7912817415594
3743 82.84779685605294
3744 82.7907268443125
3745 82.84813419884624
3746 82.78973151704167
3747 82.84793680182136
3748 82.79091134009241
3749 82.84676848564061
3750 82.7896349725646
3751 82.84645244876245
3752 82.79034664469444
3753 82.84503887870618
3754 82.7902625155519
3755 82.84365786689411
3756 82.78938416132114
3757 82.842825238492
3758 82.78877947629208
3759 82.84314237943313
3760 82.78860712479441
3761 82.84295179364166
3762 82.78898101371551
3763 82.84440788611667
3764 82.79036327876058
3765 82.84438541610677
3766 82.79068183532198
3767 82.84427956151539
3768 82.78992902940152
3769 82.84514353570802
3770 82.78983367423261
3771 82.84599043465198
3772 82.78979161847352
3773 82.8459171560626
3774 82.78863244845556
3775 82.84540406702497
3776 82.78695750882736
3777 82.84536357734299
3778 82.78643819041892
3779 82.84573211497096
3780 82.78521465927079
3781 82.84489262218577
3782 82.78493788709019
3783 82.84565570337176
3784 82.78490477659152
3785 82.84582516021383
3786 82.78675370676244
3787 82.84759785227939
3788 82.78766910768034
3789 82.84585444537574
3790 82.78756524805702
3791 82.84493876668762
3792 82.78525538413861
3793 82.84421399118013
3794 82.78589013389538
3795 82.84287638374494
3796 82.78631342509161
3797 82.84310845518502
3798 82.78595255939675
3799 82.84385846418493
3800 82.78598302049406
3801 82.84373433160401
3802 82.78632233973717
3803 82.84408871399009
3804 82.7850127517368
3805 82.84303370136753
3806 82.78551452583726
3807 82.84249521179092
3808 82.78595632580299
3809 82.84241490978411
3810 82.78679065341377
3811 82.84348766415719
3812 82.78734498566986
3813 82.84329894494283
3814 82.78805299347277
3815 82.84343892002981
3816 82.78868166990054
3817 82.84451494178911
3818 82.7908181758429
3819 82.84510143175031
3820 82.78965002473146
3821 82.84318044640811
3822 82.78978439274566
3823 82.84383135053999
3824 82.79017669840661
3825 82.84484441355941
3826 82.79261232397288
3827 82.84524308128647
3828 82.79093459254456
3829 82.84482874714034
3830 82.79034083769852
3831 82.84576934926858
3832 82.79074039107242
3833 82.84696459476775
3834 82.79106510184285
3835 82.84831630624218
3836 82.79148349079389
3837 82.84671066872953
3838 82.78965973196004
3839 82.84554981888162
3840 82.78765656826862
3841 82.84450838965492
3842 82.78625069618762
3843 82.84250372676554
3844 82.78483421215267
3845 82.84151255146364
3846 82.78472556753211
3847 82.84210054498412
3848 82.78731477993763
3849 82.84348923689116
3850 82.78865955452386
3851 82.84620902834439
3852 82.78853624144384
3853 82.84766029730179
3854 82.78862092067314
3855 82.84745828600396
3856 82.78977887578665
3857 82.84794776534211
3858 82.7890521118463
3859 82.84931986702654
3860 82.78923327373663
3861 82.84974824563407
3862 82.78920383633218
3863 82.84934533352394
3864 82.78803772894905
3865 82.84972751539391
3866 82.78809153832167
3867 82.84884836122833
3868 82.78687512272037
3869 82.84791230904541
3870 82.78620114124512
3871 82.84775060287284
3872 82.78505487536714
3873 82.84692635337139
3874 82.78459604093386
3875 82.84513886672151
3876 82.78379272004175
3877 82.84423500169085
3878 82.78148173001181
3879 82.84315448841031
3880 82.78238897710717
3881 82.84377767361369
3882 82.78274002199495
3883 82.84353426803607
3884 82.78138738761218
3885 82.84216553584419
3886 82.78513188430146
3887 82.84326919164536
3888 82.78535264904136
3889 82.84449522424745
3890 82.78838395974675
3891 82.84593813776493
3892 82.78938519307364
3893 82.84576406327538
3894 82.7923697548928
3895 82.84734003468348
3896 82.7937854777378
3897 82.84693091537913
3898 82.79486186334491
3899 82.84748563343837
3900 82.79290610115252
3901 82.84657988680864
3902 82.79045457233011
3903 82.84389046304423
3904 82.78827101563432
3905 82.8440810384288
3906 82.7884611536149
3907 82.84384967768079
3908 82.7894517543176
3909 82.84254370891483
3910 82.78819218168354
3911 82.84232230833972
3912 82.78786514226478
3913 82.84298906830195
3914 82.78796323941368
3915 82.84192899487894
3916 82.78789036645969
3917 82.84130974751777
3918 82.78689654341397
3919 82.84156984081962
3920 82.78903146665191
3921 82.84329230495405
3922 82.78994003972458
3923 82.84344807963798
3924 82.78968354548644
3925 82.84370313490922
3926 82.79042475532015
3927 82.84374820514397
3928 82.78997353954777
3929 82.84411049634483
3930 82.79020641423338
3931 82.84525338623619
3932 82.78884423317405
3933 82.84459043765011
3934 82.78843473612885
3935 82.84434070980578
3936 82.7873179714815
3937 82.84518590167563
3938 82.78672850717484
3939 82.84377276923119
3940 82.78549567490002
3941 82.84317907551664
3942 82.78442878445338
3943 82.84300413508471
3944 82.78545232436429
3945 82.84322723655379
3946 82.78596239746992
3947 82.84382138191238
3948 82.78749786977353
3949 82.84419872593055
3950 82.78983548105597
3951 82.84653702544301
3952 82.78937243740992
3953 82.84635515855275
3954 82.78939577061449
3955 82.84706213786103
3956 82.790665948648
3957 82.84639676472851
3958 82.78999704444918
3959 82.84707581674718
3960 82.78924424633844
3961 82.84662556805131
3962 82.78865753303171
3963 82.84592274709142
3964 82.78801415242347
3965 82.84518682146583
3966 82.78654731750154
3967 82.84617260121048
3968 82.78843490113618
3969 82.84494508505944
3970 82.78835268626445
3971 82.84544040484171
3972 82.7874588475551
3973 82.84503144108621
3974 82.78808204057462
3975 82.84468545238472
3976 82.79001380074655
3977 82.84604687602928
3978 82.7899918047496
3979 82.8471093105218
3980 82.79084214619625
3981 82.84684778088724
3982 82.7909766053165
3983 82.84683135479581
3984 82.79021571957001
3985 82.84678214332521
3986 82.7912863677749
3987 82.84670253373692
3988 82.79054375830577
3989 82.84624264769614
3990 82.78598042834636
3991 82.84454018844727
3992 82.78561297824027
3993 82.84405634675271
3994 82.7856285292887
3995 82.84272817221077
3996 82.78289587924131
3997 82.84217617762332
3998 82.78378259584186
3999 82.84176107049689
4000 82.78522145869971
4001 82.84257903010361
4002 82.78363825279656
4003 82.84230664544688
4004 82.78523813432632
4005 82.84216107673367
4006 82.78799988423835
4007 82.84297855904671
4008 82.7876059794073
4009 82.84265866906081
4010 82.79028562113749
4011 82.84461710915267
4012 82.78890832228048
4013 82.84462053595163
4014 82.78933879287517
4015 82.84605858444338
4016 82.78603766932645
4017 82.84533505492344
4018 82.78549434610262
4019 82.8455724451548
4020 82.78373020661985
4021 82.8450850793337
4022 82.78349740729632
4023 82.8443955763922
4024 82.78371096402606
4025 82.84468409427949
4026 82.78328527693505
4027 82.84577708000739
4028 82.78560580257755
4029 82.84473544095013
4030 82.78619979539346
4031 82.84616294951168
4032 82.78551432222166
4033 82.84657470561429
4034 82.78692621332407
4035 82.84466384676543
4036 82.78843414776631
4037 82.84335425375602
4038 82.78483155583788
4039 82.84399781163945
4040 82.7871500139843
4041 82.84483839905684
4042 82.78744677297695
4043 82.84495409801249
4044 82.78771873836135
4045 82.84540194650245
4046 82.79062200635525
4047 82.84731423433172
4048 82.79087890836063
4049 82.84671590241697
4050 82.79078979774297
4051 82.8472104282435
4052 82.79096423390308
4053 82.84597575852648
4054 82.79053372854187
4055 82.84528339953286
4056 82.78963592252417
4057 82.84456882828246
4058 82.79021962171514
4059 82.84482183018713
4060 82.79012097004444
4061 82.84424845117476
4062 82.78854259307141
4063 82.84386842048647
4064 82.78787534504119
4065 82.84273122212096
4066 82.79013779946429
4067 82.84402513619438
4068 82.78974540772226
4069 82.84435037318477
4070 82.78934076589699
4071 82.84488220835587
4072 82.78859952064434
4073 82.84421958766578
4074 82.78817215240501
4075 82.84471496705251
4076 82.7879354285753
4077 82.84344062609891
4078 82.78988175296303
4079 82.84503044518019
4080 82.78900124138526
4081 82.8440046565764
4082 82.78996573035543
4083 82.84393142185299
4084 82.79084672042499
4085 82.84586917983592
4086 82.7908631928747
4087 82.84699211089151
4088 82.79241648603121
4089 82.84707128887321
4090 82.79255308362046
4091 82.84806920019359
4092 82.79128866054332
4093 82.84925701380998
4094 82.79060006720511
4095 82.84742268341307
4096 82.79115748336099
4097 82.84758152250532
4098 82.78825406631513
4099 82.84705587589083
4100 82.78875594599192
4101 82.84823880261717
4102 82.78830756668984
4103 82.84841628196578
4104 82.78855593298245
4105 82.84876115085552
4106 82.7888277711414
4107 82.84826871940237
4108 82.78825327242143
4109 82.84760200299873
4110 82.78651289739821
4111 82.847079650978
4112 82.78544562794143
4113 82.84560205503901
4114 82.78227187744174
4115 82.84373926412421
4116 82.7803464615988
4117 82.84385893643368
4118 82.7802508891853
4119 82.84385047221924
4120 82.78209804240876
4121 82.84492528304661
4122 82.78463513679554
4123 82.84661187807322
4124 82.78619852232424
4125 82.84660304083081
4126 82.78839360657952
4127 82.84703131906787
4128 82.78931518544238
4129 82.84871759343682
4130 82.79162023943378
4131 82.84934920902224
4132 82.79335323106739
4133 82.84944770057993
4134 82.79250165189876
4135 82.84744130441301
4136 82.79400804364224
4137 82.84523384395912
4138 82.79252011480281
4139 82.84517754251851
4140 82.79157206409158
4141 82.84382331626867
4142 82.79036851876496
4143 82.84242272048607
4144 82.7881324745255
4145 82.84251182603104
4146 82.78953378190189
4147 82.84398636978069
4148 82.7895466754328
4149 82.84296721957431
4150 82.78915199338786
4151 82.84332319600053
4152 82.78718454543679
4153 82.84484777449107
4154 82.78927572382739
4155 82.84498769412814
4156 82.79059209868603
4157 82.84716993286132
4158 82.78890808206157
4159 82.84693369906809
4160 82.7895707409065
4161 82.8479412579257
4162 82.79037557435976
4163 82.84651072035594
4164 82.78934376606109
4165 82.84656164614387
4166 82.78975415476219
4167 82.84589344177695
4168 82.78963091702452
4169 82.84571418048418
4170 82.78893244934793
4171 82.84594477210835
4172 82.78849008594487
4173 82.84395594438412
4174 82.78836437671012
4175 82.84378264069269
4176 82.7861272972394
4177 82.84362012395705
4178 82.78655253955789
4179 82.84403996798576
4180 82.78566981615597
4181 82.8422853422106
4182 82.78420433008711
4183 82.84403156510858
4184 82.78498471220327
4185 82.8444828765102
4186 82.78750389574328
4187 82.84586803412786
4188 82.78612956816858
4189 82.84546774613368
4190 82.78725278035326
4191 82.84600300507803
4192 82.78803575731909
4193 82.84741152532581
4194 82.79024402238322
4195 82.84904042474096
4196 82.79044826330868
4197 82.84767958621372
4198 82.79018953063765
4199 82.84783301586855
4200 82.78878199657406
4201 82.84749552451282
4202 82.78779997770354
4203 82.84572857167666
4204 82.78685057744808
4205 82.84388878270663
4206 82.78659802107509
4207 82.84301707067257
4208 82.78704462692721
4209 82.84212904041094
4210 82.78794490093574
4211 82.84213129496241
4212 82.78806391920826
4213 82.84266987090811
4214 82.79126056423783
4215 82.84261650270665
4216 82.79285372711794
4217 82.84292967481905
4218 82.79373074278313
4219 82.84432031742213
4220 82.7950547168611
4221 82.844563011568
4222 82.79541660382611
4223 82.84459554167442
4224 82.79274214778808
4225 82.84533529237866
4226 82.79348105220166
4227 82.84518680336168
4228 82.79301679379773
4229 82.84500533068817
4230 82.78939502949459
4231 82.84441465016577
4232 82.78851190664815
4233 82.84457557519957
4234 82.7874538260299
4235 82.84321014846589
4236 82.78661101712844
4237 82.84399473047131
4238 82.78631906785421
4239 82.84386302707948
4240 82.78700818072232
4241 82.84439722825272
4242 82.78765846236946
4243 82.8442082976115
4244 82.78934357612441
4245 82.84424321042027
4246 82.79030246795158
4247 82.84393105975801
4248 82.79037792279661
4249 82.84489117263503
4250 82.78992520656908
4251 82.84582332576764
4252 82.79013814766324
4253 82.84681967591902
4254 82.78934251166419
4255 82.84819863724144
4256 82.78969808420767
4257 82.84785749940374
4258 82.78816428477734
4259 82.84716297068849
4260 82.78399663690041
4261 82.84522494470488
4262 82.78173516005972
4263 82.84363477935237
4264 82.78233370133577
4265 82.84454453423285
4266 82.78289555697968
4267 82.84549624652145
4268 82.785244557105
4269 82.84612482169254
4270 82.78683341464554
4271 82.84797428922528
4272 82.78799756899863
4273 82.8492957026336
4274 82.78968463567534
4275 82.84928756435781
4276 82.79092081802516
4277 82.84875145669314
4278 82.78984934334954
4279 82.84905002935795
4280 82.79095143763782
4281 82.84829465050555
4282 82.7914102897427
4283 82.84839910279358
4284 82.79010537950737
4285 82.84794474198654
4286 82.78924281663608
4287 82.84634390139985
4288 82.78759667594544
4289 82.84307330962291
4290 82.78642248833575
4291 82.84238558618723
4292 82.7860196454896
4293 82.84092066084015
4294 82.78745457265191
4295 82.8412478794295
4296 82.78801453198648
4297 82.84239224870092
4298 82.78858016202985
4299 82.84256030931567
4300 82.78944468598375
4301 82.84264924275332
4302 82.78926876304617
4303 82.84333650373532
4304 82.79000777493015
4305 82.8427179106597
4306 82.79178553228515
4307 82.84355638415319
4308 82.79312922859876
4309 82.84430985458469
4310 82.79280509024409
4311 82.84518166888965
4312 82.79321443419988
4313 82.84441850853077
4314 82.79012079023971
4315 82.84490396975666
4316 82.79228015470555
4317 82.84408749461386
4318 82.7914247231314
4319 82.84410667944249
4320 82.79002168639593
4321 82.84282239361715
4322 82.78953073089646
4323 82.84223876536561
4324 82.78910776425599
4325 82.84136095345642
4326 82.78799197053219
4327 82.84285427574217
4328 82.78867375889881
4329 82.84157345657145
4330 82.78812040117506
4331 82.84197307642759
4332 82.78760462992059
4333 82.8423362613696
4334 82.78716212559512
4335 82.84228823633021
4336 82.7874406844718
4337 82.84290042725932
4338 82.78635237431821
4339 82.84481137318917
4340 82.78752157752925
4341 82.84499654252048
4342 82.78759489660156
4343 82.84503531580908
4344 82.78636851746366
4345 82.84543754829244
4346 82.78784483035504
4347 82.84544384416373
4348 82.78927444404732
4349 82.84550437989627
4350 82.78779512739111
4351 82.84674122772668
4352 82.7888221971661
4353 82.84616905207983
4354 82.78847934379769
4355 82.84725980740123
4356 82.78831389169325
4357 82.84743287721885
4358 82.78701205365454
4359 82.84707879003838
4360 82.78862389755062
4361 82.84707486513938
4362 82.78737172314936
4363 82.84780927356053
4364 82.78732180880043
4365 82.84673410313063
4366 82.78903341754234
4367 82.84650952084175
4368 82.78840370951913
4369 82.84605305050609
4370 82.78918560581788
4371 82.84628244494834
4372 82.78912942993574
4373 82.84562418359806
4374 82.78720207511469
4375 82.84455487502004
4376 82.78876759808669
4377 82.84437704094898
4378 82.78770686723202
4379 82.84452571761403
4380 82.78869401017162
4381 82.844286593265
4382 82.78755163695833
4383 82.84328290154191
4384 82.78837808459501
4385 82.84258296393803
4386 82.78685324377976
4387 82.84306405230318
4388 82.78876797961796
4389 82.84196788194485
4390 82.78708782415238
4391 82.84319465827905
4392 82.78711299636247
4393 82.84407468090477
4394 82.78805242524285
4395 82.84401577731991
4396 82.78885614063523
4397 82.84304938502032
4398 82.78627664514089
4399 82.84384626891642
4400 82.78785772148156
4401 82.84493490084324
4402 82.78863479983707
4403 82.84458936427808
4404 82.78797002058869
4405 82.84527466016976
4406 82.78730698158482
4407 82.8444526580043
4408 82.7873704415893
4409 82.84631628501144
4410 82.78783485369465
4411 82.84739244603118
4412 82.78757909549169
4413 82.84682794799205
4414 82.7873396175243
4415 82.84683752707329
4416 82.78670730560572
4417 82.84830126220037
4418 82.78765428874819
4419 82.84893773898588
4420 82.78690898467976
4421 82.84693595751081
4422 82.78551939553496
4423 82.84776045093017
4424 82.78508239704793
4425 82.84744031603938
4426 82.78851038693203
4427 82.84948253073519
4428 82.78925894804948
4429 82.84763229824313
4430 82.78960624529996
4431 82.84866375469134
4432 82.78947395792946
4433 82.84745931688607
4434 82.78853402580178
4435 82.84855966373203
4436 82.78948886822882
4437 82.84620651229592
4438 82.78703347313213
4439 82.84565309378038
4440 82.78671247951519
4441 82.84572610394221
4442 82.78888338401345
4443 82.84685138892924
4444 82.78923610073922
4445 82.84597098860709
4446 82.78817755584362
4447 82.84580280214951
4448 82.78938486931874
4449 82.84552145356514
4450 82.78947245206616
4451 82.84596764689837
4452 82.78992327554538
4453 82.84524731851532
4454 82.79098889980786
4455 82.84475031789592
4456 82.79246399918192
4457 82.84452340828896
4458 82.79216684132331
4459 82.84582627113974
4460 82.7934917693924
4461 82.84539494262005
4462 82.79431640088941
4463 82.84526355041237
4464 82.79168603005986
4465 82.8445216557304
4466 82.79263641634491
4467 82.8433240250969
4468 82.79297689063623
4469 82.84377794715233
4470 82.79099792732994
4471 82.84350893202119
4472 82.7897823653354
4473 82.84255250583271
4474 82.78796426099866
4475 82.84223038725027
4476 82.78747125114729
4477 82.84312722734111
4478 82.78762265410391
4479 82.84393058900073
4480 82.78755164142956
4481 82.84468809540461
4482 82.78678228058554
4483 82.84532189922029
4484 82.7879097657236
4485 82.84492275346697
4486 82.78857888334898
4487 82.84583594339301
4488 82.78801253664359
4489 82.84713104418084
4490 82.78934541260969
4491 82.84864732119506
4492 82.7871815606912
4493 82.84769027386874
4494 82.78742631465454
4495 82.84779144516409
4496 82.7869290774687
4497 82.84565583908591
4498 82.78498057262672
4499 82.84551328518521
4500 82.78608827598418
4501 82.84494953296365
4502 82.7856702530965
4503 82.84446047034642
4504 82.78635529242325
4505 82.84382196054101
4506 82.78725556493997
4507 82.84593019833552
4508 82.78965275248663
4509 82.84557002298152
4510 82.78733188494893
4511 82.84612416906972
4512 82.78703446302025
4513 82.84615823859355
4514 82.78737214522592
4515 82.8461608462481
4516 82.78653616863208
4517 82.84579454856492
4518 82.78406960531552
4519 82.84528074662832
4520 82.78650509229955
4521 82.84530418852557
4522 82.78453371550005
4523 82.84473450704506
4524 82.78480891950296
4525 82.84434009205542
4526 82.78724585793435
4527 82.84468249376522
4528 82.78590204012461
4529 82.8420173904464
4530 82.7843775074731
4531 82.84215672975442
4532 82.78501056386069
4533 82.8413580193799
4534 82.78605840593231
4535 82.84165020698921
4536 82.78534562868376
4537 82.84157897066227
4538 82.78506579260943
4539 82.84291531348111
4540 82.78633273184872
4541 82.84367755579331
4542 82.78597654443647
4543 82.84479293788326
4544 82.78694719084433
4545 82.84453530051852
4546 82.78936023848637
4547 82.84603088724394
4548 82.78954632826033
4549 82.84674219920407
4550 82.78983286804366
4551 82.84774911750351
4552 82.79103392996284
4553 82.84841504714782
4554 82.79095695727324
4555 82.8491918761986
4556 82.79074030382849
4557 82.84681635541872
4558 82.7890170786965
4559 82.84670130619376
4560 82.78632368063114
4561 82.84363291846768
4562 82.78444466047499
4563 82.84193546492465
4564 82.78533161659846
4565 82.84173049297405
4566 82.78528429022386
4567 82.84298558814011
4568 82.78679620763695
4569 82.84269235318844
4570 82.78716156640435
4571 82.84479682293623
4572 82.78774323763128
4573 82.8464746411158
4574 82.78808757987109
4575 82.84669677945075
4576 82.78976391772443
4577 82.84721239866803
4578 82.78832879127343
4579 82.84840161110723
4580 82.79045249099883
4581 82.84908720029665
4582 82.78977732754055
4583 82.84858624949881
4584 82.78998163062124
4585 82.84927572144558
4586 82.79057458636045
4587 82.84929183366988
4588 82.79100595113616
4589 82.84882136912046
4590 82.78918290952551
4591 82.84835081278077
4592 82.78818885857103
4593 82.84652654144189
4594 82.78722724971242
4595 82.8442870647538
4596 82.78446484396966
4597 82.84314289320437
4598 82.78455575752825
4599 82.8410257538236
4600 82.78362724568359
4601 82.8404777139895
4602 82.7848372543173
4603 82.84175425032942
4604 82.78660764518801
4605 82.84099839072861
4606 82.79070442258481
4607 82.84322918070592
4608 82.79086951987649
4609 82.84439301929754
4610 82.79291634790252
4611 82.84680311955262
4612 82.79404428477726
4613 82.84697689061527
4614 82.79490588255047
4615 82.84737699748145
4616 82.79598334302068
4617 82.84744334980735
4618 82.79503467483093
4619 82.84770185473477
4620 82.79308914113085
4621 82.84615014204122
4622 82.79162786139459
4623 82.84485824419994
4624 82.78946660846303
4625 82.84472040885517
4626 82.78824971010307
4627 82.84598489148237
4628 82.78991910210706
4629 82.84440552811981
4630 82.78973054259558
4631 82.84455696891602
4632 82.78835092582912
4633 82.8453471982595
4634 82.78917573434029
4635 82.84428826677137
4636 82.7905392734169
4637 82.843629600754
4638 82.78870389424469
4639 82.84420251448236
4640 82.79038152601214
4641 82.84534375909718
4642 82.79148430319646
4643 82.84556435007639
4644 82.79231445623729
4645 82.84540210038863
4646 82.79100113046449
4647 82.84473982852963
4648 82.79203157278015
4649 82.8448301331981
4650 82.79153318992078
4651 82.84651552342275
4652 82.79100467345189
4653 82.8451430494783
4654 82.78995197583656
4655 82.84563703626186
4656 82.78912626377731
4657 82.84585607316012
4658 82.78805767261807
4659 82.84485272421776
4660 82.78760362826334
4661 82.84472160998132
4662 82.78526190317166
4663 82.84469559477749
4664 82.78525350389556
4665 82.84503676807174
4666 82.7874064805946
4667 82.84526679387821
4668 82.78672354249552
4669 82.84498068711734
4670 82.78465618753194
4671 82.84387193381451
4672 82.78364512185861
4673 82.84391714278642
4674 82.78462489979403
4675 82.84498225907495
4676 82.78643655976082
4677 82.84367669630288
4678 82.78604689337425
4679 82.84518945077478
4680 82.78698034558091
4681 82.84519486520179
4682 82.78834980905259
4683 82.84496652550816
4684 82.78926741962356
4685 82.84524612313476
4686 82.78926295275775
4687 82.84721210744983
4688 82.79177151919048
4689 82.84684259284435
4690 82.79199447855319
4691 82.84802992195745
4692 82.79207944828946
4693 82.84913110120863
4694 82.79150611009453
4695 82.84794088637791
4696 82.79198619587839
4697 82.84850139567359
4698 82.78834275962134
4699 82.84789481588732
4700 82.78929913955652
4701 82.84681462638873
4702 82.78799909617227
4703 82.84501276795392
4704 82.78691802267051
4705 82.84536404341851
4706 82.78868923870526
4707 82.84415745836496
4708 82.79025788323375
4709 82.84307371272894
4710 82.788742231572
4711 82.84268812971804
4712 82.78895712883224
4713 82.84203535125756
4714 82.78957341853547
4715 82.84188742195501
4716 82.78920251568817
4717 82.84153092561205
4718 82.78823209286762
4719 82.84125985662648
4720 82.78825278988528
4721 82.84150171965115
4722 82.78727730148724
4723 82.84259733049151
4724 82.78670342825937
4725 82.84171661463029
4726 82.78779474321868
4727 82.84185047159919
4728 82.78705624044518
4729 82.84291609582773
4730 82.78801620852784
4731 82.8451082709919
4732 82.78850545203512
4733 82.84671190463295
4734 82.78821491507775
4735 82.84714005162022
4736 82.78884030550554
4737 82.84706784985211
4738 82.7884936465228
4739 82.847228049856
4740 82.78797727417978
4741 82.84674705661789
4742 82.78584693609181
4743 82.84488813582713
4744 82.78485308095944
4745 82.84455715956675
4746 82.78536163660517
4747 82.84634327919214
4748 82.78621444670198
4749 82.84501126320752
4750 82.78642767176942
4751 82.84648401607043
4752 82.78507953704008
4753 82.84588270437102
4754 82.78642976487075
4755 82.84554314723853
4756 82.78928941414222
4757 82.8459077550238
4758 82.78760619421425
4759 82.84682712399402
4760 82.78996985725874
4761 82.84599071862763
4762 82.79023338814358
4763 82.8464259556487
4764 82.79095212502926
4765 82.84598326316758
4766 82.7909564782542
4767 82.84468868439436
4768 82.79121238415013
4769 82.84332659968891
4770 82.78938534444724
4771 82.84294347301299
4772 82.78859441946605
4773 82.8415289291374
4774 82.78798927093602
4775 82.84157439615936
4776 82.78767265633378
4777 82.84203787551695
4778 82.78807478960627
4779 82.84229929893344
4780 82.78732059940991
4781 82.84129197924457
4782 82.78667502267768
4783 82.8428492774254
4784 82.78675017067778
4785 82.84285848346488
4786 82.78944526482138
4787 82.84499405032896
4788 82.78992187641988
4789 82.84571109072432
4790 82.78959724455406
4791 82.847120468082
4792 82.78954037670748
4793 82.84765442550174
4794 82.79054082401845
4795 82.84882388095814
4796 82.79020861500804
4797 82.84806365529988
4798 82.78821558120471
4799 82.84711236672862
4800 82.78701637208917
4801 82.84534615944786
4802 82.7867056406137
4803 82.84355033299445
4804 82.78394612547811
4805 82.84288827455005
4806 82.78253599116863
4807 82.84276476252415
4808 82.78459655319767
4809 82.84334115138013
4810 82.78376089904862
4811 82.84541402827634
4812 82.78394429240407
4813 82.84680452417
4814 82.78691508265938
4815 82.84662966970269
4816 82.78613866273422
4817 82.84529735820735
4818 82.78600513917084
4819 82.84584104026024
4820 82.78718092750036
4821 82.84483654269982
4822 82.78526416512067
4823 82.84454681428119
4824 82.78484339661949
4825 82.84585683589204
4826 82.78595852667019
4827 82.84600150314209
4828 82.78612973098471
4829 82.84541573375279
4830 82.78382612337757
4831 82.84535659098832
4832 82.78465529142348
4833 82.84498360393461
4834 82.78469475482051
4835 82.84356085578062
4836 82.78484462832641
4837 82.84410924509926
4838 82.78659876675935
4839 82.8442855453446
4840 82.7875577515828
4841 82.84528389762698
4842 82.78817350605412
4843 82.84655754498533
4844 82.78924871233816
4845 82.84557068685018
4846 82.79109729244297
4847 82.84635741349679
4848 82.7908809901263
4849 82.84666234619377
4850 82.79181705401814
4851 82.84754697171326
4852 82.79128751204321
4853 82.84473084264707
4854 82.79137793983909
4855 82.84624901460634
4856 82.79189569521189
4857 82.8455630476497
4858 82.79123334462577
4859 82.84680322238759
4860 82.79019543054189
4861 82.84536115301724
4862 82.7901199746873
4863 82.8449630856594
4864 82.78908665084845
4865 82.84371546719552
4866 82.78696136831266
4867 82.84457278312195
4868 82.78785104069014
4869 82.84306824036381
4870 82.7893077592892
4871 82.84441760780889
4872 82.78784142036868
4873 82.84507342709281
4874 82.78960496356137
4875 82.8450372379489
4876 82.79046735674376
4877 82.84424988597397
4878 82.7893641644703
4879 82.84533633519109
4880 82.78980978174792
4881 82.84485973494306
4882 82.79032630492324
4883 82.8454290755536
4884 82.78990359723727
4885 82.84542400340302
4886 82.78968056014951
4887 82.84534835619189
4888 82.78933121793045
4889 82.84498473465536
4890 82.78808472548526
4891 82.84565050429444
4892 82.78769637049407
4893 82.84392592859038
4894 82.7870138556866
4895 82.84459338428049
4896 82.7846635816945
4897 82.84448967863212
4898 82.78495945148724
4899 82.84342390692871
4900 82.78377059452853
4901 82.84240272806055
4902 82.78277348417068
4903 82.84320201069197
4904 82.78457123839394
4905 82.84389667822802
4906 82.78754824081435
4907 82.84499553741612
4908 82.78805499431516
4909 82.84578683521499
4910 82.78937283513442
4911 82.84825334161611
4912 82.79023905463426
4913 82.8496385506333
4914 82.79149200882246
4915 82.8500416481003
4916 82.79224030391761
4917 82.84926899857682
4918 82.79041689819748
4919 82.84853933801236
4920 82.78997575951863
4921 82.84719496626187
4922 82.78884510086182
4923 82.84530388125822
4924 82.78610450314378
4925 82.84286361450124
4926 82.78623799294719
4927 82.8429511853481
4928 82.78916668839486
4929 82.84306942618581
4930 82.78975837924912
4931 82.84450304591755
4932 82.78969711849632
4933 82.84476032904092
4934 82.78894233524719
4935 82.84485796043721
4936 82.79039375103531
4937 82.84503130917348
4938 82.78936012394152
4939 82.8459442563495
4940 82.79063479956217
4941 82.84591420227495
4942 82.78994374365982
4943 82.84547119656901
4944 82.79091122809064
4945 82.84566997305552
4946 82.79111935517619
4947 82.84454530758202
4948 82.79240154882595
4949 82.8450364221747
4950 82.78996086152482
4951 82.84521098737216
4952 82.78889858725245
4953 82.84513881716009
4954 82.78519764120317
4955 82.84407967179001
4956 82.78467759443258
4957 82.84419291249529
4958 82.78453176839874
4959 82.84434981774466
4960 82.78435923108357
4961 82.84461423290827
4962 82.78440454751635
4963 82.84650718116232
4964 82.78538084103562
4965 82.84608203473597
4966 82.7856867152335
4967 82.84746393394163
4968 82.78493241231617
4969 82.84730555136451
4970 82.78522686138433
4971 82.84839397918674
4972 82.78625856793683
4973 82.84790379439531
4974 82.78671913966127
4975 82.84867221885783
4976 82.78776569969465
4977 82.84759791249682
4978 82.78679451374853
4979 82.84620718716073
4980 82.78724300229499
4981 82.84565553007367
4982 82.78668123272462
4983 82.84407489498071
4984 82.78494018124717
4985 82.84403710084354
4986 82.78434292139592
4987 82.84491634639939
4988 82.78761208948281
4989 82.84592154146502
4990 82.7877196165873
4991 82.84693772018505
4992 82.78786937952945
4993 82.84818099216953
4994 82.7889880520861
4995 82.84747687529172
4996 82.79133006599137
4997 82.84703916874963
4998 82.79000417643368
4999 82.84748411338059
5000 82.79243401716028
5001 82.84740245010813
5002 82.79277348542553
5003 82.84579998518782
5004 82.7930629154682
5005 82.84505614796853
5006 82.79409558629656
5007 82.84484289186315
5008 82.79278551275434
5009 82.84438809015317
5010 82.79209054884105
5011 82.84428533473199
5012 82.78973889713708
5013 82.84231458156171
5014 82.7885602330817
5015 82.84188549070741
5016 82.7879519401948
5017 82.84237247389811
5018 82.7871550658861
5019 82.84197600675689
5020 82.78662367490627
5021 82.84197446467175
5022 82.78511448498311
5023 82.84338303249412
5024 82.78566755890563
5025 82.84413419986969
5026 82.78690038742354
5027 82.84466321570524
5028 82.78713446612099
5029 82.84554117727853
5030 82.78809824052286
5031 82.84695517942765
5032 82.78894205444357
5033 82.84708668885155
5034 82.79095822082229
5035 82.8481258332954
5036 82.79113372624845
5037 82.84568658007824
5038 82.78969376247116
5039 82.84539127289071
5040 82.78801915688089
5041 82.84473376478672
5042 82.78833332173707
5043 82.84277065823636
5044 82.78779883580795
5045 82.84229488057606
5046 82.78669506588997
5047 82.84316877090266
5048 82.78821795234683
5049 82.8431763699474
5050 82.78876468343486
5051 82.8442592302051
5052 82.78974983164477
5053 82.84607108419338
5054 82.78981822712582
5055 82.84631954673965
5056 82.79005750902245
5057 82.8467508322172
5058 82.78908270296895
5059 82.84755145073406
5060 82.79026156030659
5061 82.84727380281464
5062 82.78942087877689
5063 82.8474150646429
5064 82.7886310245577
5065 82.84751609000558
5066 82.7871676837443
5067 82.84718959457236
5068 82.78798865621629
5069 82.8463979350739
5070 82.78713750905345
5071 82.84721073256942
5072 82.78669430135956
5073 82.84597953523114
5074 82.78671385006132
5075 82.84542893597155
5076 82.78624739953599
5077 82.84495611263283
5078 82.78650673722591
5079 82.8451241992328
5080 82.78675646016828
5081 82.84417101563155
5082 82.78716536288256
5083 82.84614370098078
5084 82.78771612172429
5085 82.84483844566877
5086 82.79059258783137
5087 82.84561330104111
5088 82.78873507248942
5089 82.84565619861387
5090 82.7901955444591
5091 82.84752724938744
5092 82.79009795934761
5093 82.84673387014766
5094 82.78934671332284
5095 82.84603943259954
5096 82.78943881982826
5097 82.84443282318253
5098 82.78907575731689
5099 82.84478033872803
5100 82.78791939030893
5101 82.84392937638917
5102 82.78908766308571
5103 82.84331557281989
5104 82.79094557958763
5105 82.84255526028682
5106 82.79166555528906
5107 82.84450926581064
5108 82.79359757309673
5109 82.84430564477549
5110 82.79248112432313
5111 82.84526566264628
5112 82.79089679352609
5113 82.84631174700785
5114 82.79058825135992
5115 82.84682397748503
5116 82.7912382608218
5117 82.84638387779167
5118 82.7880941376247
5119 82.84741818589451
5120 82.78754239724647
5121 82.84735885163708
5122 82.78612649136595
5123 82.84738962683578
5124 82.78495381967147
5125 82.84748255165074
5126 82.78344982257647
5127 82.84697807115604
5128 82.78344002625737
5129 82.84483916029177
5130 82.78330903651383
5131 82.84497941007301
5132 82.78159924181485
5133 82.84240665740401
5134 82.78291236226121
5135 82.84299721942894
5136 82.78447173905396
5137 82.84390929948114
5138 82.78543405514289
5139 82.84427533789462
5140 82.78803318570455
5141 82.84403055706306
5142 82.78831074646877
5143 82.84435050314195
5144 82.79027067520856
5145 82.84317941622484
5146 82.79122987867954
5147 82.84401084569184
5148 82.79085058180507
5149 82.84493759231225
5150 82.79090970160763
5151 82.84547421139231
5152 82.79048586888223
5153 82.84622336094428
5154 82.79184414079373
5155 82.84715052583309
5156 82.79090163673969
5157 82.84449979254281
5158 82.78744046062873
5159 82.84188374146716
5160 82.78527877892057
5161 82.84087190154581
5162 82.78658994254891
5163 82.84072215845282
5164 82.78648277107462
5165 82.84156691794296
5166 82.7885397769782
5167 82.8439557651203
5168 82.78932215109604
5169 82.84400308127606
5170 82.79005825438071
5171 82.84471225116272
5172 82.78922238765612
5173 82.84684852346115
5174 82.78836209527108
5175 82.84596573891264
5176 82.79051674065154
5177 82.84707402755166
5178 82.79057610198677
5179 82.84932680892133
5180 82.79118626481457
5181 82.84760208619804
5182 82.78958927396815
5183 82.84629016106835
5184 82.78737636144076
5185 82.84612978534935
5186 82.7877621607544
5187 82.84569514688251
5188 82.78790353448186
5189 82.84418660276133
5190 82.78723235206952
5191 82.84522840703146
5192 82.7857282864454
5193 82.84392434998131
5194 82.78715513391325
5195 82.84335520657136
5196 82.78609005819358
5197 82.84335443901837
5198 82.78643182600696
5199 82.84290881994289
5200 82.78514934297789
5201 82.84219842132025
5202 82.78517498993239
5203 82.84382535653052
5204 82.7856932352687
5205 82.8431159819893
5206 82.7869843540193
5207 82.84433546782212
5208 82.78770770634935
5209 82.84497150725844
5210 82.78806735804292
5211 82.84587178543698
5212 82.78699669309609
5213 82.84482585753473
5214 82.78741857697375
5215 82.84531675161955
5216 82.78843748635741
5217 82.84416593967298
5218 82.78723622865868
5219 82.84529406622644
5220 82.78716252217856
5221 82.84462016114074
5222 82.78518593096165
5223 82.84329366583293
5224 82.7847839018394
5225 82.84232983846357
5226 82.78465890621545
5227 82.84487814856634
5228 82.78513397785433
5229 82.84309539738146
5230 82.78507332386103
5231 82.84477852302538
5232 82.78464071025537
5233 82.84618616243823
5234 82.78723916220551
5235 82.8468566822545
5236 82.78929350441243
5237 82.84617841662921
5238 82.78835903325506
5239 82.84625925660245
5240 82.78828637072189
5241 82.84600554202324
5242 82.78971780140887
5243 82.8453332776362
5244 82.79129806620453
5245 82.84721453158882
5246 82.79189837713415
5247 82.84654708945057
5248 82.79374266767823
5249 82.84761556186473
5250 82.79353641902492
5251 82.84783174800967
5252 82.79274405179615
5253 82.84636248883135
5254 82.79088363058233
5255 82.8449076866207
5256 82.79010878224531
5257 82.84434635498269
5258 82.79061229979973
5259 82.84482709283428
5260 82.78978509212226
5261 82.84290963662627
5262 82.78915303212671
5263 82.84294227144507
5264 82.78889878711212
5265 82.84239486959954
5266 82.79043141883831
5267 82.84326577242459
5268 82.78839070261293
5269 82.84265813495421
5270 82.78840430347179
5271 82.84374342427854
5272 82.78901026016464
5273 82.84517656723979
5274 82.79132446928384
5275 82.84841527896872
5276 82.79062374440574
5277 82.84730739768722
5278 82.78891490321833
5279 82.84693094539874
5280 82.78688390702648
5281 82.84610283355573
5282 82.78498085079636
5283 82.84475683138325
5284 82.78330803966647
5285 82.84402371015078
5286 82.78256093901099
5287 82.84546554442238
5288 82.78309722660707
