"x-rfile"
"Iteration" "x"
("Iteration" "x")
1 3001.703471284239
2 2774.561260031662
3 1966.589539381962
4 1527.128021724202
5 1148.262392322047
6 907.8995385951973
7 703.6528878231301
8 537.9029637664642
9 362.2114681064738
10 205.129099224959
11 77.9863746229353
12 -24.39277072048343
13 -95.02923894726645
14 -148.798785890191
15 -182.6036211673816
16 -205.5430625349255
17 -218.0633297716973
18 -225.066170568262
19 -226.1564686222898
20 -223.4858957695126
21 -217.3988602515451
22 -209.813862585709
23 -200.9656187320211
24 -193.8153362594144
25 -187.2949416758792
26 -181.9257586060887
27 -178.479366723345
28 -175.9409954118256
29 -174.8684329344849
30 -174.8921628631655
31 -175.8158228335465
32 -177.6600908540106
33 -180.1124215726802
34 -183.7578798270464
35 -187.7137775971916
36 -192.1581900413344
37 -197.7922977100439
38 -202.8855442742633
39 -208.6286384753532
40 -214.7962123299086
41 -220.3086142072531
42 -226.3731663149543
43 -231.4497610388788
44 -237.2520156619026
45 -243.3596026638982
46 -249.7951156116872
47 -256.3531023001396
48 -263.0207423576203
49 -269.6175358428634
50 -276.2540239832248
51 -282.7280517294104
52 -290.8410486134234
53 -296.4486081644308
54 -302.205932570986
55 -307.7419367809227
56 -313.2353998265988
57 -318.5147877932661
58 -323.7608546148393
59 -328.7937661694153
60 -333.769823357525
61 -338.4724509971545
62 -343.0949332309602
63 -346.2446502925843
64 -351.078605190406
65 -355.3997092734457
66 -359.6398040068671
67 -363.5289049073906
68 -366.3778774839313
69 -370.3646199175119
70 -373.0999882181902
71 -376.9386692160199
72 -379.5304104570023
73 -383.1616926601925
74 -385.5759043685109
75 -388.9531048331077
76 -391.2237613400724
77 -393.5802051172768
78 -395.9454400991771
79 -398.2882117993991
80 -400.6134025025962
81 -402.8804305445985
82 -405.1153759455713
83 -407.2638426572927
84 -409.3761800585593
85 -411.4204052819691
86 -413.4271831992277
87 -415.3357786803245
88 -417.21404446965
89 -419.0163059163021
90 -420.7589606918152
91 -422.434041251754
92 -424.0758232840836
93 -425.6367467719842
94 -427.1544719053207
95 -428.6268726300719
96 -430.0775604118695
97 -431.454956865908
98 -432.8248077445128
99 -434.1305206278789
100 -435.4318060180148
101 -436.6671241285393
102 -437.9047383068608
103 -439.0811554171073
104 -440.255576642039
105 -441.3774980066919
106 -442.5029075414809
107 -443.5713318539111
108 -444.6382736961864
109 -445.6633899967563
110 -446.668054074324
111 -447.6511397326201
112 -448.6175123142474
113 -449.5488041588156
114 -450.4658374310605
115 -451.3697895425802
116 -452.244270903071
117 -453.1112253550874
118 -453.9511532282702
119 -454.7691190896033
120 -455.5764519633896
121 -456.3665883316374
122 -457.1321980023161
123 -457.8983291594507
124 -458.6294833916567
125 -459.3637367217629
126 -460.0714490098266
127 -460.770219759758
128 -461.4564298514756
129 -462.1331537006993
130 -462.8009632386077
131 -463.4587927882933
132 -464.0957211062515
133 -464.7432600978752
134 -465.3610925139633
135 -465.9918886104374
136 -466.6058650689405
137 -467.2162823413381
138 -467.8153048085649
139 -468.416577823083
140 -469.0021935650311
141 -469.5890099204209
142 -470.166927898091
143 -470.7429509685361
144 -471.3027102990827
145 -471.8587143454756
146 -472.4082690529605
147 -472.9487657537959
148 -473.4815777980322
149 -474.019020060445
150 -474.5307891109211
151 -475.0471989759088
152 -475.5425298568525
153 -476.0291731840199
154 -476.5171149444572
155 -476.9930194266687
156 -477.464839159842
157 -477.9296581365409
158 -478.3814693488309
159 -478.8278655206118
160 -479.2687781570806
161 -479.6929512947022
162 -480.1344889840013
163 -480.5402744225964
164 -480.9591737897764
165 -481.3581860166952
166 -481.7515670420742
167 -482.1474880996903
168 -482.5191972274295
169 -482.8849391616369
170 -483.2422559720094
171 -483.6091028336439
172 -483.9524560600398
173 -484.3063425207901
174 -484.6375395325919
175 -484.9869023421593
176 -485.296798381122
177 -485.6351793351744
178 -485.9304813989268
179 -486.2527687359152
180 -486.5366683974971
181 -486.8520886663365
182 -487.1157384366132
183 -487.4186827684301
184 -487.6781243192244
185 -487.9722170823418
186 -488.2232412591915
187 -488.5980142473353
188 -488.825336573071
189 -489.0750582247691
190 -489.3950757859283
191 -489.6180478220093
192 -489.8201961980314
193 -490.1433323458035
194 -490.3296232388925
195 -490.6340920508202
196 -490.8038198227954
197 -491.0895552408529
198 -491.2667553987709
199 -491.5501713201807
200 -491.7106993261014
201 -492.005524462164
202 -492.1647781784005
203 -492.4681663700016
204 -492.6219324207376
205 -492.9225971698453
206 -493.1640400458837
207 -493.3723240459703
208 -493.6299290421503
209 -493.9069734297142
210 -494.066268445716
211 -494.3767446590347
212 -494.6141850103292
213 -494.8291181324195
214 -495.078949558519
215 -495.3606065951594
216 -495.5287943341447
217 -495.8345362407442
218 -496.0910919028269
219 -496.3077157621972
220 -496.5708091642783
221 -496.8808543018977
222 -497.0445312748557
223 -497.3709165708807
224 -497.5389487457
225 -497.8679494155395
226 -498.1129751665714
227 -498.3374523000587
228 -498.5902124518708
229 -498.8307940044868
230 -499.0889685744788
231 -499.3293194195235
232 -499.6134721579336
233 -499.8583374913258
234 -500.1367449361255
235 -500.3721915737491
236 -500.6617684484333
237 -500.8882555006543
238 -501.0840999663868
239 -501.436633427783
240 -501.6229572699297
241 -501.874016445662
242 -502.0892631374887
243 -502.3474009360247
244 -502.5851349229794
245 -502.9551316426542
246 -503.1659775891798
247 -503.406774008235
248 -503.6331818574141
249 -503.8854338661871
250 -504.1139321825368
251 -504.3599860160634
252 -504.5975997951131
253 -504.8557703913833
254 -505.0905171192015
255 -505.3422474877418
256 -505.5762000274513
257 -505.8276557460746
258 -506.0579042480759
259 -506.2957521508874
260 -506.5437862328787
261 -506.7654033513498
262 -507.0018412933036
263 -507.2223369067258
264 -507.4521014405231
265 -507.6814117042313
266 -507.9032293209904
267 -508.1207149644951
268 -508.341376252951
269 -508.5566406470995
270 -508.7592597820402
271 -508.9747520822677
272 -509.1745432462288
273 -509.3820351550322
274 -509.5912037959553
275 -509.7975868877679
276 -509.9944383042418
277 -510.1948624922276
278 -510.3818325529577
279 -510.5791002714123
280 -510.75985146978
281 -510.9587084035999
282 -511.1340632451516
283 -511.3202996690245
284 -511.4847521931882
285 -511.673842633107
286 -511.8255803486588
287 -512.0062228101991
288 -512.1472344182888
289 -512.3172325108815
290 -512.4615654869258
291 -512.6278020795774
292 -512.7616589647879
293 -512.9216887721508
294 -513.0461800170833
295 -513.2011237150032
296 -513.31664526961
297 -513.4561349527862
298 -513.5820822193219
299 -513.7020546153572
300 -513.8055994038227
301 -513.9228436340014
302 -514.0233946904411
303 -514.1401332827076
304 -514.2367761189063
305 -514.3518659734362
306 -514.4397508340292
307 -514.5493014988858
308 -514.626353917131
309 -514.7227371742655
310 -514.8117693793708
311 -514.9018865085856
312 -514.9817030946724
313 -515.0704462992795
314 -515.1361396919662
315 -515.2249586600925
316 -515.2842668402312
317 -515.3622732543005
318 -515.4295236643339
319 -515.5005707428016
320 -515.5565915693276
321 -515.6148993295554
322 -515.6809086858677
323 -515.732907837522
324 -515.7870099854217
325 -515.8275548549182
326 -515.885766065394
327 -515.9180960990492
328 -515.9715534800722
329 -515.9961614353459
330 -516.0490290680531
331 -516.0694645643712
332 -516.1173593797793
333 -516.136062947537
334 -516.1929165698044
335 -516.2087234877399
336 -516.2481895359795
337 -516.2620005251198
338 -516.3055956226133
339 -516.3308689831115
340 -516.3587090168169
341 -516.3923110772724
342 -516.4047041443785
343 -516.4387147957522
344 -516.4447999595826
345 -516.4649469389901
346 -516.4838334430879
347 -516.506475216964
348 -516.5152270983396
349 -516.5472792320934
350 -516.5597097608991
351 -516.5980225235778
352 -516.6028422321252
353 -516.6243597900583
354 -516.6441234612788
355 -516.6562955648578
356 -516.6786318836541
357 -516.6980968706629
358 -516.7254063361003
359 -516.752348401931
360 -516.77464793345
361 -516.7944293186553
362 -516.8223186338702
363 -516.842046564528
364 -516.8595629926884
365 -516.8771204526985
366 -516.8965784257217
367 -516.9183049738142
368 -516.9414050296442
369 -516.9697511218394
370 -516.9916444830604
371 -517.0168724467386
372 -517.0311324762937
373 -517.0484830005578
374 -517.0750880198597
375 -517.0898987837277
376 -517.1167522257645
377 -517.1384098125995
378 -517.1753936084009
379 -517.1931249261619
380 -517.2281501436195
381 -517.2386099790587
382 -517.2894476841343
383 -517.3036853557473
384 -517.3485719496093
385 -517.370320195345
386 -517.4123415583165
387 -517.4365120262304
388 -517.4747429710669
389 -517.4870472997187
390 -517.5345617630737
391 -517.546226431976
392 -517.5873891061829
393 -517.6157532555065
394 -517.6533639155413
395 -517.6832274882926
396 -517.71261318066
397 -517.7525230835597
398 -517.7829489337827
399 -517.8191289252036
400 -517.8399087258392
401 -517.8814798361054
402 -517.9075488152595
403 -517.9423356193354
404 -517.9729282206107
405 -518.0075225472065
406 -518.0536397066014
407 -518.0939621391091
408 -518.1447090046329
409 -518.1894464098795
410 -518.2404385486395
411 -518.2852239744448
412 -518.3292892095274
413 -518.3635803104172
414 -518.4207840496605
415 -518.4523978525634
416 -518.5029410661643
417 -518.5414835378884
418 -518.5961792337263
419 -518.6392865921839
420 -518.6959124415724
421 -518.7360827266716
422 -518.8036338424355
423 -518.833829217215
424 -518.8919861123911
425 -518.9171307517122
426 -518.9718544961236
427 -519.0121629663557
428 -519.0741404225929
429 -519.0992247927247
430 -519.1751687566097
431 -519.2067148806213
432 -519.2733418202145
433 -519.3078195861759
434 -519.3764905393095
435 -519.4052958532101
436 -519.4696875149185
437 -519.5013897483027
438 -519.5677982284454
439 -519.6016723310601
440 -519.6605341436175
441 -519.6916399907568
442 -519.7578380182219
443 -519.7935778891376
444 -519.8585661308107
445 -519.8858367978498
446 -519.9534992106561
447 -519.9802779329478
448 -520.0375529726753
449 -520.0747024609724
450 -520.1256532833542
451 -520.1633883549755
452 -520.219759293467
453 -520.2550462207081
454 -520.3276356825161
455 -520.3648479584876
456 -520.4315249550855
457 -520.4678473602307
458 -520.5214324382964
459 -520.5610340764543
460 -520.6113050520001
461 -520.6571241775879
462 -520.7177756121299
463 -520.7647890848496
464 -520.8166072850964
465 -520.8650445232795
466 -520.9175481171561
467 -520.9657474371361
468 -521.0126613560304
469 -521.0541509353118
470 -521.1061123151385
471 -521.153243907838
472 -521.2084330108034
473 -521.2552472915932
474 -521.307561233405
475 -521.3524538615288
476 -521.3965632213327
477 -521.4318727843192
478 -521.5055864383822
479 -521.5441855348696
480 -521.6157521632116
481 -521.6477785991486
482 -521.7175689679766
483 -521.7495446048063
484 -521.813543138214
485 -521.8371250083422
486 -521.9077760594221
487 -521.9373463024098
488 -522.0031163151104
489 -522.0364435471729
490 -522.1070929968607
491 -522.1440481649338
492 -522.2021990539894
493 -522.2275076614233
494 -522.2991109587841
495 -522.3208554751627
496 -522.3933177304805
497 -522.4151707699764
498 -522.4826807102979
499 -522.503814364393
500 -522.5737470329107
501 -522.6007559364432
502 -522.6728607086627
503 -522.6964277272053
504 -522.7681839805505
505 -522.7883272892209
506 -522.8498358259191
507 -522.8703632214923
508 -522.9334367141596
509 -522.9608423316856
510 -523.0151942785789
511 -523.0504199559359
512 -523.104916754548
513 -523.1457463927707
514 -523.1899409508642
515 -523.2303460515222
516 -523.2756881650973
517 -523.3173871266295
518 -523.3593191528444
519 -523.3917439757935
520 -523.4434650673481
521 -523.4822205036467
522 -523.5254257942435
523 -523.5754302790929
524 -523.6157742332401
525 -523.6697071301135
526 -523.701585889454
527 -523.7501877393586
528 -523.796190497392
529 -523.8413689217524
530 -523.8783120917369
531 -523.925096441722
532 -523.9648010221149
533 -524.0109105562976
534 -524.0468402301542
535 -524.0829810300851
536 -524.128900157292
537 -524.1606408391008
538 -524.1999995706717
539 -524.2326629987926
540 -524.2792799220077
541 -524.3108784152315
542 -524.360673890767
543 -524.3831073427147
544 -524.4392326810139
545 -524.4712132742478
546 -524.5175467753438
547 -524.5509987218992
548 -524.5957492733738
549 -524.6263213311682
550 -524.6761811546758
551 -524.7082488292129
552 -524.7709447368138
553 -524.7935653921277
554 -524.840021772572
555 -524.8709102928323
556 -524.9133090130807
557 -524.9457743090014
558 -524.9924581638255
559 -525.0161348206914
560 -525.0689246154404
561 -525.0947196619679
562 -525.1403928893399
563 -525.1705471952001
564 -525.2091366640171
565 -525.2392260094501
566 -525.2727620595937
567 -525.3043893350817
568 -525.3440320188001
569 -525.3791949421759
570 -525.4063121526691
571 -525.4482142377763
572 -525.4731216527059
573 -525.5131844327566
574 -525.524683812503
575 -525.5682285056414
576 -525.5978440556069
577 -525.6438484509913
578 -525.6669549233454
579 -525.7152746313944
580 -525.7267196317374
581 -525.7745092925331
582 -525.7848321905574
583 -525.8316486483967
584 -525.8470215629509
585 -525.8959131260494
586 -525.9158196689314
587 -525.970884987296
588 -525.9889230009666
589 -526.0394114270034
590 -526.0573012898661
591 -526.0935772709238
592 -526.122766016476
593 -526.1558057386136
594 -526.1823648535913
595 -526.2177731773442
596 -526.2496868152366
597 -526.2840773868897
598 -526.3116869564518
599 -526.3413586375004
600 -526.3795553120932
601 -526.4087844164559
602 -526.4359774158339
603 -526.4644941051864
604 -526.4973383389727
605 -526.5190952541299
606 -526.5598387648006
607 -526.5765901649669
608 -526.6119709941291
609 -526.6321095358675
610 -526.6685739223739
611 -526.6893885456736
612 -526.7180083090469
613 -526.750312983812
614 -526.7844365969667
615 -526.8171007012401
616 -526.847649089908
617 -526.8863443000456
618 -526.9173014336081
619 -526.9584062790401
620 -526.9834016878967
621 -527.0197149576576
622 -527.035629785743
623 -527.0541325212473
624 -527.0697017959471
625 -527.0993965601222
626 -527.1160728971347
627 -527.1434859629175
628 -527.165043079722
629 -527.2077832874194
630 -527.2233664051018
631 -527.2509582720839
632 -527.2697451168392
633 -527.294657604138
634 -527.2968593948859
635 -527.323838646265
636 -527.3286059626773
637 -527.3608615081822
638 -527.3641375608039
639 -527.394977236166
640 -527.4094961578295
641 -527.442870162145
642 -527.4575197729632
643 -527.4855918602742
644 -527.5037152187172
645 -527.5348396447226
646 -527.5489754379157
647 -527.5669267805293
648 -527.5903512095581
649 -527.6155513050579
650 -527.6401910047427
651 -527.6638676486606
652 -527.6905357405543
653 -527.713798477706
654 -527.7408188466211
655 -527.7641365603799
656 -527.7957197508445
657 -527.8128470012398
658 -527.8364185965562
659 -527.8493796458099
660 -527.8766751149965
661 -527.8848889682682
662 -527.9196618209048
663 -527.9251805313738
664 -527.9672264116167
665 -527.9781766288199
666 -528.0177906106427
667 -528.0225615529969
668 -528.0531873141737
669 -528.0649822340898
670 -528.0865165240319
671 -528.106450506202
672 -528.1301275121779
673 -528.1529722018353
674 -528.1799265337058
675 -528.1939787984328
676 -528.2192791420916
677 -528.2357427677961
678 -528.2604174983195
679 -528.2613644150388
680 -528.2959991174282
681 -528.2981739072754
682 -528.3324424322506
683 -528.343481010547
684 -528.3727835180896
685 -528.3842240521165
686 -528.4092772009662
687 -528.4144907396291
688 -528.4449539373126
689 -528.4514969854347
690 -528.4701677587695
691 -528.4755374578664
692 -528.4950199987288
693 -528.5036151765469
694 -528.5242652570319
695 -528.5325485565065
696 -528.5631421261804
697 -528.5642510590108
698 -528.5812566658956
699 -528.5872748846339
700 -528.6071901568155
701 -528.6208298813748
702 -528.6373247548509
703 -528.6422385377091
704 -528.6579380708849
705 -528.6621939309478
706 -528.6749935052746
707 -528.6802047005565
708 -528.6907500652362
709 -528.7027788309865
710 -528.7202297675043
711 -528.7305263681341
712 -528.7529529418115
713 -528.7615535265485
714 -528.7829759217474
715 -528.7921391734874
716 -528.8079460621923
717 -528.8230091691242
718 -528.8450606742091
719 -528.8600098623425
720 -528.8864541445945
721 -528.8957151072135
722 -528.915074207393
723 -528.9108860566801
724 -528.9336558160854
725 -528.9285945513069
726 -528.9531145526807
727 -528.9421134830857
728 -528.971215278974
729 -528.9698262215263
730 -528.9901965896045
731 -528.9967739515887
732 -529.0138467519575
733 -529.0220688787472
734 -529.0352781394959
735 -529.0323323278737
736 -529.0540357316821
737 -529.0597217623191
738 -529.0793795903585
739 -529.0924139014974
740 -529.1094288765679
741 -529.1284359149951
742 -529.1485801016622
743 -529.1655278602653
744 -529.1819031190014
745 -529.1998120726387
746 -529.2111649416477
747 -529.2246329084471
748 -529.2263059559275
749 -529.2399346264207
750 -529.245600425548
751 -529.2566647682272
752 -529.2743398086255
753 -529.2813129205778
754 -529.2888181992818
755 -529.2954871810653
756 -529.2940717966637
757 -529.3070419381595
758 -529.3041672150173
759 -529.31466806143
760 -529.3231560928945
761 -529.3383226026663
762 -529.3424348467156
763 -529.3518294531519
764 -529.3550006209256
765 -529.3709676104224
766 -529.3744496508525
767 -529.3778471532532
768 -529.3908662775115
769 -529.397341528135
770 -529.4100555583909
771 -529.4071240264212
772 -529.4253227241197
773 -529.4225996400523
774 -529.4338126486651
775 -529.4304960747293
776 -529.4381169947509
777 -529.4469550963231
778 -529.456415267425
779 -529.4565029229079
780 -529.4776170370444
781 -529.4735897760216
782 -529.4856873698259
783 -529.4968876396091
784 -529.5179809532217
785 -529.5234094400944
786 -529.5379976708034
787 -529.5521586259071
788 -529.5662068425144
789 -529.5690886049257
790 -529.576999192559
791 -529.5831458416483
792 -529.5975400750623
793 -529.6023787602654
794 -529.6240619909597
795 -529.6378352392383
796 -529.6486115908671
797 -529.659977523612
798 -529.6560087210842
799 -529.6614004779919
800 -529.6457406085766
801 -529.646856140188
802 -529.6515836036467
803 -529.6621799557306
804 -529.6590241237635
805 -529.6789668089336
806 -529.6786635190211
807 -529.7018363887059
808 -529.7021615132472
809 -529.7156327858554
810 -529.7238588019758
811 -529.7355512439107
812 -529.7396441657934
813 -529.7619361979246
814 -529.7589342877427
815 -529.7822773810846
816 -529.7693958160218
817 -529.7746756048435
818 -529.7767975134619
819 -529.783369077211
820 -529.7715929653366
821 -529.777185891456
822 -529.7718978344537
823 -529.7738062802853
824 -529.7624988235551
825 -529.7634401208213
826 -529.7617544179394
827 -529.7664998286973
828 -529.7566771998905
829 -529.7557926852236
830 -529.7728121060144
831 -529.7644871719408
832 -529.778148430475
833 -529.7722504522402
834 -529.7842718946545
835 -529.790774433757
836 -529.8088275710313
837 -529.8190112965435
838 -529.8396219684601
839 -529.8418614458303
840 -529.8644942082434
841 -529.8766492515888
842 -529.8967690183829
843 -529.8899652377598
844 -529.9173446201688
845 -529.9062180671397
846 -529.9254899058033
847 -529.9210522339145
848 -529.9377607768735
849 -529.9291266664695
850 -529.9446642219184
851 -529.9337172660811
852 -529.9485103856745
853 -529.9446675578455
854 -529.9537511333331
855 -529.9568875790079
856 -529.9692989932015
857 -529.9806838196023
858 -529.9883300803476
859 -529.9887667930977
860 -530.0048613308181
861 -530.0034254071072
862 -530.0163080030271
863 -530.010884553674
864 -530.0207625281529
865 -530.0218881389878
866 -530.0346890006422
867 -530.0198253533725
868 -530.0454645713086
869 -530.0301955820332
870 -530.0450890974253
871 -530.030412761804
872 -530.0434167663916
873 -530.030818199499
874 -530.0416421658641
875 -530.0269398565997
876 -530.0471723762777
877 -530.0330490199734
878 -530.0513051548867
879 -530.0426049838177
880 -530.0509935539516
881 -530.0491948551878
882 -530.0608445301351
883 -530.0483377931586
884 -530.0663396163287
885 -530.0573977713934
886 -530.0707450795603
887 -530.067362605463
888 -530.0792292498007
889 -530.073848048689
890 -530.0805983966764
891 -530.0673925388706
892 -530.0903896380795
893 -530.0705241397208
894 -530.0877331680001
895 -530.07389424567
896 -530.0954162052965
897 -530.0814843287102
898 -530.0970898981253
899 -530.0788194992523
900 -530.0941367969284
901 -530.0848441433238
902 -530.09379146214
903 -530.0975502679509
904 -530.1139302479578
905 -530.1176553426037
906 -530.1412512638532
907 -530.1346350115539
908 -530.1580056227491
909 -530.1490476645413
910 -530.1560507345775
911 -530.1540670269708
912 -530.1612559840727
913 -530.1576623981044
914 -530.1656507600935
915 -530.1699211646498
916 -530.1821344437901
917 -530.1898440744577
918 -530.1854048565215
919 -530.1896494480267
920 -530.1814323672209
921 -530.1859877196669
922 -530.1772606645063
923 -530.1790227174077
924 -530.1880870898195
925 -530.1948047852959
926 -530.1989851543541
927 -530.2024943536774
928 -530.1978302087496
929 -530.2022464882953
930 -530.2017061901668
931 -530.1998774111288
932 -530.2151043699728
933 -530.2161920620397
934 -530.2207809391556
935 -530.2310805964353
936 -530.2263458486932
937 -530.2367682632382
938 -530.2207759325062
939 -530.2338103714511
940 -530.2331714756672
941 -530.2394013695878
942 -530.2369785959158
943 -530.2475515127143
944 -530.2404539900375
945 -530.2499896261354
946 -530.2393196178714
947 -530.2387240587512
948 -530.2431823731877
949 -530.235906871298
950 -530.243535716048
951 -530.2379865860356
952 -530.2468851854861
953 -530.2457665091828
954 -530.2544387665869
955 -530.2521614657637
956 -530.2585898409312
957 -530.251412785965
958 -530.2606203329883
959 -530.2525796315389
960 -530.2790056271447
961 -530.2792966785536
962 -530.2902584122147
963 -530.29030032943
964 -530.2900270983206
965 -530.2873182676154
966 -530.282050441035
967 -530.2821232288597
968 -530.275958900824
969 -530.2934091043772
970 -530.29314051908
971 -530.2989228567171
972 -530.3119849469872
973 -530.317625184496
974 -530.3158195678285
975 -530.3197918548927
976 -530.316406578925
977 -530.323471160115
978 -530.3219875037163
979 -530.3212725009847
980 -530.3261855608138
981 -530.3263241069466
982 -530.3282861487255
983 -530.3279450114155
984 -530.3271575547905
985 -530.3284219376015
986 -530.3238964229635
987 -530.3226249788898
988 -530.3220235646529
989 -530.3244007465812
990 -530.3184016271264
991 -530.3252807485378
992 -530.3198999188855
993 -530.3215674678322
994 -530.3159883380325
995 -530.3137328134719
996 -530.315315430779
997 -530.3167544584603
998 -530.3125229739578
999 -530.3196242100963
1000 -530.3252724247779
1001 -530.34068291172
1002 -530.3400673529727
1003 -530.3533571098042
1004 -530.351721365219
1005 -530.3620040131823
1006 -530.3635265358257
1007 -530.3603968104492
1008 -530.3746527889759
1009 -530.3609659550057
1010 -530.3722954436357
1011 -530.3595396352116
1012 -530.3707666532987
1013 -530.364289494036
1014 -530.3695336498221
1015 -530.3629175148279
1016 -530.3731749149982
1017 -530.3709176607348
1018 -530.3781872011749
1019 -530.3773009875271
1020 -530.3903346304334
1021 -530.3852522483925
1022 -530.3960962887398
1023 -530.3937663776401
1024 -530.4067549182718
1025 -530.407643733599
1026 -530.4177882758891
1027 -530.4146689045128
1028 -530.4239144403462
1029 -530.4207921735762
1030 -530.4308780014683
1031 -530.4234531678081
1032 -530.4265238575802
1033 -530.4215088332428
1034 -530.4167676543436
1035 -530.4234804481638
1036 -530.4229135589582
1037 -530.4201814098818
1038 -530.4285620505018
1039 -530.4350648440936
1040 -530.4303415672443
1041 -530.4307858534622
1042 -530.4199369627747
1043 -530.4329522620654
1044 -530.4239202238808
1045 -530.4267076575668
1046 -530.4336850717823
1047 -530.4296985888325
1048 -530.4226961060187
1049 -530.4202578659689
1050 -530.4131453922821
1051 -530.4230532036851
1052 -530.4080982571896
1053 -530.4150474268455
1054 -530.4111122502233
1055 -530.4186483189485
1056 -530.4122647623112
1057 -530.413088541924
1058 -530.4087587156054
1059 -530.414266332091
1060 -530.4060289632451
1061 -530.4045675187951
1062 -530.4096215688727
1063 -530.4171720235514
1064 -530.4168206941855
1065 -530.4136610071473
1066 -530.4086805569741
1067 -530.4129017829497
1068 -530.4154012057053
1069 -530.4064979843926
1070 -530.4158432398783
1071 -530.4172341073262
1072 -530.4185329878787
1073 -530.4234584494909
1074 -530.4236350959712
1075 -530.4169588684169
1076 -530.4172708715906
1077 -530.4117746467509
1078 -530.418987863139
1079 -530.423523180457
1080 -530.4350999286428
1081 -530.4400238920659
1082 -530.4512220847981
1083 -530.4535276450442
1084 -530.452170869351
1085 -530.4546654096183
1086 -530.4577218212704
1087 -530.4685918861348
1088 -530.4605876063597
1089 -530.4839352219693
1090 -530.4687718613383
1091 -530.4988635924345
1092 -530.4780251454415
1093 -530.4976839013433
1094 -530.4970092037588
1095 -530.5147906922782
1096 -530.5050218385336
1097 -530.5184758094593
1098 -530.5034233102307
1099 -530.5210235805803
1100 -530.5120536467626
1101 -530.5221276102595
1102 -530.5162192915236
1103 -530.5225876704437
1104 -530.5133489169954
1105 -530.5230582252375
1106 -530.5098346033648
1107 -530.5150428202174
1108 -530.5051820237341
1109 -530.5055241404085
1110 -530.4871219639118
1111 -530.4870371580782
1112 -530.470795536655
1113 -530.4708075251048
1114 -530.4580164284041
1115 -530.4594262606291
1116 -530.4522750001375
1117 -530.4529418271368
1118 -530.4514601761024
1119 -530.4539177119734
1120 -530.448021657994
1121 -530.4556662201646
1122 -530.4532057980502
1123 -530.4606978621078
1124 -530.460835793145
1125 -530.4718340202871
1126 -530.476726647636
1127 -530.4803172247987
1128 -530.4817538627503
1129 -530.4955604373736
1130 -530.4915916802547
1131 -530.4960761562963
1132 -530.4949663876533
1133 -530.4844150085281
1134 -530.4950141814422
1135 -530.4873515255199
1136 -530.5029537302051
1137 -530.4988936987638
1138 -530.5079632985952
1139 -530.5091725959549
1140 -530.5101076578862
1141 -530.5055370792893
1142 -530.5120676406069
1143 -530.5112102488908
1144 -530.5097883792139
1145 -530.5167130243846
1146 -530.5146698384381
1147 -530.5247608224287
1148 -530.5157871675937
1149 -530.5217145114899
1150 -530.5200344339316
1151 -530.5300617839716
1152 -530.5210402375542
1153 -530.5318974298086
1154 -530.5222708409639
1155 -530.5332340077073
1156 -530.525850799768
1157 -530.5300418130178
1158 -530.5324806757857
1159 -530.5366558415147
1160 -530.5351141240651
1161 -530.5369130810594
1162 -530.5270412190384
1163 -530.5316117045664
1164 -530.5254457535806
1165 -530.5202253271301
1166 -530.5152487934569
1167 -530.5199974584066
1168 -530.5139999480068
1169 -530.5157517607354
1170 -530.5072768175907
1171 -530.5220935162814
1172 -530.5152478924095
1173 -530.5085826806893
1174 -530.5186885690521
1175 -530.5184289320954
1176 -530.5180930767889
1177 -530.5113247945626
1178 -530.5099455069115
1179 -530.5054250748184
1180 -530.5176166819767
1181 -530.5072818344202
1182 -530.5259472428555
1183 -530.5185293884348
1184 -530.5289607673893
1185 -530.5190601835883
1186 -530.5325006575583
1187 -530.5252843402008
1188 -530.5312751493148
1189 -530.5332331528297
1190 -530.5410630026862
1191 -530.5315554324084
1192 -530.5499820450081
1193 -530.5397328526245
1194 -530.5487789909272
1195 -530.5376747256443
1196 -530.5460372549567
1197 -530.5328297429005
1198 -530.5367287634538
1199 -530.5196007959833
1200 -530.539123923654
1201 -530.530362805865
1202 -530.5502898018726
1203 -530.5486859733202
1204 -530.5582887529188
1205 -530.5495314448002
1206 -530.547056026986
1207 -530.5480459419346
1208 -530.5512091734448
1209 -530.5419288881956
1210 -530.5470126532538
1211 -530.5511361993172
1212 -530.5587437539389
1213 -530.5598006229118
1214 -530.5599901538604
1215 -530.5721420348755
1216 -530.5632824465107
1217 -530.5775401220504
1218 -530.5568929474875
1219 -530.5600318480007
1220 -530.5599030512672
1221 -530.5581028082228
1222 -530.5590581157929
1223 -530.5552001110757
1224 -530.559934437379
1225 -530.5499674419646
1226 -530.5531507385318
1227 -530.5406572748518
1228 -530.5449167050463
1229 -530.5307633575924
1230 -530.5366984167572
1231 -530.5259904321941
1232 -530.5360098851461
1233 -530.5297091779131
1234 -530.537075987564
1235 -530.5233336754802
1236 -530.5392448032521
1237 -530.5243088025279
1238 -530.5374233436147
1239 -530.5266611639299
1240 -530.5337359750172
1241 -530.521753276023
1242 -530.5305278877164
1243 -530.5081028099289
1244 -530.5364470680232
1245 -530.5190333230746
1246 -530.5499916681117
1247 -530.5375662196736
1248 -530.5554203899552
1249 -530.5439277599312
1250 -530.5601489590191
1251 -530.5412003223058
1252 -530.5648882307582
1253 -530.5561019732404
1254 -530.5722527300385
1255 -530.5682896822555
1256 -530.5819695570653
1257 -530.5717539507509
1258 -530.581213836515
1259 -530.5659154216356
1260 -530.5852877248019
1261 -530.5793659722318
1262 -530.5852272722586
1263 -530.5817691475143
1264 -530.5878089382841
1265 -530.5783710378121
1266 -530.5831758030029
1267 -530.5819065682003
1268 -530.5889330598671
1269 -530.5838319106788
1270 -530.5860642423003
1271 -530.5812719364301
1272 -530.5868084352744
1273 -530.5827539676263
1274 -530.5863883014107
1275 -530.5852082686987
1276 -530.5827648711582
1277 -530.5852218315899
1278 -530.5828988846492
1279 -530.5760668756167
1280 -530.5821388564749
1281 -530.5754730493491
1282 -530.5812158443
1283 -530.577053441049
1284 -530.5795255771202
1285 -530.5761279912264
1286 -530.5782523947053
1287 -530.5759118022453
1288 -530.5696912459936
1289 -530.5793032483828
1290 -530.566808686197
1291 -530.5717893395802
1292 -530.5589375428726
1293 -530.5526079617775
1294 -530.5571078618296
1295 -530.5366686679951
1296 -530.5441530917425
1297 -530.5337063827822
1298 -530.5407672827796
1299 -530.5384014509518
1300 -530.5345982916859
1301 -530.5302281882446
1302 -530.5391304480024
1303 -530.5470238207969
1304 -530.5393919748117
1305 -530.547255778109
1306 -530.5446883658066
1307 -530.5536359309797
1308 -530.5566788809268
1309 -530.5416967937241
1310 -530.5517307526007
1311 -530.5432273249821
1312 -530.5491743897575
1313 -530.5435727765414
1314 -530.5539658074226
1315 -530.5579042074918
1316 -530.5538624310656
1317 -530.5619222913857
1318 -530.5539806370507
1319 -530.5742389217856
1320 -530.5667846565769
1321 -530.5746969494564
1322 -530.5785709134606
1323 -530.5878995444649
1324 -530.5830611159015
1325 -530.5927055356833
1326 -530.5801969942411
1327 -530.5955390302829
1328 -530.5773668003355
1329 -530.5997979647278
1330 -530.5881258878155
1331 -530.6104447597705
1332 -530.5992967732212
1333 -530.6110095591334
1334 -530.6143880898908
1335 -530.6134972471541
1336 -530.6070270141079
1337 -530.6004545445293
1338 -530.5899302453194
1339 -530.5935418822045
1340 -530.5828095939537
1341 -530.579524609926
1342 -530.5829073935903
1343 -530.5799127795494
1344 -530.5848423539932
1345 -530.5770536883088
1346 -530.584230681281
1347 -530.5868260292254
1348 -530.5880023719031
1349 -530.5771256166183
1350 -530.5847871196329
1351 -530.5719857888109
1352 -530.5771123481732
1353 -530.5748480452233
1354 -530.579616693016
1355 -530.5806446736566
1356 -530.5816705789815
1357 -530.5751303905147
1358 -530.5888919498969
1359 -530.5761349010166
1360 -530.5781249604723
1361 -530.5656734109659
1362 -530.5725859449602
1363 -530.5654484776496
1364 -530.5751010387429
1365 -530.5704233760171
1366 -530.5749355357576
1367 -530.5740537967351
1368 -530.5679118345266
1369 -530.5656050350613
1370 -530.5725087188609
1371 -530.5741590836473
1372 -530.57446268949
1373 -530.5811407348223
1374 -530.5787509898497
1375 -530.6035417968409
1376 -530.5927434189718
1377 -530.6087959853967
1378 -530.5999695799422
1379 -530.6167400621159
1380 -530.6056773558598
1381 -530.6095400850548
1382 -530.601920877114
1383 -530.6123508744655
1384 -530.6009813395982
1385 -530.6205300791853
1386 -530.6101593203999
1387 -530.6257597241549
1388 -530.607900810818
1389 -530.6196244078963
1390 -530.5989880910709
1391 -530.6008501561633
1392 -530.5880346535832
1393 -530.5916717893721
1394 -530.5799546420765
1395 -530.5771335666377
1396 -530.5703433717865
1397 -530.5714999010388
1398 -530.5631780211929
1399 -530.5541211576399
1400 -530.5716309802976
1401 -530.5694923206922
1402 -530.5784699141813
1403 -530.5824812768955
1404 -530.5852690175795
1405 -530.5815389777069
1406 -530.5899589903861
1407 -530.5790514722875
1408 -530.6024918615103
1409 -530.5888473208854
1410 -530.607313143287
1411 -530.5943468101894
1412 -530.6107003569253
1413 -530.6006330578539
1414 -530.6024898856371
1415 -530.5948703874877
1416 -530.6071625903485
1417 -530.5947480760399
1418 -530.5932381527836
1419 -530.5908654268567
1420 -530.5919853853336
1421 -530.5879201905421
1422 -530.592101626759
1423 -530.5869158380015
1424 -530.594833429167
1425 -530.5815263379088
1426 -530.5821536711228
1427 -530.5747991544158
1428 -530.5704921005324
1429 -530.5811021681699
1430 -530.5814137557819
1431 -530.5824529939879
1432 -530.5950460117125
1433 -530.5926849045594
1434 -530.5951431946488
1435 -530.591576590989
1436 -530.5876697530495
1437 -530.5830021159242
1438 -530.5869625907781
1439 -530.5865596503714
1440 -530.5819445861977
1441 -530.5872611798831
1442 -530.5808749421511
1443 -530.5933225453789
1444 -530.5933818389915
1445 -530.5969907497398
1446 -530.6022467890501
1447 -530.6054386651518
1448 -530.6080989671999
1449 -530.5973061947986
1450 -530.6042475421683
1451 -530.59527133779
1452 -530.605939143709
1453 -530.5988955746108
1454 -530.6081000144171
1455 -530.5977734932418
1456 -530.6169155987258
1457 -530.600112284729
1458 -530.6151682016158
1459 -530.5919012490809
1460 -530.5999234479538
1461 -530.5758536476532
1462 -530.5838646660351
1463 -530.5708797257552
1464 -530.5773503953461
1465 -530.5806086897589
1466 -530.5809412240271
1467 -530.5735990516969
1468 -530.5780498165677
1469 -530.5619993384682
1470 -530.5711887019319
1471 -530.5554523338113
1472 -530.5678227080026
1473 -530.5420753684704
1474 -530.5647415720053
1475 -530.5494160617156
1476 -530.5650923529747
1477 -530.5553832400159
1478 -530.5667840213398
1479 -530.5733500232739
1480 -530.5851619230178
1481 -530.5738030549762
1482 -530.5927203043146
1483 -530.5748963116145
1484 -530.5828480468183
1485 -530.5723356474923
1486 -530.5773333104255
1487 -530.5756608137571
1488 -530.5854986517332
1489 -530.5837565937049
1490 -530.5957835826335
1491 -530.600771629422
1492 -530.5928540532955
1493 -530.5923325907
1494 -530.5938146592185
1495 -530.5866637628972
1496 -530.5911429350807
1497 -530.5977895428381
1498 -530.6113558614879
1499 -530.6134643769676
1500 -530.6168022627809
1501 -530.6247193730682
1502 -530.6187802802594
1503 -530.6208993207871
1504 -530.6188251034174
1505 -530.6263342681027
1506 -530.6186318817543
1507 -530.6266603131473
1508 -530.6282374094734
1509 -530.6345833056114
1510 -530.6246891139351
1511 -530.6286001559382
1512 -530.6300362432465
1513 -530.6153875856163
1514 -530.6225466426642
1515 -530.6156246427872
1516 -530.6181040376736
1517 -530.6089548858481
1518 -530.6086633301405
1519 -530.6025822098115
1520 -530.6064980170468
1521 -530.5893323026058
1522 -530.602222071663
1523 -530.5836442268587
1524 -530.5911497080084
1525 -530.5755866950213
1526 -530.5921262328098
1527 -530.5768836675173
1528 -530.5884181364193
1529 -530.5747186166625
1530 -530.6004173418364
1531 -530.589302437258
1532 -530.6037785404185
1533 -530.5903875385357
1534 -530.5936922463313
1535 -530.5891079132043
1536 -530.5861344364911
1537 -530.5728666734456
1538 -530.5822485584454
1539 -530.5758139206471
1540 -530.5814870827136
1541 -530.5830583160957
1542 -530.5872444142485
1543 -530.5993920718372
1544 -530.5960905146942
1545 -530.5985991342246
1546 -530.6027345992622
1547 -530.6044606713307
1548 -530.5986247267487
1549 -530.6008769392665
1550 -530.58517694095
1551 -530.5945283148961
1552 -530.5783552852391
1553 -530.5797262439235
1554 -530.5764309069506
1555 -530.5913336388536
1556 -530.5775782311318
1557 -530.5961503742201
1558 -530.5910366990512
1559 -530.6059022629603
1560 -530.5919086719706
1561 -530.5911733544012
1562 -530.5860517603851
1563 -530.5945817597401
1564 -530.5931108351521
1565 -530.6042229591764
1566 -530.6016632993102
1567 -530.6157288457428
1568 -530.6125278489494
1569 -530.6219940451151
1570 -530.6187380953912
1571 -530.6201787664296
1572 -530.6230022775969
1573 -530.625608948103
1574 -530.6234978017483
1575 -530.6243320103049
1576 -530.6262190581047
1577 -530.6146873120238
1578 -530.6234734327518
1579 -530.6163488935623
1580 -530.6163677132952
1581 -530.6079461973177
1582 -530.6117923966955
1583 -530.6050422915075
1584 -530.6062589701958
1585 -530.6030495741608
1586 -530.6000631348639
1587 -530.5939233504155
1588 -530.5837459615626
1589 -530.5860730128863
1590 -530.5764913003804
1591 -530.5906556234363
1592 -530.5739741099558
1593 -530.5859751553394
1594 -530.5771502028795
1595 -530.5693937427535
1596 -530.5773772368067
1597 -530.5756163701569
1598 -530.580004280216
1599 -530.5814790577627
1600 -530.5809486313009
1601 -530.582855018924
1602 -530.5750770724762
1603 -530.5767552837167
1604 -530.5783899707001
1605 -530.5863885826121
1606 -530.5785133373473
1607 -530.5943686514055
1608 -530.5836366526705
1609 -530.5979017304154
1610 -530.5888529305178
1611 -530.6026807900075
1612 -530.6005361905679
1613 -530.6055787415374
1614 -530.6017615951383
1615 -530.6112812426812
1616 -530.6032143301944
1617 -530.6119933346857
1618 -530.606526643377
1619 -530.6104080824681
1620 -530.6056563374373
1621 -530.6124114822672
1622 -530.6104742219361
1623 -530.6199917796415
1624 -530.615365109525
1625 -530.6177170829029
1626 -530.6129834806053
1627 -530.606274974091
1628 -530.6164083385398
1629 -530.6076217880508
1630 -530.611107097204
1631 -530.6057535889247
1632 -530.6128271099192
1633 -530.6049243154487
1634 -530.6117198643987
1635 -530.6015555439047
1636 -530.6144883312866
1637 -530.5987482941169
1638 -530.604517955844
1639 -530.5923757541864
1640 -530.5933680733216
1641 -530.5838675711781
1642 -530.5852886200732
1643 -530.570036031415
1644 -530.5852844903205
1645 -530.5738465538435
1646 -530.5812719426521
1647 -530.5844627755862
1648 -530.5820811306701
1649 -530.5852669264983
1650 -530.5792297754051
1651 -530.5822245098265
1652 -530.5896378115223
1653 -530.5831693884139
1654 -530.5801747429728
1655 -530.5865027564009
1656 -530.5834360157792
1657 -530.5959132552294
1658 -530.5946360522579
1659 -530.6037681131314
1660 -530.6061154241148
1661 -530.6141610628127
1662 -530.6098415884885
1663 -530.6198078583535
1664 -530.6127225017694
1665 -530.625311743406
1666 -530.6111328604023
1667 -530.6235777554258
1668 -530.6289220472095
1669 -530.628959622951
1670 -530.6248056359328
1671 -530.630062477751
1672 -530.6304656503166
1673 -530.6240000158173
1674 -530.6323474592414
1675 -530.6297963124614
1676 -530.6418071822267
1677 -530.6269657041391
1678 -530.6302128883651
1679 -530.6208509870011
1680 -530.6163771290865
1681 -530.6138198755499
1682 -530.6028816120886
1683 -530.5918886226897
1684 -530.6123548622535
1685 -530.5974476756942
1686 -530.613393704023
1687 -530.6014641686804
1688 -530.6126479347728
1689 -530.6060922254311
1690 -530.6187319500971
1691 -530.6063504920323
1692 -530.6239148632417
1693 -530.6185965919076
1694 -530.6220417115794
1695 -530.6091939911328
1696 -530.6183418010066
1697 -530.6079356949376
1698 -530.6140696453768
1699 -530.6094971054115
1700 -530.6124309124474
1701 -530.6147598658166
1702 -530.6138040544998
1703 -530.6112921322114
1704 -530.6088409522754
1705 -530.6043702281441
1706 -530.6038631070791
1707 -530.5965081356221
1708 -530.5961904090151
1709 -530.5900388679959
1710 -530.5873730581012
1711 -530.5773331601797
1712 -530.5798576264455
1713 -530.5752748996081
1714 -530.57124774947
1715 -530.57365702475
1716 -530.5688830480777
1717 -530.5876028382337
1718 -530.589457696154
1719 -530.5974566438716
1720 -530.6071598513957
1721 -530.6136684190031
1722 -530.6122480080714
1723 -530.6091713026909
1724 -530.6157765635861
1725 -530.6060562027351
1726 -530.6117272787867
1727 -530.6120391692591
1728 -530.6157298027615
1729 -530.6214318694111
1730 -530.6222513777991
1731 -530.6161900896783
1732 -530.6292088156544
1733 -530.6214741988179
1734 -530.6202752354383
1735 -530.6212832455168
1736 -530.6175379872866
1737 -530.6217714287743
1738 -530.6177535287386
1739 -530.6073352936761
1740 -530.6176177848461
1741 -530.6109173695993
1742 -530.6117600938218
1743 -530.6058587418058
1744 -530.6017642337785
1745 -530.6007898694978
1746 -530.605885587216
1747 -530.5970217933951
1748 -530.611115595919
1749 -530.6035795174716
1750 -530.6115802274813
1751 -530.595217447112
1752 -530.604974842999
1753 -530.5871333745854
1754 -530.5935582590425
1755 -530.5843046730873
1756 -530.5920167307486
1757 -530.5910887454809
1758 -530.5927645354075
1759 -530.5815405194554
1760 -530.5893820948131
1761 -530.5789911918956
1762 -530.5845139721496
1763 -530.5799059979825
1764 -530.5853936024662
1765 -530.5935226237413
1766 -530.5946884708641
1767 -530.5937179965106
1768 -530.604782227041
1769 -530.6067018479687
1770 -530.6052061453544
1771 -530.6041040257243
1772 -530.5992750404167
1773 -530.6028455098857
1774 -530.5971429975731
1775 -530.6099568770995
1776 -530.6047362017487
1777 -530.6087536591434
1778 -530.5965586951343
1779 -530.6075081550683
1780 -530.593366982169
1781 -530.5999561381366
1782 -530.5979112489611
1783 -530.5949894878102
1784 -530.6161174296267
1785 -530.6106855548975
1786 -530.6263435472304
1787 -530.6140498703598
1788 -530.6174361553669
1789 -530.6010780892403
1790 -530.6060513033485
1791 -530.5946920884255
1792 -530.6160251221128
1793 -530.6119716177583
1794 -530.630170702574
1795 -530.6226455270125
1796 -530.6328156734827
1797 -530.6194513986984
1798 -530.6261065414923
1799 -530.6064519081457
1800 -530.6232060026117
1801 -530.6055633686397
1802 -530.623812647941
1803 -530.6182589603427
1804 -530.6215744600501
1805 -530.6125431363822
1806 -530.6138440996169
1807 -530.5959868399332
1808 -530.6067499441727
1809 -530.5808769066475
1810 -530.5942323467403
1811 -530.5749380196274
1812 -530.5953186118096
1813 -530.5816948568128
1814 -530.6024289326201
1815 -530.5900148113006
1816 -530.6145305222434
1817 -530.6004544344563
1818 -530.6140150491944
1819 -530.6059744473881
1820 -530.6131553663101
1821 -530.6061601113213
1822 -530.6120714748528
1823 -530.5944876802024
1824 -530.6077653392977
1825 -530.599412060624
1826 -530.6043982212203
1827 -530.5986977512059
1828 -530.6006765157387
1829 -530.5989862873953
1830 -530.5991053226639
1831 -530.6098339983673
1832 -530.5992781879842
1833 -530.609494558748
1834 -530.6020309772091
1835 -530.6028382842698
1836 -530.6021261487253
1837 -530.5967885605929
1838 -530.5994377383749
1839 -530.5989176194944
1840 -530.6052766488127
1841 -530.612297370229
1842 -530.6224740803129
1843 -530.6279727025078
1844 -530.6335134923381
1845 -530.6184401680191
1846 -530.6398658377298
1847 -530.6264313062553
1848 -530.6370446070496
1849 -530.6258945974066
1850 -530.6366311822992
1851 -530.6300463682451
1852 -530.6345033573998
1853 -530.6318648906858
1854 -530.6292529601078
1855 -530.6073608587606
1856 -530.6152969646246
1857 -530.6025349011164
1858 -530.6192605359871
1859 -530.5988822264765
1860 -530.6194967464082
1861 -530.6038776316256
1862 -530.6235913097388
1863 -530.5959180523115
1864 -530.6224960359343
1865 -530.598791323479
1866 -530.613824812856
1867 -530.5897046018969
1868 -530.6050097176133
1869 -530.5830953757742
1870 -530.5929608164004
1871 -530.5587757595218
1872 -530.5838951044914
1873 -530.55963685443
1874 -530.5773403647314
1875 -530.5569160736213
1876 -530.5726998418365
1877 -530.5591085858749
1878 -530.568392434972
1879 -530.5521683141335
1880 -530.5590867019037
1881 -530.5553730710915
1882 -530.5610258668582
1883 -530.5539352502215
1884 -530.57868809507
1885 -530.5758507422991
1886 -530.5855027026495
1887 -530.5898675811445
1888 -530.5935306039462
1889 -530.5964075796626
1890 -530.6020494441908
1891 -530.6095373869322
1892 -530.6107267162807
1893 -530.6214548220677
1894 -530.6251304446104
1895 -530.6411462280676
1896 -530.6442205288319
1897 -530.645672834464
1898 -530.6428230949858
1899 -530.6340051801101
1900 -530.6394744614872
1901 -530.6217496555757
1902 -530.6240372502243
1903 -530.6229984754583
1904 -530.6304040862457
1905 -530.631724186985
1906 -530.6343882824012
1907 -530.6249403428471
1908 -530.6314584363272
1909 -530.6213879342648
1910 -530.6274921850803
1911 -530.623974900173
1912 -530.6386503064014
1913 -530.6353304344723
1914 -530.6440790597027
1915 -530.6352946297701
1916 -530.6435133351729
1917 -530.628301223423
1918 -530.6287385705321
1919 -530.6179141598031
1920 -530.6121141209883
1921 -530.6115976077288
1922 -530.6058000157211
1923 -530.5953948684598
1924 -530.6011845868752
1925 -530.5939431450264
1926 -530.5981469565595
1927 -530.5849062289499
1928 -530.5868510132362
1929 -530.5744960894043
1930 -530.576911271618
1931 -530.57104877531
1932 -530.5689925588788
1933 -530.5691716826111
1934 -530.56226949442
1935 -530.5638048061946
1936 -530.5685749998232
1937 -530.5754301439366
1938 -530.5730887006849
1939 -530.59241814196
1940 -530.5880869033715
1941 -530.6089990936537
1942 -530.6004990982609
1943 -530.6238677876891
1944 -530.6124325646207
1945 -530.6284276824438
1946 -530.6136951338303
1947 -530.6217593018798
1948 -530.6045872777601
1949 -530.6118013394871
1950 -530.6075064507758
1951 -530.6171774443218
1952 -530.6038341237132
1953 -530.6130134377026
1954 -530.5961351286265
1955 -530.6055338729452
1956 -530.5995421642371
1957 -530.6076745831327
1958 -530.6123504551924
1959 -530.613637352851
1960 -530.6198150953338
1961 -530.6193293986222
1962 -530.6179612451562
1963 -530.6146465869208
1964 -530.6084264915622
1965 -530.6003311028433
1966 -530.6156716944342
1967 -530.6076319881764
1968 -530.6154319823244
1969 -530.6150634997917
1970 -530.6245647574906
1971 -530.6165842687345
1972 -530.6163406648989
1973 -530.5996688724357
1974 -530.6137622941749
1975 -530.6084477746732
1976 -530.6203608846243
1977 -530.6069726117348
1978 -530.6150631451617
1979 -530.6066128336745
1980 -530.6102719061477
1981 -530.6032668923526
1982 -530.6075623342495
1983 -530.6011350788975
1984 -530.6124302515268
1985 -530.5986296708853
1986 -530.6086742642602
1987 -530.5987029725017
1988 -530.6060783170823
1989 -530.5953103021845
1990 -530.6097612146353
1991 -530.601429751966
1992 -530.6047154421904
1993 -530.6007973312941
1994 -530.6019589565797
1995 -530.5927981824346
1996 -530.591164344028
1997 -530.5868982131452
1998 -530.5798054778204
1999 -530.5768389467994
2000 -530.5743928605829
2001 -530.5769716976157
2002 -530.5725365041209
2003 -530.5880750190533
2004 -530.5903759081008
2005 -530.589640559333
2006 -530.5897063913162
2007 -530.5920069967704
2008 -530.6019344262559
2009 -530.5956832521091
2010 -530.5990757339761
2011 -530.5860978269867
2012 -530.5883940631835
2013 -530.5787149714183
2014 -530.5861888361798
2015 -530.5793928623281
2016 -530.5959432172049
2017 -530.5908451570695
2018 -530.6055127545818
2019 -530.5965935044617
2020 -530.6100761115948
2021 -530.6027935324703
2022 -530.610779358945
2023 -530.6009695457082
2024 -530.6191245305516
2025 -530.6092441675194
2026 -530.6224074607405
2027 -530.6133092520846
2028 -530.6189957350156
2029 -530.6112943431743
2030 -530.6179131146888
2031 -530.6018743431209
2032 -530.6174159729756
2033 -530.6036103907368
2034 -530.6173992165888
2035 -530.6063995662619
2036 -530.6149933998473
2037 -530.6028455891479
2038 -530.6046269241061
2039 -530.5920620393132
2040 -530.6002901007996
2041 -530.5965173760645
2042 -530.5943283952198
2043 -530.5978648034923
2044 -530.594549308435
2045 -530.6023751007713
2046 -530.5887785229846
2047 -530.5956775033911
2048 -530.5945232354148
2049 -530.6021772371035
2050 -530.5890253021231
2051 -530.6038324783452
2052 -530.5897169165279
2053 -530.6050672689466
2054 -530.5912063379627
2055 -530.600037677734
2056 -530.5946157573478
2057 -530.600233027909
2058 -530.5956153364365
2059 -530.6039088515589
2060 -530.5961828606327
2061 -530.6132648115449
2062 -530.5964526136725
2063 -530.6044142924281
2064 -530.5913742833231
2065 -530.6045562870596
2066 -530.5925367889342
2067 -530.6042547037969
2068 -530.5985123171398
2069 -530.6198280089995
2070 -530.6114275936691
2071 -530.6249407631897
2072 -530.6251920979395
2073 -530.6308115621579
2074 -530.6338361140189
2075 -530.6420861157076
2076 -530.6403350249519
2077 -530.6418434750221
2078 -530.6426075830066
2079 -530.6448896228713
2080 -530.6551216111953
2081 -530.6448357886704
2082 -530.6570702339279
2083 -530.6459669974337
2084 -530.6521345642768
2085 -530.6360769392705
2086 -530.6453956428322
2087 -530.6252961827835
2088 -530.6382531627467
2089 -530.6264721670085
2090 -530.6355095263242
2091 -530.6250535448282
2092 -530.6231367965721
2093 -530.6175688082136
2094 -530.6065442226533
2095 -530.5968603935461
2096 -530.6043740079581
2097 -530.5976283000474
2098 -530.6019649217054
2099 -530.6012617234906
2100 -530.6014702650559
2101 -530.6015118378641
2102 -530.5971890401639
2103 -530.5992615553541
2104 -530.6068431639752
2105 -530.6023861955741
2106 -530.5956944121978
2107 -530.6027645278283
2108 -530.5891538074228
2109 -530.5938784753306
2110 -530.5872156986297
2111 -530.5824879712642
2112 -530.5818180412223
2113 -530.5886291661272
2114 -530.5826000463261
2115 -530.5900443024286
2116 -530.5764009422347
2117 -530.58971249801
2118 -530.5771337144769
2119 -530.5830946375111
2120 -530.5785021038581
2121 -530.5814826569181
2122 -530.5783930164464
2123 -530.5785027063587
2124 -530.5815140176405
2125 -530.584764151732
2126 -530.5869025820563
2127 -530.5915318880235
2128 -530.5979245383028
2129 -530.6052349356147
2130 -530.6057082385411
2131 -530.6065994686576
2132 -530.6073497140792
2133 -530.6160787773131
2134 -530.6175652292434
2135 -530.6190164087368
2136 -530.6361032962072
2137 -530.6324013955681
2138 -530.6401498117418
2139 -530.6377149605614
2140 -530.6433039210018
2141 -530.6420112507736
2142 -530.6398305664292
2143 -530.6173882614403
2144 -530.6323946821137
2145 -530.6195006523209
2146 -530.6251797171474
2147 -530.6194456476167
2148 -530.6321327318609
2149 -530.6289531025933
2150 -530.6295230982254
2151 -530.6197100085732
2152 -530.6281238471995
2153 -530.6140474772927
2154 -530.6108917864219
2155 -530.6063447201108
2156 -530.6019886828383
2157 -530.606751706163
2158 -530.5968046969567
2159 -530.6004671920763
2160 -530.5949478179103
2161 -530.5994316095182
2162 -530.5830959692443
2163 -530.5984053874309
2164 -530.5749602065649
2165 -530.5937737033554
2166 -530.5799576463692
2167 -530.5907243483811
2168 -530.5811802996427
2169 -530.600175131477
2170 -530.5873142286907
2171 -530.6010951495768
2172 -530.586138850264
2173 -530.6065895890466
2174 -530.5913093229017
2175 -530.6085191720322
2176 -530.6027019948548
2177 -530.6149385531975
2178 -530.6017592129959
2179 -530.6105625563158
2180 -530.5971254368461
2181 -530.6052079793508
2182 -530.5934096687405
2183 -530.5954127059205
2184 -530.5918007730841
2185 -530.5971175799423
2186 -530.5904170997144
2187 -530.5909561840012
2188 -530.5829611942391
2189 -530.5902986569872
2190 -530.585419514015
2191 -530.586564142348
2192 -530.5963101956108
2193 -530.5983762426725
2194 -530.6036962175094
2195 -530.6010792495438
2196 -530.6128404706062
2197 -530.6041876382571
2198 -530.61827190333
2199 -530.6097854256391
2200 -530.6305849217864
2201 -530.6228955168386
2202 -530.6326429840096
2203 -530.6226539312244
2204 -530.6285005393502
2205 -530.619984963875
2206 -530.6147578351924
2207 -530.6133702445514
2208 -530.6267043380368
2209 -530.6215518339691
2210 -530.6275610592565
2211 -530.6172056736231
2212 -530.6248296925667
2213 -530.6168654317647
2214 -530.6170752943877
2215 -530.616229322115
2216 -530.6044966293598
2217 -530.6122018589944
2218 -530.5923514711817
2219 -530.5968355819315
2220 -530.5878297455439
2221 -530.5980127540149
2222 -530.585812539791
2223 -530.5964774136164
2224 -530.5860397867623
2225 -530.5990522470981
2226 -530.589039965746
2227 -530.6073950446694
2228 -530.5968493985224
2229 -530.61751327211
2230 -530.5947943644632
2231 -530.6046867497229
2232 -530.5954324224758
2233 -530.6068542278404
2234 -530.5896196412198
2235 -530.6085897111194
2236 -530.5931626298959
2237 -530.613341539668
2238 -530.5966834225939
2239 -530.60481120359
2240 -530.5964807978137
2241 -530.6098658258106
2242 -530.5977650065693
2243 -530.6118798801094
2244 -530.6085533834664
2245 -530.6257399774943
2246 -530.6221768656349
2247 -530.6250154172342
2248 -530.626396768468
2249 -530.6278721793258
2250 -530.6190559293898
2251 -530.6205767405813
2252 -530.6114213613778
2253 -530.6159503428277
2254 -530.6129613017201
2255 -530.6151687213779
2256 -530.6253159063297
2257 -530.6255033837004
2258 -530.6312187264489
2259 -530.6274109853154
2260 -530.638316196717
2261 -530.6227255462949
2262 -530.6252762580148
2263 -530.619924315464
2264 -530.615779342914
2265 -530.6145606403788
2266 -530.6174521076071
2267 -530.6114286200363
2268 -530.6271203131917
2269 -530.6177688931509
2270 -530.6288009011404
2271 -530.621315556042
2272 -530.6237490464486
2273 -530.6139984761533
2274 -530.6165430454051
2275 -530.5950098465773
2276 -530.5983242962681
2277 -530.5927730030317
2278 -530.5958361203869
2279 -530.6008843506974
2280 -530.5928532563183
2281 -530.6025772836864
2282 -530.5934831718027
2283 -530.6081988925863
2284 -530.5950772158488
2285 -530.6004207368882
2286 -530.589861296353
2287 -530.5945427569645
2288 -530.591203114043
2289 -530.5975239112454
2290 -530.5979351756101
2291 -530.5915679993416
2292 -530.6038558310498
2293 -530.6033161401624
2294 -530.6052285589632
2295 -530.5988549322562
2296 -530.6003164640292
2297 -530.5927891817328
2298 -530.6019236353166
2299 -530.598082047985
2300 -530.6152426338634
2301 -530.6082198302896
2302 -530.6143349403604
2303 -530.6125246209832
2304 -530.6053465821196
2305 -530.6024273447809
2306 -530.600985428494
2307 -530.5989466099908
2308 -530.6134946055638
2309 -530.6096347504299
2310 -530.6208666661112
2311 -530.6136027963271
2312 -530.6302897142707
2313 -530.6111747508143
2314 -530.6343147951674
2315 -530.6209973010527
2316 -530.6327667669149
2317 -530.6190357554175
2318 -530.618502820664
2319 -530.6103900563902
2320 -530.6111970574135
2321 -530.607224240192
2322 -530.6087315262535
2323 -530.6133647229613
2324 -530.6163669952973
2325 -530.6091627322435
2326 -530.6059335405859
2327 -530.6044899307082
2328 -530.6089659041008
2329 -530.6079633551848
2330 -530.6101231143576
2331 -530.6134234881303
2332 -530.6112052589851
2333 -530.6180080604508
2334 -530.6149761867587
2335 -530.6228948565494
2336 -530.6100015635964
2337 -530.6215656425466
2338 -530.6025010080847
2339 -530.6087836237277
2340 -530.601078663203
2341 -530.5990450234214
2342 -530.590148279417
2343 -530.5895701667771
2344 -530.5822228963586
2345 -530.5800150806431
2346 -530.5756508590973
2347 -530.5683604406067
2348 -530.5745030106788
2349 -530.5715265271169
2350 -530.5724153612642
2351 -530.5718437345371
2352 -530.5704003148956
2353 -530.5745597327234
2354 -530.5688853030456
2355 -530.5704591798159
2356 -530.5797081489691
2357 -530.588592352658
2358 -530.5934210613377
2359 -530.6048206846351
2360 -530.6040383738577
2361 -530.6124330201798
2362 -530.6097401322171
2363 -530.6080365419621
2364 -530.604824792577
2365 -530.611104752722
2366 -530.6075851122391
2367 -530.6125637404838
2368 -530.6216339872095
2369 -530.6146056624056
2370 -530.6125893995121
2371 -530.6067354074833
2372 -530.6132440546467
2373 -530.611462109616
2374 -530.6215960533535
2375 -530.618228557229
2376 -530.6339276628469
2377 -530.6300633600011
2378 -530.6390112134557
2379 -530.6430157822193
2380 -530.6494544954679
2381 -530.6538153007606
2382 -530.6467279380909
2383 -530.6519881679401
2384 -530.647432823025
2385 -530.6475509318002
2386 -530.6395529896554
2387 -530.643640848323
2388 -530.6302404079089
2389 -530.6299893212856
2390 -530.6280746082859
2391 -530.6294570461811
2392 -530.6098320542123
2393 -530.622383647139
2394 -530.5958496380816
2395 -530.6095652993589
2396 -530.5867553232478
2397 -530.5911526662545
2398 -530.5857785436929
2399 -530.5965066148981
2400 -530.5801151712387
2401 -530.5882481595017
2402 -530.5773173756982
2403 -530.5906174787241
2404 -530.5763323104121
2405 -530.5891403924654
2406 -530.5837487158411
2407 -530.5981043396349
2408 -530.5891300219552
2409 -530.6032328513907
2410 -530.5944515820778
2411 -530.5977384728791
2412 -530.583871794438
2413 -530.5875105602903
2414 -530.5834693899171
2415 -530.5859328238608
2416 -530.583809402325
2417 -530.598082706327
2418 -530.5901189251264
2419 -530.604457882662
2420 -530.5965632094172
2421 -530.6055792090042
2422 -530.6092930195523
2423 -530.613754659889
2424 -530.6204140207253
2425 -530.6215235337644
2426 -530.625636193771
2427 -530.6258099358149
2428 -530.6328728405684
2429 -530.626147088666
2430 -530.64099728013
2431 -530.6391249089878
2432 -530.6434592723172
2433 -530.6374437071765
2434 -530.6417923151822
2435 -530.6283954289752
2436 -530.6342448738239
2437 -530.6047505942287
2438 -530.615820461201
2439 -530.5894817022547
2440 -530.6012787281693
2441 -530.583164475581
2442 -530.5950184389898
2443 -530.5802547188807
2444 -530.5914531558697
2445 -530.5729835530944
2446 -530.5851357718878
2447 -530.5647300136335
2448 -530.5700290167764
2449 -530.5604088765563
2450 -530.5700379582263
2451 -530.566443686141
2452 -530.5791523252805
2453 -530.5781289897163
2454 -530.5925933274291
2455 -530.5912327018427
2456 -530.6053368832862
2457 -530.6018440718108
2458 -530.6078257966751
2459 -530.6127779229515
2460 -530.6160069833229
2461 -530.6096419984896
2462 -530.6176044299974
2463 -530.6144351219891
2464 -530.6134363992592
2465 -530.60443042362
2466 -530.6082060988097
2467 -530.6076818404373
2468 -530.6075707054149
2469 -530.5987594481179
2470 -530.6009025928063
2471 -530.596988146926
2472 -530.60302856569
2473 -530.5812523530127
2474 -530.6080152583877
2475 -530.5965217366869
2476 -530.62116652771
2477 -530.6098182808113
2478 -530.6222260408907
2479 -530.6215571939983
2480 -530.6311968433687
2481 -530.631114112402
2482 -530.6409811043136
2483 -530.6359484051316
2484 -530.6453656938114
2485 -530.6291023827862
2486 -530.6491241758225
2487 -530.6399374145559
2488 -530.6423430426071
2489 -530.6278412757141
2490 -530.6366905052183
2491 -530.6245827423199
2492 -530.6299443911187
2493 -530.6132793925021
2494 -530.628819251915
2495 -530.6176974254738
2496 -530.6282617230424
2497 -530.617973829368
2498 -530.6285378259607
2499 -530.6218879843619
2500 -530.625463207418
2501 -530.6128043080924
2502 -530.6207926851347
2503 -530.6185631264545
2504 -530.6171694213451
2505 -530.6218277157776
2506 -530.6050837047441
2507 -530.6164061049034
2508 -530.6004352220372
2509 -530.6030209023324
2510 -530.598395991979
2511 -530.6038382111811
2512 -530.5921574029647
2513 -530.5933303327087
2514 -530.5859531983461
2515 -530.5826125331392
2516 -530.5761241803943
2517 -530.583461924842
2518 -530.5736056784621
2519 -530.5915986820373
2520 -530.5768674916403
2521 -530.586467334542
2522 -530.5860661956673
2523 -530.5954834371279
2524 -530.5852781470986
2525 -530.5863886888071
2526 -530.5819354415069
2527 -530.5780476965235
2528 -530.5771561002115
2529 -530.5635856234077
2530 -530.5775686984774
2531 -530.5727991407957
2532 -530.5874042240039
2533 -530.5823204338495
2534 -530.5941903190285
2535 -530.5974750846609
2536 -530.5961499833284
2537 -530.6007234146977
2538 -530.5938665590968
2539 -530.5986157758301
2540 -530.59670182167
2541 -530.5988235379999
2542 -530.6047873066008
2543 -530.6089186969485
2544 -530.6203974668392
2545 -530.6217792023258
2546 -530.6325871308323
2547 -530.6263984925318
2548 -530.6406781685438
2549 -530.6386223168572
2550 -530.649895070594
2551 -530.6386790219027
2552 -530.660228384853
2553 -530.6501699842212
2554 -530.6601497390789
2555 -530.648470420868
2556 -530.6482226499904
2557 -530.6430462479202
2558 -530.6398251198734
2559 -530.622686635406
2560 -530.6351782643786
2561 -530.6269895028469
2562 -530.6356746155168
2563 -530.6218442605353
2564 -530.6230938337449
2565 -530.6113501994872
2566 -530.5972674842683
2567 -530.5910208824183
2568 -530.5870437911798
2569 -530.5873272564945
2570 -530.5793815801969
2571 -530.5873290679332
2572 -530.5860041720299
2573 -530.5866335013433
2574 -530.5862429557296
2575 -530.5855709959638
2576 -530.5908481236914
2577 -530.5889921231885
2578 -530.5842154076186
2579 -530.5904755909003
2580 -530.5739419176517
2581 -530.5901438133947
2582 -530.5782214740951
2583 -530.5883656364456
2584 -530.5926928368521
2585 -530.6013365806544
2586 -530.5977252937471
2587 -530.6011007644025
2588 -530.5966172873324
2589 -530.5988968934947
2590 -530.5956869072726
2591 -530.5899833279442
2592 -530.5941640763406
2593 -530.5905300253501
2594 -530.5927467998823
2595 -530.59262612053
2596 -530.5982258639453
2597 -530.5994798595563
2598 -530.6025532325109
2599 -530.6011148491217
2600 -530.6153713500763
2601 -530.6170299476314
2602 -530.6228329319044
2603 -530.6242990392931
2604 -530.6218548304528
2605 -530.6251936292871
2606 -530.6162418403043
2607 -530.6119797707712
2608 -530.6101985765592
2609 -530.6150476310985
2610 -530.6199207219844
2611 -530.6219971843433
2612 -530.6209018701927
2613 -530.6258002121668
2614 -530.622789043801
2615 -530.6200943587376
2616 -530.6268227166042
2617 -530.6338887012997
2618 -530.6311623277019
2619 -530.6384694115421
2620 -530.6350041269151
2621 -530.6388443290074
2622 -530.627968196334
2623 -530.6228635409642
2624 -530.6132421804489
2625 -530.6073254787731
2626 -530.6073134881696
2627 -530.6036515271185
2628 -530.5957323816045
2629 -530.6016411976187
2630 -530.5892473251777
2631 -530.592025269079
2632 -530.5844543483033
2633 -530.5902887645784
2634 -530.5826007606998
2635 -530.5875878068423
2636 -530.5791963818212
2637 -530.5889789670102
2638 -530.5802639254432
2639 -530.5877669194859
2640 -530.58929886692
2641 -530.5950506350596
2642 -530.6011594643941
2643 -530.6047294024186
2644 -530.6179297769096
2645 -530.6168219558025
2646 -530.6214601715319
2647 -530.6184345207904
2648 -530.619645650902
2649 -530.6158536934151
2650 -530.6219131855869
2651 -530.603769604985
2652 -530.6211594493409
2653 -530.6095785937271
2654 -530.6223394482419
2655 -530.6108093423018
2656 -530.6211073855203
2657 -530.6080048469827
2658 -530.6129419311868
2659 -530.5895167193958
2660 -530.6043245231091
2661 -530.5896612500367
2662 -530.6071029863991
2663 -530.6004216544876
2664 -530.6217162373146
2665 -530.6221928871894
2666 -530.6297828182335
2667 -530.6320977025154
2668 -530.6322138354253
2669 -530.629184549732
2670 -530.6265512904343
2671 -530.6235528050603
2672 -530.6217787923281
2673 -530.6022844674578
2674 -530.6094828431422
2675 -530.6052724024735
2676 -530.6084023064012
2677 -530.6057180837115
2678 -530.5985370705736
2679 -530.6005568181083
2680 -530.5917643844358
2681 -530.5931843351329
2682 -530.597600334175
2683 -530.5987606689677
2684 -530.5967642785977
2685 -530.5975081166016
2686 -530.6008406462769
2687 -530.600933434698
2688 -530.5922830459929
2689 -530.5812911815354
2690 -530.5846841167589
2691 -530.5860375823038
2692 -530.5920729883253
2693 -530.6072225679579
2694 -530.6057059375694
2695 -530.6180004002618
2696 -530.6107054073879
2697 -530.6103735128519
2698 -530.6153471030234
2699 -530.6103178375379
2700 -530.6080459984458
2701 -530.6002247635035
2702 -530.6000164192395
2703 -530.5991564424024
2704 -530.5976606712929
2705 -530.5941750901814
2706 -530.6048275165282
2707 -530.6008682555046
2708 -530.6045439519743
2709 -530.6099657776035
2710 -530.6123492894154
2711 -530.6199286802189
2712 -530.6289156958534
2713 -530.6165714609739
2714 -530.6367421751086
2715 -530.6266512486267
2716 -530.6356738300514
2717 -530.6241786179611
2718 -530.6308240617809
2719 -530.6317269617983
2720 -530.6342546868264
2721 -530.6267827994014
2722 -530.6382447846092
2723 -530.6194339679712
2724 -530.6258085815896
2725 -530.612371612769
2726 -530.6168239105829
2727 -530.6058867733141
2728 -530.6042052424115
2729 -530.6025093363421
2730 -530.6130807555153
2731 -530.6089354861806
2732 -530.6106975448365
2733 -530.612919072161
2734 -530.6059401400995
2735 -530.6127977744145
2736 -530.6042193663623
2737 -530.5992969542157
2738 -530.6025329265983
2739 -530.599019545635
2740 -530.6076037752912
2741 -530.6051035398233
2742 -530.6131113402868
2743 -530.6130610503905
2744 -530.612054794275
2745 -530.601156511065
2746 -530.610173416041
2747 -530.5979157356586
2748 -530.6003997046812
2749 -530.5907729552464
2750 -530.5885006748451
2751 -530.5774680917909
2752 -530.5735583317394
2753 -530.5656478960753
2754 -530.5733955759378
2755 -530.5560580256192
2756 -530.5698367135184
2757 -530.556974065466
2758 -530.5706539615165
2759 -530.565974887705
2760 -530.5887278393492
2761 -530.5764099643014
2762 -530.6104320621073
2763 -530.591222098971
2764 -530.6111555036932
2765 -530.5911216895447
2766 -530.6079676118039
2767 -530.591994042579
2768 -530.6083104632276
2769 -530.5884541206593
2770 -530.6091484564655
2771 -530.6023921312117
2772 -530.6193161085522
2773 -530.6146945746812
2774 -530.6302723280808
2775 -530.6230722199497
2776 -530.6343099058081
2777 -530.620406045959
2778 -530.638639928114
2779 -530.6319627819315
2780 -530.6431000203943
2781 -530.6323207507908
2782 -530.6303564430251
2783 -530.6248380141586
2784 -530.6174373707207
2785 -530.6120642473767
2786 -530.6179349778312
2787 -530.6189690546759
2788 -530.6166431158108
2789 -530.6186339835257
2790 -530.612533303278
2791 -530.6195030929088
2792 -530.6069597687342
2793 -530.610007793189
2794 -530.6105225311187
2795 -530.611054935851
2796 -530.6057850516836
2797 -530.6090719218161
2798 -530.6011761253984
2799 -530.6062406203436
2800 -530.5950158000356
2801 -530.5936409847329
2802 -530.5979599092848
2803 -530.5951287131943
2804 -530.5956684767616
2805 -530.592552798981
2806 -530.5944363784904
2807 -530.5987387680763
2808 -530.5945334278955
2809 -530.5961207300288
2810 -530.5991932034389
2811 -530.5994420568938
2812 -530.5944987127627
2813 -530.5948014146351
2814 -530.5880264230585
2815 -530.5955249048336
2816 -530.6010101659444
2817 -530.5968490435089
2818 -530.6137894523658
2819 -530.6105797282219
2820 -530.6185786169095
2821 -530.614729771431
2822 -530.6200008666141
2823 -530.6206673370165
2824 -530.6210026672163
2825 -530.6087822159104
2826 -530.6217038904974
2827 -530.6124771036682
2828 -530.6198458898486
2829 -530.6157348914829
2830 -530.6093610896497
2831 -530.6147375589086
2832 -530.6051592385712
2833 -530.5974840332873
2834 -530.6037608461655
2835 -530.6085321135953
2836 -530.6086766095608
2837 -530.6209491347887
2838 -530.6174625454915
2839 -530.622501970321
2840 -530.6217723581784
2841 -530.616924746296
2842 -530.6213909524952
2843 -530.6140092476546
2844 -530.6101295516122
2845 -530.6122207804427
2846 -530.6047499204367
2847 -530.6137444013252
2848 -530.6015890884555
2849 -530.6091532178241
2850 -530.6080517228773
2851 -530.6127312727863
2852 -530.6027888112296
2853 -530.6094511556922
2854 -530.6036510008221
2855 -530.6009299036308
2856 -530.5906667281413
2857 -530.5862335217859
2858 -530.5911815358667
2859 -530.5862826315754
2860 -530.5984138919227
2861 -530.5990556247348
2862 -530.6075696785712
2863 -530.6088153561842
2864 -530.6065476832719
2865 -530.601854035585
2866 -530.6078462034824
2867 -530.6045222214186
2868 -530.6138551293892
2869 -530.6128368558952
2870 -530.6216113273687
2871 -530.6218638049509
2872 -530.6251367909373
2873 -530.6052301577663
2874 -530.6236851890359
2875 -530.6030660005281
2876 -530.6117542627384
2877 -530.5927355932755
2878 -530.6035387724791
2879 -530.5867013403428
2880 -530.5900641589018
2881 -530.5740091619798
2882 -530.5894593149983
2883 -530.5783348913226
2884 -530.5922542479202
2885 -530.5811342828545
2886 -530.5982057703716
2887 -530.5875927062449
2888 -530.6079523259249
2889 -530.5930573673262
2890 -530.6115951630773
2891 -530.5964616127145
2892 -530.6137626224945
2893 -530.6083264388074
2894 -530.6185489556957
2895 -530.6193860268419
2896 -530.6341240328256
2897 -530.6324432225897
2898 -530.6502476019277
2899 -530.6437826161736
2900 -530.6453166229282
2901 -530.6375480385095
2902 -530.6370575966037
2903 -530.631770644123
2904 -530.6379680049195
2905 -530.6351963378172
2906 -530.6387148085902
2907 -530.634742773076
2908 -530.6220529729187
2909 -530.6169738320642
2910 -530.6090521161657
2911 -530.6052294870562
2912 -530.6015299135722
2913 -530.5872785095893
2914 -530.6031278486265
2915 -530.5853957202266
2916 -530.5970116952351
2917 -530.5817961137565
2918 -530.591461227022
2919 -530.5802933573045
2920 -530.5817110015971
2921 -530.5818399307407
2922 -530.5731355018595
2923 -530.5747452046472
2924 -530.5699959968649
2925 -530.5674921779644
2926 -530.5767965197965
2927 -530.5717509117553
2928 -530.5840736476036
2929 -530.5704450060132
2930 -530.5832874398056
2931 -530.5738158050054
2932 -530.587929365896
2933 -530.5741565527966
2934 -530.5968917611317
2935 -530.5844005213421
2936 -530.6037292096084
2937 -530.5898603852181
2938 -530.6098991054192
2939 -530.609391709213
2940 -530.6294630019896
2941 -530.6108024465
2942 -530.6297438592835
2943 -530.6280873244242
2944 -530.6407147523292
2945 -530.6304461306373
2946 -530.6457145002796
2947 -530.6325344545994
2948 -530.6393015706553
2949 -530.6234891337947
2950 -530.6417179671143
2951 -530.6264504013642
2952 -530.6389654735254
2953 -530.6284762958458
2954 -530.6369667968009
2955 -530.6315026666867
2956 -530.6381479181657
2957 -530.6334299675729
2958 -530.6350581302522
2959 -530.6307009840708
2960 -530.6278113394544
2961 -530.6304133934422
2962 -530.6288490489221
2963 -530.6375215081142
2964 -530.6311325814406
2965 -530.6287923562915
2966 -530.6253925259971
2967 -530.6245109575859
2968 -530.6212258983702
2969 -530.613419590209
2970 -530.615549272413
2971 -530.6148568830608
2972 -530.6119203426204
2973 -530.6035851386987
2974 -530.6059868190811
2975 -530.5895348384767
2976 -530.5848476754061
2977 -530.5721071543257
2978 -530.5760790551085
2979 -530.5697635115489
2980 -530.5748905485473
2981 -530.5787368292645
2982 -530.5748906887204
2983 -530.5914474624224
2984 -530.5964293370606
2985 -530.5864817622521
2986 -530.6002988723877
2987 -530.5901390667065
2988 -530.6023538368122
2989 -530.5890347675441
2990 -530.597832172567
2991 -530.6014900668171
2992 -530.6127551775913
2993 -530.6129116502098
2994 -530.6194330755969
2995 -530.6188375326927
2996 -530.6139181060367
2997 -530.60354950857
2998 -530.6193826018864
2999 -530.607769079036
3000 -530.6227980458863
3001 -530.6011234210403
3002 -530.6164664039081
3003 -530.5918335047141
3004 -530.6018295376633
3005 -530.583135144891
3006 -530.5984594426341
3007 -530.5906996013691
3008 -530.6007382685369
3009 -530.6009587493133
3010 -530.6030681532195
3011 -530.6009885654204
3012 -530.6039481345156
3013 -530.5944081291453
3014 -530.6083224270892
3015 -530.6068421849801
3016 -530.6122960026053
3017 -530.6170294363313
3018 -530.6148101631412
3019 -530.6375587545609
3020 -530.6214326419113
3021 -530.6387286896221
3022 -530.6284029353995
3023 -530.6396998979975
3024 -530.6273227638322
3025 -530.6352815099386
3026 -530.6198205901462
3027 -530.6291476429952
3028 -530.6154457609592
3029 -530.62238234401
3030 -530.6105528290344
3031 -530.6196279745707
3032 -530.5962653218778
3033 -530.6050847947853
3034 -530.5851172705521
3035 -530.597406113863
3036 -530.5920137504912
3037 -530.5888558968641
3038 -530.5940338777002
3039 -530.5942673948357
3040 -530.5892555869855
3041 -530.5885934165357
3042 -530.5908609283096
3043 -530.5965476773998
3044 -530.5935473832423
3045 -530.5813539238421
3046 -530.5912237705389
3047 -530.5817397122593
3048 -530.5882853405557
3049 -530.5775684240377
3050 -530.5916788937308
3051 -530.5898369416243
3052 -530.6012429757981
3053 -530.5916182949502
3054 -530.6112489295457
3055 -530.6033115337957
3056 -530.6144077208543
3057 -530.604490550065
3058 -530.613176515747
3059 -530.6019117450013
3060 -530.6144052794635
3061 -530.6027226583107
3062 -530.6196623476978
3063 -530.6074279520246
3064 -530.6193645828271
3065 -530.6116383361106
3066 -530.6143313363845
3067 -530.6065729396909
3068 -530.6083529949877
3069 -530.595333303051
3070 -530.6051816905369
3071 -530.6039244140208
3072 -530.6148133773935
3073 -530.608640290515
3074 -530.6124688618886
3075 -530.6145321100747
3076 -530.6067784112113
3077 -530.6080842528512
3078 -530.608355979695
3079 -530.6181996303649
3080 -530.6117985793051
3081 -530.6255567296859
3082 -530.6158311999616
3083 -530.6261382905449
3084 -530.6042750432116
3085 -530.6033946549993
3086 -530.5935609850848
3087 -530.5978032619524
3088 -530.5975843645336
3089 -530.6009810541966
3090 -530.5990271754297
3091 -530.6146765320577
3092 -530.6084093949305
3093 -530.6078860021992
3094 -530.6067822378971
3095 -530.6007150855132
3096 -530.5958839039241
3097 -530.5918038606873
3098 -530.5902476608422
3099 -530.5890016020585
3100 -530.5969950486656
3101 -530.5846969759451
3102 -530.6017567859882
3103 -530.5865410122245
3104 -530.5961557099353
3105 -530.5838483417573
3106 -530.5857082748716
3107 -530.5814890087238
3108 -530.5860645610888
3109 -530.5888302515018
3110 -530.593463486544
3111 -530.5954821537296
3112 -530.6075209168984
3113 -530.5931134500304
3114 -530.6124413952369
3115 -530.6034175499369
3116 -530.6157749862409
3117 -530.6002055804244
3118 -530.6247298802361
3119 -530.6145092462976
3120 -530.623134288044
3121 -530.6161717015572
3122 -530.6232006586459
3123 -530.625986770395
3124 -530.6299299175395
3125 -530.6226887652404
3126 -530.6297271653034
3127 -530.6264565180576
3128 -530.6281726685431
3129 -530.6251373895732
3130 -530.6287507746788
3131 -530.633914541216
3132 -530.6378537556375
3133 -530.6421958911208
3134 -530.6393518543025
3135 -530.6354640000043
3136 -530.6286815832825
3137 -530.6326874856492
3138 -530.6238344799802
3139 -530.6273837775088
3140 -530.6114291005422
3141 -530.6159717476636
3142 -530.6071747917832
3143 -530.6192432819847
3144 -530.6147529152814
3145 -530.6078282043924
3146 -530.616835148097
3147 -530.6092658221744
3148 -530.6212360620607
3149 -530.6084197513702
3150 -530.6156410385755
3151 -530.6034160667756
3152 -530.6104406338612
3153 -530.5952779111751
3154 -530.6103444944143
3155 -530.5955022788872
3156 -530.6078703001091
3157 -530.6005030325435
3158 -530.6008486215686
3159 -530.5953679032383
3160 -530.5925016514047
3161 -530.5733770263165
3162 -530.5888652328491
3163 -530.5760241162586
3164 -530.5828960403098
3165 -530.5669256656171
3166 -530.579680806454
3167 -530.5712000762184
3168 -530.5843093151572
3169 -530.5687871018255
3170 -530.5883625666769
3171 -530.5770064810662
3172 -530.5901960493422
3173 -530.5880453629052
3174 -530.5967464293016
3175 -530.598036321299
3176 -530.6048953160391
3177 -530.6008298506829
3178 -530.6137399141128
3179 -530.6098413629974
3180 -530.6163330268865
3181 -530.6257498292866
3182 -530.6281811949196
3183 -530.6293220786471
3184 -530.6311082558314
3185 -530.6251400005018
3186 -530.6350749448081
3187 -530.6174361742712
3188 -530.6265320983192
3189 -530.6155108814993
3190 -530.6241505128962
3191 -530.6164813008254
3192 -530.6316910994771
3193 -530.6297156766689
3194 -530.6325789742037
3195 -530.6315575259107
3196 -530.6257266661478
3197 -530.6250911524551
3198 -530.6263516650591
3199 -530.6258663609399
3200 -530.631907406422
3201 -530.6205765389894
3202 -530.6298413060645
3203 -530.6143792376326
3204 -530.6231601095475
3205 -530.6088694769912
3206 -530.6194715716297
3207 -530.6163366340564
3208 -530.6215356776441
3209 -530.6233642133569
3210 -530.6243305487129
3211 -530.6266079495248
3212 -530.622629139561
3213 -530.6162264630508
3214 -530.6188472568258
3215 -530.6072189139009
3216 -530.6115234157841
3217 -530.5937011673032
3218 -530.6076379581095
3219 -530.5856167422102
3220 -530.5982565039429
3221 -530.5867214576277
3222 -530.5997526314087
3223 -530.5915927912686
3224 -530.601667645783
3225 -530.5925643283542
3226 -530.6049879422648
3227 -530.5964376645838
3228 -530.5974054825592
3229 -530.5921511121626
3230 -530.5921483909465
3231 -530.5936406403548
3232 -530.5817887425127
3233 -530.5822294592434
3234 -530.5674268549461
3235 -530.5833230529209
3236 -530.5793796017716
3237 -530.5837370572923
3238 -530.57554123856
3239 -530.5846498441344
3240 -530.5749557648674
3241 -530.5786980124981
3242 -530.5817272197589
3243 -530.5868435731721
3244 -530.5947819351832
3245 -530.5993882307514
3246 -530.5997780339897
3247 -530.6196220789212
3248 -530.6141722304637
3249 -530.6247734887371
3250 -530.626553129611
3251 -530.6431856678597
3252 -530.6329543511051
3253 -530.6470117397672
3254 -530.6333845487912
3255 -530.6525030109891
3256 -530.6418926931643
3257 -530.6554040944571
3258 -530.6533524451388
3259 -530.666881179657
3260 -530.6523326928311
3261 -530.6546644238842
3262 -530.6419897815867
3263 -530.6379514733989
3264 -530.6248744560667
3265 -530.6169169393594
3266 -530.6185361313197
3267 -530.6125565444598
3268 -530.6137175600875
3269 -530.6099156031706
3270 -530.6070670507111
3271 -530.6081932810596
3272 -530.6034579014643
3273 -530.6000873265999
3274 -530.6065683224223
3275 -530.5992594536706
3276 -530.6051589492838
3277 -530.6025736829259
3278 -530.5975189157385
3279 -530.6038196370154
3280 -530.5950867236211
3281 -530.5874474008989
3282 -530.58986200675
3283 -530.5865791371515
3284 -530.5845696082901
3285 -530.583785253954
3286 -530.5818572887315
3287 -530.5768139947497
3288 -530.5733486749359
3289 -530.5676609468208
3290 -530.5651341812753
3291 -530.5693315747591
3292 -530.5664328389691
3293 -530.5811176007562
3294 -530.5702416056437
3295 -530.592920602732
3296 -530.5726983207165
3297 -530.5859308099015
3298 -530.5833560383485
3299 -530.5942987922094
3300 -530.5943130061455
3301 -530.6088517984858
3302 -530.6112457755622
3303 -530.623332329369
3304 -530.6178162373794
3305 -530.6143874900266
3306 -530.6162073261348
3307 -530.6235647300941
3308 -530.6163678671757
3309 -530.6254271574672
3310 -530.6232860875062
3311 -530.6354298945487
3312 -530.6245007110058
3313 -530.6347184797798
3314 -530.625333705932
3315 -530.6333870648241
3316 -530.6263048107978
3317 -530.6232662530618
3318 -530.6235678292254
3319 -530.621576050057
3320 -530.6162398286178
3321 -530.610664087247
3322 -530.602466012374
3323 -530.6008785506116
3324 -530.5972589515844
3325 -530.5842776747978
3326 -530.5975012624548
3327 -530.5849108553965
3328 -530.5906743866036
3329 -530.5754224583922
3330 -530.5886207664537
3331 -530.5766803024459
3332 -530.5838581600409
3333 -530.5772681044161
3334 -530.5862764022594
3335 -530.5844984240338
3336 -530.5939857719479
3337 -530.5815686972921
3338 -530.6013252176044
3339 -530.5948578580674
3340 -530.6033039895009
3341 -530.595404217745
3342 -530.6076339939405
3343 -530.6110670382145
3344 -530.610093249301
3345 -530.6115451911943
3346 -530.6150172307636
3347 -530.6185678555476
3348 -530.6055376962045
3349 -530.6110930733284
3350 -530.6014932334413
3351 -530.6176820570194
3352 -530.6051465489201
3353 -530.6224513368129
3354 -530.6107662515446
3355 -530.6123648527088
3356 -530.6113897071367
3357 -530.609558235033
3358 -530.6061172553251
3359 -530.6065718095347
3360 -530.599926895007
3361 -530.6132304683332
3362 -530.6059362286131
3363 -530.6092613866007
3364 -530.6163571326136
3365 -530.6146647442187
3366 -530.6112305580486
3367 -530.619033460167
3368 -530.6164964621526
3369 -530.622233167857
3370 -530.6180494061095
3371 -530.6203006424677
3372 -530.6226389937457
3373 -530.6267344318848
3374 -530.6223236169028
3375 -530.6283470220101
3376 -530.6233680030682
3377 -530.630000358965
3378 -530.629420671328
3379 -530.6225143586603
3380 -530.6375513409622
3381 -530.6282532566028
3382 -530.6432752913604
3383 -530.6341451960013
3384 -530.6426103328914
3385 -530.6334120677587
3386 -530.6427694015817
3387 -530.6132441019462
3388 -530.6384777702596
3389 -530.6062746913732
3390 -530.6248050863439
3391 -530.6008109519883
3392 -530.6151803485119
3393 -530.6010387724737
3394 -530.600449980401
3395 -530.5936899269393
3396 -530.5954752129203
3397 -530.5848172890941
3398 -530.582051433694
3399 -530.5733461210901
3400 -530.580052109915
3401 -530.5683293391141
3402 -530.5696961864569
3403 -530.5589945270525
3404 -530.5777547605932
3405 -530.5688837803365
3406 -530.5781098219931
3407 -530.5772237014922
3408 -530.5864882170135
3409 -530.5867841370127
3410 -530.5851494918372
3411 -530.5858054266795
3412 -530.6048282968022
3413 -530.6026537323544
3414 -530.6053634768206
3415 -530.6053243733832
3416 -530.6021169178883
3417 -530.606865012549
3418 -530.6000576480407
3419 -530.5999936081406
3420 -530.6082008260073
3421 -530.6018825032825
3422 -530.6051813154227
3423 -530.6035491897352
3424 -530.6063477895094
3425 -530.6072662595139
3426 -530.6149664994106
3427 -530.6099272741225
3428 -530.6215797477421
3429 -530.6187887467319
3430 -530.6321148131341
3431 -530.6358636694114
3432 -530.6422410446745
3433 -530.6555061832486
3434 -530.6547518825124
3435 -530.653418861089
3436 -530.6534420137278
3437 -530.6547560298013
3438 -530.6518369053601
3439 -530.6517242051872
3440 -530.6543664068969
3441 -530.6432663586116
3442 -530.6493768467707
3443 -530.6334054472837
3444 -530.6344217911691
3445 -530.6164433943222
3446 -530.6216151449811
3447 -530.6077467894137
3448 -530.6138951098236
3449 -530.5976640700051
3450 -530.6081499748177
3451 -530.5984860982535
3452 -530.5929646972205
3453 -530.5888965192516
3454 -530.5844833710248
3455 -530.5849977639974
3456 -530.5836000961745
3457 -530.5922010591685
3458 -530.5856893469318
3459 -530.5886998844945
3460 -530.5838083124385
3461 -530.5873094749561
3462 -530.5756283684896
3463 -530.5831862432876
3464 -530.5739900938584
3465 -530.5811649643266
3466 -530.5742995186882
3467 -530.5822057745709
3468 -530.5888969795332
3469 -530.5989754515601
3470 -530.5896371597122
3471 -530.6051077100315
3472 -530.5830548008353
3473 -530.5915046513356
3474 -530.5769664142567
3475 -530.5850777938462
3476 -530.5809027800065
3477 -530.5893708533952
3478 -530.5787564714532
3479 -530.596168786092
3480 -530.5874031244375
3481 -530.6055286733216
3482 -530.590048268538
3483 -530.6034340578764
3484 -530.5997607717487
3485 -530.6060391089784
3486 -530.6056295570121
3487 -530.6053684676386
3488 -530.6072884853174
3489 -530.6057253581808
3490 -530.6121868755815
3491 -530.605149969402
3492 -530.6001412354805
3493 -530.6058062613013
3494 -530.598551573281
3495 -530.5980253484887
3496 -530.6026852863698
3497 -530.6078766782047
3498 -530.6122806909652
3499 -530.6124082503372
3500 -530.6291048865944
3501 -530.6196452475866
3502 -530.63457982004
3503 -530.6174978877337
3504 -530.632328814371
3505 -530.6194530072175
3506 -530.6366609629237
3507 -530.6342159556601
3508 -530.6426820126791
3509 -530.6308992588839
3510 -530.6431688087072
3511 -530.6343958966385
3512 -530.6426741061075
3513 -530.6202163807737
3514 -530.6221636967731
3515 -530.6061346545461
3516 -530.6151841752549
3517 -530.598207861522
3518 -530.6135998501558
3519 -530.5998535153923
3520 -530.6029352081398
3521 -530.5981101543122
3522 -530.586284547555
3523 -530.5911123337673
3524 -530.5686601500533
3525 -530.5778516222789
3526 -530.5736853365155
3527 -530.5910831450259
3528 -530.5867708466542
3529 -530.5904414782559
3530 -530.5931339247602
3531 -530.5941426239382
3532 -530.5974455851866
3533 -530.5923924429737
3534 -530.6058072025372
3535 -530.6006326800772
3536 -530.6077209436572
3537 -530.5968586013171
3538 -530.6005628074375
3539 -530.5927569218314
3540 -530.59906852599
3541 -530.5892226369033
3542 -530.6028096667624
3543 -530.5995928963551
3544 -530.6137142319676
3545 -530.6169444553137
3546 -530.6192615763099
3547 -530.6183106520142
3548 -530.6191908862163
3549 -530.6153406757975
3550 -530.6297493617435
3551 -530.6274623893086
3552 -530.6309956728862
3553 -530.6348208293761
3554 -530.6407309228628
3555 -530.638261427905
3556 -530.641216534718
3557 -530.6303024997919
3558 -530.6477956100622
3559 -530.6352849606056
3560 -530.6452530359702
3561 -530.6256014820672
3562 -530.6344313340578
3563 -530.6232296915529
3564 -530.6330240033838
3565 -530.6172898672752
3566 -530.6322260230876
3567 -530.618042750863
3568 -530.6217754108453
3569 -530.6107057330968
3570 -530.5997001288653
3571 -530.5948413441793
3572 -530.585447701204
3573 -530.5787893338247
3574 -530.5744162589411
3575 -530.5835388281263
3576 -530.5799948605217
3577 -530.579691902896
3578 -530.5842095765337
3579 -530.5889628118032
3580 -530.5926106967984
3581 -530.597900206665
3582 -530.5859743752669
3583 -530.5942536526458
3584 -530.5795965454491
3585 -530.5882545508344
3586 -530.5787567790467
3587 -530.5926022487293
3588 -530.5887229768955
3589 -530.6035549420615
3590 -530.5911339295286
3591 -530.611610052092
3592 -530.5982471063251
3593 -530.6133579538051
3594 -530.6083156740875
3595 -530.6261027408456
3596 -530.6124961406761
3597 -530.6322401257744
3598 -530.6194242049031
3599 -530.6261524528743
3600 -530.6307870721149
3601 -530.6291552784389
3602 -530.622697167526
3603 -530.6259359085138
3604 -530.6276321388584
3605 -530.6304181375659
3606 -530.6238801382111
3607 -530.6262716065082
3608 -530.6212981541252
3609 -530.6251424759862
3610 -530.6173197947581
3611 -530.61177314911
3612 -530.6090116403739
3613 -530.6074057040768
3614 -530.6007028267978
3615 -530.5991980076944
3616 -530.6055902560516
3617 -530.5949605343308
3618 -530.6063801342711
3619 -530.6034526858024
3620 -530.6120451590532
3621 -530.6160543562991
3622 -530.6108578264226
3623 -530.6130158501378
3624 -530.6223302437594
3625 -530.6166246994904
3626 -530.6204059572859
3627 -530.6185318029878
3628 -530.6185404889761
3629 -530.6078779457498
3630 -530.6111840729311
3631 -530.5965342810135
3632 -530.5998451882726
3633 -530.5949265157819
3634 -530.5847364471035
3635 -530.5884959611744
3636 -530.5759626056771
3637 -530.5849227694724
3638 -530.574275116389
3639 -530.5780365626981
3640 -530.5826358415142
3641 -530.5864389588444
3642 -530.5824080202707
3643 -530.5803935996117
3644 -530.5716926307948
3645 -530.5773324365739
3646 -530.568600368762
3647 -530.5719921436262
3648 -530.5719298924716
3649 -530.5889191254437
3650 -530.584162918865
3651 -530.5989948603379
3652 -530.5924301134909
3653 -530.6001856059951
3654 -530.6080125780461
3655 -530.609779240128
3656 -530.6140762364432
3657 -530.6119149429951
3658 -530.6174192522687
3659 -530.6166089339465
3660 -530.6186127567798
3661 -530.6087871115615
3662 -530.6110916524306
3663 -530.594693649799
3664 -530.6126534090234
3665 -530.6023465651673
3666 -530.6137799057852
3667 -530.6152389949206
3668 -530.6273674944052
3669 -530.6287465368368
3670 -530.6360087293801
3671 -530.6374979166475
3672 -530.6500868681359
3673 -530.6454669145932
3674 -530.6462275150312
3675 -530.6427499524852
3676 -530.6503881690281
3677 -530.6333476386719
3678 -530.6313247671111
3679 -530.6122399376201
3680 -530.6218611456878
3681 -530.6039176281058
3682 -530.6151987374801
3683 -530.6088708434669
3684 -530.6200231285061
3685 -530.6142419780716
3686 -530.6149631322875
3687 -530.60232825456
3688 -530.6141879339776
3689 -530.5971251732736
3690 -530.6038149447788
3691 -530.5953241515826
3692 -530.6007829630379
3693 -530.5996185535403
3694 -530.6057079607509
3695 -530.6021430605285
3696 -530.614369715526
3697 -530.615633589664
3698 -530.6209367525054
3699 -530.6153045011956
3700 -530.619469201122
3701 -530.6104249480881
3702 -530.6015238945886
3703 -530.5922524969377
3704 -530.591424028491
3705 -530.5766628596339
3706 -530.5781818390891
3707 -530.571375167239
3708 -530.5713814041025
3709 -530.5690089072256
3710 -530.5631304763622
3711 -530.5602717920657
3712 -530.5706647205399
3713 -530.5638920295763
3714 -530.5776528173261
3715 -530.5800236928354
3716 -530.5995843120652
3717 -530.597243700671
3718 -530.6088689836337
3719 -530.6008165285648
3720 -530.6256691208697
3721 -530.6163013904134
3722 -530.6306043377386
3723 -530.6235755309007
3724 -530.632977800542
3725 -530.6236130881218
3726 -530.6363667724567
3727 -530.6243706258182
3728 -530.6324434895844
3729 -530.6227014599945
3730 -530.6301662297485
3731 -530.611781688689
3732 -530.635086413074
3733 -530.6195059912164
3734 -530.6270945206281
3735 -530.6160891110233
3736 -530.6177808520366
3737 -530.6155797849782
3738 -530.6212580536951
3739 -530.6174169392742
3740 -530.6231976039148
3741 -530.6202649467298
3742 -530.6178871076644
3743 -530.6127768569949
3744 -530.6108471492688
3745 -530.6105406974774
3746 -530.6030241373816
3747 -530.6074156928246
3748 -530.6010103576768
3749 -530.6074546904835
3750 -530.6020571712363
3751 -530.6041168430608
3752 -530.5980925946967
3753 -530.5892241550072
3754 -530.5915250024983
3755 -530.580763292455
3756 -530.5753028398723
3757 -530.5745880508831
3758 -530.5727842881846
3759 -530.5819481015191
3760 -530.5804857345745
3761 -530.5827554066171
3762 -530.5900753631961
3763 -530.5927483478749
3764 -530.5942321860042
3765 -530.595911782758
3766 -530.5976253157775
3767 -530.6023908056446
3768 -530.6099453433684
3769 -530.6098545336288
3770 -530.6285041683111
3771 -530.6243185500977
3772 -530.6323669419152
3773 -530.6140412800676
3774 -530.6201152091113
3775 -530.6070899290688
3776 -530.6151896704591
3777 -530.5914897930644
3778 -530.6109912613806
3779 -530.601446967662
3780 -530.6132804827326
3781 -530.6079866678807
3782 -530.6167594692718
3783 -530.6143690788971
3784 -530.6168833883577
3785 -530.6077302740862
3786 -530.6313931228156
3787 -530.6316727222825
3788 -530.6456493137546
3789 -530.6387621156197
3790 -530.6449810755979
3791 -530.6371500066125
3792 -530.6427665089902
3793 -530.6315401245625
3794 -530.6442736512198
3795 -530.6397865236237
3796 -530.6447783313687
3797 -530.6444899414897
3798 -530.6352567655312
3799 -530.6293912333621
3800 -530.6126340632162
3801 -530.6003788975131
3802 -530.5962473326392
3803 -530.5883055728689
3804 -530.5873916589392
3805 -530.582208033991
3806 -530.5729756171173
3807 -530.5852874910329
3808 -530.566496942605
3809 -530.578498243268
3810 -530.5713018498391
3811 -530.588551755979
3812 -530.5734541298621
3813 -530.5942837491546
3814 -530.5805462308704
3815 -530.5979601710388
3816 -530.5881935132783
3817 -530.5962457861881
3818 -530.6053198742775
3819 -530.6117942820638
3820 -530.6141395322447
3821 -530.6232146126894
3822 -530.6123376007414
3823 -530.620247180135
3824 -530.603698179872
3825 -530.6043478329298
3826 -530.6029808176695
3827 -530.6004188839801
3828 -530.5992138931563
3829 -530.5964427151479
3830 -530.6018870761825
3831 -530.5988427335689
3832 -530.6016117916325
3833 -530.5914359789197
3834 -530.6042463436472
3835 -530.6015087402653
3836 -530.6097754658985
3837 -530.608321520329
3838 -530.6124253602525
3839 -530.6264296362463
3840 -530.6367902953008
3841 -530.6351542060881
3842 -530.649126766943
3843 -530.6371973621698
3844 -530.6466771111345
3845 -530.6369115241794
3846 -530.6347434370248
3847 -530.6381433214577
3848 -530.6346468761174
3849 -530.6298043340481
3850 -530.6374283250259
3851 -530.6331927932375
3852 -530.6315548585776
3853 -530.633182252243
3854 -530.6184386016228
3855 -530.6260552938994
3856 -530.6067520017375
3857 -530.6030670136824
3858 -530.5984856142397
3859 -530.5976015193766
3860 -530.5904486620061
3861 -530.5949255266937
3862 -530.5898071282722
3863 -530.5984185268636
3864 -530.5965490223825
3865 -530.586655910211
3866 -530.5883153292366
3867 -530.5921681490432
3868 -530.5895233716612
3869 -530.6002114202495
3870 -530.5943970484282
3871 -530.6140812605222
3872 -530.6054259773218
3873 -530.6041035561969
3874 -530.6010382447701
3875 -530.6020390318538
3876 -530.5980022068175
3877 -530.5957438058905
3878 -530.5983922765892
3879 -530.6072142961516
3880 -530.6042291424834
3881 -530.6130143526666
3882 -530.600005213572
3883 -530.614433010218
3884 -530.6007923665413
3885 -530.5943766539705
3886 -530.5984587210754
3887 -530.5898272891002
3888 -530.594759300449
3889 -530.5932512554657
3890 -530.5978954765435
3891 -530.5886178754354
3892 -530.6024278467396
3893 -530.5780529098146
3894 -530.6020455548987
3895 -530.5842126013756
3896 -530.6052085833431
3897 -530.5946849572019
3898 -530.6100172939557
3899 -530.6028031409259
3900 -530.6057333740849
3901 -530.6011758244797
3902 -530.6029038446753
3903 -530.6038705020989
3904 -530.6045468536903
3905 -530.6063373337968
3906 -530.6189830319581
3907 -530.6217443211314
3908 -530.6444006542949
3909 -530.6442535228207
3910 -530.6386954465125
3911 -530.6383737927648
3912 -530.6262595738455
3913 -530.628786168774
3914 -530.6232456551961
3915 -530.6208547328777
3916 -530.6266828534833
3917 -530.6353739699205
3918 -530.6330631121633
3919 -530.6424321538811
3920 -530.6247248314178
3921 -530.6337319668017
3922 -530.611690231324
3923 -530.6136115292516
3924 -530.613534182633
3925 -530.6170605068025
3926 -530.6107535988983
3927 -530.6151746695052
3928 -530.6024002790591
3929 -530.6089414209347
3930 -530.5905736734807
3931 -530.6028082122567
3932 -530.5946548431612
3933 -530.6037259733246
3934 -530.5851735602248
3935 -530.6031603862485
3936 -530.5877153091927
3937 -530.6008760623805
3938 -530.5895864186516
3939 -530.5886485876231
3940 -530.5905105462225
3941 -530.5865320835134
3942 -530.5924423276299
3943 -530.5923140122388
3944 -530.5944239637996
3945 -530.5962473542163
3946 -530.6004816419876
3947 -530.5920303368268
3948 -530.5962756874611
3949 -530.5943605345684
3950 -530.6046005697461
3951 -530.6070874724293
3952 -530.6152219925749
3953 -530.6155033885766
3954 -530.6249925588357
3955 -530.6170616414822
3956 -530.6291291915152
3957 -530.616005472131
3958 -530.6256630513265
3959 -530.620169832727
3960 -530.6241992457713
3961 -530.6279477589126
3962 -530.6255732862115
3963 -530.6215694519194
3964 -530.6281358943011
3965 -530.6244191600825
3966 -530.6306306506707
3967 -530.6325308005976
3968 -530.6247693720003
3969 -530.6300282760806
3970 -530.619628210065
3971 -530.6215884771149
3972 -530.6200648724961
3973 -530.6293646167095
3974 -530.6217323418349
3975 -530.6311408488832
3976 -530.6199006287233
3977 -530.6310847319895
3978 -530.6143971385603
3979 -530.6180115245199
3980 -530.6152363398222
3981 -530.6107639555312
3982 -530.6105107636483
3983 -530.6136207484525
3984 -530.6087095618234
3985 -530.6111700433166
3986 -530.6013321320827
3987 -530.5903404502808
3988 -530.593120044132
3989 -530.5825261285113
3990 -530.5807313613013
3991 -530.5775584648371
3992 -530.5769043534696
3993 -530.5717034729475
3994 -530.5739142815875
3995 -530.5778819433664
3996 -530.5911084584978
3997 -530.5905293716781
3998 -530.5968285069711
3999 -530.5999255951474
4000 -530.6038286702076
4001 -530.5997172701857
4002 -530.6076527968499
4003 -530.5922298632057
4004 -530.6113436482735
4005 -530.6062098037195
4006 -530.6225827214588
4007 -530.6090124397839
4008 -530.6230034304289
4009 -530.6175426690721
4010 -530.6204675859321
4011 -530.613030573279
4012 -530.6277762297279
4013 -530.6159716806147
4014 -530.6258213262051
4015 -530.6114969176531
4016 -530.6155057383895
4017 -530.6104196279946
4018 -530.6158161048482
4019 -530.6084391987855
4020 -530.6208499736024
4021 -530.6185998176451
4022 -530.6140537620005
4023 -530.6111519146918
4024 -530.6113129347615
4025 -530.6139155355072
4026 -530.6179734636703
4027 -530.621983097708
4028 -530.6336891308042
4029 -530.6367301706389
4030 -530.6303347362312
4031 -530.6298578410776
4032 -530.6178241395609
4033 -530.6198098646189
4034 -530.6035743487312
4035 -530.6173902275243
4036 -530.602801694683
4037 -530.6210488408421
4038 -530.6036896324811
4039 -530.6150413878482
4040 -530.6080914497232
4041 -530.6074426856876
4042 -530.5952721457082
4043 -530.5987856133253
4044 -530.5793609918927
4045 -530.5893602160801
4046 -530.5772268554929
4047 -530.5837520849836
4048 -530.5851353530351
4049 -530.5824118765499
4050 -530.5781896611579
4051 -530.5761199899924
4052 -530.5681161335829
4053 -530.5774654006113
4054 -530.5732994886077
4055 -530.590103763435
4056 -530.5837342378328
4057 -530.5973983152101
4058 -530.5838462386124
4059 -530.5969742835308
4060 -530.5876976832557
4061 -530.5800864041182
4062 -530.5840069447464
