"mx-rfile"
"Iteration" "mx"
("Iteration" "mx")
1 14562.21625653469
2 14451.5773315179
3 13247.77044880123
4 12099.21598146521
5 10512.91240210964
6 9353.425407140816
7 7971.396917598459
8 6773.219747982748
9 5594.669366795265
10 4621.36545789355
11 3735.058038180335
12 3026.336376874141
13 2614.825066896244
14 2373.057107911357
15 2326.88971249155
16 2408.70675151768
17 2568.5282780493
18 2809.678060796305
19 3060.609923989218
20 3327.455839426506
21 3599.109020989922
22 3857.469109142125
23 4069.454684275203
24 4290.838358970216
25 4478.749253636573
26 4638.106111449782
27 4783.542326815468
28 4897.146125529315
29 4982.960658659316
30 5049.594560244123
31 5099.382745097706
32 5138.621121458507
33 5167.383874820138
34 5193.236810777297
35 5214.828792790993
36 5236.387940824475
37 5255.632245971676
38 5276.90740489113
39 5296.684399320535
40 5318.940473708642
41 5342.460442875095
42 5367.175754718823
43 5396.516107978426
44 5424.69108640938
45 5454.624927154167
46 5481.418481996364
47 5505.37195301519
48 5527.214706268001
49 5546.678002882212
50 5564.495788370461
51 5579.33213084872
52 5596.100523126465
53 5608.099210386843
54 5623.191550566825
55 5633.698816091617
56 5648.103823247838
57 5659.882237863501
58 5672.648918886339
59 5683.049161670799
60 5694.790333882533
61 5706.961078714576
62 5723.350239643265
63 5734.975238864949
64 5750.419779762058
65 5763.787441526929
66 5775.884449053436
67 5786.28948070213
68 5795.494920377825
69 5803.308132857946
70 5810.11637383029
71 5815.737517234236
72 5820.71229789321
73 5824.560973500423
74 5828.163085314151
75 5831.047795368074
76 5833.2709874504
77 5835.985148912682
78 5838.035598870308
79 5840.178946379034
80 5842.551804641177
81 5844.782975719968
82 5847.313895503744
83 5849.641083713088
84 5852.186506820784
85 5853.8327997577
86 5856.732822827174
87 5859.172267985614
88 5861.499431712447
89 5863.343630570199
90 5865.18959111715
91 5866.597760013336
92 5867.916463414122
93 5868.827557171195
94 5869.698922718879
95 5870.241074142753
96 5870.774823987938
97 5871.043954739669
98 5871.271287238947
99 5871.286293831767
100 5871.339340116643
101 5871.236863711654
102 5871.30799518072
103 5871.177555459748
104 5871.335511349112
105 5871.403855182719
106 5871.67176576886
107 5871.971414704391
108 5872.338518444844
109 5872.659390895083
110 5873.318937728958
111 5873.904537088687
112 5875.029066616876
113 5875.651874054331
114 5876.593961928961
115 5877.402576215353
116 5878.9034178474
117 5879.682593605724
118 5880.726593067598
119 5881.622898569337
120 5883.192711825403
121 5883.993329635809
122 5885.085180819472
123 5885.971600980523
124 5887.574149694843
125 5888.395523967691
126 5889.550604995204
127 5890.57150146379
128 5891.890836074832
129 5893.043159427674
130 5894.498773640038
131 5895.784903865348
132 5897.400905133345
133 5898.904512130521
134 5900.683193964894
135 5902.333319201964
136 5904.330787673719
137 5906.130057052437
138 5908.211637172452
139 5910.16347831096
140 5912.40189775088
141 5914.415068317298
142 5916.738240283736
143 5918.886868689601
144 5921.328302864739
145 5923.559257440022
146 5926.062238824235
147 5928.362803712116
148 5930.935993321159
149 5934.421057304091
150 5936.84316654789
151 5939.063065828559
152 5941.53413818782
153 5944.833624399825
154 5947.120389543873
155 5949.189136275141
156 5952.485610451444
157 5954.415057154734
158 5956.558076972065
159 5959.4222486438
160 5961.479662193304
161 5963.326817503243
162 5966.312488150101
163 5968.019572754659
164 5970.825809979512
165 5972.45421659588
166 5975.17122108997
167 5976.725126146602
168 5978.532794121497
169 5980.931908420414
170 5982.652430284202
171 5984.908673129598
172 5986.580557328304
173 5988.703020503484
174 5990.276977725802
175 5992.301676360932
176 5993.775241513858
177 5995.674764497629
178 5997.081269118774
179 5998.797175919266
180 6000.114919111613
181 6001.686184735421
182 6002.9152185693
183 6004.425448939322
184 6005.542300627996
185 6006.884411810443
186 6007.943546990336
187 6009.199830907873
188 6010.16203361831
189 6011.285817936444
190 6012.176091224555
191 6013.165185132051
192 6013.966711255613
193 6014.82618964065
194 6015.545027040072
195 6016.273848307271
196 6016.92243712386
197 6017.358422497598
198 6018.233664281358
199 6018.599540245886
200 6019.171913949761
201 6019.722191560577
202 6020.231438208833
203 6020.528407271262
204 6021.030552142312
205 6021.320545990152
206 6021.810204222818
207 6022.07681965002
208 6022.718057348179
209 6022.92865723878
210 6023.332249589079
211 6023.525835857427
212 6023.93398703403
213 6024.111878549955
214 6024.48175736264
215 6024.620576084732
216 6024.957075555205
217 6025.07357217711
218 6025.395165175546
219 6025.490015450036
220 6025.802366912201
221 6025.873396839268
222 6026.170658457178
223 6026.211829719346
224 6026.496172842538
225 6026.535101567124
226 6026.794792278966
227 6026.801286086179
228 6027.063214801899
229 6027.083866077673
230 6027.353505014439
231 6027.379942784008
232 6027.662560167229
233 6027.718380493779
234 6028.017580206389
235 6028.095809855575
236 6028.410542221872
237 6028.514109459529
238 6028.864383264326
239 6028.997068934083
240 6029.386560639377
241 6029.572458776961
242 6030.006659128656
243 6030.241144357565
244 6030.719118247654
245 6030.997633135935
246 6031.525592867712
247 6031.857739782195
248 6032.429702687676
249 6032.813983781884
250 6033.445301926712
251 6033.872965256292
252 6034.543043883894
253 6035.025541655596
254 6035.733847384353
255 6036.251170322824
256 6037.011834789942
257 6037.593714661403
258 6038.423715612499
259 6039.052180045901
260 6039.927666694201
261 6040.598775351482
262 6041.526676552104
263 6042.241161262982
264 6043.203562486311
265 6043.961587130262
266 6044.977753560759
267 6045.765323739446
268 6046.817450631348
269 6047.657221745246
270 6048.765125551897
271 6049.647846880604
272 6050.800128090969
273 6051.725499218416
274 6052.912860853653
275 6053.873091253518
276 6055.092146684678
277 6056.095506228507
278 6057.352460535652
279 6058.387660588412
280 6059.695850236312
281 6060.776261865578
282 6062.116669119065
283 6063.227895328519
284 6064.603670480624
285 6065.749139219079
286 6067.161933738271
287 6068.334932415272
288 6069.785233087736
289 6071.002741965987
290 6073.126454124399
291 6074.292148171632
292 6075.724149814405
293 6077.531784887546
294 6078.919433109295
295 6080.07057008063
296 6082.090430889392
297 6083.204695532857
298 6084.592075592925
299 6086.333596270817
300 6087.694541132244
301 6089.405104086231
302 6090.744991967505
303 6092.435619070863
304 6093.764096382419
305 6095.462280349217
306 6096.800922042664
307 6098.500199734611
308 6099.831647957564
309 6101.545330734817
310 6102.883158471426
311 6104.601532033822
312 6106.517151736765
313 6107.605473689103
314 6109.546550201623
315 6110.648796905608
316 6112.628094391623
317 6114.322004583278
318 6115.661029760445
319 6117.404194934084
320 6119.351905263028
321 6121.045616454087
322 6122.366266348537
323 6124.076703934857
324 6125.998605346086
325 6127.084956441848
326 6129.04352341405
327 6130.718872693984
328 6132.628286770801
329 6134.24746315187
330 6136.095656192132
331 6137.138278467131
332 6139.047388200546
333 6140.694929146641
334 6142.550976501218
335 6144.15292809412
336 6145.978917618009
337 6147.52914862362
338 6149.322985559538
339 6150.846510362711
340 6152.085536868498
341 6153.693177476494
342 6155.523946606958
343 6157.091495335503
344 6158.89190052509
345 6160.440117789998
346 6162.218165364884
347 6163.748751186299
348 6165.514400549841
349 6167.018539770464
350 6168.748713157888
351 6170.222472488486
352 6171.945078437476
353 6173.408252293996
354 6175.131006547364
355 6176.581179549365
356 6178.293543182425
357 6179.738556343433
358 6181.427581107878
359 6182.851223836868
360 6184.530166328177
361 6185.945384782822
362 6187.125109719525
363 6188.630371699768
364 6190.382985721119
365 6191.871590413573
366 6193.60570368686
367 6195.081227705004
368 6196.789090583357
369 6198.227774713701
370 6199.903400679109
371 6200.825435536728
372 6202.566852180049
373 6204.02921934794
374 6205.727099532653
375 6207.155571692365
376 6208.809336972789
377 6209.727253751577
378 6211.436409805548
379 6212.864792528081
380 6214.531783692044
381 6215.916036299604
382 6217.062865499207
383 6218.502447102166
384 6220.176985583672
385 6221.097305768347
386 6222.805317045521
387 6224.229209230159
388 6225.892121733941
389 6226.793464743359
390 6228.485907349519
391 6229.875518508447
392 6231.033775879252
393 6232.444811036633
394 6234.083148765852
395 6235.438472199945
396 6236.558523413775
397 6237.942330916894
398 6239.534733453912
399 6240.388353421318
400 6242.020620578908
401 6243.355666421148
402 6244.460468397906
403 6245.806334258443
404 6246.935836484413
405 6248.297133391145
406 6249.882794597508
407 6250.726073078425
408 6252.316755045245
409 6253.163218958784
410 6254.768665858657
411 6255.609950554286
412 6257.216244179549
413 6258.06464511958
414 6259.671396762296
415 6260.514647758261
416 6262.112606060156
417 6262.957908505967
418 6264.548271827613
419 6265.375923112683
420 6266.954904138472
421 6267.784608961422
422 6268.889232919108
423 6270.229600613059
424 6271.322209610618
425 6272.625695662749
426 6273.696617325996
427 6274.979756117588
428 6276.042982648518
429 6276.859160182657
430 6278.408045728122
431 6279.199165837219
432 6280.278408837692
433 6281.556108900555
434 6282.606634517446
435 6283.843224871625
436 6284.871291011229
437 6285.657621673151
438 6287.150120809231
439 6287.919695195355
440 6288.957762504336
441 6290.174888357702
442 6291.18536325469
443 6291.949969825947
444 6293.412604761257
445 6294.15402800484
446 6295.152198492306
447 6296.329090822774
448 6297.307939292158
449 6298.049367683803
450 6299.055276521728
451 6300.230436506758
452 6301.220890572178
453 6301.943502373443
454 6302.947619928936
455 6304.106624769564
456 6305.091964179131
457 6305.80294521953
458 6306.797433985706
459 6307.520934811903
460 6308.94737834116
461 6309.633453868228
462 6310.610487062278
463 6311.303884934544
464 6312.287449370009
465 6313.381021982662
466 6314.323660734392
467 6314.994648989483
468 6315.942300886397
469 6316.615798253712
470 6317.573638762417
471 6318.251099477433
472 6319.213002286194
473 6319.892821390279
474 6321.253859088664
475 6321.8933856708
476 6322.818785634729
477 6323.453194298016
478 6324.37029436601
479 6325.012177768639
480 6325.933246410254
481 6326.573964302573
482 6327.490065079674
483 6328.125694749619
484 6329.048950943106
485 6329.685278592396
486 6330.589655531669
487 6331.222755126358
488 6332.13002326114
489 6332.759873471495
490 6333.664195189648
491 6334.288976906441
492 6335.184252166729
493 6335.801543917115
494 6336.682009483802
495 6337.288508739339
496 6338.160776050737
497 6338.75249736599
498 6339.611531365616
499 6340.182523984169
500 6341.023906800868
501 6341.586267084332
502 6342.42758943248
503 6342.978443924833
504 6343.80483248669
505 6344.346688513542
506 6345.155917381684
507 6345.682791707312
508 6346.483312457389
509 6347.006710069229
510 6347.791990219189
511 6348.305466415449
512 6349.080666145143
513 6349.587188032677
514 6350.347832531327
515 6350.837599393863
516 6351.592354591711
517 6352.071636565213
518 6352.818897181932
519 6353.296105554642
520 6354.028276765924
521 6354.496400124293
522 6355.228225304023
523 6355.68764999296
524 6356.405275594935
525 6356.859392746311
526 6357.567774487986
527 6358.014906187085
528 6358.716406765879
529 6359.159560135358
530 6359.855274649354
531 6360.290014680929
532 6360.976373788088
533 6361.393496866069
534 6362.072593350881
535 6362.482373714902
536 6363.152719440344
537 6363.551438354049
538 6364.214494521969
539 6364.607456674687
540 6365.262633711608
541 6365.653909891898
542 6366.295878297589
543 6366.680158775667
544 6367.319882759953
545 6367.691533511211
546 6368.318605075403
547 6368.687859992579
548 6369.312502757006
549 6369.678161093311
550 6370.28456971628
551 6370.647244368182
552 6371.253762689043
553 6371.60624693639
554 6372.208004966425
555 6372.554733577792
556 6373.153545403814
557 6373.485240737313
558 6374.076061094951
559 6374.405041654778
560 6374.986603731899
561 6375.309022124035
562 6375.887554319475
563 6376.202234388687
564 6376.772746861699
565 6377.083114322795
566 6377.646554181301
567 6377.952653882546
568 6378.509420946522
569 6378.807901337797
570 6379.360653667054
571 6379.650677376287
572 6380.201801492428
573 6380.486055615989
574 6381.027198436217
575 6381.303716862474
576 6381.835010768083
577 6382.106051662276
578 6382.637623752775
579 6382.90048166893
580 6383.425613468268
581 6383.684964630273
582 6384.199987065045
583 6384.458395315191
584 6384.975187872828
585 6385.22491690954
586 6385.734245649015
587 6385.977895825839
588 6386.490114251343
589 6386.734190008313
590 6387.23489965993
591 6387.471637816716
592 6387.972026035735
593 6388.20812488824
594 6388.693806130645
595 6388.92379687044
596 6389.405171589904
597 6389.62805116548
598 6390.099385143133
599 6390.325127664399
600 6390.796534759193
601 6391.017402991484
602 6391.482387364914
603 6391.701781262523
604 6392.163297355532
605 6392.379033705412
606 6392.837867059915
607 6393.051071143782
608 6393.50377342615
609 6393.707839929481
610 6394.163793439036
611 6394.349817520585
612 6394.806467937992
613 6394.99505710078
614 6395.456597973498
615 6395.634945689758
616 6396.079769904467
617 6396.256498868064
618 6396.70563285199
619 6396.869324104932
620 6397.314170229064
621 6397.481696530597
622 6397.91994930494
623 6398.08331248134
624 6398.515988289446
625 6398.66859344516
626 6399.093918338274
627 6399.242290998105
628 6399.666419199746
629 6399.806508525224
630 6400.223814689391
631 6400.369431351006
632 6400.788872006716
633 6400.931436028705
634 6401.343368665939
635 6401.480655151142
636 6401.895275385114
637 6402.039184215035
638 6402.447309731234
639 6402.59050993154
640 6403.000024958232
641 6403.137666489146
642 6403.539698137718
643 6403.671585446108
644 6404.0761939718
645 6404.197869027224
646 6404.599596004719
647 6404.719781740476
648 6405.118030301475
649 6405.232798559457
650 6405.631127850769
651 6405.744346109307
652 6406.139439248452
653 6406.251180514403
654 6406.643697959576
655 6406.757668028472
656 6407.143986896526
657 6407.25662821074
658 6407.638224254643
659 6407.747590999354
660 6408.121801720067
661 6408.229985276672
662 6408.598334653507
663 6408.709712791601
664 6409.078620988334
665 6409.180790879407
666 6409.545498442497
667 6409.643944599223
668 6410.008734220964
669 6410.09709202983
670 6410.457673787164
671 6410.54645172339
672 6410.906384769343
673 6410.992427627324
674 6411.347190428803
675 6411.431513711377
676 6411.788890851458
677 6411.864619292272
678 6412.213538445749
679 6412.28735880598
680 6412.643363895298
681 6412.717373426718
682 6413.068475360245
683 6413.137090804947
684 6413.488337839501
685 6413.554005297377
686 6413.902897402478
687 6413.968442795411
688 6414.313181537254
689 6414.369940618019
690 6414.718089452738
691 6414.778478891649
692 6415.11310168355
693 6415.173869402233
694 6415.514838195989
695 6415.576422827017
696 6415.908097703178
697 6415.961112261248
698 6416.294610208621
699 6416.349441223551
700 6416.680191311808
701 6416.735878780178
702 6417.066389955135
703 6417.115429302821
704 6417.445743080361
705 6417.498505382185
706 6417.823409602649
707 6417.871452465027
708 6418.191331258739
709 6418.236346137762
710 6418.558653051651
711 6418.603191916452
712 6418.926461900262
713 6418.973055441029
714 6419.288439608667
715 6419.342165937765
716 6419.659071561522
717 6419.699487549548
718 6420.012094284405
719 6420.041389377372
720 6420.349601515489
721 6420.376211617622
722 6420.683590065248
723 6420.704540850342
724 6421.01557642012
725 6421.035152799874
726 6421.343626694406
727 6421.365133118826
728 6421.672730531287
729 6421.697408795983
730 6422.006390179589
731 6422.025878480925
732 6422.332106443656
733 6422.34823551274
734 6422.653739880394
735 6422.674454979968
736 6422.974073328559
737 6422.987420139729
738 6423.287724027168
739 6423.303845623043
740 6423.598622629254
741 6423.613764283122
742 6423.907632524011
743 6423.921415100655
744 6424.212173498583
745 6424.226419759269
746 6424.517066074844
747 6424.527305494256
748 6424.811797054937
749 6424.825254667122
750 6425.104824298037
751 6425.116070951929
752 6425.396712183729
753 6425.412181022392
754 6425.690578518634
755 6425.701258864316
756 6425.984168904338
757 6425.993456471351
758 6426.273826092574
759 6426.282022533302
760 6426.570347286371
761 6426.569791658021
762 6426.846181597769
763 6426.85024378689
764 6427.125371744809
765 6427.130024436432
766 6427.400125041841
767 6427.396685526492
768 6427.670894234099
769 6427.672757759848
770 6427.94121947244
771 6427.941070568939
772 6428.21362023751
773 6428.208606898303
774 6428.473752234071
775 6428.46854299921
776 6428.734764451371
777 6428.729972543163
778 6428.991950729161
779 6428.978797017277
780 6429.239735880323
781 6429.222230267995
782 6429.484014958171
783 6429.472921569316
784 6429.725695201774
785 6429.702916339285
786 6429.961141458652
787 6429.945528542465
788 6430.200748533173
789 6430.187086891644
790 6430.446077715222
791 6430.430641238472
792 6430.687504173104
793 6430.670222558949
794 6430.92864781493
795 6430.903276548184
796 6431.161900914324
797 6431.135448143803
798 6431.387260845897
799 6431.350999771906
800 6431.603994911045
801 6431.571376888151
802 6431.827306394333
803 6431.792945931872
804 6432.052694538575
805 6432.029846785149
806 6432.281764327215
807 6432.259515433143
808 6432.511696701927
809 6432.48162269762
810 6432.721720214453
811 6432.694627033032
812 6432.940827998644
813 6432.907066978929
814 6433.14647949893
815 6433.113898796305
816 6433.350582011618
817 6433.318617929151
818 6433.554256112099
819 6433.522059557488
820 6433.761425147577
821 6433.731640355773
822 6433.969031550657
823 6433.932180219005
824 6434.168087328443
825 6434.132111102082
826 6434.371180469837
827 6434.32617222815
828 6434.562777467924
829 6434.52648965388
830 6434.765618947683
831 6434.721688071282
832 6434.954419801259
833 6434.905405603114
834 6435.143828208991
835 6435.093875739783
836 6435.331895875051
837 6435.284145945861
838 6435.510456656076
839 6435.466676204069
840 6435.686712550187
841 6435.645558030718
842 6435.868215051278
843 6435.823795618508
844 6436.048923164426
845 6436.003097759388
846 6436.223668424085
847 6436.180596084493
848 6436.399585795439
849 6436.351900769171
850 6436.565241956476
851 6436.511832910151
852 6436.731612557795
853 6436.684776950729
854 6436.903369932733
855 6436.85318112814
856 6437.076970562471
857 6437.03061176146
858 6437.257478563418
859 6437.20158885579
860 6437.428820353819
861 6437.387653232068
862 6437.603259508858
863 6437.549641384149
864 6437.769437767059
865 6437.717118645263
866 6437.940258891106
867 6437.882578493091
868 6438.095833336078
869 6438.039376251138
870 6438.254606056208
871 6438.194783784827
872 6438.405286521183
873 6438.347609621897
874 6438.558495664235
875 6438.497369108024
876 6438.704242404181
877 6438.646299184498
878 6438.856332091476
879 6438.796147771768
880 6439.004067647047
881 6438.945612290978
882 6439.149960978451
883 6439.088361214458
884 6439.293968200495
885 6439.233526583908
886 6439.439808485332
887 6439.366965181562
888 6439.576019952291
889 6439.511148484326
890 6439.72026123083
891 6439.652810623196
892 6439.861265133118
893 6439.791821022597
894 6439.999128022911
895 6439.933027496482
896 6440.139503309533
897 6440.074733862218
898 6440.279383253423
899 6440.203561749584
900 6440.408453837318
901 6440.330851728912
902 6440.539056554355
903 6440.455926007956
904 6440.661089397979
905 6440.580382041269
906 6440.78390113334
907 6440.700867782773
908 6440.90769542576
909 6440.82779640892
910 6441.043002816002
911 6440.963668039209
912 6441.1751767182
913 6441.102048257814
914 6441.314578274413
915 6441.236389912111
916 6441.442268545824
917 6441.358226159556
918 6441.556699834586
919 6441.467584963162
920 6441.668952248358
921 6441.582188080974
922 6441.782826617175
923 6441.690236636121
924 6441.892546949306
925 6441.800858109409
926 6442.004398478173
927 6441.90901647234
928 6442.113990248032
929 6442.019703300622
930 6442.211699455484
931 6442.120960882608
932 6442.318119760804
933 6442.228462978977
934 6442.425853530971
935 6442.335909925828
936 6442.530732185553
937 6442.444015325146
938 6442.633158413847
939 6442.54736423769
940 6442.735992066478
941 6442.650291366745
942 6442.837334587797
943 6442.748551402018
944 6442.934518717229
945 6442.849636791179
946 6443.038795446494
947 6442.952683874769
948 6443.143779348934
949 6443.058649650813
950 6443.250588505947
951 6443.1620354038
952 6443.351513529225
953 6443.259333193769
954 6443.446621286056
955 6443.349156724978
956 6443.536600360901
957 6443.439500230516
958 6443.63468854023
959 6443.537051933498
960 6443.73246911337
961 6443.644130137918
962 6443.834089063132
963 6443.739377580686
964 6443.929848297002
965 6443.836821000792
966 6444.022465083776
967 6443.926184598767
968 6444.112089786567
969 6444.017582168711
970 6444.198622464216
971 6444.101343736286
972 6444.287599599568
973 6444.191471470567
974 6444.370453912647
975 6444.272783292494
976 6444.457966763986
977 6444.356646704378
978 6444.537410408941
979 6444.440434654281
980 6444.622716243187
981 6444.525613984282
982 6444.70678784347
983 6444.601972819394
984 6444.78334162063
985 6444.678797751671
986 6444.86358143944
987 6444.762036317413
988 6444.939949738555
989 6444.840492986537
990 6445.019773611408
991 6444.917399346945
992 6445.097808363289
993 6445.00003936168
994 6445.184956627434
995 6445.082113093191
996 6445.263656490907
997 6445.167199416913
998 6445.340013763797
999 6445.241193130189
1000 6445.416250512058
1001 6445.316214129527
1002 6445.485238738267
1003 6445.386931707406
1004 6445.560480851426
1005 6445.462088307845
1006 6445.630093335053
1007 6445.525790197814
1008 6445.702549982837
1009 6445.600983190278
1010 6445.777116843809
1011 6445.674570830501
1012 6445.85177237097
1013 6445.745871780445
1014 6445.919435764232
1015 6445.812401113862
1016 6445.973788981188
1017 6445.870463399568
1018 6446.042860658995
1019 6445.93057599095
1020 6446.099424661137
1021 6445.991887868789
1022 6446.161192423422
1023 6446.056852109558
1024 6446.230307071262
1025 6446.118856552121
1026 6446.296966457453
1027 6446.182257477684
1028 6446.35935819629
1029 6446.246721974507
1030 6446.427611015925
1031 6446.309556868752
1032 6446.487960777547
1033 6446.36706355378
1034 6446.546636430142
1035 6446.426615952944
1036 6446.605474031624
1037 6446.484678054864
1038 6446.659588072285
1039 6446.54052301823
1040 6446.713416063881
1041 6446.599310760022
1042 6446.774328007734
1043 6446.656347060169
1044 6446.835514090441
1045 6446.722788436236
1046 6446.89847354959
1047 6446.779437573484
1048 6446.95119303211
1049 6446.832288834564
1050 6446.99616253395
1051 6446.876492439101
1052 6447.042313325561
1053 6446.92720392381
1054 6447.091185755301
1055 6446.975776300606
1056 6447.139217575772
1057 6447.030837535578
1058 6447.188878099726
1059 6447.08565463556
1060 6447.242532504267
1061 6447.140101437044
1062 6447.299732246364
1063 6447.196186520157
1064 6447.352195966385
1065 6447.251818412238
1066 6447.418069719863
1067 6447.30273218974
1068 6447.462867427967
1069 6447.346668212427
1070 6447.516253017714
1071 6447.40179897689
1072 6447.567627690871
1073 6447.453933711785
1074 6447.624706234629
1075 6447.508427890283
1076 6447.670761927209
1077 6447.557167475946
1078 6447.721338857623
1079 6447.600563452826
1080 6447.765249749945
1081 6447.648365877884
1082 6447.81394970773
1083 6447.692429303457
1084 6447.855382138248
1085 6447.73521687658
1086 6447.895304798612
1087 6447.776168344601
1088 6447.939778539864
1089 6447.827076174593
1090 6447.987216197683
1091 6447.87053917116
1092 6448.030761248389
1093 6447.915276230961
1094 6448.074751424008
1095 6447.957125816274
1096 6448.114515038363
1097 6448.005243179493
1098 6448.154167694498
1099 6448.039769631077
1100 6448.193804680585
1101 6448.081127773475
1102 6448.239388985385
1103 6448.120812974935
1104 6448.277679922388
1105 6448.155048932864
1106 6448.320341656674
1107 6448.196616375365
1108 6448.353150405367
1109 6448.231417786984
1110 6448.384910176883
1111 6448.26796257807
1112 6448.423166050598
1113 6448.305624840044
1114 6448.468576296574
1115 6448.347544109641
1116 6448.50546838941
1117 6448.390264647738
1118 6448.551696485513
1119 6448.428353625175
1120 6448.586639905498
1121 6448.467621287019
1122 6448.624471160811
1123 6448.504967983153
1124 6448.662207625558
1125 6448.542680006061
1126 6448.701713229076
1127 6448.572551123463
1128 6448.741592902958
1129 6448.616948354496
1130 6448.777376790068
1131 6448.65194401501
1132 6448.819910825264
1133 6448.694418171948
1134 6448.849928872553
1135 6448.722674968448
1136 6448.881249844384
1137 6448.75602483953
1138 6448.915395162165
1139 6448.780785777471
1140 6448.940003100372
1141 6448.805802654346
1142 6448.964173765609
1143 6448.82860290272
1144 6448.9891564805
1145 6448.856591999641
1146 6449.014311857233
1147 6448.88735350264
1148 6449.044053454882
1149 6448.92359449909
1150 6449.081769060813
1151 6448.958394752587
1152 6449.116719937022
1153 6448.997374861267
1154 6449.15871507902
1155 6449.02978462458
1156 6449.189568354542
1157 6449.063997948165
1158 6449.217234490555
1159 6449.089414166544
1160 6449.248589320507
1161 6449.124619713863
1162 6449.28371000139
1163 6449.156769340346
1164 6449.316089283904
1165 6449.19681721279
1166 6449.351920409628
1167 6449.232945573731
1168 6449.386558806491
1169 6449.266014729315
1170 6449.416086716423
1171 6449.295017859492
1172 6449.445634462054
1173 6449.319776611184
1174 6449.47197799216
1175 6449.342008533244
1176 6449.491566951576
1177 6449.367610096701
1178 6449.524186052861
1179 6449.395002289843
1180 6449.549771071651
1181 6449.420998029278
1182 6449.576928628672
1183 6449.452296144637
1184 6449.60193700988
1185 6449.475442144075
1186 6449.631679588277
1187 6449.4998264064
1188 6449.645011528437
1189 6449.52041349189
1190 6449.671472979324
1191 6449.543339695482
1192 6449.687848312001
1193 6449.559473551482
1194 6449.712032585069
1195 6449.583691470701
1196 6449.726935487437
1197 6449.599768937392
1198 6449.754905439428
1199 6449.621623548687
1200 6449.782896551686
1201 6449.653804804164
1202 6449.816260625364
1203 6449.68421308797
1204 6449.846038748299
1205 6449.716494844732
1206 6449.86997512116
1207 6449.746507423806
1208 6449.891324291887
1209 6449.767601471875
1210 6449.923806862315
1211 6449.79325888855
1212 6449.946694796047
1213 6449.818134625731
1214 6449.978015146671
1215 6449.847931857424
1216 6450.000421675418
1217 6449.869681935319
1218 6450.021007404435
1219 6449.888167658588
1220 6450.029603826242
1221 6449.898126066689
1222 6450.050484249714
1223 6449.921082505425
1224 6450.067019699306
1225 6449.938190457921
1226 6450.087277997262
1227 6449.955228848003
1228 6450.1018065483
1229 6449.970740566787
1230 6450.122403705958
1231 6449.990160368645
1232 6450.130443605767
1233 6450.009139265418
1234 6450.158185734162
1235 6450.02825048761
1236 6450.172506248819
1237 6450.045788239856
1238 6450.193382449193
1239 6450.062066401756
1240 6450.209933755912
1241 6450.084847197365
1242 6450.228981515376
1243 6450.099755276933
1244 6450.247956234075
1245 6450.118922280097
1246 6450.270233416929
1247 6450.132412950282
1248 6450.290480023789
1249 6450.1557321647
1250 6450.309647410032
1251 6450.174229495634
1252 6450.329348916104
1253 6450.193166831297
1254 6450.34690624316
1255 6450.204803353055
1256 6450.362651167684
1257 6450.226692124931
1258 6450.384878336827
1259 6450.247630919872
1260 6450.403656094257
1261 6450.271935431733
1262 6450.421610693846
1263 6450.295799576852
1264 6450.443897028178
1265 6450.311492774463
1266 6450.459784403643
1267 6450.326957187223
1268 6450.475160320866
1269 6450.346595325664
1270 6450.498882118865
1271 6450.365427846022
1272 6450.513634397523
1273 6450.382794896284
1274 6450.528541737463
1275 6450.399201508223
1276 6450.536124323015
1277 6450.410018819227
1278 6450.551576817104
1279 6450.421756714602
1280 6450.564357001758
1281 6450.43944321075
1282 6450.587086930997
1283 6450.459557930006
1284 6450.607445203257
1285 6450.476830529333
1286 6450.628056683975
1287 6450.48819919927
1288 6450.637495243048
1289 6450.500563919849
1290 6450.643493730608
1291 6450.506425678155
1292 6450.653107407569
1293 6450.520711255997
1294 6450.664975007617
1295 6450.535644397453
1296 6450.682383237117
1297 6450.560650092156
1298 6450.70498036478
1299 6450.578239401767
1300 6450.724146799796
1301 6450.600842545811
1302 6450.733071138054
1303 6450.605751080452
1304 6450.745450718711
1305 6450.61878538131
1306 6450.75326748472
1307 6450.624760115094
1308 6450.764811780151
1309 6450.642771062918
1310 6450.786767000322
1311 6450.660187280335
1312 6450.803320814422
1313 6450.671484193415
1314 6450.81701510154
1315 6450.68257084429
1316 6450.829625939329
1317 6450.698300243722
1318 6450.844328586871
1319 6450.711493752978
1320 6450.8589647838
1321 6450.721464650273
1322 6450.871815855871
1323 6450.735458177823
1324 6450.884070720182
1325 6450.746946990354
1326 6450.890775902989
1327 6450.75651312531
1328 6450.900906483417
1329 6450.764251192915
1330 6450.91590402816
1331 6450.774940384272
1332 6450.927841796111
1333 6450.794884318232
1334 6450.946670677615
1335 6450.811300467463
1336 6450.964343382694
1337 6450.827413036815
1338 6450.9648035249
1339 6450.828473482222
1340 6450.971006581563
1341 6450.833860161557
1342 6450.973779651764
1343 6450.832591051957
1344 6450.978833349353
1345 6450.842686022853
1346 6450.9850019746
1347 6450.852700076429
1348 6450.995650582036
1349 6450.863923698047
1350 6451.010142964661
1351 6450.871974178655
1352 6451.015524404762
1353 6450.878752367319
1354 6451.035345957998
1355 6450.894583464619
1356 6451.044382019989
1357 6450.904271132281
1358 6451.06390762094
1359 6450.92310761408
1360 6451.075263800829
1361 6450.933810260884
1362 6451.08084557913
1363 6450.93604562466
1364 6451.081531630871
1365 6450.944610300411
1366 6451.097722576721
1367 6450.958585767579
1368 6451.110947548417
1369 6450.976586431058
1370 6451.133081306467
1371 6450.994096130771
1372 6451.149777341058
1373 6451.006132391508
1374 6451.156245934157
1375 6451.008085841821
1376 6451.153880860496
1377 6451.01004101998
1378 6451.157610460577
1379 6451.009834441661
1380 6451.158751358076
1381 6451.026481299465
1382 6451.173335483342
1383 6451.045417596072
1384 6451.196966923087
1385 6451.06903544639
1386 6451.210239743393
1387 6451.079566253471
1388 6451.217933737156
1389 6451.085670488193
1390 6451.226839000966
1391 6451.091940773199
1392 6451.231871270968
1393 6451.099373281657
1394 6451.234558037238
1395 6451.102206235799
1396 6451.243028648475
1397 6451.110593262123
1398 6451.246940673606
1399 6451.112942282974
1400 6451.245783990447
1401 6451.116803908862
1402 6451.250372182906
1403 6451.126124446749
1404 6451.254337438421
1405 6451.128452792893
1406 6451.265532903673
1407 6451.131685642811
1408 6451.266466863769
1409 6451.132108896481
1410 6451.276442131567
1411 6451.145756440381
1412 6451.283613267351
1413 6451.156036169946
1414 6451.302792138323
1415 6451.162755796612
1416 6451.31064091292
1417 6451.174744474882
1418 6451.323192054462
1419 6451.18586791765
1420 6451.338538808274
1421 6451.201851290115
1422 6451.34347314842
1423 6451.210690046744
1424 6451.354272975409
1425 6451.218044054941
1426 6451.365097557687
1427 6451.220456921181
1428 6451.366652414129
1429 6451.227697771446
1430 6451.371658179014
1431 6451.230969566744
1432 6451.380720172607
1433 6451.241781886186
1434 6451.390383410791
1435 6451.244654452809
1436 6451.384613714353
1437 6451.247430244386
1438 6451.396058623641
1439 6451.25417840038
1440 6451.395310417615
1441 6451.257303092551
1442 6451.406123294563
1443 6451.266724782018
1444 6451.408378883512
1445 6451.273227922499
1446 6451.408987152387
1447 6451.275694073232
1448 6451.412578089523
1449 6451.276773918333
1450 6451.417312639845
1451 6451.276362542854
1452 6451.411545563099
1453 6451.280819100836
1454 6451.418022660028
1455 6451.285146145085
1456 6451.426193515756
1457 6451.295208187592
1458 6451.429584367656
1459 6451.296248821584
1460 6451.434719177876
1461 6451.300871111957
1462 6451.44710675732
1463 6451.306988056971
1464 6451.455251075316
1465 6451.316499594835
1466 6451.465373794303
1467 6451.328971282218
1468 6451.478153138614
1469 6451.344316062963
1470 6451.494338800416
1471 6451.361017032445
1472 6451.509351097969
1473 6451.371686390163
1474 6451.526821120261
1475 6451.384269168853
1476 6451.530933252658
1477 6451.38635588582
1478 6451.53186281479
1479 6451.38917461269
1480 6451.535811649934
1481 6451.393805940467
1482 6451.533724864076
1483 6451.391076637568
1484 6451.53489649638
1485 6451.387008188152
1486 6451.530754333943
1487 6451.39083202261
1488 6451.52913942443
1489 6451.389770608322
1490 6451.526447715977
1491 6451.394142606267
1492 6451.537646542548
1493 6451.401004456667
1494 6451.542258957436
1495 6451.412793823964
1496 6451.547521625829
1497 6451.415722512945
1498 6451.557924599868
1499 6451.415601675721
1500 6451.556029099603
1501 6451.413612661717
1502 6451.563861942581
1503 6451.422679210826
1504 6451.571305861023
1505 6451.427629322549
1506 6451.578627200167
1507 6451.434635418653
1508 6451.578130818503
1509 6451.439440693852
1510 6451.587286521024
1511 6451.451269379962
1512 6451.598365098411
1513 6451.463454034704
1514 6451.606593876487
1515 6451.480167337591
1516 6451.62368975355
1517 6451.489301131644
1518 6451.624499617565
1519 6451.489448206559
1520 6451.632726807903
1521 6451.496744349924
1522 6451.636285701247
1523 6451.503429766043
1524 6451.639056008032
1525 6451.504333084275
1526 6451.642315057125
1527 6451.504491040806
1528 6451.640298303279
1529 6451.500357908675
1530 6451.634066658282
1531 6451.501392542389
1532 6451.631320564436
1533 6451.497110015926
1534 6451.639620579524
1535 6451.495933767153
1536 6451.636549663902
1537 6451.495446524425
1538 6451.638117320666
1539 6451.493235033365
1540 6451.634140587137
1541 6451.49201171155
1542 6451.641204647215
1543 6451.497935578023
1544 6451.641295587696
1545 6451.502570494868
1546 6451.654912333222
1547 6451.509292506757
1548 6451.65969199149
1549 6451.514708565501
1550 6451.665326362324
1551 6451.521523131321
1552 6451.671665662012
1553 6451.534592071149
1554 6451.680627932348
1555 6451.540060789653
1556 6451.681121207362
1557 6451.537421585847
1558 6451.682185139035
1559 6451.536676600385
1560 6451.681338231984
1561 6451.53471356675
1562 6451.686592264198
1563 6451.547149445989
1564 6451.690559856645
1565 6451.55665435529
1566 6451.701511302861
1567 6451.562749395419
1568 6451.708087509851
1569 6451.568767699787
1570 6451.718502508371
1571 6451.577337530828
1572 6451.71899102023
1573 6451.578851124525
1574 6451.718080817632
1575 6451.581385409405
1576 6451.721990958426
1577 6451.575053165629
1578 6451.716521189711
1579 6451.580316764883
1580 6451.717951378437
1581 6451.580896552481
1582 6451.724209512774
1583 6451.587787122626
1584 6451.725995295334
1585 6451.593631894537
1586 6451.734612432371
1587 6451.596333085814
1588 6451.732939376923
1589 6451.590496183087
1590 6451.731268174544
1591 6451.590413588102
1592 6451.735748231975
1593 6451.596463642849
1594 6451.74585469777
1595 6451.601144594205
1596 6451.745214835727
1597 6451.606413018227
1598 6451.747521534106
1599 6451.607843033814
1600 6451.753495027378
1601 6451.61431169552
1602 6451.749798827961
1603 6451.612875542381
1604 6451.759045248504
1605 6451.61959093146
1606 6451.761518503851
1607 6451.621212045652
1608 6451.763811054818
1609 6451.623668250666
1610 6451.75935814189
1611 6451.625022367759
1612 6451.764225884879
1613 6451.623778247955
1614 6451.764939159357
1615 6451.628300889863
1616 6451.770277053866
1617 6451.637130292293
1618 6451.780568522174
1619 6451.642874778724
1620 6451.779768542106
1621 6451.64182642288
1622 6451.791180657942
1623 6451.652618674968
1624 6451.788863980447
1625 6451.655079566548
1626 6451.792731021927
1627 6451.654041793571
1628 6451.786012305213
1629 6451.650030497142
1630 6451.793565465809
1631 6451.651692693888
1632 6451.78594039885
1633 6451.652768340392
1634 6451.792305454295
1635 6451.656195829989
1636 6451.789029706373
1637 6451.655696282002
1638 6451.782556855593
1639 6451.658552732146
1640 6451.786825280386
1641 6451.662023942021
1642 6451.79505414493
1643 6451.659858390089
1644 6451.801160690852
1645 6451.662247557362
1646 6451.807503962855
1647 6451.664301664099
1648 6451.810151574091
1649 6451.663471649083
1650 6451.801702802569
1651 6451.655930238749
1652 6451.802133894141
1653 6451.658103623036
1654 6451.807587605569
1655 6451.662392766285
1656 6451.817174910627
1657 6451.668276037911
1658 6451.819836024325
1659 6451.669935238967
1660 6451.816380114064
1661 6451.665697119235
1662 6451.806192425809
1663 6451.658477247085
1664 6451.805214875916
1665 6451.659679502907
1666 6451.808470522573
1667 6451.665918630209
1668 6451.808569040076
1669 6451.668598748387
1670 6451.818722076936
1671 6451.679179352678
1672 6451.829730883689
1673 6451.689012257554
1674 6451.837899976535
1675 6451.700075530264
1676 6451.843741611686
1677 6451.707700785395
1678 6451.857683873029
1679 6451.714572215737
1680 6451.862346086345
1681 6451.720456769856
1682 6451.861545998759
1683 6451.72044235203
1684 6451.868186285628
1685 6451.724827546846
1686 6451.859887387859
1687 6451.719391194054
1688 6451.857912482243
1689 6451.72202334952
1690 6451.860035044258
1691 6451.724029803972
1692 6451.864096911059
1693 6451.726855832143
1694 6451.865859789165
1695 6451.727385549786
1696 6451.862950146554
1697 6451.720850338264
1698 6451.861706435993
1699 6451.717788924522
1700 6451.85314802945
1701 6451.714273683408
1702 6451.851344621075
1703 6451.710848341902
1704 6451.853073293824
1705 6451.715373689595
1706 6451.860798478408
1707 6451.71745376262
1708 6451.86821439939
1709 6451.72535375368
1710 6451.865135219377
1711 6451.721673703676
1712 6451.871295279539
1713 6451.726719306158
1714 6451.876039383447
1715 6451.730354529212
1716 6451.881114247339
1717 6451.736440964847
1718 6451.878129510568
1719 6451.730832654686
1720 6451.882369353549
1721 6451.727839263105
1722 6451.874649694529
1723 6451.738933219754
1724 6451.876899617362
1725 6451.74755892944
1726 6451.892505327317
1727 6451.758031836822
1728 6451.898439753061
1729 6451.763517927135
1730 6451.903178978871
1731 6451.765357345833
1732 6451.898890784325
1733 6451.759231405632
1734 6451.892193825511
1735 6451.752911480835
1736 6451.881900095825
1737 6451.746235313932
1738 6451.881621298287
1739 6451.741277337737
1740 6451.880798813783
1741 6451.738527792092
1742 6451.874849797056
1743 6451.739729880088
1744 6451.879670894927
1745 6451.734377533339
1746 6451.869341052149
1747 6451.732887352217
1748 6451.868613204232
1749 6451.726136374588
1750 6451.864586181081
1751 6451.725616230224
1752 6451.865678976495
1753 6451.721762433984
1754 6451.861661494994
1755 6451.719185449668
1756 6451.859483074708
1757 6451.721616939538
1758 6451.867330549157
1759 6451.73710166224
1760 6451.874505776545
1761 6451.747576845852
1762 6451.893427932467
1763 6451.75826667251
1764 6451.896463886797
1765 6451.762422311846
1766 6451.902958608646
1767 6451.76621692461
1768 6451.904494316871
1769 6451.759141210709
1770 6451.897433777348
1771 6451.760992441978
1772 6451.898990585353
1773 6451.760495343679
1774 6451.910366724574
1775 6451.768520996813
1776 6451.918997861054
1777 6451.777203782814
1778 6451.921511827581
1779 6451.782183377307
1780 6451.925144209544
1781 6451.782843893395
1782 6451.919610908466
1783 6451.778197059791
1784 6451.915991760643
1785 6451.773090120797
1786 6451.915473225043
1787 6451.776095567902
1788 6451.91824563307
1789 6451.776627145058
1790 6451.918275024703
1791 6451.773815401016
1792 6451.908523999727
1793 6451.767908549074
1794 6451.899995488154
1795 6451.75443647616
1796 6451.890061900312
1797 6451.751068881249
1798 6451.885761293634
1799 6451.750671803774
1800 6451.889535932559
1801 6451.751729818523
1802 6451.891183016088
1803 6451.755678057672
1804 6451.901070956746
1805 6451.758436225016
1806 6451.900058315246
1807 6451.759521602605
1808 6451.906658844578
1809 6451.764558495084
1810 6451.913431506826
1811 6451.773344110145
1812 6451.925087504346
1813 6451.784952464667
1814 6451.928303418437
1815 6451.786623862325
1816 6451.937478153212
1817 6451.791966006441
1818 6451.932663023359
1819 6451.790521840675
1820 6451.935369421741
1821 6451.796511161915
1822 6451.940513409254
1823 6451.799643489538
1824 6451.943107235588
1825 6451.792178931189
1826 6451.940756509256
1827 6451.793871306824
1828 6451.935391867979
1829 6451.787499838384
1830 6451.929184835683
1831 6451.779087047845
1832 6451.920245643741
1833 6451.773350404334
1834 6451.919864589149
1835 6451.78096502698
1836 6451.914037967009
1837 6451.778337255347
1838 6451.919081900993
1839 6451.779984905771
1840 6451.912819737248
1841 6451.770278552448
1842 6451.901378876573
1843 6451.764098346271
1844 6451.896915655126
1845 6451.764499285825
1846 6451.904682496537
1847 6451.766332573206
1848 6451.907823951616
1849 6451.777149923967
1850 6451.914790566681
1851 6451.777668853617
1852 6451.91649449442
1853 6451.778526796542
1854 6451.910442434432
1855 6451.775455763606
1856 6451.911649722004
1857 6451.778240505832
1858 6451.926570138853
1859 6451.791378364435
1860 6451.932831289178
1861 6451.799065244077
1862 6451.939872774897
1863 6451.803665041197
1864 6451.939534263835
1865 6451.801714423703
1866 6451.942643674138
1867 6451.800702657027
1868 6451.937629436978
1869 6451.795643756001
1870 6451.941512573272
1871 6451.802929301438
1872 6451.941157007814
1873 6451.804249309478
1874 6451.946358299056
1875 6451.80775495799
1876 6451.949330555978
1877 6451.811304870645
1878 6451.946754626539
1879 6451.802659924563
1880 6451.94476688705
1881 6451.799767343132
1882 6451.944596769107
1883 6451.802103276372
1884 6451.945124353981
1885 6451.803858093773
1886 6451.94932462428
1887 6451.805725095599
1888 6451.951075350896
1889 6451.806532639553
1890 6451.948284731066
1891 6451.805692303043
1892 6451.944852264319
1893 6451.796582524666
1894 6451.947116081481
1895 6451.801594074091
1896 6451.945815054452
1897 6451.803494592251
1898 6451.952405332051
1899 6451.813891498504
1900 6451.960249193378
1901 6451.815491665246
1902 6451.960334542936
1903 6451.816499042123
1904 6451.958731629961
1905 6451.820113308346
1906 6451.955779909144
1907 6451.817739750459
1908 6451.967332739194
1909 6451.827272962842
1910 6451.969209174391
1911 6451.833818615417
1912 6451.976660758733
1913 6451.839684677725
1914 6451.975173227698
1915 6451.837669047477
1916 6451.972127981931
1917 6451.826471656304
1918 6451.9601350569
1919 6451.816346059948
1920 6451.953002120099
1921 6451.810606098154
1922 6451.946534890957
1923 6451.807511280386
1924 6451.955441166446
1925 6451.812727108725
1926 6451.950837779938
1927 6451.815398564259
1928 6451.954478137573
1929 6451.817584813405
1930 6451.955259171931
1931 6451.814362218128
1932 6451.956973560136
1933 6451.815552070238
1934 6451.956300118042
1935 6451.812148061407
1936 6451.952817674927
1937 6451.807413230255
1938 6451.947197693618
1939 6451.811336798577
1940 6451.946784413116
1941 6451.809544493359
1942 6451.951274966964
1943 6451.814046753849
1944 6451.954263209165
1945 6451.816924179012
1946 6451.95476205878
1947 6451.819078359091
1948 6451.956777515336
1949 6451.819411327173
1950 6451.954475405561
1951 6451.816231459169
1952 6451.955762621961
1953 6451.814735926171
1954 6451.953028290898
1955 6451.809250917705
1956 6451.951934517577
1957 6451.810837753256
1958 6451.94438263606
1959 6451.803632239864
1960 6451.945568371655
1961 6451.803543923284
1962 6451.942285684356
1963 6451.807346369906
1964 6451.945642281336
1965 6451.812568898564
1966 6451.951968473372
1967 6451.80924962532
1968 6451.954324653306
1969 6451.813609154876
1970 6451.956034367242
1971 6451.814594885856
1972 6451.957944800251
1973 6451.819580400132
1974 6451.958310510647
1975 6451.822751262348
1976 6451.96271208067
1977 6451.823688618255
1978 6451.963840677379
1979 6451.822565946806
1980 6451.961298590763
1981 6451.825197570488
1982 6451.962874583761
1983 6451.827725790025
1984 6451.975010241346
1985 6451.836915701209
1986 6451.977535991708
1987 6451.83496042852
1988 6451.972463847815
1989 6451.832178827586
1990 6451.981723385043
1991 6451.836138532755
1992 6451.980563602688
1993 6451.833159521955
1994 6451.982886826195
1995 6451.834227264946
1996 6451.98078258424
1997 6451.833125352394
1998 6451.974618974774
1999 6451.829165981139
2000 6451.974321338933
2001 6451.829413195216
2002 6451.975661972387
2003 6451.824422879118
2004 6451.97101689844
2005 6451.817292271204
2006 6451.959436240571
2007 6451.812101551654
2008 6451.957747487169
2009 6451.80804809237
2010 6451.945030920628
2011 6451.804961614624
2012 6451.948548643185
2013 6451.813563848013
2014 6451.955617721054
2015 6451.827695940183
2016 6451.966447397438
2017 6451.828405283274
2018 6451.965943450723
2019 6451.829391785673
2020 6451.971729176728
2021 6451.830848858981
2022 6451.973605534306
2023 6451.835727002735
2024 6451.971896778196
2025 6451.835296507407
2026 6451.980711958628
2027 6451.838802428867
2028 6451.977225705364
2029 6451.837010984315
2030 6451.97968498404
2031 6451.838563428872
2032 6451.97494629026
2033 6451.838365245432
2034 6451.979819663124
2035 6451.840722479126
2036 6451.972298080154
2037 6451.838724215759
2038 6451.974907499408
2039 6451.83591249238
2040 6451.968983071765
2041 6451.832269567712
2042 6451.967091600497
2043 6451.824575372367
2044 6451.96463249158
2045 6451.822605918694
2046 6451.964453304575
2047 6451.823079759743
2048 6451.965974385435
2049 6451.827641014577
2050 6451.965599791044
2051 6451.822196581996
2052 6451.962074261488
2053 6451.821354088033
2054 6451.962800605157
2055 6451.819245668712
2056 6451.958710125922
2057 6451.817745475958
2058 6451.951031456276
2059 6451.813357937855
2060 6451.940574852241
2061 6451.808092349937
2062 6451.947256057143
2063 6451.806931199143
2064 6451.945383576875
2065 6451.805337294273
2066 6451.953284369683
2067 6451.818177914215
2068 6451.966980254399
2069 6451.826590690253
2070 6451.97910613882
2071 6451.842477392469
2072 6451.985388411254
2073 6451.8471287175
2074 6451.998181483864
2075 6451.857099471831
2076 6452.002639011676
2077 6451.85763797655
2078 6452.007490007938
2079 6451.860994591196
2080 6452.000819729554
2081 6451.857070429344
2082 6451.991536887653
2083 6451.853071196704
2084 6451.989210594533
2085 6451.85779062809
2086 6451.992122068145
2087 6451.854787457718
2088 6451.990468646874
2089 6451.852479580941
2090 6451.982873437811
2091 6451.846783540072
2092 6451.974510608841
2093 6451.842697262856
2094 6451.970400320368
2095 6451.836777184883
2096 6451.975288444623
2097 6451.838387632199
2098 6451.973625873224
2099 6451.836748675996
2100 6451.972615007922
2101 6451.837085485511
2102 6451.978101192568
2103 6451.838660979334
2104 6451.980877510031
2105 6451.837083990577
2106 6451.975914138156
2107 6451.831496483459
2108 6451.973707921761
2109 6451.831532287472
2110 6451.98362349604
2111 6451.832045765399
2112 6451.984302662478
2113 6451.8359837209
2114 6451.988447170077
2115 6451.839360826923
2116 6451.986050271843
2117 6451.834809686064
2118 6451.98817129801
2119 6451.839057836769
2120 6451.985353705194
2121 6451.835530456361
2122 6451.99136732148
2123 6451.842066788431
2124 6451.992287768656
2125 6451.852000745007
2126 6451.994245231145
2127 6451.848556087175
2128 6451.990191824582
2129 6451.845010714986
2130 6451.979938099345
2131 6451.837617191216
2132 6451.980118778329
2133 6451.838868226563
2134 6451.976441472745
2135 6451.836863652024
2136 6451.974996560023
2137 6451.834011290864
2138 6451.965915597249
2139 6451.82835884559
2140 6451.969063352203
2141 6451.828345746835
2142 6451.958455959574
2143 6451.823704853196
2144 6451.962776289243
2145 6451.830863642102
2146 6451.977019245212
2147 6451.836050743062
2148 6451.979646999159
2149 6451.834985435649
2150 6451.973286242762
2151 6451.825924153619
2152 6451.967020726746
2153 6451.814426673256
2154 6451.954601574302
2155 6451.813374222053
2156 6451.953359998755
2157 6451.814571265178
2158 6451.957421775486
2159 6451.820341901554
2160 6451.956609509642
2161 6451.821332461618
2162 6451.95611151448
2163 6451.819030938682
2164 6451.955156786839
2165 6451.820069673854
2166 6451.951000081708
2167 6451.819221074395
2168 6451.961173686295
2169 6451.829555172121
2170 6451.972718865915
2171 6451.834901465374
2172 6451.98307749104
2173 6451.842528478758
2174 6451.986759150722
2175 6451.846390003085
2176 6451.999552060845
2177 6451.846831100319
2178 6451.986139085049
2179 6451.841181151554
2180 6451.987948037921
2181 6451.838880578598
2182 6451.986400529151
2183 6451.842252946509
2184 6451.989125462479
2185 6451.844718825942
2186 6451.982394549812
2187 6451.839319975704
2188 6451.977723008138
2189 6451.83498817801
2190 6451.974751689377
2191 6451.838695740057
2192 6451.970116062539
2193 6451.836838925815
2194 6451.981522109196
2195 6451.838900177143
2196 6451.979735215873
2197 6451.839207682156
2198 6451.976794306324
2199 6451.841427788133
2200 6451.97965383384
2201 6451.841363069315
2202 6451.97887793404
2203 6451.84012948068
2204 6451.977926734487
2205 6451.841184185322
2206 6451.97956426002
2207 6451.840325348587
2208 6451.987980759536
2209 6451.849638246646
2210 6451.987568120086
2211 6451.843446559968
2212 6451.987608512724
2213 6451.846882280309
2214 6451.985985451291
2215 6451.835044009793
2216 6451.981435605714
2217 6451.832675706186
2218 6451.979881521138
2219 6451.83244882422
2220 6451.978099663177
2221 6451.832187605704
2222 6451.982224196164
2223 6451.838717453786
2224 6451.985509647364
2225 6451.837888607703
2226 6451.98416787176
2227 6451.846216504875
2228 6451.980307844955
2229 6451.847420083877
2230 6451.988391871911
2231 6451.846971991294
2232 6451.985643800947
2233 6451.84468971394
2234 6451.988772252395
2235 6451.850579157319
2236 6451.989682510328
2237 6451.845565481692
2238 6451.987763897605
2239 6451.842414833781
2240 6451.979581530899
2241 6451.837226130713
2242 6451.977176638739
2243 6451.835218172894
2244 6451.976092034476
2245 6451.832376481154
2246 6451.976330164485
2247 6451.834160530881
2248 6451.983460202797
2249 6451.841315253314
2250 6451.983060055712
2251 6451.843415520139
2252 6451.988349131982
2253 6451.84385049468
2254 6451.982701692661
2255 6451.835054306041
2256 6451.979084550952
2257 6451.833708625516
2258 6451.973572758503
2259 6451.831474547846
2260 6451.973812942815
2261 6451.832799125145
2262 6451.960871217424
2263 6451.827927896737
2264 6451.9605212689
2265 6451.830902786852
2266 6451.962567788021
2267 6451.830364008792
2268 6451.96328743258
2269 6451.834692482607
2270 6451.969928426402
2271 6451.839080941447
2272 6451.979413495022
2273 6451.835874537614
2274 6451.974033628998
2275 6451.834490794763
2276 6451.976902423769
2277 6451.838237846099
2278 6451.981523582514
2279 6451.845414664347
2280 6451.989183550812
2281 6451.846089367919
2282 6451.992643133435
2283 6451.855936109164
2284 6451.996633334493
2285 6451.859510184012
2286 6451.998663664821
2287 6451.861890260887
2288 6452.003853605046
2289 6451.863157326367
2290 6452.003451449516
2291 6451.855476597711
2292 6452.003939816698
2293 6451.85885331086
2294 6452.00125805077
2295 6451.852730771217
2296 6451.99923596283
2297 6451.852439063557
2298 6451.991891943481
2299 6451.848887915221
2300 6451.993711357853
2301 6451.854226001432
2302 6452.001638333576
2303 6451.860068713438
2304 6451.997649600392
2305 6451.859908052285
2306 6451.999979319698
2307 6451.852477070061
2308 6451.994727007445
2309 6451.852447751407
2310 6451.989737702675
2311 6451.847343088055
2312 6451.988093135837
2313 6451.842214372211
2314 6451.989256247676
2315 6451.843136638469
2316 6451.979851297174
2317 6451.836519494342
2318 6451.975716454619
2319 6451.834393234444
2320 6451.975110639076
2321 6451.839128562061
2322 6451.970922207021
2323 6451.838452322214
2324 6451.982539438556
2325 6451.843973551519
2326 6451.984925636317
2327 6451.845233072936
2328 6451.99529317406
2329 6451.855513250281
2330 6451.999077636933
2331 6451.858164872915
2332 6452.011882469495
2333 6451.86529000638
2334 6452.007738693165
2335 6451.864047434255
2336 6452.013627499979
2337 6451.869907045589
2338 6452.015619228348
2339 6451.872863245158
2340 6452.011904163613
2341 6451.870695145629
2342 6452.004805889939
2343 6451.865839239368
2344 6451.998785271054
2345 6451.855050231555
2346 6451.990122432745
2347 6451.847172264695
2348 6451.974887591134
2349 6451.832426118272
2350 6451.974290054972
2351 6451.833217472358
2352 6451.96868772553
2353 6451.830581964515
2354 6451.971035860397
2355 6451.83223778931
2356 6451.972544644028
2357 6451.829484595066
2358 6451.967623719413
2359 6451.82928488976
2360 6451.968268302135
2361 6451.829428890316
2362 6451.973249770819
2363 6451.832214286054
2364 6451.969844875914
2365 6451.825078795432
2366 6451.975326633364
2367 6451.828777135198
2368 6451.977480710181
2369 6451.825366134494
2370 6451.972911464243
2371 6451.832910016026
2372 6451.974806584194
2373 6451.837461832555
2374 6451.981075010611
2375 6451.842412502367
2376 6451.983600696887
2377 6451.850674328352
2378 6451.985178518261
2379 6451.858892865323
2380 6451.995054970442
2381 6451.863148587954
2382 6451.993967536214
2383 6451.862436046742
2384 6451.995706503478
2385 6451.862468564857
2386 6452.000640774287
2387 6451.862708111032
2388 6452.005062069058
2389 6451.86317021888
2390 6452.004929864119
2391 6451.865576934751
2392 6452.006030602462
2393 6451.86103208903
2394 6451.997905761174
2395 6451.857547122723
2396 6451.995363006176
2397 6451.853012335203
2398 6451.995028863821
2399 6451.84919343088
2400 6451.988459776955
2401 6451.843494207394
2402 6451.988315694105
2403 6451.839500468476
2404 6451.978091458909
2405 6451.834591537654
2406 6451.975333544569
2407 6451.829343342223
2408 6451.969659309767
2409 6451.829511347001
2410 6451.979251843287
2411 6451.839157267601
2412 6451.980561413397
2413 6451.843401884816
2414 6451.988785119035
2415 6451.853631451282
2416 6451.99347488052
2417 6451.850818365823
2418 6451.988435331406
2419 6451.848419160026
2420 6451.980085581581
2421 6451.843702848724
2422 6451.98787404415
2423 6451.852843997064
2424 6451.993700830905
2425 6451.854011061115
2426 6451.998327759903
2427 6451.856953208072
2428 6452.002559131485
2429 6451.865170316475
2430 6452.007078683654
2431 6451.863740040375
2432 6452.004636808519
2433 6451.862363079855
2434 6452.009749298201
2435 6451.859985140236
2436 6452.006341591333
2437 6451.862048705249
2438 6451.997799362871
2439 6451.852282147543
2440 6451.991903906273
2441 6451.844241339058
2442 6451.981189968339
2443 6451.838058604257
2444 6451.975722109783
2445 6451.829173335531
2446 6451.977308803052
2447 6451.830313674525
2448 6451.96996530762
2449 6451.824720876225
2450 6451.972207547759
2451 6451.832357382463
2452 6451.975247164064
2453 6451.825382314322
2454 6451.973631511873
2455 6451.8285110142
2456 6451.968257978103
2457 6451.827675160384
2458 6451.981039346161
2459 6451.834120617694
2460 6451.976096040636
2461 6451.835010563552
2462 6451.982424771436
2463 6451.840113060171
2464 6451.982799984246
2465 6451.845016786328
2466 6451.987531063637
2467 6451.850467041063
2468 6451.984425026343
2469 6451.849127835099
2470 6451.991273930529
2471 6451.854399450486
2472 6451.995365641088
2473 6451.85786740304
2474 6451.990482529709
2475 6451.852897730534
2476 6451.993985523511
2477 6451.853876465346
2478 6451.987264553353
2479 6451.847677927081
2480 6451.985767802279
2481 6451.850137402352
2482 6451.984657275656
2483 6451.845104024924
2484 6451.99014345607
2485 6451.846505875696
2486 6451.987125581759
2487 6451.854230829957
2488 6451.990437122741
2489 6451.852085321058
2490 6451.993024263998
2491 6451.85499288613
2492 6451.990978732079
2493 6451.854777473679
2494 6451.99932719039
2495 6451.856559275677
2496 6451.995833481939
2497 6451.848051045979
2498 6451.993306731339
2499 6451.851009160016
2500 6451.992012645034
2501 6451.847049907849
2502 6451.988395854773
2503 6451.853272509779
2504 6451.988587138446
2505 6451.854088702714
2506 6451.992285784496
2507 6451.856851529564
2508 6451.993777540887
2509 6451.856580538815
2510 6451.992771201858
2511 6451.853131743476
2512 6451.998721537248
2513 6451.860003516918
2514 6451.992404295635
2515 6451.854780136146
2516 6452.002163356278
2517 6451.862297484161
2518 6452.007640500767
2519 6451.863782966963
2520 6452.009780756575
2521 6451.86356697623
2522 6452.004815011404
2523 6451.863821772446
2524 6452.00389567817
2525 6451.859894648248
2526 6451.997930730719
2527 6451.857405257251
2528 6452.001051152005
2529 6451.858919302784
2530 6451.99758291788
2531 6451.85550016722
2532 6451.997191314702
2533 6451.853849686519
2534 6451.98808868616
2535 6451.846940890432
2536 6451.987595638298
2537 6451.843617930394
2538 6451.978423414529
2539 6451.832503824755
2540 6451.975280427634
2541 6451.835468506899
2542 6451.990479131206
2543 6451.855003846875
2544 6452.00594738219
2545 6451.860584226388
2546 6452.010017159093
2547 6451.86381736087
2548 6452.008423066627
2549 6451.859788917643
2550 6451.99928275331
2551 6451.858470753947
2552 6451.995246060655
2553 6451.853227716863
2554 6451.993191794404
2555 6451.850947231867
2556 6451.989324480202
2557 6451.853459392122
2558 6451.989424768237
2559 6451.848394077066
2560 6451.983414190037
2561 6451.84556686743
2562 6451.978392597564
2563 6451.843768986625
2564 6451.976929949987
2565 6451.840088900126
2566 6451.982459640883
2567 6451.840563454398
2568 6451.978917717695
2569 6451.833327144984
2570 6451.971646258769
2571 6451.82790372512
2572 6451.972528674185
2573 6451.824986817662
2574 6451.965082104616
2575 6451.827020140006
2576 6451.975529784748
2577 6451.838335082927
2578 6451.981078625255
2579 6451.840334900468
2580 6451.991346637281
2581 6451.843816318042
2582 6451.988356462985
2583 6451.845599537265
2584 6451.987564919495
2585 6451.843448678289
2586 6451.978369709789
2587 6451.835921981193
2588 6451.978563093482
2589 6451.843213085216
2590 6451.987815522922
2591 6451.853991235456
2592 6451.989457637903
2593 6451.858039212966
2594 6452.001955717095
2595 6451.868023470396
2596 6452.004060747873
2597 6451.873331203422
2598 6452.006475343515
2599 6451.874295001001
2600 6452.002202872294
2601 6451.863770834659
2602 6452.002365112715
2603 6451.863930718029
2604 6451.996751889846
2605 6451.858056353852
2606 6451.997127419253
2607 6451.85654867005
2608 6451.999163715069
2609 6451.85391437184
2610 6451.987174765554
2611 6451.845540725934
2612 6451.986797462591
2613 6451.848519918617
2614 6451.987477496861
2615 6451.842780303332
2616 6451.983751352373
2617 6451.845332140115
2618 6451.983855137524
2619 6451.844348381745
2620 6451.990004532824
2621 6451.849054240402
2622 6451.989499841999
2623 6451.845194700093
2624 6451.990193736519
2625 6451.854115016962
2626 6451.992423197817
2627 6451.850676752804
2628 6451.99200352429
2629 6451.848359539232
2630 6451.995214850146
2631 6451.855669523598
2632 6451.997617052351
2633 6451.858170411296
2634 6452.002065662467
2635 6451.863113102472
2636 6452.002663055935
2637 6451.860844174282
2638 6452.007073022738
2639 6451.859771802317
2640 6452.00125416273
2641 6451.8537862024
2642 6452.001797751427
2643 6451.859244783676
2644 6452.000018109586
2645 6451.861239978361
2646 6452.001255424822
2647 6451.864396342362
2648 6452.000872384256
2649 6451.858848535905
2650 6452.004418295183
2651 6451.86011074764
2652 6451.999409575285
2653 6451.857551028651
2654 6451.9942146284
2655 6451.847138028759
2656 6451.986289875019
2657 6451.837900665913
2658 6451.974447196222
2659 6451.829498883256
2660 6451.960772792094
2661 6451.823452065037
2662 6451.963237754823
2663 6451.823121914418
2664 6451.958068275868
2665 6451.822045680903
2666 6451.961975637433
2667 6451.828467457351
2668 6451.9630557794
2669 6451.828213336043
2670 6451.969882409912
2671 6451.833876799975
2672 6451.970294025796
2673 6451.834136996772
2674 6451.980318046917
2675 6451.843996228249
2676 6451.983387751979
2677 6451.846887603497
2678 6451.990648981176
2679 6451.851374311993
2680 6451.98887405998
2681 6451.852354034172
2682 6451.993182484674
2683 6451.860301505599
2684 6452.002048699725
2685 6451.865036185658
2686 6452.006340475064
2687 6451.869292581436
2688 6452.009633976406
2689 6451.866684850193
2690 6452.001684240199
2691 6451.854327012456
2692 6451.997541075973
2693 6451.848863336827
2694 6451.982738239248
2695 6451.841742893004
2696 6451.988493649555
2697 6451.849582623254
2698 6451.995839069812
2699 6451.854453053737
2700 6451.992970284216
2701 6451.854125154994
2702 6451.990247097448
2703 6451.849323262216
2704 6451.983353871155
2705 6451.841286451409
2706 6451.979016426074
2707 6451.836765576397
2708 6451.971154188305
2709 6451.833603053926
2710 6451.975764960999
2711 6451.83565903508
2712 6451.976714093379
2713 6451.831250994223
2714 6451.974850098603
2715 6451.830704650537
2716 6451.971135124615
2717 6451.832286965741
2718 6451.965893726713
2719 6451.835544849638
2720 6451.972307032604
2721 6451.841287121085
2722 6451.980468074292
2723 6451.854378035047
2724 6451.991987931997
2725 6451.863129448312
2726 6452.003329040203
2727 6451.865598849764
2728 6452.004195672449
2729 6451.865553534274
2730 6451.995956248343
2731 6451.851809628942
2732 6451.992565640301
2733 6451.847024090254
2734 6451.992383521835
2735 6451.847427021577
2736 6451.992078126631
2737 6451.847925273547
2738 6451.988887858621
2739 6451.843032586491
2740 6451.984589031113
2741 6451.837061098973
2742 6451.972339254195
2743 6451.82933428374
2744 6451.966413791446
2745 6451.825040186862
2746 6451.969308567624
2747 6451.825211536407
2748 6451.966329843204
2749 6451.822987765602
2750 6451.973751349879
2751 6451.829266027815
2752 6451.974522808238
2753 6451.827099378349
2754 6451.976445530512
2755 6451.828971641829
2756 6451.96928026596
2757 6451.824439580265
2758 6451.973668265299
2759 6451.830706063666
2760 6451.977489486366
2761 6451.835449876405
2762 6451.989683405542
2763 6451.84531799214
2764 6451.9876762571
2765 6451.840657418303
2766 6451.98219919845
2767 6451.835853766874
2768 6451.978433401021
2769 6451.833764576437
2770 6451.976263504485
2771 6451.835428936539
2772 6451.971510010935
2773 6451.832633139402
2774 6451.974389586269
2775 6451.841144048573
2776 6451.981732143978
2777 6451.848965061816
2778 6451.983537469586
2779 6451.847238129513
2780 6451.981420712004
2781 6451.847103775236
2782 6451.992147633424
2783 6451.849162233942
2784 6451.987540467213
2785 6451.853150851999
2786 6451.995498639831
2787 6451.858135488502
2788 6451.994148310413
2789 6451.851635149723
2790 6451.991159677141
2791 6451.849310820511
2792 6451.983035367094
2793 6451.844745465321
2794 6451.988536274056
2795 6451.848723751937
2796 6451.98770656161
2797 6451.853780466513
2798 6451.998398234969
2799 6451.857749328828
2800 6451.996387777645
2801 6451.857329769397
2802 6451.990601786677
2803 6451.851376559462
2804 6451.988672567151
2805 6451.853203865311
2806 6451.991523419665
2807 6451.855136373534
2808 6451.990178971738
2809 6451.854011397433
2810 6451.994148917815
2811 6451.857187247157
2812 6451.996766971942
2813 6451.862669366
2814 6451.996555067557
2815 6451.855437014733
2816 6451.993857759884
2817 6451.848699331023
2818 6451.987836589463
2819 6451.841254434436
2820 6451.980220215315
2821 6451.840895802804
2822 6451.983399529681
2823 6451.846504287124
2824 6451.990751659826
2825 6451.844506363346
2826 6451.982335277662
2827 6451.841729511109
2828 6451.979416837441
2829 6451.845131990867
2830 6451.990756283081
2831 6451.849611396245
2832 6451.991166470091
2833 6451.851991190669
2834 6451.99659194619
2835 6451.855336569714
2836 6451.994665584739
2837 6451.856615940283
2838 6451.993486788299
2839 6451.854014603112
2840 6451.985096100192
2841 6451.844710685453
2842 6451.982783814403
2843 6451.842035280174
2844 6451.978945336255
2845 6451.842102162215
2846 6451.985662389443
2847 6451.845409426808
2848 6451.981705445086
2849 6451.842182434102
2850 6451.982027643835
2851 6451.83742642137
2852 6451.983679085453
2853 6451.839701671745
2854 6451.987210616269
2855 6451.840352106177
2856 6451.992152589319
2857 6451.841880086005
2858 6451.993715149591
2859 6451.840611661179
2860 6451.989640890588
2861 6451.833889607249
2862 6451.975772741517
2863 6451.820360083098
2864 6451.961336155323
2865 6451.81461776354
2866 6451.961583640013
2867 6451.818964541032
2868 6451.961795379861
2869 6451.81885102761
2870 6451.958114698708
2871 6451.816406950748
2872 6451.956420624802
2873 6451.81719321494
2874 6451.956829262622
2875 6451.817688917888
2876 6451.961233020042
2877 6451.824489926777
2878 6451.96573129926
2879 6451.829272530912
2880 6451.970594581221
2881 6451.833863942386
2882 6451.970537512632
2883 6451.834996352906
2884 6451.981470405563
2885 6451.837456800926
2886 6451.978494926608
2887 6451.835746753065
2888 6451.986029439775
2889 6451.840368428966
2890 6451.985825622349
2891 6451.844063466947
2892 6451.981796762826
2893 6451.843617129836
2894 6451.984733813432
2895 6451.846743372928
2896 6451.989078178499
2897 6451.850770520331
2898 6451.98582712459
2899 6451.849251354622
2900 6451.989052672169
2901 6451.84905922334
2902 6451.990786840911
2903 6451.850353320045
2904 6451.993613095359
2905 6451.855444738588
2906 6451.991568984635
2907 6451.853616515675
2908 6451.99517267764
2909 6451.85189763688
2910 6451.985064353903
2911 6451.844935171306
2912 6451.98259572878
2913 6451.840987353824
2914 6451.97825953043
2915 6451.83715609304
2916 6451.976452081503
2917 6451.833248937801
2918 6451.973616587115
2919 6451.834964277858
2920 6451.977112973062
2921 6451.84110833184
2922 6451.979188613687
2923 6451.841759902316
2924 6451.975779790995
2925 6451.841222505484
2926 6451.980214197602
2927 6451.84063141528
2928 6451.974656263799
2929 6451.831421202372
2930 6451.978054501139
2931 6451.842071138085
2932 6451.98261160787
2933 6451.858927973355
2934 6451.999968708054
2935 6451.868719107047
2936 6452.011446031564
2937 6451.874007401811
2938 6452.013431236493
2939 6451.873498616408
2940 6452.013874646547
2941 6451.869419104
2942 6452.005967382989
2943 6451.860161802188
2944 6452.004600474919
2945 6451.855825762882
2946 6451.986048115504
2947 6451.850523223397
2948 6451.987670756345
2949 6451.846587014028
2950 6451.983929955376
2951 6451.839937833575
2952 6451.977357744577
2953 6451.841038131834
2954 6451.984247106146
2955 6451.851391178507
2956 6451.987805947657
2957 6451.852104780203
2958 6451.988225884837
2959 6451.842827523416
2960 6451.979120380619
2961 6451.835084372513
2962 6451.975942911076
2963 6451.828550897128
2964 6451.972528567494
2965 6451.829907767587
2966 6451.97374088906
2967 6451.833217572943
2968 6451.977641790116
2969 6451.834846823514
2970 6451.979339534821
2971 6451.830536263323
2972 6451.969895856462
2973 6451.826315792338
2974 6451.970519040906
2975 6451.828789173434
2976 6451.974194126027
2977 6451.833148530359
2978 6451.97891048907
2979 6451.834801952653
2980 6451.979808885977
2981 6451.839212907816
2982 6451.980206927564
2983 6451.842295981348
2984 6451.985815776849
2985 6451.850011177978
2986 6451.99822505162
2987 6451.855920248809
2988 6452.000479484062
2989 6451.861877921328
2990 6452.003949782222
2991 6451.866175469039
2992 6452.005553231449
2993 6451.864981681866
2994 6452.001781994864
2995 6451.859354440685
2996 6452.004478248787
2997 6451.861134773843
2998 6452.003029647571
2999 6451.855289084904
3000 6451.993065820292
3001 6451.843572457366
3002 6451.978541379183
3003 6451.836497125334
3004 6451.977763077557
3005 6451.832312884608
3006 6451.969950632625
3007 6451.830112558619
3008 6451.973195063155
3009 6451.839630755675
3010 6451.981205007729
3011 6451.83380938555
3012 6451.978059362708
3013 6451.833861432246
3014 6451.97523291708
3015 6451.834152318391
3016 6451.975533521891
3017 6451.83706952927
3018 6451.972356281452
3019 6451.837895666393
3020 6451.976575594188
3021 6451.84337615254
3022 6451.988038418857
3023 6451.852309578147
3024 6451.982882187393
3025 6451.850577332588
3026 6451.989049864494
3027 6451.853240472363
3028 6451.990598952558
3029 6451.854268237037
3030 6451.99441186847
3031 6451.857171887331
3032 6451.995941683173
3033 6451.856658241307
3034 6452.0035125312
3035 6451.86079479281
3036 6451.996667377689
3037 6451.857373165218
3038 6451.999170281507
3039 6451.856153136224
3040 6451.998023459581
3041 6451.851009703008
3042 6451.989154359861
3043 6451.840476110911
3044 6451.978663358253
3045 6451.833196630273
3046 6451.974405751951
3047 6451.826550164753
3048 6451.963003665694
3049 6451.817237740319
3050 6451.955219669752
3051 6451.814742426345
3052 6451.95373511403
3053 6451.814355383908
3054 6451.95375572429
3055 6451.815561351257
3056 6451.96015057456
3057 6451.821293782706
3058 6451.960958329537
3059 6451.821691323994
3060 6451.957462250492
3061 6451.822295448312
3062 6451.961985262615
3063 6451.824526460009
3064 6451.96817123469
3065 6451.829848495949
3066 6451.965628867729
3067 6451.825166924101
3068 6451.968362645346
3069 6451.829241119566
3070 6451.971154417536
3071 6451.825442454028
3072 6451.97375513858
3073 6451.827947116099
3074 6451.974921536294
3075 6451.829770780327
3076 6451.981564381476
3077 6451.83616953312
3078 6451.976425222035
3079 6451.830774750535
3080 6451.971963107695
3081 6451.828257011985
3082 6451.974620000593
3083 6451.827585275511
3084 6451.977320584906
3085 6451.838167222662
3086 6451.981246734874
3087 6451.843047898567
3088 6451.985981657306
3089 6451.84550916734
3090 6451.984028277387
3091 6451.844621106799
3092 6451.977694361495
3093 6451.846145685988
3094 6451.984205040638
3095 6451.854221880799
3096 6451.998013103614
3097 6451.859793482655
3098 6452.002631670071
3099 6451.86219257725
3100 6451.998561047048
3101 6451.854981193772
3102 6451.986927911146
3103 6451.840283977074
3104 6451.974447735839
3105 6451.833565704624
3106 6451.977282243362
3107 6451.837304721606
3108 6451.979380443531
3109 6451.847523451975
3110 6451.984872174473
3111 6451.84769377369
3112 6451.986444525526
3113 6451.848178417314
3114 6451.980799978577
3115 6451.846735280951
3116 6451.979253964395
3117 6451.848384744366
3118 6451.986035635176
3119 6451.851148726659
3120 6451.989676283425
3121 6451.85466732003
3122 6451.993433773854
3123 6451.858124258737
3124 6451.995195532781
3125 6451.860826382771
3126 6451.988865414195
3127 6451.857121412301
3128 6451.984997834927
3129 6451.855372153142
3130 6451.989108949205
3131 6451.851959702623
3132 6451.981436438566
3133 6451.848347960075
3134 6451.986345730174
3135 6451.853240782698
3136 6451.98675148379
3137 6451.844702678002
3138 6451.979418792809
3139 6451.840936423002
3140 6451.977485555305
3141 6451.839773310671
3142 6451.982907752047
3143 6451.837022399358
3144 6451.977468464968
3145 6451.831055551736
3146 6451.980120612106
3147 6451.834585742418
3148 6451.986022883676
3149 6451.842469557955
3150 6451.985725394758
3151 6451.846250528628
3152 6451.985491652747
3153 6451.848955200347
3154 6451.993229574994
3155 6451.852877711102
3156 6451.996997028695
3157 6451.855259171369
3158 6451.997909307482
3159 6451.852347760318
3160 6451.989515686713
3161 6451.845418829396
3162 6451.978811187865
3163 6451.835293532989
3164 6451.969279441169
3165 6451.826823600959
3166 6451.967870921209
3167 6451.828653274385
3168 6451.967350435891
3169 6451.831512014707
3170 6451.971167509961
3171 6451.834302136485
3172 6451.969028685377
3173 6451.828558806106
3174 6451.965490663733
3175 6451.822569527388
3176 6451.957408049833
3177 6451.816030687323
3178 6451.956513451304
3179 6451.811485439886
3180 6451.947838213174
3181 6451.807032393492
3182 6451.94990989832
3183 6451.8139194726
3184 6451.959961066293
3185 6451.819475777157
3186 6451.964096460503
3187 6451.827316475173
3188 6451.976342610047
3189 6451.836151944472
3190 6451.982400638421
3191 6451.841693302421
3192 6451.992927074308
3193 6451.85086956025
3194 6451.991280154102
3195 6451.85092890376
3196 6452.00206696606
3197 6451.859527011114
3198 6452.001315107929
3199 6451.861618458403
3200 6452.004086647415
3201 6451.868512742955
3202 6452.002436314108
3203 6451.866998313735
3204 6452.001274392763
3205 6451.862407071279
3206 6451.998447734894
3207 6451.857959892204
3208 6451.997412520024
3209 6451.85585878222
3210 6451.993313971376
3211 6451.853257913714
3212 6451.984836103356
3213 6451.843414074151
3214 6451.987640666304
3215 6451.840472679249
3216 6451.98157410816
3217 6451.838449474515
3218 6451.983569132712
3219 6451.838286741002
3220 6451.974380701638
3221 6451.830465587933
3222 6451.963428153688
3223 6451.825986702238
3224 6451.964775039013
3225 6451.829620777698
3226 6451.972355430234
3227 6451.833515735419
3228 6451.976908461676
3229 6451.835917169894
3230 6451.976254026001
3231 6451.836908505067
3232 6451.988005231346
3233 6451.847273741409
3234 6451.988691971337
3235 6451.851496649389
3236 6451.987549235263
3237 6451.860724689343
3238 6451.995443193935
3239 6451.863040025536
3240 6451.999678237026
3241 6451.865662959279
3242 6451.999340174818
3243 6451.869874785263
3244 6452.002812924642
3245 6451.871914182268
3246 6452.000792858777
3247 6451.870360612995
3248 6452.003285461707
3249 6451.859755419257
3250 6452.001748618925
3251 6451.859027217423
3252 6451.987645860822
3253 6451.847497188637
3254 6451.986382652312
3255 6451.840667191618
3256 6451.978145759732
3257 6451.83420250031
3258 6451.971563020132
3259 6451.831832055854
3260 6451.963545188873
3261 6451.827506958858
3262 6451.968125758714
3263 6451.823819489466
3264 6451.955623559064
3265 6451.814626671878
3266 6451.949800070608
3267 6451.806646714251
3268 6451.945288484801
3269 6451.800699446644
3270 6451.940756717399
3271 6451.800556200288
3272 6451.946710635969
3273 6451.808013461365
3274 6451.956876962027
3275 6451.818092701163
3276 6451.965573094169
3277 6451.830142333583
3278 6451.978296516749
3279 6451.842136643485
3280 6451.985970413942
3281 6451.845862657144
3282 6451.988939371277
3283 6451.846030073722
3284 6451.983941478024
3285 6451.84344181933
3286 6451.987987548931
3287 6451.848688972151
3288 6451.994566653001
3289 6451.852075516456
3290 6452.003199873309
3291 6451.859867729346
3292 6452.003227960875
3293 6451.861858926608
3294 6451.995776903595
3295 6451.853121677235
3296 6451.991991516355
3297 6451.853974361133
3298 6451.989428121754
3299 6451.850812311924
3300 6451.978758753419
3301 6451.848516997358
3302 6451.97793310212
3303 6451.846398651553
3304 6451.978395810865
3305 6451.843489131338
3306 6451.976017020786
3307 6451.840958258993
3308 6451.975210692241
3309 6451.842831963523
3310 6451.981710207256
3311 6451.845328576164
3312 6451.98178918132
3313 6451.848479349917
3314 6451.983527034761
3315 6451.845694623374
3316 6451.990774156801
3317 6451.840631481512
3318 6451.983870929395
3319 6451.833694577612
3320 6451.976890969672
3321 6451.831288220684
3322 6451.977013093967
3323 6451.832968700131
3324 6451.984087550783
3325 6451.840811634442
3326 6451.993333618999
3327 6451.851702281939
3328 6452.003808317692
3329 6451.861453542369
3330 6452.007509498681
3331 6451.862318313366
3332 6451.999286505164
3333 6451.850969835957
3334 6451.998881257206
3335 6451.853487795214
3336 6451.989818706037
3337 6451.854043170468
3338 6451.995174063714
3339 6451.854712103717
3340 6451.990706928224
3341 6451.850654146591
3342 6451.977110782856
3343 6451.841041340988
3344 6451.973367406385
3345 6451.83546775165
3346 6451.962353611489
3347 6451.828915456122
3348 6451.961799427368
3349 6451.828422196948
3350 6451.961747320855
3351 6451.836817973751
3352 6451.97140316223
3353 6451.835661128327
3354 6451.966463671787
3355 6451.837791002347
3356 6451.975250955364
3357 6451.841522035445
3358 6451.973965644679
3359 6451.841406665735
3360 6451.974356155381
3361 6451.832165220253
3362 6451.97375695912
3363 6451.838289001353
3364 6451.973107629891
3365 6451.833178393771
3366 6451.970874023114
3367 6451.83310413106
3368 6451.970792465264
3369 6451.83252079049
3370 6451.976559552586
3371 6451.834695304762
3372 6451.973410616097
3373 6451.833379677464
3374 6451.974339583958
3375 6451.834240887256
3376 6451.977426474917
3377 6451.835007526071
3378 6451.974795586162
3379 6451.835263193556
3380 6451.980369356232
3381 6451.839096849391
3382 6451.979291439662
3383 6451.840868770221
3384 6451.984586790807
3385 6451.84410473356
3386 6451.980103549703
3387 6451.843353632452
3388 6451.985793921999
3389 6451.842202299275
3390 6451.97592605352
3391 6451.83189053536
3392 6451.974209387243
3393 6451.829611477067
3394 6451.971072276705
3395 6451.829054623269
3396 6451.971724894377
3397 6451.83757977031
3398 6451.978507635036
3399 6451.845470295639
3400 6451.985208093278
3401 6451.843470668708
3402 6451.981762749057
3403 6451.842049919658
3404 6451.978416242319
3405 6451.837217184443
3406 6451.984974361181
3407 6451.842907150588
3408 6451.982881552015
3409 6451.840990196269
3410 6451.987378571971
3411 6451.847721568452
3412 6451.990611879893
3413 6451.851546883297
3414 6451.996495468147
3415 6451.858535878452
3416 6451.996907314027
3417 6451.854026876032
3418 6451.994054620747
3419 6451.852625527745
3420 6451.983859421989
3421 6451.843386589288
3422 6451.979743956447
3423 6451.841053592069
3424 6451.980435559966
3425 6451.843854440519
3426 6451.979024779898
3427 6451.840534818583
3428 6451.977218398969
3429 6451.840120502582
3430 6451.981684734404
3431 6451.841800425377
3432 6451.982403049811
3433 6451.843970193817
3434 6451.981498346778
3435 6451.84383204517
3436 6451.984802719508
3437 6451.838249242499
3438 6451.971262666818
3439 6451.831539594796
3440 6451.970716650202
3441 6451.837892575775
3442 6451.980687757591
3443 6451.844417231989
3444 6451.993589958794
3445 6451.849707589568
3446 6451.994630451708
3447 6451.850634706831
3448 6451.992749284752
3449 6451.849599020812
3450 6451.98392767577
3451 6451.843236724936
3452 6451.971902388095
3453 6451.837721900735
3454 6451.975208582432
3455 6451.844576513503
3456 6451.977649821748
3457 6451.84975515019
3458 6451.987985698368
3459 6451.856643285786
3460 6451.990565141508
3461 6451.860174708522
3462 6451.989895051839
3463 6451.858208596949
3464 6451.990541930584
3465 6451.847651479838
3466 6451.980730184006
3467 6451.840759558521
3468 6451.972647957427
3469 6451.832532596125
3470 6451.964603726609
3471 6451.825547126445
3472 6451.967472845147
3473 6451.822971390306
3474 6451.954525324802
3475 6451.818352360438
3476 6451.960297844498
3477 6451.824941641973
3478 6451.965676246848
3479 6451.823584732842
3480 6451.968096981352
3481 6451.830205379012
3482 6451.974651508676
3483 6451.846006209143
3484 6451.987416931624
3485 6451.848494690278
3486 6451.984157475719
3487 6451.845744719718
3488 6451.988130604727
3489 6451.846075054592
3490 6451.987856206945
3491 6451.846867733349
3492 6451.985804626488
3493 6451.846055191277
3494 6451.987205108327
3495 6451.85201308972
3496 6451.997984389834
3497 6451.863033733625
3498 6452.005262306701
3499 6451.870063201702
3500 6452.009210160148
3501 6451.864787145361
3502 6452.010688698915
3503 6451.865246447507
3504 6452.008959596423
3505 6451.856887825394
3506 6452.003484996975
3507 6451.851557791518
3508 6451.998661218134
3509 6451.856400479238
3510 6451.994780002943
3511 6451.855723337618
3512 6451.998179210649
3513 6451.861335062307
3514 6452.001812528211
3515 6451.860918854868
3516 6452.003666613296
3517 6451.861643847054
3518 6451.997298830812
3519 6451.855125300956
3520 6451.995299293144
3521 6451.847461950324
3522 6451.98217373506
3523 6451.839524470915
3524 6451.972206298248
3525 6451.832104172346
3526 6451.970002358149
3527 6451.830766384432
3528 6451.968939166189
3529 6451.834799725957
3530 6451.979745214296
3531 6451.842821723103
3532 6451.985010884254
3533 6451.848370476285
3534 6451.992481219097
3535 6451.85458165031
3536 6451.994274058445
3537 6451.854247128787
3538 6452.00162427688
3539 6451.859767345904
3540 6452.002197460101
3541 6451.859016785837
3542 6452.001694144162
3543 6451.861267520027
3544 6452.002397100757
3545 6451.866153788192
3546 6452.003513060781
3547 6451.868966379713
3548 6452.006584762229
3549 6451.870370499895
3550 6452.007381235296
3551 6451.868565872506
3552 6452.003102476135
3553 6451.859252839558
3554 6451.997055179144
3555 6451.858047469001
3556 6451.990487693051
3557 6451.846009856286
3558 6451.977780977332
3559 6451.841347737992
3560 6451.971529089899
3561 6451.835431672804
3562 6451.972191849884
3563 6451.832881514228
3564 6451.971023236141
3565 6451.828256808916
3566 6451.96614321021
3567 6451.830920176173
3568 6451.973338540686
3569 6451.831529494183
3570 6451.963999005179
3571 6451.826822368688
3572 6451.964698805851
3573 6451.827051599439
3574 6451.970952962846
3575 6451.829883932192
3576 6451.969597164808
3577 6451.82699441987
3578 6451.970208805671
3579 6451.823255114658
3580 6451.966259335467
3581 6451.828282487753
3582 6451.970328093394
3583 6451.838246598652
3584 6451.97435831795
3585 6451.847452265406
3586 6451.990900636179
3587 6451.858278473057
3588 6451.998995136766
3589 6451.863214139805
3590 6452.004503609775
3591 6451.863008568242
3592 6452.002318180296
3593 6451.859883994212
3594 6451.992457073786
3595 6451.855550562934
3596 6451.998781156376
3597 6451.863959274661
3598 6452.009377161223
3599 6451.869054957074
3600 6452.014887033566
3601 6451.871934501974
3602 6452.00590362355
3603 6451.866366147578
3604 6452.001155345411
3605 6451.858066657417
3606 6451.988313965941
3607 6451.847636513772
3608 6451.98504082855
3609 6451.848006219967
3610 6451.98250794382
3611 6451.846215673755
3612 6451.983859548058
3613 6451.839583992217
3614 6451.986363715023
3615 6451.84356217048
3616 6451.990675207516
3617 6451.844518819532
3618 6451.987336153604
3619 6451.843211879366
3620 6451.988142868133
3621 6451.844110702862
3622 6451.993664859189
3623 6451.851792738684
3624 6451.993740148262
3625 6451.856444141855
3626 6451.99444613398
3627 6451.858006508744
3628 6451.998464548706
3629 6451.856169513057
3630 6451.994625275434
3631 6451.852814041277
3632 6451.998889639944
3633 6451.859850732061
3634 6452.003753961141
3635 6451.863993989439
3636 6452.007750893596
3637 6451.873428217526
3638 6452.01057858768
3639 6451.873011552729
3640 6452.01085911572
3641 6451.866722688076
3642 6451.999908253145
3643 6451.862131813356
3644 6451.999595302432
3645 6451.85958263479
3646 6451.999102541216
3647 6451.859098556688
3648 6451.995083101181
3649 6451.85264936949
3650 6451.994280486612
3651 6451.849851513311
3652 6451.991151564515
3653 6451.845592263569
3654 6451.975743116883
3655 6451.831979239323
3656 6451.966865796341
3657 6451.825726614998
3658 6451.96859919447
3659 6451.827214115292
3660 6451.967640434026
3661 6451.833507096735
3662 6451.978452323008
3663 6451.83992847928
3664 6451.985186907688
3665 6451.843536794177
3666 6451.979002785738
3667 6451.839534818517
3668 6451.975627627902
3669 6451.841816195517
3670 6451.982676052224
3671 6451.843539423495
3672 6451.983994157696
3673 6451.842773421862
3674 6451.984361834267
3675 6451.845238286169
3676 6451.992208098794
3677 6451.851470253042
3678 6451.982393786039
3679 6451.845234207696
3680 6451.979862974969
3681 6451.846332424792
3682 6451.98819841635
3683 6451.848311831423
3684 6451.989863579159
3685 6451.848734657219
3686 6451.992211736311
3687 6451.850909710109
3688 6451.990442789684
3689 6451.848887676484
3690 6451.983986015489
3691 6451.842692800694
3692 6451.979294838219
3693 6451.849784978743
3694 6451.991168688246
3695 6451.855427397864
3696 6451.993363747409
3697 6451.863018499265
3698 6452.000655573117
3699 6451.864914339239
3700 6452.00738611335
3701 6451.8719908759
3702 6452.004858508722
3703 6451.869314507022
3704 6452.003867391424
3705 6451.856996841934
3706 6451.988413903551
3707 6451.847144954264
3708 6451.982065915955
3709 6451.841124481364
3710 6451.985490816664
3711 6451.848555390732
3712 6451.989206936651
3713 6451.849761734438
3714 6451.992847760172
3715 6451.8511086928
3716 6451.99111346707
3717 6451.850630660714
3718 6451.99190364974
3719 6451.847813949691
3720 6451.992058148357
3721 6451.850016272011
3722 6451.985201423377
3723 6451.841711954487
3724 6451.982817068221
3725 6451.836573098221
3726 6451.972266518621
3727 6451.827151186571
3728 6451.970090227293
3729 6451.829758357926
3730 6451.970181574176
3731 6451.833696970033
3732 6451.982556422655
3733 6451.845258214143
3734 6451.982177156023
3735 6451.844937700536
3736 6451.98612653179
3737 6451.843962162716
3738 6451.980373818831
3739 6451.843334354252
3740 6451.982706270785
3741 6451.84166884759
3742 6451.980205661035
3743 6451.842684222469
3744 6451.987686268736
3745 6451.84894808126
3746 6451.991561343571
3747 6451.855893682658
3748 6451.996290872104
3749 6451.851592503072
3750 6451.990497644108
3751 6451.846996741136
3752 6451.982470281921
3753 6451.842570611689
3754 6451.98817966688
3755 6451.841989137019
3756 6451.982372362721
3757 6451.839602026184
3758 6451.97908152473
3759 6451.835829418299
3760 6451.975860388317
3761 6451.833132421826
3762 6451.965205676751
3763 6451.825305782906
3764 6451.95514725409
3765 6451.823971626893
3766 6451.960622373977
3767 6451.829852980332
3768 6451.96193519487
3769 6451.831433366566
3770 6451.967651340913
3771 6451.834467666949
3772 6451.969593975497
3773 6451.835272608344
3774 6451.9659548388
3775 6451.820145013334
3776 6451.959974577447
3777 6451.819475422222
3778 6451.956031118106
3779 6451.814126008936
3780 6451.957050851897
3781 6451.81266368087
3782 6451.957881155767
3783 6451.816774646134
3784 6451.961647151325
3785 6451.820394090986
3786 6451.958692529973
3787 6451.821050917809
3788 6451.969145276048
3789 6451.831986909242
3790 6451.969218688345
3791 6451.830470537368
3792 6451.980360991915
3793 6451.839238992303
3794 6451.979743458358
3795 6451.843024592887
3796 6451.994100972954
3797 6451.85741891122
3798 6451.993430441912
3799 6451.863585778876
3800 6451.997276531564
3801 6451.868841204752
3802 6452.001704438475
3803 6451.870122406918
3804 6452.000586656726
3805 6451.870971608575
3806 6452.008273136897
3807 6451.870868733226
3808 6452.001968090231
3809 6451.863394498285
3810 6451.992978941727
3811 6451.851065656583
3812 6451.977571618354
3813 6451.83420821909
3814 6451.97367966346
3815 6451.831251573891
3816 6451.971537488962
3817 6451.831479122777
3818 6451.982816137347
3819 6451.848870974636
3820 6451.982342213767
3821 6451.846856225949
3822 6451.980891200233
3823 6451.844365519978
3824 6451.981863940764
3825 6451.845445516155
3826 6451.979285987818
3827 6451.835879601333
3828 6451.975525152349
3829 6451.834927823624
3830 6451.975274580486
3831 6451.831367516172
3832 6451.987123109627
3833 6451.845324328531
3834 6451.988488725664
3835 6451.84686928797
3836 6451.995439174004
3837 6451.854381152284
3838 6451.993926822522
3839 6451.851802239052
3840 6451.99660663648
3841 6451.857205722024
3842 6452.00081825377
3843 6451.862383837113
3844 6452.009360974493
3845 6451.867723108732
3846 6452.006389711491
3847 6451.86260481482
3848 6452.002542614214
3849 6451.856900893532
3850 6451.999498759463
3851 6451.858033097856
3852 6451.999593007525
3853 6451.858472168752
3854 6452.002270617583
3855 6451.857618371251
3856 6452.000007927921
3857 6451.855855050452
3858 6451.986432528687
3859 6451.843607241442
3860 6451.980463862724
3861 6451.835831175425
3862 6451.974901973908
3863 6451.834620360784
3864 6451.965877619298
3865 6451.828008699157
3866 6451.961322510834
3867 6451.827288641988
3868 6451.964541470636
3869 6451.823928626317
3870 6451.957016267892
3871 6451.82154488182
3872 6451.958021682892
3873 6451.822716775633
3874 6451.957250121328
3875 6451.819829766568
3876 6451.961325524163
3877 6451.826114170925
3878 6451.9615950048
3879 6451.824071661142
3880 6451.968718090151
3881 6451.827693326767
3882 6451.96167298255
3883 6451.826978822932
3884 6451.967920581392
3885 6451.835485619465
3886 6451.974329882662
3887 6451.839987389286
3888 6451.982973112073
3889 6451.84679143191
3890 6451.979772048519
3891 6451.843577541142
3892 6451.987871537395
3893 6451.851103349064
3894 6451.986730411474
3895 6451.850838900806
3896 6451.991090379591
3897 6451.852752236055
3898 6451.998872912977
3899 6451.855634385201
3900 6451.993599955134
3901 6451.852667443164
3902 6451.999053037253
3903 6451.856535882759
3904 6451.998570240809
3905 6451.857801940197
3906 6451.991974461778
3907 6451.855390129521
3908 6451.987360723413
3909 6451.852679705489
3910 6451.984723680743
3911 6451.839330795003
3912 6451.975872842875
3913 6451.839454753483
3914 6451.9707137782
3915 6451.836469735493
3916 6451.970723983679
3917 6451.835042197382
3918 6451.962416480535
3919 6451.830898400514
3920 6451.964484425082
3921 6451.830177561901
3922 6451.966010593013
3923 6451.828355616347
3924 6451.970402412707
3925 6451.83006218227
3926 6451.974950785875
3927 6451.835954265105
3928 6451.97754865471
3929 6451.838595758684
3930 6451.985843611445
3931 6451.848425083736
3932 6451.991131120873
3933 6451.853246964214
3934 6452.000258417012
3935 6451.859060378481
3936 6452.004707535975
3937 6451.858818475078
3938 6452.005749512958
3939 6451.856226100339
3940 6452.002295947549
3941 6451.857132804575
3942 6451.994612832137
3943 6451.852197307182
3944 6451.995753299673
3945 6451.854085186073
3946 6451.993114440572
3947 6451.849255575828
3948 6451.98815136484
3949 6451.853187988469
3950 6451.98421247511
3951 6451.847560193107
3952 6451.986560967319
3953 6451.843023719886
3954 6451.974222517716
3955 6451.833211564776
3956 6451.971928921849
3957 6451.831364604916
3958 6451.972221898508
3959 6451.83110337761
3960 6451.966638600114
3961 6451.825701122823
3962 6451.963350655079
3963 6451.824285195363
3964 6451.96430430432
3965 6451.823076485626
3966 6451.960461302242
3967 6451.818848450832
3968 6451.958915867269
3969 6451.819960033292
3970 6451.967423654066
3971 6451.825867275357
3972 6451.972185271537
3973 6451.829607995129
3974 6451.971785148645
3975 6451.830896798351
3976 6451.974789361952
3977 6451.833348065253
3978 6451.967293664837
3979 6451.827590108159
3980 6451.967702559089
3981 6451.830784318848
3982 6451.964987574484
3983 6451.828392200289
3984 6451.966884694241
3985 6451.833592530977
3986 6451.973914454584
3987 6451.836606900468
3988 6451.976458568868
3989 6451.841413450535
3990 6451.968804952189
3991 6451.831146753077
3992 6451.966696539507
3993 6451.829885829122
3994 6451.962265336861
3995 6451.827582907707
3996 6451.967042227735
3997 6451.832014544181
3998 6451.970314636081
3999 6451.839048142011
4000 6451.97386406742
4001 6451.842021061469
4002 6451.967672110582
4003 6451.840224112497
4004 6451.977484230253
4005 6451.847726931631
4006 6451.988016976527
4007 6451.851417111291
4008 6451.991658421516
4009 6451.854293184519
4010 6451.997181980836
4011 6451.858124503557
4012 6451.995890802116
4013 6451.854353006031
4014 6451.986133615774
4015 6451.843161144194
4016 6451.984265980416
4017 6451.848413806545
4018 6451.987611878436
4019 6451.850669018991
4020 6451.990262294582
4021 6451.850527773548
4022 6451.988722827416
4023 6451.846061930437
4024 6451.988995103738
4025 6451.847689091343
4026 6451.985674083138
4027 6451.841053127841
4028 6451.984163184808
4029 6451.839432839733
4030 6451.982523568906
4031 6451.8370125383
4032 6451.986667645221
4033 6451.844292476993
4034 6451.985772794413
4035 6451.84862691881
4036 6451.989622751908
4037 6451.853345156806
4038 6451.988597454469
4039 6451.849601165814
4040 6451.990206213329
4041 6451.8532416401
4042 6451.994237804961
4043 6451.852407415756
4044 6451.986501576794
4045 6451.848242633594
4046 6451.982840930863
4047 6451.844631616064
4048 6451.980814160167
4049 6451.840407188645
4050 6451.976942505027
4051 6451.837766761071
4052 6451.978632807571
4053 6451.842355907867
4054 6451.979979363898
4055 6451.848676150653
4056 6451.987312468506
4057 6451.852090759735
4058 6451.990249752169
4059 6451.852724011722
4060 6451.989401296373
4061 6451.848859788415
4062 6451.986340301532
4063 6451.846680250575
4064 6451.984101951352
4065 6451.841788714198
4066 6451.985763251332
4067 6451.84020170874
4068 6451.978252595786
4069 6451.835248051942
4070 6451.974155385404
4071 6451.83343891313
4072 6451.973504915698
4073 6451.832217480086
4074 6451.965201654088
4075 6451.823140735036
4076 6451.961950467888
4077 6451.822909544517
4078 6451.961256386138
4079 6451.81543857934
4080 6451.955732162503
4081 6451.814112135249
4082 6451.956840638186
4083 6451.817776433262
4084 6451.955211385655
4085 6451.816738755973
4086 6451.961255028614
4087 6451.825500915239
4088 6451.96028103982
4089 6451.828854183597
4090 6451.973303730054
4091 6451.837009939677
4092 6451.975058547968
4093 6451.837575120388
4094 6451.982274512451
4095 6451.838091048578
4096 6451.977641392521
4097 6451.835801430326
4098 6451.978846984636
4099 6451.837343092445
4100 6451.971236169511
4101 6451.843062065351
4102 6451.985055741963
4103 6451.849463094274
4104 6451.991233215992
4105 6451.850271779719
4106 6452.000219042328
4107 6451.860631214441
4108 6452.003566474356
4109 6451.868898764195
4110 6452.004976656393
4111 6451.874321480826
4112 6452.009168802691
4113 6451.871166325088
4114 6452.008936078018
4115 6451.86581916974
4116 6452.003332588713
4117 6451.862678692379
4118 6451.998737708264
4119 6451.85320827438
4120 6451.988028970045
4121 6451.844258163741
4122 6451.974207879946
4123 6451.835357002498
4124 6451.96660836425
4125 6451.838254255418
4126 6451.976907553533
4127 6451.841702005336
4128 6451.97315797956
4129 6451.843280483435
4130 6451.980449028507
4131 6451.84302619456
4132 6451.975750411309
4133 6451.836565710512
4134 6451.966273036133
4135 6451.830232277443
4136 6451.963371999888
4137 6451.829998541823
4138 6451.964149285133
4139 6451.830783419452
4140 6451.976203536376
4141 6451.836761021866
4142 6451.987449598098
4143 6451.849929325602
4144 6451.995681396311
4145 6451.855764642974
4146 6451.993745834298
4147 6451.851159822969
4148 6451.994810833845
4149 6451.849740702481
4150 6452.002689870247
4151 6451.85600363976
4152 6452.003895642772
4153 6451.852502564014
4154 6452.002238753483
4155 6451.846709280459
4156 6451.994551457708
4157 6451.844012234238
4158 6451.990953800409
4159 6451.842199426953
4160 6451.983972319639
4161 6451.843267791626
4162 6451.981437632106
4163 6451.84045656722
4164 6451.97464167928
4165 6451.835252817264
4166 6451.967395457491
4167 6451.828922641427
4168 6451.964871786091
4169 6451.823097820413
4170 6451.954140538701
4171 6451.821371306098
4172 6451.952781878057
4173 6451.816599580336
4174 6451.956080367469
4175 6451.813735599666
4176 6451.9524261827
4177 6451.812261300244
4178 6451.95109982417
4179 6451.815826696713
4180 6451.959687212236
4181 6451.813010870795
4182 6451.954046698741
4183 6451.807948176811
4184 6451.943448686085
4185 6451.802944758801
4186 6451.949170341547
4187 6451.810362682162
4188 6451.955563314795
4189 6451.820208380045
4190 6451.966844516048
4191 6451.834675012145
4192 6451.977702529908
4193 6451.842484881472
4194 6451.986462331412
4195 6451.84939896448
4196 6451.993134999333
4197 6451.860917989843
4198 6451.997684452425
4199 6451.862175334042
4200 6452.000942531306
4201 6451.86212260444
4202 6451.998941906144
4203 6451.858072087511
4204 6451.992387675155
4205 6451.850479024737
4206 6451.976128182881
4207 6451.84247726411
4208 6451.976233690092
4209 6451.843921285467
4210 6451.977176298731
4211 6451.842319909341
4212 6451.980584982354
4213 6451.846547127232
4214 6451.981704708213
4215 6451.848658561897
4216 6451.987546372266
4217 6451.84153354596
4218 6451.983664936704
4219 6451.841088440652
4220 6451.985895880246
4221 6451.846448046264
4222 6451.983901000579
4223 6451.843270143831
4224 6451.983855645013
4225 6451.839071259775
4226 6451.984049772927
4227 6451.84244636996
4228 6451.987296228036
4229 6451.847526705866
4230 6451.976396749338
4231 6451.83763145909
4232 6451.974024605901
4233 6451.839056585916
4234 6451.969590144839
4235 6451.835137242601
4236 6451.977301030863
4237 6451.84466441716
4238 6451.980600902912
4239 6451.848919015967
4240 6451.992638621319
4241 6451.858155468673
4242 6451.995905907514
4243 6451.861757144328
4244 6452.002880651827
4245 6451.871030908444
4246 6452.008526279479
4247 6451.867227776186
4248 6452.006402633239
4249 6451.863920175666
4250 6451.998777116404
4251 6451.858255982166
4252 6451.996120977981
4253 6451.853109581558
4254 6451.990112425929
4255 6451.848612557889
4256 6451.984350521334
4257 6451.844041350912
4258 6451.984116714615
4259 6451.84107404478
4260 6451.975612933407
4261 6451.831454554474
4262 6451.975360337829
4263 6451.827641771567
4264 6451.965158799137
4265 6451.820781823806
4266 6451.960151738957
4267 6451.81881960851
4268 6451.959249337032
4269 6451.820421321365
4270 6451.96751873977
4271 6451.830933379991
4272 6451.978616320785
4273 6451.838165638069
4274 6451.985517999319
4275 6451.838303360686
4276 6451.988599080996
4277 6451.83598966004
4278 6451.977227694116
4279 6451.829346650186
4280 6451.975523415152
4281 6451.831250426208
4282 6451.969352051902
4283 6451.831141645482
4284 6451.970201084993
4285 6451.828557509561
4286 6451.963126851191
4287 6451.826565872784
4288 6451.95814595863
4289 6451.823201552333
4290 6451.95588484534
4291 6451.827328843459
4292 6451.959337268318
4293 6451.824409287108
4294 6451.968890590733
4295 6451.836942304087
4296 6451.972618475779
4297 6451.837040332675
4298 6451.97760598804
4299 6451.848633536792
4300 6451.981847169478
4301 6451.846706152072
4302 6451.978743652784
4303 6451.844935978314
4304 6451.975683879455
4305 6451.842094922979
4306 6451.985598288928
4307 6451.849075193479
4308 6451.987681458336
4309 6451.848741138911
4310 6451.987653805199
4311 6451.84373849038
4312 6451.983111242255
4313 6451.837713079906
4314 6451.976456033337
4315 6451.834589283691
4316 6451.97998207431
4317 6451.840125158521
4318 6451.980241389087
4319 6451.842836427993
4320 6451.987954834667
4321 6451.848751830042
4322 6451.986121531132
4323 6451.852130255516
4324 6451.988225244777
4325 6451.848926459393
4326 6451.9757302023
4327 6451.836550336772
4328 6451.974314758725
4329 6451.837818084092
4330 6451.976523901933
4331 6451.837906109822
4332 6451.977485374685
4333 6451.837694687604
4334 6451.973046962914
4335 6451.837635503605
4336 6451.973969970687
4337 6451.835600602767
4338 6451.966576496232
4339 6451.831979453186
4340 6451.963025196241
4341 6451.825755787222
4342 6451.963862501979
4343 6451.826957351814
4344 6451.965889613643
4345 6451.827771221408
4346 6451.968330485933
4347 6451.837442998379
4348 6451.976585948096
4349 6451.837557544656
4350 6451.97386688323
4351 6451.8372584109
4352 6451.977848932757
4353 6451.835051902895
4354 6451.974677331029
4355 6451.836615702771
4356 6451.98364446299
4357 6451.848795769522
4358 6451.996937769589
4359 6451.852525948751
4360 6452.001369333009
4361 6451.854911581091
4362 6451.991667651132
4363 6451.84469473737
4364 6451.990048755498
4365 6451.840051944363
4366 6451.987016436623
4367 6451.836121604774
4368 6451.988119289567
4369 6451.837425227309
4370 6451.98371449993
4371 6451.837956398176
4372 6451.987928647851
4373 6451.839357261369
4374 6451.973130813466
4375 6451.832012556326
4376 6451.97245816236
4377 6451.833328207254
4378 6451.971076177148
4379 6451.831544894076
4380 6451.971880054735
4381 6451.834697741917
4382 6451.970061004383
4383 6451.835275403432
4384 6451.968086219761
4385 6451.832799168457
4386 6451.962296778556
4387 6451.823343196883
4388 6451.957165387445
4389 6451.821357343012
4390 6451.962028747676
4391 6451.823783526687
4392 6451.971795723387
4393 6451.833777117114
4394 6451.978120618007
4395 6451.840622947419
4396 6451.991827595591
4397 6451.848434740666
4398 6451.993375425906
4399 6451.852551958297
4400 6451.992731369332
4401 6451.8510911386
4402 6451.990106221067
4403 6451.84758927137
4404 6451.990392531667
4405 6451.844159749856
4406 6451.985251885712
4407 6451.85209092699
4408 6451.991320688175
4409 6451.85575552053
4410 6451.995259266413
4411 6451.860867986195
4412 6451.996629628578
4413 6451.858394283233
4414 6451.999917997796
4415 6451.85524750644
4416 6451.98672069498
4417 6451.843193942974
4418 6451.982226858459
4419 6451.839739244867
4420 6451.977205895571
4421 6451.836102771485
4422 6451.971797150239
4423 6451.835303790951
4424 6451.970730975587
4425 6451.840739029204
4426 6451.979083344132
4427 6451.846098994239
4428 6451.984671497771
4429 6451.846339802938
4430 6451.983129577801
4431 6451.846823545536
4432 6451.983879018298
4433 6451.847017491152
4434 6451.980135327687
4435 6451.845483994862
4436 6451.981872760947
4437 6451.845045598434
4438 6451.981411303366
4439 6451.838254215626
4440 6451.974944518694
4441 6451.835625886255
4442 6451.972335693673
4443 6451.837667100513
4444 6451.976924280401
4445 6451.83861477449
4446 6451.97614338524
4447 6451.841248095438
4448 6451.979434272169
4449 6451.842136040687
4450 6451.984959580069
4451 6451.846238521571
4452 6451.98564875115
4453 6451.845595661053
4454 6451.987874860218
4455 6451.848332407462
4456 6451.990583563177
4457 6451.853430780033
4458 6451.99235562098
4459 6451.855652560759
4460 6451.988804959969
4461 6451.850393344173
4462 6451.995301075865
4463 6451.85011501271
4464 6451.988835946388
4465 6451.841678012509
4466 6451.983540415757
4467 6451.839804341132
4468 6451.969234922579
4469 6451.824035235712
4470 6451.958207400197
4471 6451.815314060091
4472 6451.955176709156
4473 6451.816306096807
4474 6451.958268604331
4475 6451.819072088997
4476 6451.958478682214
4477 6451.821980589913
4478 6451.960898157448
4479 6451.817433634501
4480 6451.956777079045
4481 6451.814546747049
4482 6451.950707493545
4483 6451.809016418898
4484 6451.954572444825
4485 6451.813944618011
4486 6451.957730711952
4487 6451.819609494114
4488 6451.965072259002
4489 6451.826405675375
4490 6451.968932612063
4491 6451.829374463531
4492 6451.975259795105
4493 6451.837500205954
4494 6451.971241239433
4495 6451.839226257768
4496 6451.981347540918
4497 6451.849762073103
4498 6451.99697688222
4499 6451.857057607757
4500 6451.993784243292
4501 6451.855823684121
4502 6451.997489492658
4503 6451.856844058486
4504 6451.990633158357
4505 6451.85519429315
4506 6451.989684071297
4507 6451.846964884634
4508 6451.982309483346
4509 6451.844096639665
4510 6451.976764023661
4511 6451.837243322583
4512 6451.979568230828
4513 6451.841208841243
4514 6451.982393119207
4515 6451.839143109928
4516 6451.987221363925
4517 6451.8416141384
4518 6451.976614798888
4519 6451.837932748884
4520 6451.977039450086
4521 6451.836887385401
4522 6451.977123875499
4523 6451.835137199626
4524 6451.976944347093
4525 6451.840793828542
4526 6451.985042916815
4527 6451.848179118575
4528 6451.989320442351
4529 6451.851141626401
4530 6451.986828222118
4531 6451.858085255698
4532 6451.990059998132
4533 6451.863543640799
4534 6452.00221985075
4535 6451.871036521045
4536 6452.0007402147
4537 6451.866514860094
4538 6452.002778265708
4539 6451.864133743439
4540 6451.999413137798
4541 6451.860663736432
4542 6451.995916645888
4543 6451.85769850532
4544 6451.990042399701
4545 6451.850976786031
4546 6451.995866345957
4547 6451.860103924721
4548 6452.000530437374
4549 6451.858414290891
4550 6452.002417721623
4551 6451.864093982459
4552 6452.006582530816
4553 6451.864512409436
4554 6452.000526418962
4555 6451.853485306684
4556 6451.991848590351
4557 6451.846972146545
4558 6451.988062573303
4559 6451.842882770858
4560 6451.983457899944
4561 6451.844759839142
4562 6451.981204257001
4563 6451.840832714253
4564 6451.979699099858
4565 6451.837857662618
4566 6451.970956768497
4567 6451.834943324388
4568 6451.972128324307
4569 6451.83103493775
4570 6451.974692470583
4571 6451.835451949646
4572 6451.975657596834
4573 6451.836347729291
4574 6451.972084088987
4575 6451.8341697977
4576 6451.974190352337
4577 6451.832172285886
4578 6451.971550508072
4579 6451.836266406711
4580 6451.974196144496
4581 6451.838621621935
4582 6451.984069884184
4583 6451.846164609043
4584 6451.985505332394
4585 6451.843587152479
4586 6451.982886053088
4587 6451.844194952263
4588 6451.980547627368
4589 6451.837508555858
4590 6451.973413256937
4591 6451.830232189728
4592 6451.969125527661
4593 6451.829097715502
4594 6451.965680476818
4595 6451.828859142686
4596 6451.971302016263
4597 6451.830233841371
4598 6451.964749680153
4599 6451.827003154261
4600 6451.969830433994
4601 6451.831062777144
4602 6451.960588203509
4603 6451.829991930141
4604 6451.964119351302
4605 6451.82920681291
4606 6451.972321519526
4607 6451.838318423958
4608 6451.98853247343
4609 6451.844949503343
4610 6451.99655722669
4611 6451.852334437727
4612 6451.998566333269
4613 6451.85072023328
4614 6451.992772395762
4615 6451.846928292435
4616 6451.987509792179
4617 6451.84380657943
4618 6451.991529241422
4619 6451.84864253975
4620 6451.986277769732
4621 6451.844001563236
4622 6451.984045570477
4623 6451.842282714283
4624 6451.978898851489
4625 6451.834907819548
4626 6451.970380987418
4627 6451.832690244021
4628 6451.964950045186
4629 6451.833138538992
4630 6451.973924263039
4631 6451.841292713325
4632 6451.979823045339
4633 6451.840959904956
4634 6451.977358896897
4635 6451.843423457732
4636 6451.981439705161
4637 6451.846750086305
4638 6451.97490661792
4639 6451.839648346432
4640 6451.970318981172
4641 6451.839297480278
4642 6451.969700723192
4643 6451.833185695078
4644 6451.977625692922
4645 6451.844416534915
4646 6451.982548155445
4647 6451.843309755688
4648 6451.975220364911
4649 6451.839254613387
4650 6451.969555398133
4651 6451.832345288197
4652 6451.966102249725
4653 6451.826388372428
4654 6451.9724374135
4655 6451.831845520824
4656 6451.969445707945
4657 6451.830353788988
4658 6451.972332620375
4659 6451.832279545481
4660 6451.977011747434
4661 6451.835415495291
4662 6451.976799095422
4663 6451.841068454342
4664 6451.980359879276
4665 6451.840791616684
4666 6451.985365312114
4667 6451.837415633448
4668 6451.985250530747
4669 6451.842142570437
4670 6451.989121427671
4671 6451.850000237714
4672 6451.991264883593
4673 6451.846438638909
4674 6451.985778426548
4675 6451.839916804874
4676 6451.981415646534
4677 6451.839421309449
4678 6451.978507025854
4679 6451.831400591331
4680 6451.980475767425
4681 6451.830598419449
4682 6451.971638389008
4683 6451.824365774308
4684 6451.969208669707
4685 6451.823269686904
4686 6451.954532921534
4687 6451.808282026952
4688 6451.950026540851
4689 6451.806871156577
4690 6451.946263149061
4691 6451.809262443759
4692 6451.948777725488
4693 6451.81542657765
4694 6451.953023550815
4695 6451.823686384029
4696 6451.96095443073
4697 6451.831865624724
4698 6451.968769158361
4699 6451.835726175263
4700 6451.967171215655
4701 6451.834397797575
4702 6451.973493284318
4703 6451.838184817593
4704 6451.976298859812
4705 6451.839866050387
4706 6451.981840975738
4707 6451.848741391236
4708 6451.990592384112
4709 6451.852306471568
4710 6451.990690275867
4711 6451.853001080705
4712 6451.99666413162
4713 6451.857526948795
4714 6452.000425263032
4715 6451.863020505652
4716 6452.008592923116
4717 6451.866674005268
4718 6452.010537171916
4719 6451.865256731607
4720 6452.013345349403
4721 6451.86345500129
4722 6452.004690216528
4723 6451.852944724758
4724 6451.992993026691
4725 6451.841484182823
4726 6451.979100537699
4727 6451.827946900768
4728 6451.967570206614
4729 6451.823672230357
4730 6451.971827274146
4731 6451.828822871734
4732 6451.969677990636
4733 6451.827838569996
4734 6451.964113844159
4735 6451.827380241702
4736 6451.971962016018
4737 6451.836023592631
4738 6451.978161712174
4739 6451.843684455894
4740 6451.982833866788
4741 6451.848154712667
4742 6451.987857393991
4743 6451.853626140096
4744 6451.991940284293
4745 6451.855403282925
4746 6451.986345153711
4747 6451.85604629028
4748 6451.981488611936
4749 6451.854495503983
4750 6451.98837667471
4751 6451.858218707614
4752 6451.989540023132
4753 6451.861848589316
4754 6451.998421158872
4755 6451.867739871262
4756 6452.002491379199
4757 6451.865710264768
4758 6451.996880090685
4759 6451.852362546122
4760 6451.98800889714
4761 6451.843523090079
4762 6451.981869162579
4763 6451.838150736235
4764 6451.975098655393
4765 6451.836685907099
4766 6451.975640989243
4767 6451.843238230839
4768 6451.983344097958
4769 6451.849358416462
4770 6451.980389880141
4771 6451.845099382922
4772 6451.979517863258
4773 6451.837576003474
4774 6451.974323939406
4775 6451.832354934009
4776 6451.966302257663
4777 6451.82356849209
4778 6451.96177669718
4779 6451.821074730345
4780 6451.961506390252
4781 6451.821250981707
4782 6451.960745297976
4783 6451.820079915866
4784 6451.956881838709
4785 6451.815578467381
4786 6451.959409742419
4787 6451.817715779146
4788 6451.955577360097
4789 6451.819017682818
4790 6451.961602329753
4791 6451.827958292096
4792 6451.971109752926
4793 6451.834174046788
4794 6451.977596922822
4795 6451.83780320913
4796 6451.984299377786
4797 6451.845868891071
4798 6451.988771917506
4799 6451.845546145003
4800 6451.995310675772
4801 6451.855187204298
4802 6451.997968022067
4803 6451.853510397946
4804 6452.001910656755
4805 6451.860644197907
4806 6451.996967190536
4807 6451.856746256223
4808 6451.993579731053
4809 6451.855650356423
4810 6451.991780504968
4811 6451.849668825577
4812 6451.985242026118
4813 6451.851517671417
4814 6451.988821816568
4815 6451.850311409022
4816 6451.991133998404
4817 6451.851161828205
4818 6451.98967539707
4819 6451.84935824853
4820 6451.987756652742
4821 6451.843847498981
4822 6451.988634629165
4823 6451.84563196423
4824 6451.986196782148
4825 6451.850503470031
4826 6451.991558063285
4827 6451.849646912899
4828 6451.992167793064
4829 6451.844386432512
4830 6451.983167048912
4831 6451.837362461347
4832 6451.974078005535
4833 6451.836291534765
4834 6451.978623981838
4835 6451.835993520128
4836 6451.980909925274
4837 6451.839758737631
4838 6451.983530752315
4839 6451.844978141528
4840 6451.991837555765
4841 6451.850138829624
4842 6451.989598205209
4843 6451.846921039506
4844 6451.98834510709
4845 6451.849042130988
4846 6451.989185040448
4847 6451.848193828419
4848 6451.994572569132
4849 6451.851100208802
4850 6451.993588046631
4851 6451.853823811737
4852 6451.995954639661
4853 6451.849185763212
4854 6451.987805266097
4855 6451.846976042883
4856 6451.98906355231
4857 6451.851014075272
4858 6451.994742486394
4859 6451.85435141457
4860 6451.993039073001
4861 6451.851677919252
4862 6451.990667587012
4863 6451.849467396343
4864 6451.986445847901
4865 6451.85141432854
4866 6451.983205429622
4867 6451.845883667963
4868 6451.974990516101
4869 6451.839379803558
4870 6451.976533190673
4871 6451.831759920926
4872 6451.970713256542
4873 6451.835036272982
4874 6451.968304279776
4875 6451.834435060292
4876 6451.976832819153
4877 6451.844139333059
4878 6451.970815230559
4879 6451.836101083683
4880 6451.972694617905
4881 6451.841355373901
4882 6451.974346735868
4883 6451.838963372892
4884 6451.972850906091
4885 6451.835490978616
4886 6451.976007869755
4887 6451.838703411395
4888 6451.972369064923
4889 6451.831826829592
4890 6451.969502835022
4891 6451.826731214763
4892 6451.963143979053
4893 6451.82120347924
4894 6451.970280871924
4895 6451.826202521422
4896 6451.972549076806
4897 6451.830165373256
4898 6451.983816982442
4899 6451.841448399342
4900 6451.984750053415
4901 6451.840924112527
4902 6451.985524121023
4903 6451.840168457262
4904 6451.987176441522
4905 6451.840696276009
4906 6451.988541793933
4907 6451.843576708362
4908 6451.980502928329
4909 6451.841868083109
4910 6451.978103941256
4911 6451.841618652787
4912 6451.981515969626
4913 6451.84184406708
4914 6451.976640657575
4915 6451.839087529857
4916 6451.980657150907
4917 6451.846425315785
4918 6451.984548314435
4919 6451.84798614723
4920 6451.992078203008
4921 6451.855887181579
4922 6451.992935102289
4923 6451.859975869126
4924 6452.004326703668
4925 6451.869364083183
4926 6452.005961893935
4927 6451.86529565932
4928 6452.006605506129
4929 6451.867405700428
4930 6452.002571754261
4931 6451.860860227785
4932 6451.99913376746
4933 6451.85757256916
4934 6451.994811448256
4935 6451.857063435226
4936 6451.994529345989
4937 6451.852634032747
4938 6451.987097318056
4939 6451.84595279319
4940 6451.980011719181
4941 6451.83608256329
4942 6451.971537313464
4943 6451.83521895925
4944 6451.971261050389
4945 6451.835110704589
4946 6451.976737677728
4947 6451.841614025367
4948 6451.982846101583
4949 6451.849677990851
4950 6451.988456619198
4951 6451.862720993092
4952 6451.999395901305
4953 6451.861949362958
4954 6452.004973794879
4955 6451.864890289359
4956 6452.008936163424
4957 6451.866330960283
4958 6452.002578407307
4959 6451.859120187303
4960 6452.000646483768
4961 6451.851975517441
4962 6451.980866980655
4963 6451.847877476404
4964 6451.984760531846
4965 6451.849528179337
4966 6451.987004414664
4967 6451.85096064378
4968 6451.992944843309
4969 6451.854449873956
4970 6451.995921584714
4971 6451.860105576559
4972 6452.002012626895
4973 6451.861948946974
4974 6451.999296713461
4975 6451.85550905867
4976 6451.990061509608
4977 6451.851781014388
4978 6451.990607660659
4979 6451.847485681451
4980 6451.985948668145
4981 6451.839287913466
4982 6451.983473903625
4983 6451.841436758517
4984 6451.978608164127
4985 6451.843458233574
4986 6451.971429833207
4987 6451.838634651232
4988 6451.9674846158
4989 6451.833167668001
4990 6451.963697310707
4991 6451.825766300211
4992 6451.964642333402
4993 6451.831906473029
4994 6451.970027298283
4995 6451.830401822975
4996 6451.967461833607
4997 6451.830053700588
4998 6451.970778691782
4999 6451.834976949884
5000 6451.977257813975
5001 6451.838898195675
5002 6451.988159759036
5003 6451.844039430815
5004 6451.982972700674
5005 6451.843858693925
5006 6451.993532044105
5007 6451.854290136476
5008 6452.003736097301
5009 6451.862312010548
5010 6452.005462460332
5011 6451.860206490728
5012 6452.004653064772
5013 6451.857160720816
5014 6452.008406969254
5015 6451.855556476036
5016 6452.007821928374
5017 6451.855047457066
5018 6452.003363305829
5019 6451.859073261434
5020 6451.99976915527
5021 6451.857748064989
5022 6451.994847894281
5023 6451.850726311515
5024 6451.987235686536
5025 6451.847422466431
5026 6451.989569855859
5027 6451.845106314423
5028 6451.985128734112
5029 6451.845856650789
5030 6451.985449325367
5031 6451.845461109718
5032 6451.982767953075
5033 6451.842163427508
5034 6451.972237130732
5035 6451.833117847925
5036 6451.970010606771
5037 6451.839206754032
5038 6451.978613559851
5039 6451.836297754834
5040 6451.973974263806
5041 6451.838539159009
5042 6451.974972893243
5043 6451.840239459965
5044 6451.973903853181
5045 6451.834591413069
5046 6451.969875247767
5047 6451.832269601742
5048 6451.967484393899
5049 6451.831376106994
5050 6451.979480926613
5051 6451.842216065299
5052 6451.981830077056
5053 6451.843782849542
5054 6451.990584211148
5055 6451.856330967156
5056 6451.995409432763
5057 6451.862106026811
5058 6452.002521416904
5059 6451.86483083749
5060 6451.999086085363
5061 6451.866529626115
5062 6452.000559113637
5063 6451.862741836257
5064 6451.993747809723
5065 6451.855568753565
5066 6451.989964760434
5067 6451.847568271215
5068 6451.981324264463
5069 6451.841524631756
5070 6451.972065643194
5071 6451.831377222507
5072 6451.967590138599
5073 6451.827063244901
5074 6451.965689723282
5075 6451.824465863208
5076 6451.963134316366
5077 6451.822135891434
5078 6451.963924489796
5079 6451.828494161586
5080 6451.971246765685
5081 6451.832092886494
5082 6451.964193636181
5083 6451.825915827918
5084 6451.961732939457
5085 6451.822676395175
5086 6451.960062706024
5087 6451.82120455339
5088 6451.954395091579
5089 6451.815327292482
5090 6451.958627111991
5091 6451.823288972349
5092 6451.967603368307
5093 6451.837131457535
5094 6451.977762613554
5095 6451.843853793449
5096 6451.981059725888
5097 6451.854172810332
5098 6451.993350212493
5099 6451.85599865767
5100 6451.994255250556
5101 6451.852861437187
5102 6451.989856140381
5103 6451.850088805502
5104 6451.992758585023
5105 6451.855800063919
5106 6451.99469649742
5107 6451.85446562984
5108 6451.997483276402
5109 6451.857987873725
5110 6451.997563294308
5111 6451.856563007593
5112 6451.998125470361
5113 6451.855047976272
5114 6451.992323213507
5115 6451.851979322313
5116 6451.993303939563
5117 6451.850280897219
5118 6451.986961097258
5119 6451.847007966701
5120 6451.983900816622
5121 6451.8446681122
5122 6451.983217606338
5123 6451.841261387584
5124 6451.978933075724
5125 6451.840266148912
5126 6451.989599847132
5127 6451.848752401629
5128 6451.991999912273
5129 6451.849221564936
5130 6451.991870539982
5131 6451.851130719117
5132 6451.990901631531
5133 6451.848328088155
5134 6451.996551657382
5135 6451.848409071738
5136 6451.999365661783
5137 6451.854393576225
5138 6452.001867526395
5139 6451.858999626149
5140 6452.007098211291
5141 6451.861703301522
5142 6452.004982848063
5143 6451.859543494436
5144 6452.002033060529
5145 6451.86060073312
5146 6451.997104637459
5147 6451.852854704451
5148 6451.9926782256
5149 6451.85150025129
5150 6451.992153739901
5151 6451.850057304637
5152 6451.998127688858
5153 6451.858729663422
5154 6451.9970677683
5155 6451.858206373089
5156 6452.00180413264
5157 6451.864549638026
5158 6451.997952502018
5159 6451.859134244844
5160 6451.994518157098
5161 6451.859377066757
5162 6451.991937213029
5163 6451.855780388414
5164 6451.987938897746
5165 6451.849760518692
5166 6451.980207896141
5167 6451.844176572628
5168 6451.972788764931
5169 6451.838260744049
5170 6451.977059534236
5171 6451.839932776757
5172 6451.973531776265
5173 6451.834222270214
5174 6451.970835738677
5175 6451.832365993001
5176 6451.964108882512
5177 6451.822954277981
5178 6451.962222189393
5179 6451.82229173115
5180 6451.957624514045
5181 6451.823525360482
5182 6451.963464765143
5183 6451.830748612701
5184 6451.974506207914
5185 6451.84051332231
5186 6451.981482118355
5187 6451.843474087968
5188 6451.988716650239
5189 6451.848952304483
5190 6451.981554692463
5191 6451.838758449353
5192 6451.978533380868
5193 6451.83081578288
5194 6451.973165110326
5195 6451.829418316073
5196 6451.972634135926
5197 6451.828076785269
5198 6451.968443836044
5199 6451.825830713903
5200 6451.971201778614
5201 6451.826691193747
5202 6451.957223479984
5203 6451.822365705761
5204 6451.962659162154
5205 6451.825205867563
5206 6451.966228314149
5207 6451.830159161946
5208 6451.969303427686
5209 6451.831890624688
5210 6451.971943447256
5211 6451.836452589545
5212 6451.978275996623
5213 6451.841975169989
5214 6451.974257846783
5215 6451.841739781717
5216 6451.979911391216
5217 6451.848346323966
5218 6451.982817450034
5219 6451.847527458499
5220 6451.983575393006
5221 6451.848659702679
5222 6451.983892306328
5223 6451.852230009695
5224 6451.986642397746
5225 6451.849059946786
5226 6451.985128405972
5227 6451.84183212782
5228 6451.978547932472
5229 6451.839393013935
5230 6451.983040541267
5231 6451.840882229593
5232 6451.985794460718
5233 6451.844577760029
5234 6451.987378270597
5235 6451.837261551214
5236 6451.983657259868
5237 6451.840602687726
5238 6451.979555822672
5239 6451.838821325059
5240 6451.981351980849
5241 6451.839049386992
5242 6451.980008406929
5243 6451.835182204532
5244 6451.975688287454
5245 6451.834288052253
5246 6451.983035988205
5247 6451.843670652024
5248 6451.985622038334
5249 6451.842789457279
5250 6451.980613373303
5251 6451.837455472923
5252 6451.973650647796
5253 6451.835940299333
5254 6451.980330497742
5255 6451.83380976835
5256 6451.973503528661
5257 6451.83996910634
5258 6451.982139042149
5259 6451.845008741828
5260 6451.991367428434
5261 6451.850097556048
5262 6451.995126753233
5263 6451.846884373169
5264 6451.990024026712
5265 6451.851314113569
5266 6451.987986533392
5267 6451.849319218899
5268 6451.994820792891
5269 6451.857036712755
5270 6451.995343170177
5271 6451.860723160495
5272 6452.000612464775
5273 6451.864052440828
5274 6451.99243535658
5275 6451.860723139525
5276 6451.997091817038
5277 6451.858652498789
5278 6451.984732954466
5279 6451.849233559859
5280 6451.982048446372
5281 6451.8512334685
5282 6451.983410455948
5283 6451.849687089182
5284 6451.982971141938
5285 6451.841426333835
5286 6451.973840298664
5287 6451.838621053836
