"y-rfile"
"Iteration" "y"
("Iteration" "y")
1 11136.21495429413
2 11109.04703778324
3 10347.81551944053
4 9502.653118489259
5 8295.878241467286
6 7393.723273710915
7 6309.461052733264
8 5353.231121758826
9 4418.819716534754
10 3651.855186957902
11 2954.609244992288
12 2377.769113627526
13 2022.217528159154
14 1787.692092157915
15 1712.005315106697
16 1744.500414227756
17 1850.890462116052
18 2028.101538652631
19 2223.957240833142
20 2436.932203204252
21 2657.896065861768
22 2871.807246167927
23 3048.493424576659
24 3234.286633606117
25 3393.650685610372
26 3528.693189176118
27 3651.813402759423
28 3747.023550758388
29 3817.960142177637
30 3871.902208653813
31 3911.419055149943
32 3941.314743791553
33 3962.256288564714
34 3980.443135616254
35 3995.303877884429
36 4009.786752198109
37 4022.832258053127
38 4037.450570688938
39 4051.320656938988
40 4067.012483022334
41 4084.004636929696
42 4102.107780211473
43 4124.041310822594
44 4145.255089557056
45 4168.14161212027
46 4188.801755507559
47 4207.602859067718
48 4224.683366066938
49 4239.964050509769
50 4253.974857855015
51 4265.662543533007
52 4278.816074256588
53 4288.1140188453
54 4299.685372552016
55 4307.752362576349
56 4318.796654154944
57 4327.838549221806
58 4337.617171769959
59 4345.56893718946
60 4354.438382464621
61 4363.735014607621
62 4376.264202064111
63 4385.279879240655
64 4397.294164549528
65 4407.797336139723
66 4417.300849096221
67 4425.56220781385
68 4432.848222278803
69 4439.102875644548
70 4444.538876792098
71 4449.044387872877
72 4453.016228509328
73 4456.158544031236
74 4458.999988832217
75 4461.335811852383
76 4463.060586386041
77 4465.247815705217
78 4466.851733269479
79 4468.555061172922
80 4470.376399405731
81 4472.145519205495
82 4474.078356110616
83 4475.901549937014
84 4477.855326364887
85 4479.161875401474
86 4481.381309137514
87 4483.304203723544
88 4485.090641027688
89 4486.584152959776
90 4488.03713662832
91 4489.179277242414
92 4490.202232975204
93 4490.969898430185
94 4491.614292863942
95 4492.03401661115
96 4492.381914385363
97 4492.537491032674
98 4492.632023046081
99 4492.553773919855
100 4492.437400426972
101 4492.212705109047
102 4492.030738635474
103 4491.708171313666
104 4491.645338954377
105 4491.417771299573
106 4491.404184675492
107 4491.313475378009
108 4491.319151523069
109 4491.322061725215
110 4491.510098669691
111 4491.656351747148
112 4491.978846527561
113 4492.100985534721
114 4492.395939787514
115 4492.622229176079
116 4493.092473824915
117 4493.260914114874
118 4493.567522501271
119 4493.772384662108
120 4494.186730681928
121 4494.304415698527
122 4494.602990922775
123 4494.778868831727
124 4495.14192786203
125 4495.237926529903
126 4495.517181209613
127 4495.751918607392
128 4496.130462965469
129 4496.423194093828
130 4496.879954499154
131 4497.27685836695
132 4497.859001683478
133 4498.408567974321
134 4499.114090672822
135 4499.77287502544
136 4500.635881042132
137 4501.415508430098
138 4502.363232503971
139 4503.273715005873
140 4504.368447197001
141 4505.353405916057
142 4506.54333671005
143 4507.667006238936
144 4508.969514791335
145 4510.197526903445
146 4511.606604597652
147 4512.941186660086
148 4514.439453678612
149 4516.518257984453
150 4517.986641641733
151 4519.370491697804
152 4520.92998249395
153 4523.06914551659
154 4524.554158809846
155 4525.964351703281
156 4528.211090656363
157 4529.574220330995
158 4531.08326134354
159 4533.181245885156
160 4534.681579492413
161 4536.100641071784
162 4538.36962878649
163 4539.732523661101
164 4541.953792830576
165 4543.293754956757
166 4545.505327908973
167 4546.846524733155
168 4548.34754094312
169 4550.430978632282
170 4551.893278613711
171 4553.91746033939
172 4555.366859409761
173 4557.337647715168
174 4558.731931558515
175 4560.646641971912
176 4561.983591628991
177 4563.829145018936
178 4565.120434222257
179 4566.831407159936
180 4568.059618025847
181 4569.67893684386
182 4570.842209853284
183 4572.400320066892
184 4573.475067971595
185 4574.912835507114
186 4575.941927806492
187 4577.311498571632
188 4578.270280159337
189 4579.522315248575
190 4580.406124152351
191 4581.512244923815
192 4582.320095652279
193 4583.313171852004
194 4584.025990421173
195 4584.888233861459
196 4585.530921024882
197 4586.052225087925
198 4586.935174802811
199 4587.386614822791
200 4587.933412215057
201 4588.567266224562
202 4589.038885214534
203 4589.383755063936
204 4589.822115457227
205 4590.130221071439
206 4590.537360367473
207 4590.809692495384
208 4591.315802665978
209 4591.52607510611
210 4591.821585815821
211 4591.996240629373
212 4592.256645356481
213 4592.381410491311
214 4592.578133187943
215 4592.646459978761
216 4592.797844301959
217 4592.824545254277
218 4592.929420745011
219 4592.910007738477
220 4592.979567072217
221 4592.914081800122
222 4592.938764031102
223 4592.821938473133
224 4592.811717193899
225 4592.667969993295
226 4592.604173959176
227 4592.403101307118
228 4592.31700047027
229 4592.095938934948
230 4591.989914195708
231 4591.754879113735
232 4591.64282666075
233 4591.416782276658
234 4591.302594785752
235 4591.079680858191
236 4590.96409499382
237 4590.743805408069
238 4590.649213440638
239 4590.451654311215
240 4590.375357285238
241 4590.205549982828
242 4590.160739876272
243 4590.028492621914
244 4590.019556004612
245 4589.914310189748
246 4589.936774632438
247 4589.873637824972
248 4589.933272522738
249 4589.914012553741
250 4590.026150236846
251 4590.047922167978
252 4590.198673653966
253 4590.270005052706
254 4590.457056318844
255 4590.568678356209
256 4590.805828896051
257 4590.980154677075
258 4591.290956926278
259 4591.520060657228
260 4591.877521935668
261 4592.148631609321
262 4592.563340472775
263 4592.891297380778
264 4593.348944729059
265 4593.725259284552
266 4594.243677840494
267 4594.663251595763
268 4595.230110293718
269 4595.705497480909
270 4596.332188226615
271 4596.863643473233
272 4597.546113106338
273 4598.132215872173
274 4598.862363238103
275 4599.50271511977
276 4600.275830935258
277 4600.96547717957
278 4601.794276935382
279 4602.536541182883
280 4603.420448674911
281 4604.213471531454
282 4605.143755870024
283 4605.985524644195
284 4606.963810615765
285 4607.849546826728
286 4608.869792400339
287 4609.794435006513
288 4610.856915628975
289 4611.832196129937
290 4613.43929293359
291 4614.388685071271
292 4615.473124133393
293 4616.941619456837
294 4618.00296956731
295 4618.961802833191
296 4620.537270933395
297 4621.479326118928
298 4622.556700526927
299 4624.014392321616
300 4625.07890260076
301 4626.530696441811
302 4627.588774426428
303 4629.041174520537
304 4630.095247934388
305 4631.552134624547
306 4632.619712164504
307 4634.084031529
308 4635.152609774092
309 4636.63334390604
310 4637.708537291904
311 4639.189401079027
312 4640.757077610595
313 4641.71553310949
314 4643.305424722335
315 4644.275763652596
316 4645.890236351006
317 4647.363038154845
318 4648.447472938679
319 4649.95889091714
320 4651.558111927468
321 4653.029475167363
322 4654.101030491855
323 4655.593937416104
324 4657.17615589715
325 4658.143185887994
326 4659.762068405686
327 4661.233972199258
328 4662.810848048656
329 4664.240495250363
330 4665.775496448411
331 4666.717737594207
332 4668.299041532377
333 4669.754492101566
334 4671.300981851575
335 4672.727073249323
336 4674.251055653359
337 4675.630124252028
338 4677.128015878651
339 4678.489739312628
340 4679.512749795676
341 4680.94161033155
342 4682.47592127759
343 4683.873625514615
344 4685.379402438417
345 4686.764480880233
346 4688.25520050784
347 4689.627161166973
348 4691.110257558905
349 4692.457720344912
350 4693.907390201966
351 4695.231602590772
352 4696.675728387285
353 4697.993778522368
354 4699.444243650378
355 4700.754012346028
356 4702.192390075241
357 4703.506197493632
358 4704.936925095742
359 4706.234472029247
360 4707.65412770136
361 4708.947038884031
362 4709.929946157275
363 4711.295662178388
364 4712.776675213161
365 4714.133795884136
366 4715.603892261232
367 4716.951974882465
368 4718.403383027691
369 4719.716516889169
370 4721.142856711956
371 4722.000997431622
372 4723.483241488795
373 4724.821824450246
374 4726.269557958389
375 4727.577899550689
376 4728.991152938417
377 4729.847795750931
378 4731.312932656516
379 4732.630419949041
380 4734.061754020199
381 4735.341892630327
382 4736.306638808224
383 4737.628778473201
384 4739.056844463918
385 4739.918346206054
386 4741.380149595326
387 4742.690965280251
388 4744.11377893494
389 4744.961960219937
390 4746.414940459143
391 4747.70189129446
392 4748.673754771781
393 4749.982902253708
394 4751.391373699703
395 4752.65090949982
396 4753.597546451091
397 4754.882095112143
398 4756.254401639486
399 4757.070076859202
400 4758.472326196243
401 4759.716952065074
402 4760.650066266449
403 4761.90928451148
404 4762.861881168492
405 4764.136406917664
406 4765.507317405776
407 4766.316758551908
408 4767.690474818511
409 4768.503174509397
410 4769.890569179548
411 4770.703864717568
412 4772.09499261985
413 4772.910093135961
414 4774.30434702123
415 4775.118417452425
416 4776.505258121362
417 4777.318082277311
418 4778.700228675299
419 4779.503560601504
420 4780.87401715895
421 4781.676240300107
422 4782.619892429236
423 4783.884305322717
424 4784.815616398932
425 4786.05210330728
426 4786.96939371528
427 4788.18671734852
428 4789.093076706309
429 4789.889321126323
430 4791.23763276815
431 4792.011881883506
432 4792.935824201161
433 4794.155043409223
434 4795.056916285602
435 4796.238892311308
436 4797.119160148673
437 4797.887417705689
438 4799.193886047785
439 4799.945621275167
440 4800.833854888798
441 4801.998097301089
442 4802.864259022425
443 4803.617400204655
444 4804.89798763139
445 4805.628839198017
446 4806.489765150274
447 4807.623882157238
448 4808.464665879197
449 4809.199495729052
450 4810.063876288452
451 4811.194271209484
452 4812.041243124173
453 4812.765094433316
454 4813.626533212152
455 4814.747189378205
456 4815.58708418173
457 4816.302572388567
458 4817.152287462215
459 4817.880271921185
460 4819.122869388609
461 4819.816692107343
462 4820.650461821247
463 4821.354257015662
464 4822.195857892201
465 4823.268565910639
466 4824.076366302611
467 4824.759839682165
468 4825.570703430971
469 4826.256311601213
470 4827.074667054368
471 4827.763797825764
472 4828.584775165083
473 4829.274584248228
474 4830.462467128733
475 4831.118736849535
476 4831.906465642186
477 4832.558945410145
478 4833.346757405319
479 4834.006337746163
480 4834.793798030071
481 4835.448687686161
482 4836.23083127781
483 4836.884596341513
484 4837.67202514474
485 4838.324134281482
486 4839.101202316685
487 4839.750269736137
488 4840.527860568606
489 4841.174958559691
490 4841.950856957373
491 4842.592233142571
492 4843.358155306525
493 4843.990015013089
494 4844.743026423252
495 4845.36554307627
496 4846.111276561445
497 4846.72034852007
498 4847.453049416997
499 4848.047960982683
500 4848.767404327876
501 4849.352185908701
502 4850.068858835873
503 4850.643398501561
504 4851.347272224464
505 4851.909871704519
506 4852.598828748648
507 4853.151962028179
508 4853.829112772087
509 4854.37316330841
510 4855.03864319996
511 4855.573963821806
512 4856.229832906385
513 4856.756499174438
514 4857.397726618957
515 4857.915999117777
516 4858.551598489651
517 4859.058872353702
518 4859.687632864127
519 4860.191115548586
520 4860.808929797359
521 4861.304146603637
522 4861.914932537797
523 4862.402824639043
524 4863.00570945833
525 4863.487296541394
526 4864.080511723316
527 4864.557779563213
528 4865.145137689625
529 4865.61413398557
530 4866.194813154716
531 4866.657068321055
532 4867.230990187003
533 4867.680323901851
534 4868.246309692138
535 4868.687308204929
536 4869.245329760746
537 4869.676777218039
538 4870.230018975642
539 4870.656662022757
540 4871.201664155927
541 4871.623430356824
542 4872.161868862643
543 4872.577100546833
544 4873.108608768819
545 4873.512881852949
546 4874.036779432956
547 4874.438221670677
548 4874.956646351086
549 4875.353715924206
550 4875.861191632128
551 4876.254599470933
552 4876.758784531912
553 4877.145925567493
554 4877.644894295117
555 4878.027982538787
556 4878.521926515373
557 4878.893545732102
558 4879.379736501428
559 4879.746867160674
560 4880.227297328463
561 4880.588808225703
562 4881.065766508086
563 4881.422748433047
564 4881.891853905214
565 4882.242722465955
566 4882.704890194487
567 4883.050267635509
568 4883.507208768089
569 4883.844806159962
570 4884.29741516032
571 4884.629415796866
572 4885.077173765847
573 4885.402334573778
574 4885.844358844418
575 4886.164610998508
576 4886.599012794786
577 4886.913775638006
578 4887.345880247005
579 4887.653209646938
580 4888.079988428722
581 4888.383373679463
582 4888.804026727808
583 4889.107284269734
584 4889.526619522338
585 4889.82014355711
586 4890.235165708286
587 4890.526158819303
588 4890.939851460641
589 4891.227273916317
590 4891.632496285375
591 4891.914383539442
592 4892.317683572427
593 4892.596063750623
594 4892.991492025112
595 4893.266731054847
596 4893.658407915699
597 4893.92744623725
598 4894.311806312491
599 4894.581095246192
600 4894.963643788677
601 4895.229098572747
602 4895.60601952685
603 4895.868527612177
604 4896.244308995746
605 4896.503337039005
606 4896.875075520416
607 4897.131746311607
608 4897.497929186507
609 4897.746919024922
610 4898.111871780633
611 4898.350956468297
612 4898.715341654157
613 4898.95478012367
614 4899.318472407422
615 4899.550677619682
616 4899.906611513167
617 4900.135517390156
618 4900.490301245779
619 4900.711584636524
620 4901.06392049063
621 4901.283618496546
622 4901.630991129738
623 4901.847874598906
624 4902.19065467158
625 4902.399875736192
626 4902.738518080515
627 4902.944467841041
628 4903.280714006416
629 4903.481279976509
630 4903.812686435556
631 4904.01485821027
632 4904.344905839763
633 4904.543308883934
634 4904.868282197062
635 4905.064471658377
636 4905.388811661729
637 4905.587419624723
638 4905.907552657851
639 4906.104033423122
640 4906.423716854884
641 4906.616442857387
642 4906.930514440813
643 4907.118942746039
644 4907.431912448408
645 4907.614965159876
646 4907.925857873402
647 4908.106781511705
648 4908.415553627867
649 4908.591056366557
650 4908.897202853106
651 4909.071618586957
652 4909.375318371025
653 4909.54881819423
654 4909.848575120892
655 4910.021994919393
656 4910.318344641251
657 4910.48951374928
658 4910.781885623976
659 4910.950913673479
660 4911.239433723985
661 4911.406894799392
662 4911.691434154147
663 4911.858380391246
664 4912.141293419449
665 4912.301973942906
666 4912.581829475855
667 4912.739323289104
668 4913.018679874353
669 4913.17072531304
670 4913.446802835625
671 4913.596050349999
672 4913.871003217213
673 4914.017804147906
674 4914.2892386863
675 4914.433523229327
676 4914.704895980785
677 4914.844698710898
678 4915.112927778048
679 4915.24977034255
680 4915.520965678994
681 4915.658196504283
682 4915.925995768181
683 4916.058337193077
684 4916.324939277122
685 4916.454826530996
686 4916.718906933565
687 4916.848058854863
688 4917.110018178047
689 4917.233924928924
690 4917.496254903187
691 4917.620482208531
692 4917.873609228373
693 4917.99759105037
694 4918.251452271829
695 4918.373760483268
696 4918.62244693303
697 4918.740890317328
698 4918.98749792367
699 4919.106510869185
700 4919.351966992619
701 4919.472883504039
702 4919.715144968933
703 4919.832298968642
704 4920.075562587552
705 4920.193064772663
706 4920.432102750041
707 4920.546322231501
708 4920.781957347057
709 4920.895034351939
710 4921.130000216602
711 4921.241645125982
712 4921.476963210675
713 4921.588412675704
714 4921.819129257963
715 4921.933488368843
716 4922.164525228872
717 4922.27079156513
718 4922.499253438083
719 4922.598822379238
720 4922.825609973794
721 4922.922366859396
722 4923.148956616505
723 4923.241224049071
724 4923.468633336082
725 4923.559568691476
726 4923.785894810101
727 4923.875940539174
728 4924.101599588338
729 4924.19268772572
730 4924.417485188681
731 4924.503797114568
732 4924.727595646065
733 4924.811350302955
734 4925.032296811378
735 4925.117610793572
736 4925.336087488944
737 4925.418078848182
738 4925.634471296235
739 4925.717539017024
740 4925.9298792291
741 4926.012881393777
742 4926.223171801979
743 4926.303885123293
744 4926.513783644996
745 4926.594362035269
746 4926.800645929972
747 4926.878344355318
748 4927.082418027881
749 4927.161639345272
750 4927.361776091079
751 4927.440177606346
752 4927.640528296209
753 4927.720312362788
754 4927.91891100449
755 4927.995495306434
756 4928.195789534789
757 4928.271214640507
758 4928.470119784705
759 4928.545343204282
760 4928.746685670552
761 4928.81724345183
762 4929.013103390921
763 4929.084642618594
764 4929.279502056245
765 4929.350714495426
766 4929.541906025785
767 4929.60826563319
768 4929.801663578028
769 4929.869282534281
770 4930.060073080234
771 4930.125856447146
772 4930.319308002101
773 4930.379935529092
774 4930.569380059312
775 4930.629497973177
776 4930.820267486754
777 4930.878965839071
778 4931.066106187285
779 4931.120198140751
780 4931.306514056838
781 4931.358276878016
782 4931.544143190419
783 4931.598808941209
784 4931.780256695298
785 4931.828548332961
786 4932.010618568316
787 4932.061904283955
788 4932.241645015713
789 4932.292314876726
790 4932.472510579949
791 4932.522686845847
792 4932.701321534292
793 4932.750675286367
794 4932.928116414968
795 4932.973379442527
796 4933.151607958971
797 4933.196468288439
798 4933.369457892698
799 4933.408655123817
800 4933.582709814045
801 4933.624055344108
802 4933.798647457374
803 4933.837755111465
804 4934.012466514288
805 4934.057726176292
806 4934.228200587506
807 4934.273284557819
808 4934.443764579892
809 4934.485213858165
810 4934.64830589855
811 4934.690779379916
812 4934.85750902143
813 4934.896014290022
814 4935.05982306479
815 4935.097923859711
816 4935.261113592988
817 4935.299983498614
818 4935.460750816474
819 4935.499132695306
820 4935.661307081567
821 4935.699945089282
822 4935.860231481999
823 4935.89456151355
824 4936.05411777622
825 4936.087494372631
826 4936.24723204263
827 4936.275412816578
828 4936.434605101328
829 4936.467291625423
830 4936.628013231172
831 4936.655717581254
832 4936.813084869441
833 4936.838093459583
834 4936.996413092807
835 4937.019974648758
836 4937.17733769548
837 4937.200989746871
838 4937.352137313967
839 4937.376651512888
840 4937.524295997195
841 4937.550446335636
842 4937.698890919758
843 4937.72240703227
844 4937.871991158535
845 4937.894121910684
846 4938.041225324019
847 4938.064608233156
848 4938.210852004396
849 4938.231602029628
850 4938.374383169797
851 4938.392170688977
852 4938.53832985005
853 4938.558675724054
854 4938.704966582364
855 4938.723091370856
856 4938.872182579628
857 4938.892293122794
858 4939.041312907012
859 4939.056820706969
860 4939.206231945882
861 4939.227835353649
862 4939.371087874159
863 4939.387405921217
864 4939.531965021209
865 4939.549836924407
866 4939.694661355778
867 4939.709390328857
868 4939.850318888787
869 4939.864133343057
870 4940.004151061386
871 4940.015845173855
872 4940.153777254566
873 4940.165600970308
874 4940.302866158489
875 4940.311397064991
876 4940.446146597538
877 4940.455879030711
878 4940.589527063322
879 4940.598418357473
880 4940.732159001381
881 4940.741479440788
882 4940.871901017374
883 4940.879203570131
884 4941.010271624894
885 4941.018590725303
886 4941.148291641283
887 4941.150725632563
888 4941.282520342393
889 4941.288006008072
890 4941.419859461915
891 4941.423119458269
892 4941.55477931019
893 4941.556802317802
894 4941.687170301135
895 4941.690059752455
896 4941.821988856992
897 4941.825000898927
898 4941.955116957128
899 4941.952971321123
900 4942.08409451951
901 4942.08037192335
902 4942.212388112644
903 4942.206008044804
904 4942.336944344039
905 4942.331419983627
906 4942.460715173615
907 4942.453316060422
908 4942.585037315089
909 4942.57838655046
910 4942.712236217899
911 4942.705035931952
912 4942.836412057491
913 4942.831977947119
914 4942.962935368249
915 4942.955452668824
916 4943.082713266093
917 4943.073457200614
918 4943.196356748257
919 4943.184479571307
920 4943.307371519511
921 4943.29693293721
922 4943.417907502229
923 4943.40456830791
924 4943.525182610607
925 4943.512504041008
926 4943.632725696158
927 4943.617009428868
928 4943.738302587984
929 4943.722548200297
930 4943.838427553414
931 4943.82486686383
932 4943.943044136176
933 4943.929833358615
934 4944.048132573243
935 4944.03443252392
936 4944.151285820238
937 4944.138567927828
938 4944.252376676811
939 4944.239985035067
940 4944.354798391723
941 4944.342766961528
942 4944.455074671149
943 4944.440689734934
944 4944.553054659399
945 4944.539566826264
946 4944.652287770012
947 4944.638606218257
948 4944.753067052664
949 4944.740417023158
950 4944.854382810132
951 4944.839044290103
952 4944.95265505528
953 4944.934400982123
954 4945.045767510328
955 4945.024497536237
956 4945.136415954801
957 4945.115671245294
958 4945.230381471954
959 4945.208874360844
960 4945.324268740595
961 4945.306191922325
962 4945.418809867042
963 4945.396729699713
964 4945.510291956352
965 4945.488159605696
966 4945.598632684373
967 4945.575403529009
968 4945.684843537799
969 4945.661913807778
970 4945.768953461452
971 4945.745498102046
972 4945.854556179002
973 4945.831551546346
974 4945.936336269589
975 4945.913753513535
976 4946.020097176378
977 4945.995919361302
978 4946.100619567887
979 4946.078241290922
980 4946.183813069545
981 4946.160991333588
982 4946.264873939136
983 4946.237822820513
984 4946.34351735309
985 4946.31637697541
986 4946.422830256712
987 4946.39621387357
988 4946.500123081055
989 4946.473104420652
990 4946.577618981713
991 4946.548886753047
992 4946.65351197473
993 4946.627228167061
994 4946.733214893946
995 4946.704459495833
996 4946.808720547945
997 4946.783758292703
998 4946.882025432486
999 4946.856098734002
1000 4946.955416707605
1001 4946.929041265669
1002 4947.025619317778
1003 4946.999217863849
1004 4947.098248627916
1005 4947.071255361062
1006 4947.167465677684
1007 4947.13783315532
1008 4947.238277578113
1009 4947.208824282711
1010 4947.309164125692
1011 4947.279137651978
1012 4947.380592909185
1013 4947.347557764619
1014 4947.447653598534
1015 4947.414036533223
1016 4947.507937637641
1017 4947.476199687492
1018 4947.574228754305
1019 4947.5384603274
1020 4947.635967075129
1021 4947.601398866676
1022 4947.698525333972
1023 4947.665193985345
1024 4947.76486499824
1025 4947.727876477605
1026 4947.828156083754
1027 4947.789300042239
1028 4947.889893875124
1029 4947.851828998519
1030 4947.952724443876
1031 4947.912168279424
1032 4948.012555979371
1033 4947.970150303372
1034 4948.071044106329
1035 4948.028881586809
1036 4948.129581208278
1037 4948.086422872707
1038 4948.185778470549
1039 4948.143016369099
1040 4948.241668479893
1041 4948.201166903032
1042 4948.300412481406
1043 4948.258239575381
1044 4948.358360684692
1045 4948.318905117386
1046 4948.416584290929
1047 4948.374143709419
1048 4948.470140818183
1049 4948.427875287741
1050 4948.520185693571
1051 4948.478003534366
1052 4948.569943038037
1053 4948.530310135963
1054 4948.62099595677
1055 4948.58133803242
1056 4948.671726440706
1057 4948.635761589806
1058 4948.722468909676
1059 4948.688440038696
1060 4948.775361158639
1061 4948.741099047708
1062 4948.829938943296
1063 4948.793927859136
1064 4948.881104886051
1065 4948.847128347927
1066 4948.93827032617
1067 4948.897378696415
1068 4948.985785876794
1069 4948.944499555503
1070 4949.03658496215
1071 4948.996771534155
1072 4949.088023983551
1073 4949.047483730616
1074 4949.13965335943
1075 4949.098322848341
1076 4949.186781753229
1077 4949.146283369877
1078 4949.235149182256
1079 4949.190496570328
1080 4949.280523611331
1081 4949.23674925664
1082 4949.326802441592
1083 4949.280758502818
1084 4949.369695658458
1085 4949.324328484603
1086 4949.411871811381
1087 4949.36736828906
1088 4949.4565852254
1089 4949.415145424959
1090 4949.502389415908
1091 4949.458678368354
1092 4949.546600547558
1093 4949.502704149391
1094 4949.58958796463
1095 4949.544655002304
1096 4949.629960196624
1097 4949.58889596782
1098 4949.670831851216
1099 4949.628042548402
1100 4949.712280459515
1101 4949.671057793958
1102 4949.755707642455
1103 4949.712143620834
1104 4949.796076365691
1105 4949.750781314903
1106 4949.836641585552
1107 4949.791574350224
1108 4949.874465502289
1109 4949.829507496444
1110 4949.910410799221
1111 4949.868219200525
1112 4949.949769391094
1113 4949.906641169206
1114 4949.990243577045
1115 4949.945602495056
1116 4950.027586490474
1117 4949.984916030911
1118 4950.068615904898
1119 4950.021723923738
1120 4950.105147496514
1121 4950.0591130858
1122 4950.141876080473
1123 4950.094729726717
1124 4950.179096620252
1125 4950.131268899794
1126 4950.215469893731
1127 4950.163359090257
1128 4950.25335961884
1129 4950.202596274289
1130 4950.287983000479
1131 4950.236973298477
1132 4950.326242754364
1133 4950.27480052828
1134 4950.358633767776
1135 4950.305665403736
1136 4950.390136385085
1137 4950.33893476874
1138 4950.423741299569
1139 4950.368348589454
1140 4950.453173344635
1141 4950.398227684582
1142 4950.483686458898
1143 4950.426907716455
1144 4950.513970519619
1145 4950.458709004289
1146 4950.542522778055
1147 4950.489185674858
1148 4950.573146764541
1149 4950.523658121393
1150 4950.606941808139
1151 4950.555679403796
1152 4950.639854074661
1153 4950.590388387093
1154 4950.673807831974
1155 4950.621476125014
1156 4950.703712533498
1157 4950.653370245534
1158 4950.732614853173
1159 4950.681598011644
1160 4950.76357333312
1161 4950.714471550419
1162 4950.795796129357
1163 4950.745481524265
1164 4950.82633256602
1165 4950.77819690468
1166 4950.857989656473
1167 4950.810786609823
1168 4950.888716086421
1169 4950.840849685309
1170 4950.91762823013
1171 4950.869400744711
1172 4950.946874227446
1173 4950.894995745413
1174 4950.974101118618
1175 4950.920234425963
1176 4950.998516925079
1177 4950.947057779195
1178 4951.029436238613
1179 4950.975417856694
1180 4951.056936396292
1181 4951.002162281655
1182 4951.083838869521
1183 4951.031370380822
1184 4951.109253097059
1185 4951.055327359196
1186 4951.13547606426
1187 4951.081100950991
1188 4951.155811384223
1189 4951.104599940101
1190 4951.181297382539
1191 4951.128918163418
1192 4951.203233256348
1193 4951.149784493075
1194 4951.227306983727
1195 4951.174828637271
1196 4951.247484992835
1197 4951.195234661142
1198 4951.273161862276
1199 4951.2183897198
1200 4951.298919792701
1201 4951.245115356522
1202 4951.327054470533
1203 4951.272830464507
1204 4951.353764734434
1205 4951.300762996561
1206 4951.378517297954
1207 4951.327528879237
1208 4951.400848475559
1209 4951.349454739589
1210 4951.427553096521
1211 4951.373150749718
1212 4951.450539731989
1213 4951.396516799817
1214 4951.4777704943
1215 4951.423074891867
1216 4951.500743870913
1217 4951.446067293027
1218 4951.523757717217
1219 4951.466958319549
1220 4951.539860955194
1221 4951.48320868237
1222 4951.561026152605
1223 4951.503668434843
1224 4951.579284539624
1225 4951.52365020136
1226 4951.59899670808
1227 4951.542342565675
1228 4951.617409788812
1229 4951.560474089045
1230 4951.637714171329
1231 4951.580620962354
1232 4951.652450577845
1233 4951.599319131681
1234 4951.674183803592
1235 4951.617966763319
1236 4951.690464125317
1237 4951.636310645574
1238 4951.710016668389
1239 4951.653713319934
1240 4951.728530776774
1241 4951.675601147464
1242 4951.748816655835
1243 4951.693011511596
1244 4951.767930734317
1245 4951.711493512579
1246 4951.787361943428
1247 4951.726528848289
1248 4951.80573987513
1249 4951.746236858728
1250 4951.824343465195
1251 4951.765141845496
1252 4951.844468557662
1253 4951.784381196277
1254 4951.864171554218
1255 4951.800490091196
1256 4951.881159330323
1257 4951.819294797241
1258 4951.900388133256
1259 4951.838898218757
1260 4951.918269899194
1261 4951.858727210202
1262 4951.935529935174
1263 4951.880643565192
1264 4951.956103618782
1265 4951.897116280184
1266 4951.971963704354
1267 4951.914787887195
1268 4951.989144177295
1269 4951.933610971734
1270 4952.0094405236
1271 4951.952024918535
1272 4952.026186002061
1273 4951.969049781153
1274 4952.04147023493
1275 4951.984815935621
1276 4952.053375229618
1277 4951.996563190046
1278 4952.066789520667
1279 4952.009556864893
1280 4952.080451911437
1281 4952.025456718843
1282 4952.099945059334
1283 4952.044712545523
1284 4952.117713715727
1285 4952.060377406054
1286 4952.134465645832
1287 4952.073551786424
1288 4952.146410159021
1289 4952.086630926639
1290 4952.157117211053
1291 4952.096800371438
1292 4952.169131977204
1293 4952.111493537765
1294 4952.183522600829
1295 4952.127469992482
1296 4952.199329014179
1297 4952.147224226733
1298 4952.218089531277
1299 4952.163738986202
1300 4952.234872989527
1301 4952.18090806246
1302 4952.24609775982
1303 4952.190359393334
1304 4952.259586930945
1305 4952.204160367076
1306 4952.271490845324
1307 4952.214515930568
1308 4952.284411855027
1309 4952.230528272338
1310 4952.30132233109
1311 4952.245626679
1312 4952.316964139981
1313 4952.257353172131
1314 4952.329593538268
1315 4952.269705556993
1316 4952.342186830017
1317 4952.283179870173
1318 4952.354922095097
1319 4952.296142768926
1320 4952.3687790491
1321 4952.307973193534
1322 4952.380678490557
1323 4952.321263947066
1324 4952.393898854004
1325 4952.332899855856
1326 4952.403136586724
1327 4952.342529851597
1328 4952.414043810772
1329 4952.352154260962
1330 4952.426242617989
1331 4952.362093639813
1332 4952.437870372879
1333 4952.377085702435
1334 4952.451962984765
1335 4952.390154424334
1336 4952.46541185729
1337 4952.404032553895
1338 4952.472079811267
1339 4952.411290223574
1340 4952.481506442392
1341 4952.420549667643
1342 4952.48897819588
1343 4952.426151161576
1344 4952.497662417079
1345 4952.43719893351
1346 4952.506220751018
1347 4952.447878789468
1348 4952.518053784719
1349 4952.458921251186
1350 4952.530349067706
1351 4952.466732447526
1352 4952.537172325681
1353 4952.474366962478
1354 4952.550394766826
1355 4952.486310491909
1356 4952.559550117246
1357 4952.495990235007
1358 4952.574498983384
1359 4952.510637094774
1360 4952.587042484852
1361 4952.522177033444
1362 4952.595242613933
1363 4952.528936802853
1364 4952.601111563062
1365 4952.539150936003
1366 4952.613655474371
1367 4952.549898809878
1368 4952.625056082397
1369 4952.563862942082
1370 4952.640926655424
1371 4952.577271946962
1372 4952.654991214687
1373 4952.588732861706
1374 4952.663576834929
1375 4952.594938331661
1376 4952.667324792117
1377 4952.600592649546
1378 4952.673506577882
1379 4952.606733244885
1380 4952.678782097158
1381 4952.618976820751
1382 4952.691117049323
1383 4952.632427405837
1384 4952.706539624121
1385 4952.647847698605
1386 4952.716729830089
1387 4952.657287551688
1388 4952.724420326237
1389 4952.663884930323
1390 4952.732771242365
1391 4952.671177266111
1392 4952.739593364237
1393 4952.679738500155
1394 4952.744603814904
1395 4952.684696368758
1396 4952.753220609612
1397 4952.693870599375
1398 4952.759193559593
1399 4952.699569234833
1400 4952.763186385622
1401 4952.706771563382
1402 4952.76961869545
1403 4952.715586192255
1404 4952.776523636435
1405 4952.721430227659
1406 4952.785716639934
1407 4952.726487779762
1408 4952.790740923777
1409 4952.731430692693
1410 4952.800103570571
1411 4952.742478897077
1412 4952.809151448975
1413 4952.752523802173
1414 4952.823249398451
1415 4952.760463174299
1416 4952.832018152282
1417 4952.770532079355
1418 4952.842586016607
1419 4952.778969610101
1420 4952.853667325208
1421 4952.790437653384
1422 4952.860617180839
1423 4952.799034406444
1424 4952.870793597081
1425 4952.80680604396
1426 4952.879051434677
1427 4952.810829798149
1428 4952.882864956021
1429 4952.817163590602
1430 4952.887415196943
1431 4952.821318011728
1432 4952.895280704992
1433 4952.829694008222
1434 4952.901867164775
1435 4952.833930435088
1436 4952.902932457872
1437 4952.839525923781
1438 4952.911587810147
1439 4952.845830218461
1440 4952.914238451111
1441 4952.850908192755
1442 4952.922731032972
1443 4952.858532711042
1444 4952.927867696008
1445 4952.866276040902
1446 4952.931650563972
1447 4952.871323068481
1448 4952.936255507871
1449 4952.874939282361
1450 4952.94140470605
1451 4952.877549990245
1452 4952.940843895782
1453 4952.881425564188
1454 4952.945896994633
1455 4952.885998853764
1456 4952.952473062826
1457 4952.894180544652
1458 4952.957852103365
1459 4952.897416327884
1460 4952.963115475471
1461 4952.903509727448
1462 4952.973254735978
1463 4952.910710222805
1464 4952.980374250951
1465 4952.917538447791
1466 4952.988346325196
1467 4952.926676624785
1468 4952.997405548959
1469 4952.937428399227
1470 4953.008997437311
1471 4952.947743766727
1472 4953.019647325694
1473 4952.95595803921
1474 4953.030716295661
1475 4952.964515126647
1476 4953.034386657372
1477 4952.968562427763
1478 4953.038052864648
1479 4952.972442556039
1480 4953.043316358346
1481 4952.977480491668
1482 4953.04570640105
1483 4952.980060968171
1484 4953.050253755674
1485 4952.980378860987
1486 4953.050197776943
1487 4952.985052919493
1488 4953.052002632579
1489 4952.986336960011
1490 4953.052786356086
1491 4952.990760804658
1492 4953.060457992249
1493 4952.995996139656
1494 4953.065115454388
1495 4953.005057349449
1496 4953.07038452522
1497 4953.008857132473
1498 4953.077171878676
1499 4953.012127127974
1500 4953.078657083557
1501 4953.01386543284
1502 4953.084866650062
1503 4953.021260240668
1504 4953.091160450684
1505 4953.025143142198
1506 4953.09598792145
1507 4953.03096300219
1508 4953.098866654221
1509 4953.035430079812
1510 4953.105153255125
1511 4953.043394526003
1512 4953.113130886801
1513 4953.051286617167
1514 4953.120582124436
1515 4953.062696660772
1516 4953.130943851613
1517 4953.069219310699
1518 4953.134242760683
1519 4953.072769268483
1520 4953.140915604842
1521 4953.078676053754
1522 4953.145690859863
1523 4953.085271408667
1524 4953.149309148133
1525 4953.087297191954
1526 4953.153565631764
1527 4953.09064765461
1528 4953.154054735729
1529 4953.090116937855
1530 4953.153997640779
1531 4953.093746810987
1532 4953.15577530929
1533 4953.093920295111
1534 4953.160532448443
1535 4953.09347946445
1536 4953.160020117043
1537 4953.094302759162
1538 4953.16183817634
1539 4953.094832834346
1540 4953.162559986225
1541 4953.095695351373
1542 4953.168251551453
1543 4953.100599846693
1544 4953.170594858287
1545 4953.104422606238
1546 4953.177777605761
1547 4953.10891235036
1548 4953.181079729609
1549 4953.113791173818
1550 4953.185298478666
1551 4953.119154433445
1552 4953.190213738478
1553 4953.126749070038
1554 4953.196506427083
1555 4953.13270991546
1556 4953.199502479847
1557 4953.133220216934
1558 4953.202285078353
1559 4953.134311507738
1560 4953.202523287291
1561 4953.13531154178
1562 4953.207662561357
1563 4953.143722883197
1564 4953.212111318293
1565 4953.150863957821
1566 4953.219756705661
1567 4953.154662697732
1568 4953.224436021706
1569 4953.16080394132
1570 4953.230570351618
1571 4953.166156883132
1572 4953.232547263583
1573 4953.168473892823
1574 4953.233448396718
1575 4953.170694750534
1576 4953.237064963827
1577 4953.170931502399
1578 4953.237795038871
1579 4953.175208014023
1580 4953.240709096975
1581 4953.177435481369
1582 4953.244860947267
1583 4953.180360905492
1584 4953.246903399676
1585 4953.183710696168
1586 4953.250573920594
1587 4953.184849913448
1588 4953.250444256674
1589 4953.184322359648
1590 4953.251673373449
1591 4953.185659677333
1592 4953.254919967452
1593 4953.190197393009
1594 4953.26063893131
1595 4953.194295697324
1596 4953.261149024839
1597 4953.198784917505
1598 4953.26527419064
1599 4953.201122510038
1600 4953.269788826131
1601 4953.206062611491
1602 4953.269927124834
1603 4953.206638509166
1604 4953.276130257884
1605 4953.211740660805
1606 4953.27870774725
1607 4953.214042095741
1608 4953.28230168176
1609 4953.21771323218
1610 4953.281937967204
1611 4953.219218684802
1612 4953.286047742965
1613 4953.219701944971
1614 4953.287940251997
1615 4953.222512989365
1616 4953.291976315523
1617 4953.228082727637
1618 4953.297732971468
1619 4953.231735043118
1620 4953.298792146183
1621 4953.232663705184
1622 4953.304592489603
1623 4953.239248254918
1624 4953.305872782428
1625 4953.241844245967
1626 4953.308141128893
1627 4953.242657749644
1628 4953.305846176192
1629 4953.242249079525
1630 4953.310163299556
1631 4953.244731290043
1632 4953.307559993775
1633 4953.246154985556
1634 4953.310836872394
1635 4953.24753109439
1636 4953.308483624492
1637 4953.248041171716
1638 4953.307229749182
1639 4953.250749263115
1640 4953.31012305457
1641 4953.252099852119
1642 4953.314118695371
1643 4953.253101454595
1644 4953.318094139837
1645 4953.254552042457
1646 4953.322246826372
1647 4953.257439906688
1648 4953.325155373243
1649 4953.257250291557
1650 4953.322299076973
1651 4953.255324714791
1652 4953.323669744505
1653 4953.255534050601
1654 4953.326536865708
1655 4953.257798500047
1656 4953.330414788516
1657 4953.260563813422
1658 4953.333006147253
1659 4953.262897137003
1660 4953.333053728591
1661 4953.261696910189
1662 4953.329542067597
1663 4953.260012959849
1664 4953.330312554115
1665 4953.262521960892
1666 4953.333605735887
1667 4953.266999669695
1668 4953.335534970714
1669 4953.269329185623
1670 4953.341150272941
1671 4953.275689182342
1672 4953.348167292179
1673 4953.281408902341
1674 4953.352408903534
1675 4953.287339365959
1676 4953.355925484078
1677 4953.292051291264
1678 4953.361618000382
1679 4953.295622106746
1680 4953.36545193064
1681 4953.300367040779
1682 4953.366680791763
1683 4953.303128445509
1684 4953.372023654295
1685 4953.306766684022
1686 4953.369194005317
1687 4953.305507663785
1688 4953.368399402122
1689 4953.306552586677
1690 4953.369338714519
1691 4953.30764802606
1692 4953.372171748403
1693 4953.307866399268
1694 4953.373016096994
1695 4953.307840804909
1696 4953.372544242762
1697 4953.305305590449
1698 4953.373461717387
1699 4953.305425168316
1700 4953.372139850618
1701 4953.306056673926
1702 4953.372732853637
1703 4953.305672408402
1704 4953.3746438539
1705 4953.308689826439
1706 4953.378299114235
1707 4953.310317027322
1708 4953.382472208754
1709 4953.314053166329
1710 4953.381406069002
1711 4953.314168496351
1712 4953.38552826549
1713 4953.318374328186
1714 4953.389410223417
1715 4953.321658076548
1716 4953.392293434335
1717 4953.325257603555
1718 4953.392138599083
1719 4953.323534590904
1720 4953.395226579503
1721 4953.321960916785
1722 4953.392360711645
1723 4953.327947428918
1724 4953.393610729046
1725 4953.332215232254
1726 4953.400266906416
1727 4953.337561998778
1728 4953.40401682158
1729 4953.340523207774
1730 4953.405874279928
1731 4953.342089705203
1732 4953.404613340687
1733 4953.338632835415
1734 4953.401694087799
1735 4953.336743030782
1736 4953.397550857611
1737 4953.33346700283
1738 4953.398015205548
1739 4953.33344053408
1740 4953.398772344101
1741 4953.33287624577
1742 4953.396593743947
1743 4953.334496878249
1744 4953.39851323208
1745 4953.33090185515
1746 4953.394374815202
1747 4953.3316246227
1748 4953.394013908242
1749 4953.328182501852
1750 4953.39392140511
1751 4953.329681741749
1752 4953.395810860459
1753 4953.327817217886
1754 4953.394037100677
1755 4953.326699916803
1756 4953.392840389552
1757 4953.327420900051
1758 4953.396842031135
1759 4953.335635089134
1760 4953.40071125027
1761 4953.340273959864
1762 4953.41000750695
1763 4953.346991921701
1764 4953.412834652966
1765 4953.349145208283
1766 4953.414672348468
1767 4953.351201380275
1768 4953.416319459724
1769 4953.348129638609
1770 4953.413490669379
1771 4953.350582589879
1772 4953.415916108477
1773 4953.351016044486
1774 4953.421727804835
1775 4953.354915949583
1776 4953.426425694557
1777 4953.358874328183
1778 4953.427628001913
1779 4953.362089795806
1780 4953.430696058225
1781 4953.363444681655
1782 4953.428845912116
1783 4953.362581530795
1784 4953.427997309504
1785 4953.36021705631
1786 4953.426782887404
1787 4953.361052618957
1788 4953.428649261883
1789 4953.362003698603
1790 4953.428423239674
1791 4953.361147758234
1792 4953.425387040009
1793 4953.358537580196
1794 4953.421724504326
1795 4953.353440075859
1796 4953.418141810802
1797 4953.35363457641
1798 4953.416795551095
1799 4953.354321138248
1800 4953.418983735769
1801 4953.354550316157
1802 4953.419930052512
1803 4953.356900833583
1804 4953.424808906409
1805 4953.357594773071
1806 4953.424386984722
1807 4953.359078213834
1808 4953.427913099647
1809 4953.361941751938
1810 4953.431039263224
1811 4953.367459855117
1812 4953.438316491121
1813 4953.3728230792
1814 4953.440154659275
1815 4953.373235165593
1816 4953.444145631402
1817 4953.375814693208
1818 4953.441974870309
1819 4953.375480098739
1820 4953.444741668137
1821 4953.378882650468
1822 4953.44796515166
1823 4953.381725722845
1824 4953.449841096172
1825 4953.378529212674
1826 4953.448592300015
1827 4953.379015392823
1828 4953.446570782239
1829 4953.37547595518
1830 4953.443813770376
1831 4953.372557063464
1832 4953.440997549502
1833 4953.370953902425
1834 4953.441476510592
1835 4953.375119941891
1836 4953.438955842278
1837 4953.373625691936
1838 4953.4398831359
1839 4953.374283999477
1840 4953.436939245873
1841 4953.370222145375
1842 4953.432916027154
1843 4953.367890263842
1844 4953.431130112989
1845 4953.368500799135
1846 4953.434711096545
1847 4953.370742446256
1848 4953.437140118916
1849 4953.375280495737
1850 4953.440384297206
1851 4953.375895194398
1852 4953.440909843587
1853 4953.374766809764
1854 4953.438000734388
1855 4953.373940874219
1856 4953.437811732949
1857 4953.375277920493
1858 4953.445213007757
1859 4953.382844039607
1860 4953.448241322294
1861 4953.385609631379
1862 4953.451778595543
1863 4953.388129661245
1864 4953.451915717961
1865 4953.387191309236
1866 4953.453484029467
1867 4953.387760731962
1868 4953.452987620196
1869 4953.386367014785
1870 4953.455141995264
1871 4953.390827126388
1872 4953.455826556958
1873 4953.391634497412
1874 4953.458384936555
1875 4953.393655320143
1876 4953.459852153172
1877 4953.395484531034
1878 4953.459726685881
1879 4953.392108546402
1880 4953.459492767919
1881 4953.391093691315
1882 4953.460263707053
1883 4953.393185116561
1884 4953.461514659098
1885 4953.394313875881
1886 4953.464908950879
1887 4953.397317410526
1888 4953.466009659784
1889 4953.39660451196
1890 4953.464886417418
1891 4953.396344695317
1892 4953.462922856947
1893 4953.391435574878
1894 4953.462591726809
1895 4953.392395051899
1896 4953.460840482842
1897 4953.393373354908
1898 4953.463639957425
1899 4953.399057646439
1900 4953.468536854921
1901 4953.402375872894
1902 4953.470195626542
1903 4953.403310674767
1904 4953.470243703575
1905 4953.404691575483
1906 4953.467464823385
1907 4953.402922962605
1908 4953.472813025444
1909 4953.407569011169
1910 4953.474029982199
1911 4953.411452244839
1912 4953.479007728823
1913 4953.415561072599
1914 4953.47977976081
1915 4953.415649805998
1916 4953.478174412186
1917 4953.411312579015
1918 4953.47280007092
1919 4953.406753201885
1920 4953.46979617638
1921 4953.404563852869
1922 4953.466862200922
1923 4953.403265042579
1924 4953.472006716194
1925 4953.406356472919
1926 4953.471270035689
1927 4953.407771605793
1928 4953.473698912602
1929 4953.409446859643
1930 4953.473050662154
1931 4953.406573744446
1932 4953.4738149957
1933 4953.407003976229
1934 4953.473090656116
1935 4953.403608467871
1936 4953.471095829589
1937 4953.40186112572
1938 4953.469552304197
1939 4953.404485610969
1940 4953.470355149891
1941 4953.404381607879
1942 4953.47217393661
1943 4953.406356183404
1944 4953.473988513887
1945 4953.407010456519
1946 4953.472648071021
1947 4953.407355189333
1948 4953.473129181044
1949 4953.407405278405
1950 4953.471502701512
1951 4953.406517122031
1952 4953.47279119376
1953 4953.406980712026
1954 4953.47121046122
1955 4953.404208620805
1956 4953.469838195007
1957 4953.404100374571
1958 4953.465197314744
1959 4953.400954740473
1960 4953.465919784127
1961 4953.400468225346
1962 4953.465835224823
1963 4953.402914320895
1964 4953.46790634527
1965 4953.406247972152
1966 4953.471626635536
1967 4953.40592373214
1968 4953.472928226382
1969 4953.407593666403
1970 4953.473084857186
1971 4953.407797121547
1972 4953.474228765473
1973 4953.411432862597
1974 4953.476273148196
1975 4953.413097724331
1976 4953.47828130958
1977 4953.413662846729
1978 4953.479325824747
1979 4953.41362596685
1980 4953.478774814631
1981 4953.415028554535
1982 4953.479578727402
1983 4953.416385264729
1984 4953.486324889059
1985 4953.420574802403
1986 4953.487426646729
1987 4953.420214067507
1988 4953.486361561693
1989 4953.419934631836
1990 4953.491010573158
1991 4953.42199947164
1992 4953.490200529779
1993 4953.419859515477
1994 4953.490631131368
1995 4953.420056820485
1996 4953.488590700601
1997 4953.418513951666
1998 4953.48549063337
1999 4953.417181555662
2000 4953.485809601576
2001 4953.416860610532
2002 4953.487089204219
2003 4953.415169021938
2004 4953.484441438416
2005 4953.410821641159
2006 4953.478957919866
2007 4953.410177356566
2008 4953.479483043029
2009 4953.408720011744
2010 4953.474204537763
2011 4953.408437658862
2012 4953.476460179089
2013 4953.413182434016
2014 4953.480124472868
2015 4953.420277245023
2016 4953.48570243711
2017 4953.420567002107
2018 4953.486053768719
2019 4953.421396974215
2020 4953.488928636518
2021 4953.422272128848
2022 4953.489463635563
2023 4953.424092779431
2024 4953.488679994248
2025 4953.424535927138
2026 4953.493770792483
2027 4953.426724670216
2028 4953.492620579113
2029 4953.425483110585
2030 4953.493592598089
2031 4953.42512747057
2032 4953.490210032768
2033 4953.424259937986
2034 4953.491850187605
2035 4953.425396148703
2036 4953.488560664891
2037 4953.425673713757
2038 4953.489847164697
2039 4953.423935621032
2040 4953.487455586415
2041 4953.423376255333
2042 4953.486559413343
2043 4953.420322961577
2044 4953.485300665146
2045 4953.418952466151
2046 4953.484907165756
2047 4953.419487524023
2048 4953.484752222514
2049 4953.421430212882
2050 4953.484251047264
2051 4953.418570801005
2052 4953.48240203271
2053 4953.417947680308
2054 4953.482790315639
2055 4953.41609596317
2056 4953.480719831581
2057 4953.415112330847
2058 4953.477418446
2059 4953.412725351901
2060 4953.472347119169
2061 4953.410606534224
2062 4953.476039928875
2063 4953.410112915206
2064 4953.47602827055
2065 4953.409554374639
2066 4953.480056486869
2067 4953.416171578422
2068 4953.487596708896
2069 4953.420908372065
2070 4953.492876519944
2071 4953.427502809829
2072 4953.496327281541
2073 4953.431044841852
2074 4953.502562781682
2075 4953.435602204715
2076 4953.504621943122
2077 4953.436885834441
2078 4953.507254137407
2079 4953.439050046288
2080 4953.5048516652
2081 4953.438014458219
2082 4953.501389842572
2083 4953.435852903654
2084 4953.498760017201
2085 4953.438176582838
2086 4953.499662838341
2087 4953.436223444143
2088 4953.498340893591
2089 4953.435060784245
2090 4953.494894816043
2091 4953.432916034904
2092 4953.491055578554
2093 4953.430865872405
2094 4953.489344656376
2095 4953.428116159185
2096 4953.492063157476
2097 4953.429306471066
2098 4953.491022384374
2099 4953.427953639388
2100 4953.490945674645
2101 4953.428332888917
2102 4953.49415107082
2103 4953.428284236943
2104 4953.495411097711
2105 4953.427813127068
2106 4953.493778127857
2107 4953.424974444639
2108 4953.494062173791
2109 4953.426027358597
2110 4953.498335981466
2111 4953.424984704262
2112 4953.498047129678
2113 4953.426574305107
2114 4953.499876579823
2115 4953.427858343849
2116 4953.498810698438
2117 4953.426209103492
2118 4953.500724248883
2119 4953.429099192438
2120 4953.50040688626
2121 4953.429414304361
2122 4953.504815129061
2123 4953.433393178973
2124 4953.505167338741
2125 4953.437261964039
2126 4953.504448351734
2127 4953.435364538609
2128 4953.50184958291
2129 4953.433550054963
2130 4953.497583986449
2131 4953.4310516172
2132 4953.498972339552
2133 4953.432425097016
2134 4953.497719562409
2135 4953.431469463999
2136 4953.496223258189
2137 4953.428784704289
2138 4953.490616700135
2139 4953.425404471679
2140 4953.490493511445
2141 4953.424001068845
2142 4953.485784238042
2143 4953.421975769899
2144 4953.488191142676
2145 4953.426555861784
2146 4953.495010633474
2147 4953.429036113705
2148 4953.49629665643
2149 4953.428130219168
2150 4953.49138119753
2151 4953.421993466215
2152 4953.488700435467
2153 4953.417082579295
2154 4953.481879241899
2155 4953.416864246039
2156 4953.483201506011
2157 4953.418943743923
2158 4953.485803746399
2159 4953.421156044818
2160 4953.485920308257
2161 4953.422113624689
2162 4953.485301488764
2163 4953.419903962246
2164 4953.48371862656
2165 4953.419700462216
2166 4953.481367470335
2167 4953.420035571142
2168 4953.487246679446
2169 4953.425205824079
2170 4953.493164068479
2171 4953.428417315023
2172 4953.499367341717
2173 4953.432539551184
2174 4953.500995850021
2175 4953.43449934168
2176 4953.506830445946
2177 4953.434968974654
2178 4953.500985596109
2179 4953.433176781118
2180 4953.502968360807
2181 4953.43366518808
2182 4953.503356050634
2183 4953.436711684579
2184 4953.50449807011
2185 4953.437252396019
2186 4953.49997150874
2187 4953.434202272999
2188 4953.497757201319
2189 4953.431692349473
2190 4953.496471718764
2191 4953.433370429093
2192 4953.495902224258
2193 4953.432899323585
2194 4953.501058149365
2195 4953.433850645269
2196 4953.499798381143
2197 4953.433725037111
2198 4953.498638004882
2199 4953.434814053116
2200 4953.499845821195
2201 4953.435145701585
2202 4953.499947496195
2203 4953.434941730037
2204 4953.499319453616
2205 4953.435157154893
2206 4953.499748059145
2207 4953.435065398603
2208 4953.503347439109
2209 4953.438970521028
2210 4953.50232043891
2211 4953.435962016603
2212 4953.502942287609
2213 4953.437598734588
2214 4953.50341470032
2215 4953.431741530366
2216 4953.500531092947
2217 4953.4298080275
2218 4953.499799446936
2219 4953.430032492778
2220 4953.499230928573
2221 4953.429461129532
2222 4953.501995559059
2223 4953.433760276976
2224 4953.504585702873
2225 4953.432939157295
2226 4953.50354862826
2227 4953.437969025807
2228 4953.502069271274
2229 4953.438517109087
2230 4953.504808152377
2231 4953.438303178444
2232 4953.503925286415
2233 4953.435823959137
2234 4953.504349953028
2235 4953.439454445457
2236 4953.504739616811
2237 4953.436738120249
2238 4953.503989669721
2239 4953.437011083451
2240 4953.501901457377
2241 4953.434669989024
2242 4953.50118718002
2243 4953.43405880999
2244 4953.499688201259
2245 4953.43144049428
2246 4953.499061328871
2247 4953.431939079334
2248 4953.502036662423
2249 4953.434235666077
2250 4953.501251477708
2251 4953.435229686096
2252 4953.50327179117
2253 4953.434336495425
2254 4953.499730616625
2255 4953.429334452029
2256 4953.496897976193
2257 4953.427571176301
2258 4953.49313974997
2259 4953.426988967623
2260 4953.493152843902
2261 4953.427479638011
2262 4953.488043260245
2263 4953.426830381271
2264 4953.488877847436
2265 4953.428602724078
2266 4953.489644343142
2267 4953.429219502539
2268 4953.490484795829
2269 4953.431396422839
2270 4953.492594073291
2271 4953.431227425948
2272 4953.497240539437
2273 4953.430533457175
2274 4953.495302764226
2275 4953.430214132101
2276 4953.49796617509
2277 4953.433921288025
2278 4953.500393125412
2279 4953.437516897865
2280 4953.505511235893
2281 4953.438793641346
2282 4953.507167982897
2283 4953.443202933197
2284 4953.510123435809
2285 4953.444438802165
2286 4953.51077330454
2287 4953.444767657297
2288 4953.511818720312
2289 4953.444829483323
2290 4953.511712129287
2291 4953.441548474745
2292 4953.512605241845
2293 4953.442839355565
2294 4953.511506781396
2295 4953.440540966084
2296 4953.510584838424
2297 4953.439751838235
2298 4953.506400630956
2299 4953.437666136316
2300 4953.506720205327
2301 4953.440091755698
2302 4953.509343485578
2303 4953.441588065404
2304 4953.507049169298
2305 4953.442325170863
2306 4953.506315103779
2307 4953.438240859829
2308 4953.505591267088
2309 4953.439324998132
2310 4953.504251706573
2311 4953.437105965678
2312 4953.504088639977
2313 4953.435444545442
2314 4953.504154289758
2315 4953.435892700954
2316 4953.499939353881
2317 4953.433434669304
2318 4953.498540474339
2319 4953.433103206927
2320 4953.499649325781
2321 4953.435895821603
2322 4953.498210991942
2323 4953.436540278295
2324 4953.504282644416
2325 4953.438992903516
2326 4953.504176322321
2327 4953.438363426762
2328 4953.508303114379
2329 4953.442704241035
2330 4953.509910914733
2331 4953.444344783184
2332 4953.516982880898
2333 4953.449206748952
2334 4953.516263393507
2335 4953.448547737031
2336 4953.518950077629
2337 4953.45128396733
2338 4953.520344522734
2339 4953.452421362473
2340 4953.518226415076
2341 4953.451238842092
2342 4953.514608279277
2343 4953.448175304786
2344 4953.511154185597
2345 4953.442859264179
2346 4953.506483102718
2347 4953.438697715536
2348 4953.49928708337
2349 4953.432442730852
2350 4953.499068490698
2351 4953.43257441423
2352 4953.496640508978
2353 4953.430865936732
2354 4953.49629768848
2355 4953.430887943876
2356 4953.497423503346
2357 4953.429436109973
2358 4953.493898090379
2359 4953.429267398197
2360 4953.494535816052
2361 4953.42954276825
2362 4953.497400149889
2363 4953.431215022957
2364 4953.49569306684
2365 4953.427101753658
2366 4953.497780495552
2367 4953.428794530631
2368 4953.498402894365
2369 4953.426475606925
2370 4953.496616951972
2371 4953.431285261302
2372 4953.498235350678
2373 4953.434210471936
2374 4953.501899893678
2375 4953.436818722222
2376 4953.502173890025
2377 4953.440615780623
2378 4953.503315257606
2379 4953.443453485756
2380 4953.507358308898
2381 4953.44477173891
2382 4953.507480810748
2383 4953.445423861434
2384 4953.508906338713
2385 4953.446468334488
2386 4953.511523868695
2387 4953.447186181747
2388 4953.514244943138
2389 4953.448014143776
2390 4953.514610051443
2391 4953.449163105223
2392 4953.514706741989
2393 4953.446186432206
2394 4953.510159397635
2395 4953.443131150032
2396 4953.507590414875
2397 4953.441477871495
2398 4953.507736676761
2399 4953.439322858196
2400 4953.504248605986
2401 4953.437422721867
2402 4953.504672818209
2403 4953.434731129033
2404 4953.500734864612
2405 4953.432004860611
2406 4953.498511742062
2407 4953.428014387068
2408 4953.495847310945
2409 4953.429876778438
2410 4953.500890088593
2411 4953.434087387133
2412 4953.502259898604
2413 4953.436681944175
2414 4953.505758063731
2415 4953.440796585427
2416 4953.506869350062
2417 4953.440738859298
2418 4953.505070413461
2419 4953.438858517453
2420 4953.501227941468
2421 4953.438251781173
2422 4953.506463422605
2423 4953.442768878465
2424 4953.509419023854
2425 4953.444206013248
2426 4953.512653703914
2427 4953.446288054469
2428 4953.514156200554
2429 4953.448981581439
2430 4953.515864170823
2431 4953.448226380405
2432 4953.514408894336
2433 4953.446869532086
2434 4953.516287482348
2435 4953.445763327363
2436 4953.513923005358
2437 4953.446463569037
2438 4953.509816644786
2439 4953.441489433193
2440 4953.506392861784
2441 4953.437852379245
2442 4953.50122704044
2443 4953.434719933909
2444 4953.497853123527
2445 4953.429626140143
2446 4953.498171857434
2447 4953.429854757201
2448 4953.49367697163
2449 4953.427258013269
2450 4953.494832187481
2451 4953.430460925238
2452 4953.496777598211
2453 4953.427773536327
2454 4953.496754360562
2455 4953.428575141403
2456 4953.49436225748
2457 4953.429524721611
2458 4953.501118775459
2459 4953.432136256651
2460 4953.499056354788
2461 4953.432386111641
2462 4953.50196778614
2463 4953.434388729072
2464 4953.501765747794
2465 4953.435751791614
2466 4953.504311606242
2467 4953.439054145621
2468 4953.503747619977
2469 4953.43802546166
2470 4953.506953600218
2471 4953.440660879282
2472 4953.508892184052
2473 4953.441125633749
2474 4953.5065612197
2475 4953.440065739069
2476 4953.508140675073
2477 4953.441040864567
2478 4953.506557937495
2479 4953.43976427546
2480 4953.506297238986
2481 4953.441444058763
2482 4953.505942199764
2483 4953.439278330332
2484 4953.507331958769
2485 4953.43874223853
2486 4953.504351067062
2487 4953.441517606237
2488 4953.50499274798
2489 4953.440572980719
2490 4953.506429300171
2491 4953.443476152483
2492 4953.506634514566
2493 4953.443869222747
2494 4953.509899861839
2495 4953.444542592879
2496 4953.508685224539
2497 4953.440414254726
2498 4953.507170471567
2499 4953.440872368318
2500 4953.507686482404
2501 4953.438348490067
2502 4953.506167145298
2503 4953.441626343221
2504 4953.507122657527
2505 4953.442963790473
2506 4953.509112769159
2507 4953.445140517767
2508 4953.510448270838
2509 4953.445109509202
2510 4953.509564776204
2511 4953.443368348512
2512 4953.512655743032
2513 4953.446750330524
2514 4953.5096352903
2515 4953.443184178052
2516 4953.512978175844
2517 4953.447062902074
2518 4953.515731033325
2519 4953.447284384889
2520 4953.516589819307
2521 4953.44792118427
2522 4953.514695824294
2523 4953.448299257597
2524 4953.513980006668
2525 4953.447238990464
2526 4953.511072765332
2527 4953.445217529699
2528 4953.512333559053
2529 4953.446870270528
2530 4953.510770330763
2531 4953.446857988773
2532 4953.511673138521
2533 4953.445539111189
2534 4953.507864298685
2535 4953.443193692791
2536 4953.507877841945
2537 4953.441060720369
2538 4953.503728528894
2539 4953.435130647243
2540 4953.502409709526
2541 4953.435722290396
2542 4953.508594075258
2543 4953.443947453955
2544 4953.514384408988
2545 4953.445742667035
2546 4953.515435667089
2547 4953.447312507496
2548 4953.515448204837
2549 4953.445158650149
2550 4953.510660492487
2551 4953.444615402233
2552 4953.509137913934
2553 4953.442218113485
2554 4953.508289767845
2555 4953.441182181118
2556 4953.506329328835
2557 4953.441892129516
2558 4953.505390370523
2559 4953.439439663042
2560 4953.503029829497
2561 4953.437582982891
2562 4953.501062141647
2563 4953.436634492585
2564 4953.500351164308
2565 4953.434986797364
2566 4953.502358924906
2567 4953.43527293068
2568 4953.500858118401
2569 4953.431454169611
2570 4953.496956008937
2571 4953.429469201812
2572 4953.497048939118
2573 4953.427412503007
2574 4953.494255477398
2575 4953.428502942078
2576 4953.500002405995
2577 4953.434244505467
2578 4953.50256393965
2579 4953.436012911623
2580 4953.507619175307
2581 4953.435699324599
2582 4953.504829711613
2583 4953.436951656938
2584 4953.5044591142
2585 4953.435868062185
2586 4953.500866119419
2587 4953.433182355536
2588 4953.502124722805
2589 4953.437583033547
2590 4953.506974492916
2591 4953.442863390611
2592 4953.507767065385
2593 4953.444724463188
2594 4953.51268341383
2595 4953.449237167219
2596 4953.513535096324
2597 4953.450746144591
2598 4953.513826839269
2599 4953.45163830673
2600 4953.51208899225
2601 4953.447124283009
2602 4953.51119768494
2603 4953.446874017123
2604 4953.508857473958
2605 4953.444523646316
2606 4953.509181975444
2607 4953.444387911284
2608 4953.510517341897
2609 4953.443150978704
2610 4953.505347688233
2611 4953.441379596376
2612 4953.505560793525
2613 4953.44198443151
2614 4953.506169541917
2615 4953.438772886632
2616 4953.50329569836
2617 4953.438850939437
2618 4953.503381879069
2619 4953.438755752524
2620 4953.506424411494
2621 4953.441189840637
2622 4953.507245043523
2623 4953.440009673918
2624 4953.50801711417
2625 4953.444030786995
2626 4953.508649577958
2627 4953.442305575209
2628 4953.508643764344
2629 4953.44153780256
2630 4953.510577537332
2631 4953.444525126799
2632 4953.513045362768
2633 4953.446430137074
2634 4953.51608903162
2635 4953.448612108163
2636 4953.516233727296
2637 4953.447914062777
2638 4953.518199327995
2639 4953.447599334326
2640 4953.515234724961
2641 4953.444401914251
2642 4953.515028882478
2643 4953.447056431454
2644 4953.51341113846
2645 4953.446987616844
2646 4953.514335862764
2647 4953.448022940713
2648 4953.513610865096
2649 4953.445625103551
2650 4953.514148617647
2651 4953.4458712008
2652 4953.511403003315
2653 4953.445251483371
2654 4953.508600766481
2655 4953.43987721552
2656 4953.504676601247
2657 4953.435920316444
2658 4953.498780431383
2659 4953.43187301879
2660 4953.492448212957
2661 4953.428738032882
2662 4953.493301696833
2663 4953.428543540756
2664 4953.490978513489
2665 4953.428209555317
2666 4953.492431648247
2667 4953.43084673564
2668 4953.492889296287
2669 4953.430337426824
2670 4953.496036334546
2671 4953.433603231439
2672 4953.49781968478
2673 4953.433731953964
2674 4953.502149192417
2675 4953.438062130534
2676 4953.503371956593
2677 4953.438923091548
2678 4953.506217059241
2679 4953.440893732044
2680 4953.505727871812
2681 4953.442411718294
2682 4953.509514104574
2683 4953.446850152691
2684 4953.514288954987
2685 4953.449577038909
2686 4953.517169077254
2687 4953.452560710781
2688 4953.51882141136
2689 4953.450443540101
2690 4953.51428038907
2691 4953.444123508478
2692 4953.513061815587
2693 4953.442626279721
2694 4953.507213613625
2695 4953.439442514866
2696 4953.509333747329
2697 4953.443794284809
2698 4953.512744498858
2699 4953.446515445779
2700 4953.510814581382
2701 4953.444663787781
2702 4953.508174057699
2703 4953.441014333182
2704 4953.503660599244
2705 4953.436858126671
2706 4953.501208418823
2707 4953.435162403714
2708 4953.498011627412
2709 4953.434927957793
2710 4953.50116219762
2711 4953.435326448712
2712 4953.501835988388
2713 4953.433597740252
2714 4953.500630600349
2715 4953.431665995865
2716 4953.498077124083
2717 4953.431802993506
2718 4953.494509328242
2719 4953.432372441169
2720 4953.49685323517
2721 4953.435374872536
2722 4953.501758434847
2723 4953.442728700043
2724 4953.508002992589
2725 4953.448414503833
2726 4953.514262095588
2727 4953.450679998611
2728 4953.515422729804
2729 4953.450277962326
2730 4953.511570560058
2731 4953.4435563208
2732 4953.509561103399
2733 4953.441300989494
2734 4953.509880802535
2735 4953.441325274741
2736 4953.510288098059
2737 4953.441996612333
2738 4953.509028057038
2739 4953.439574025438
2740 4953.506498244844
2741 4953.436783749656
2742 4953.500712276852
2743 4953.431763804962
2744 4953.496651319522
2745 4953.429258976738
2746 4953.497305231896
2747 4953.428327740471
2748 4953.495038732202
2749 4953.427972008183
2750 4953.499517392265
2751 4953.430970117138
2752 4953.499939745701
2753 4953.428984873124
2754 4953.499651007348
2755 4953.42905257361
2756 4953.494748067682
2757 4953.426483190297
2758 4953.495176217915
2759 4953.428877855422
2760 4953.496715488781
2761 4953.432056467571
2762 4953.503971009372
2763 4953.437885305724
2764 4953.505300752062
2765 4953.436448981091
2766 4953.503317769544
2767 4953.434277566532
2768 4953.50038127066
2769 4953.432683671688
2770 4953.499676074871
2771 4953.433508211143
2772 4953.497127956233
2773 4953.432096815935
2774 4953.499381097809
2775 4953.436299127939
2776 4953.503182805581
2777 4953.439379188863
2778 4953.503840393184
2779 4953.439100688188
2780 4953.503365953857
2781 4953.439061670713
2782 4953.50788077544
2783 4953.440141215458
2784 4953.505191408921
2785 4953.441756588993
2786 4953.508256439671
2787 4953.444666784624
2788 4953.508037698773
2789 4953.441571172519
2790 4953.507658625191
2791 4953.441442747891
2792 4953.504368978965
2793 4953.439534470597
2794 4953.505746579534
2795 4953.440070278265
2796 4953.50398748108
2797 4953.440804831708
2798 4953.508232339569
2799 4953.442988965709
2800 4953.50745587798
2801 4953.443453149115
2802 4953.506486780411
2803 4953.442916886414
2804 4953.507229135772
2805 4953.443706179775
2806 4953.508426671735
2807 4953.444260319307
2808 4953.50660360841
2809 4953.442102311502
2810 4953.507559665454
2811 4953.443629992532
2812 4953.510036244848
2813 4953.445784126787
2814 4953.511174149125
2815 4953.444533271642
2816 4953.51088299787
2817 4953.441594802343
2818 4953.508055605961
2819 4953.43851796004
2820 4953.504666453546
2821 4953.438446298094
2822 4953.506779904437
2823 4953.441551921855
2824 4953.509954684127
2825 4953.439697706974
2826 4953.506343707798
2827 4953.439288848718
2828 4953.505270086008
2829 4953.440808733875
2830 4953.511136732553
2831 4953.443067872494
2832 4953.510997897256
2833 4953.444924199973
2834 4953.512860726712
2835 4953.446108940346
2836 4953.511049378185
2837 4953.446325041708
2838 4953.51004497363
2839 4953.446448703534
2840 4953.507266041642
2841 4953.443436613645
2842 4953.50564621065
2843 4953.441030069845
2844 4953.504302674473
2845 4953.441229584294
2846 4953.506323395975
2847 4953.441094678143
2848 4953.504307200865
2849 4953.438177506055
2850 4953.503474548659
2851 4953.435292732343
2852 4953.50409352319
2853 4953.436289720925
2854 4953.506844350505
2855 4953.437357314412
2856 4953.509876542038
2857 4953.438443871481
2858 4953.510967764026
2859 4953.438181107605
2860 4953.508669905844
2861 4953.434845082264
2862 4953.501856589358
2863 4953.427026694991
2864 4953.494768062676
2865 4953.424212986398
2866 4953.493547177384
2867 4953.425752929091
2868 4953.494341619307
2869 4953.426022380535
2870 4953.492090372212
2871 4953.423741882681
2872 4953.490183677881
2873 4953.424033036621
2874 4953.490416989943
2875 4953.423923087056
2876 4953.492003297529
2877 4953.427750060117
2878 4953.494593442995
2879 4953.430611193208
2880 4953.496610171497
2881 4953.433348759042
2882 4953.497137286299
2883 4953.434036689924
2884 4953.50149007267
2885 4953.434703698022
2886 4953.500282336704
2887 4953.433725156304
2888 4953.503367127686
2889 4953.436645632773
2890 4953.504782884813
2891 4953.439142159631
2892 4953.502552932152
2893 4953.439265639576
2894 4953.504223129979
2895 4953.440306616113
2896 4953.506841942105
2897 4953.442729300033
2898 4953.506086471273
2899 4953.442253958465
2900 4953.50851737804
2901 4953.442241039089
2902 4953.509295243288
2903 4953.44191138824
2904 4953.50936083552
2905 4953.443537858833
2906 4953.508237360516
2907 4953.44300698282
2908 4953.509770963506
2909 4953.441852410442
2910 4953.505418100299
2911 4953.438370623309
2912 4953.504208025463
2913 4953.435731434417
2914 4953.500529108376
2915 4953.433288118575
2916 4953.498581109114
2917 4953.430454145766
2918 4953.496805378109
2919 4953.430989676133
2920 4953.499041394432
2921 4953.4359776021
2922 4953.501716651549
2923 4953.437783964595
2924 4953.501521854246
2925 4953.438317722123
2926 4953.50355610769
2927 4953.438228812812
2928 4953.500733856505
2929 4953.432868195477
2930 4953.502483963185
2931 4953.438690320579
2932 4953.505269550233
2933 4953.447132099271
2934 4953.51398355161
2935 4953.451904651302
2936 4953.519180809063
2937 4953.454702742979
2938 4953.520291800099
2939 4953.453846725485
2940 4953.5199981874
2941 4953.452132223061
2942 4953.517558171955
2943 4953.447861427354
2944 4953.516588563567
2945 4953.446305616762
2946 4953.508109597394
2947 4953.444232142916
2948 4953.508579026555
2949 4953.441798270418
2950 4953.505324841186
2951 4953.437795135079
2952 4953.502417374079
2953 4953.437990809842
2954 4953.504710278208
2955 4953.44273853338
2956 4953.506403292126
2957 4953.442254457251
2958 4953.506070538962
2959 4953.436999006655
2960 4953.502230285825
2961 4953.434697807733
2962 4953.500973745802
2963 4953.431300421777
2964 4953.499836802238
2965 4953.43268003981
2966 4953.499845634919
2967 4953.4331338505
2968 4953.501355299886
2969 4953.433906700081
2970 4953.501647719037
2971 4953.430592191417
2972 4953.497167448088
2973 4953.429370012995
2974 4953.497038454798
2975 4953.429680648349
2976 4953.498360273301
2977 4953.433417056101
2978 4953.501630805838
2979 4953.435364121658
2980 4953.503765169833
2981 4953.438529441341
2982 4953.50626199398
2983 4953.439973216897
2984 4953.508388647528
2985 4953.443564251977
2986 4953.512898909449
2987 4953.445128616465
2988 4953.513505741219
2989 4953.447241113988
2990 4953.514285310964
2991 4953.44886129538
2992 4953.515495479322
2993 4953.44863095583
2994 4953.514448519138
2995 4953.445852320224
2996 4953.514978525141
2997 4953.445810021774
2998 4953.513105030107
2999 4953.442445666323
3000 4953.507649157301
3001 4953.4371964124
3002 4953.501097221382
3003 4953.435151128412
3004 4953.501507392571
3005 4953.434387378629
3006 4953.498727266689
3007 4953.433864744718
3008 4953.500348288493
3009 4953.438531480411
3010 4953.503549392748
3011 4953.435018584343
3012 4953.500557161367
3013 4953.434000595341
3014 4953.499553375313
3015 4953.434486875163
3016 4953.500691992432
3017 4953.435965157779
3018 4953.499416699908
3019 4953.436248121345
3020 4953.500538202267
3021 4953.43888929858
3022 4953.506283749073
3023 4953.441605088036
3024 4953.502358540834
3025 4953.440237587974
3026 4953.504759477481
3027 4953.441567663056
3028 4953.50649716701
3029 4953.444412928891
3030 4953.510374013219
3031 4953.446748838922
3032 4953.512704530778
3033 4953.447524282817
3034 4953.51621175397
3035 4953.449022049057
3036 4953.512529277607
3037 4953.446883609899
3038 4953.513197419185
3039 4953.445869212384
3040 4953.512839467834
3041 4953.443329370523
3042 4953.510058048214
3043 4953.439094619587
3044 4953.505361038799
3045 4953.43549616961
3046 4953.502666132395
3047 4953.431644934359
3048 4953.495372630045
3049 4953.427338934514
3050 4953.491998057532
3051 4953.425555183997
3052 4953.490283667036
3053 4953.425375776706
3054 4953.490612377396
3055 4953.424929901036
3056 4953.493006645085
3057 4953.42775838751
3058 4953.493638956645
3059 4953.4279743063
3060 4953.491163497112
3061 4953.427656499083
3062 4953.492544324328
3063 4953.428234463054
3064 4953.49564931605
3065 4953.429970061851
3066 4953.493818252589
3067 4953.428437454733
3068 4953.494988854722
3069 4953.430113641748
3070 4953.495363255594
3071 4953.427498272155
3072 4953.496016096005
3073 4953.428453433906
3074 4953.497206744853
3075 4953.429122649359
3076 4953.500247883518
3077 4953.430736318502
3078 4953.498029369478
3079 4953.428781532511
3080 4953.497066005886
3081 4953.429963690999
3082 4953.500492745948
3083 4953.430765349989
3084 4953.503658723249
3085 4953.437624288335
3086 4953.505836840505
3087 4953.440193538017
3088 4953.508386395345
3089 4953.441545153718
3090 4953.506433041641
3091 4953.439414203547
3092 4953.503481225486
3093 4953.44017447348
3094 4953.506168820354
3095 4953.443153232717
3096 4953.513021838174
3097 4953.447087146843
3098 4953.515336745241
3099 4953.448051750232
3100 4953.513171673831
3101 4953.444602464207
3102 4953.507411567239
3103 4953.437683989165
3104 4953.501117881769
3105 4953.434868383841
3106 4953.501295747587
3107 4953.435885731389
3108 4953.501188880523
3109 4953.441015969367
3110 4953.505012829122
3111 4953.441909972661
3112 4953.506366710557
3113 4953.442657589341
3114 4953.504668413378
3115 4953.441647036857
3116 4953.502931714899
3117 4953.442264620356
3118 4953.506405480402
3119 4953.443607968485
3120 4953.50854910426
3121 4953.445975250959
3122 4953.511297083207
3123 4953.448025755112
3124 4953.512601221151
3125 4953.449895691067
3126 4953.509601659202
3127 4953.447298789944
3128 4953.506398979985
3129 4953.447108815528
3130 4953.508099567309
3131 4953.443525808771
3132 4953.503920298439
3133 4953.442043828196
3134 4953.506338569601
3135 4953.444643899148
3136 4953.50737020531
3137 4953.441505963349
3138 4953.50436379175
3139 4953.440055895493
3140 4953.503365243042
3141 4953.439912886975
3142 4953.504445084069
3143 4953.436324259301
3144 4953.502059500564
3145 4953.433984151557
3146 4953.503173903318
3147 4953.435950922063
3148 4953.50603205416
3149 4953.438791614873
3150 4953.505950958561
3151 4953.440994330141
3152 4953.505403020954
3153 4953.441088608547
3154 4953.508194023654
3155 4953.441891174553
3156 4953.50873074036
3157 4953.442405603015
3158 4953.508719182485
3159 4953.440409977644
3160 4953.504259223236
3161 4953.437810139821
3162 4953.500660418852
3163 4953.433856591145
3164 4953.496742726228
3165 4953.431108225642
3166 4953.495976878079
3167 4953.430608299027
3168 4953.495040065724
3169 4953.431576732706
3170 4953.496197291338
3171 4953.432020972051
3172 4953.49531220597
3173 4953.42881367572
3174 4953.494400971924
3175 4953.426442248649
3176 4953.491052763292
3177 4953.424110751494
3178 4953.49181530286
3179 4953.422614187836
3180 4953.487755360811
3181 4953.421414620444
3182 4953.489632583119
3183 4953.424921929945
3184 4953.493846630089
3185 4953.426876848666
3186 4953.496362838128
3187 4953.431228982588
3188 4953.501703689048
3189 4953.436356266158
3190 4953.504299768215
3191 4953.43834406449
3192 4953.50837158858
3193 4953.442508667399
3194 4953.507027397902
3195 4953.441685022315
3196 4953.511701204147
3197 4953.445845371849
3198 4953.511200332384
3199 4953.445881283676
3200 4953.511688394132
3201 4953.449625901645
3202 4953.511382362907
3203 4953.448353567434
3204 4953.510529392284
3205 4953.445664323417
3206 4953.508760383135
3207 4953.444252603919
3208 4953.509879696652
3209 4953.443022065386
3210 4953.50810657308
3211 4953.441927816525
3212 4953.504616986133
3213 4953.437219442931
3214 4953.505908227014
3215 4953.436755318063
3216 4953.504122866765
3217 4953.436992998038
3218 4953.504388382379
3219 4953.436582109503
3220 4953.501230382296
3221 4953.434104093865
3222 4953.497567079273
3223 4953.432318324429
3224 4953.497793224709
3225 4953.433080900495
3226 4953.499323575512
3227 4953.434396988132
3228 4953.499571320952
3229 4953.43430302215
3230 4953.498833734785
3231 4953.434981717714
3232 4953.505805894228
3233 4953.441097907465
3234 4953.507124698192
3235 4953.443789717091
3236 4953.507021446723
3237 4953.448576961033
3238 4953.511038814097
3239 4953.449720919027
3240 4953.512436490146
3241 4953.451303908494
3242 4953.512617005486
3243 4953.454029614178
3244 4953.514672329672
3245 4953.454729251415
3246 4953.513918148776
3247 4953.454517467967
3248 4953.515535924364
3249 4953.449606927311
3250 4953.515841825514
3251 4953.449668645446
3252 4953.509972865451
3253 4953.442763575708
3254 4953.508159925558
3255 4953.438403475253
3256 4953.502565123164
3257 4953.433309192055
3258 4953.498715705635
3259 4953.432760143321
3260 4953.495820169783
3261 4953.430631800808
3262 4953.498618320628
3263 4953.430454714427
3264 4953.493063350082
3265 4953.424396869204
3266 4953.48863439495
3267 4953.420535799092
3268 4953.485637077642
3269 4953.417074659628
3270 4953.484466422641
3271 4953.417708257398
3272 4953.487123537302
3273 4953.420028220604
3274 4953.491224808814
3275 4953.424712711415
3276 4953.493495411255
3277 4953.429446002287
3278 4953.499219103698
3279 4953.434610817451
3280 4953.502679141247
3281 4953.43650930378
3282 4953.504449536988
3283 4953.438569361962
3284 4953.503687941421
3285 4953.438133545319
3286 4953.504973879477
3287 4953.44099690182
3288 4953.50839570556
3289 4953.442240907914
3290 4953.511322905056
3291 4953.447033147561
3292 4953.512876893435
3293 4953.447459042865
3294 4953.509454971834
3295 4953.442823916543
3296 4953.507435140922
3297 4953.44363316169
3298 4953.506895559616
3299 4953.442954230463
3300 4953.501898222216
3301 4953.441173578198
3302 4953.502206691374
3303 4953.441369257042
3304 4953.503288296502
3305 4953.43953697253
3306 4953.502972976655
3307 4953.437795721159
3308 4953.501538129471
3309 4953.438324311995
3310 4953.504095678777
3311 4953.438813381866
3312 4953.503562223118
3313 4953.439298356637
3314 4953.503719739238
3315 4953.439206972262
3316 4953.506936502476
3317 4953.43617920241
3318 4953.50398914326
3319 4953.434669002044
3320 4953.502182919416
3321 4953.434173232865
3322 4953.502189129336
3323 4953.435037578876
3324 4953.504644969388
3325 4953.438265206216
3326 4953.508226003359
3327 4953.442739155106
3328 4953.513742905474
3329 4953.447440663107
3330 4953.515978943136
3331 4953.44877506665
3332 4953.512781088197
3333 4953.442902771139
3334 4953.511400794355
3335 4953.44342686468
3336 4953.506370651164
3337 4953.443642832642
3338 4953.508810871125
3339 4953.444998513102
3340 4953.508979563437
3341 4953.443869358018
3342 4953.503254191774
3343 4953.439583733345
3344 4953.500957189935
3345 4953.436346377236
3346 4953.494290450529
3347 4953.432684392938
3348 4953.492974793154
3349 4953.430991612966
3350 4953.492928744541
3351 4953.434442413776
3352 4953.497031564311
3353 4953.433776742171
3354 4953.495278595443
3355 4953.434847196615
3356 4953.498763217541
3357 4953.436685474477
3358 4953.497981268149
3359 4953.436027049011
3360 4953.497604589513
3361 4953.4318381506
3362 4953.497698244214
3363 4953.434567530991
3364 4953.49818619343
3365 4953.432269054579
3366 4953.497040634817
3367 4953.432116534743
3368 4953.496259940194
3369 4953.431769089876
3370 4953.498587364689
3371 4953.431822940483
3372 4953.497575183017
3373 4953.430847841931
3374 4953.497610354545
3375 4953.431515978767
3376 4953.499179019967
3377 4953.431732734155
3378 4953.498627210794
3379 4953.432583613496
3380 4953.501736510723
3381 4953.434868405379
3382 4953.501876654996
3383 4953.435634389905
3384 4953.504762235359
3385 4953.437102179929
3386 4953.501708422769
3387 4953.436190278282
3388 4953.504086076984
3389 4953.435176661445
3390 4953.500408027404
3391 4953.432100392371
3392 4953.500228322722
3393 4953.432061597657
3394 4953.499288479018
3395 4953.433702216059
3396 4953.500054959388
3397 4953.437591371491
3398 4953.502811818974
3399 4953.441174616452
3400 4953.50605836375
3401 4953.440111142108
3402 4953.504515456534
3403 4953.439129772936
3404 4953.502677523528
3405 4953.437088389926
3406 4953.505336513983
3407 4953.439505691842
3408 4953.503983200768
3409 4953.438135390529
3410 4953.50502174054
3411 4953.440574295332
3412 4953.506599136034
3413 4953.442199737921
3414 4953.509223311099
3415 4953.444531701104
3416 4953.5087375229
3417 4953.443174515202
3418 4953.508179924893
3419 4953.442311152707
3420 4953.502977942315
3421 4953.438045472099
3422 4953.501794410043
3423 4953.437619122198
3424 4953.502679736002
3425 4953.439415054801
3426 4953.502761252435
3427 4953.437441262276
3428 4953.500975392266
3429 4953.436910774651
3430 4953.503147009246
3431 4953.437883560902
3432 4953.504683877002
3433 4953.439424712774
3434 4953.505285851409
3435 4953.440210633736
3436 4953.506856771062
3437 4953.437707928998
3438 4953.500862257342
3439 4953.433818915594
3440 4953.500205752145
3441 4953.437678352406
3442 4953.504888011764
3443 4953.439994110976
3444 4953.51022726786
3445 4953.442685966279
3446 4953.510099303717
3447 4953.442204916722
3448 4953.509606305763
3449 4953.443294997874
3450 4953.505520516456
3451 4953.44007247521
3452 4953.499343596568
3453 4953.436676840625
3454 4953.499612951203
3455 4953.438290222199
3456 4953.499935425919
3457 4953.440321484744
3458 4953.504514751996
3459 4953.443600788698
3460 4953.506946649265
3461 4953.446317433403
3462 4953.507230045725
3463 4953.444812257228
3464 4953.507123028385
3465 4953.439982242443
3466 4953.502283841074
3467 4953.435843293047
3468 4953.497770465203
3469 4953.43232119735
3470 4953.494107637837
3471 4953.429733703576
3472 4953.495604531032
3473 4953.428943618655
3474 4953.490462664929
3475 4953.425880801099
3476 4953.492421874538
3477 4953.42919704117
3478 4953.494542376487
3479 4953.428055677634
3480 4953.494549677165
3481 4953.430384018842
3482 4953.498287077921
3483 4953.437374792471
3484 4953.50461662859
3485 4953.439145947379
3486 4953.503644904659
3487 4953.438244862334
3488 4953.506537669517
3489 4953.439670770975
3490 4953.506447846406
3491 4953.439257712545
3492 4953.505013587185
3493 4953.438933881092
3494 4953.504728579283
3495 4953.440366841286
3496 4953.509298646114
3497 4953.445532575791
3498 4953.512851277787
3499 4953.448587212514
3500 4953.515409410972
3501 4953.448578371967
3502 4953.51724823441
3503 4953.449103569049
3504 4953.517077119204
3505 4953.445759488292
3506 4953.513246676413
3507 4953.442286675526
3508 4953.509986914342
3509 4953.443233111628
3510 4953.507498221536
3511 4953.442159313157
3512 4953.508576274348
3513 4953.444455065654
3514 4953.510111888891
3515 4953.443417068372
3516 4953.510469562243
3517 4953.443290790074
3518 4953.508191295785
3519 4953.440744088718
3520 4953.50700065312
3521 4953.437897894505
3522 4953.501808486453
3523 4953.434743324732
3524 4953.497206778451
3525 4953.431438838271
3526 4953.496215985472
3527 4953.431214426802
3528 4953.49563814404
3529 4953.433052418618
3530 4953.500313554929
3531 4953.43749150092
3532 4953.503176742358
3533 4953.44029869221
3534 4953.506702527608
3535 4953.443158444317
3536 4953.507447563396
3537 4953.444003413875
3538 4953.511607968896
3539 4953.447171691953
3540 4953.513492873193
3541 4953.446629102536
3542 4953.51317403466
3543 4953.447615066202
3544 4953.513751689055
3545 4953.449731348853
3546 4953.514349664198
3547 4953.451553965329
3548 4953.516214505292
3549 4953.452755446858
3550 4953.516655743197
3551 4953.451087669104
3552 4953.513418780179
3553 4953.445900830438
3554 4953.508458242281
3555 4953.445057568545
3556 4953.504968034827
3557 4953.439468310582
3558 4953.49995591872
3559 4953.437927472844
3560 4953.497064631024
3561 4953.43367470685
3562 4953.497484091006
3563 4953.433097565684
3564 4953.496791040892
3565 4953.429591002423
3566 4953.494590013404
3567 4953.430791342645
3568 4953.497691318368
3569 4953.429964939739
3570 4953.493761395963
3571 4953.428043391437
3572 4953.494284628871
3573 4953.428310535375
3574 4953.497546864536
3575 4953.430114339043
3576 4953.497103705731
3577 4953.428514861697
3578 4953.497106373429
3579 4953.427550136378
3580 4953.496204762878
3581 4953.430365997591
3582 4953.499268001394
3583 4953.436171172315
3584 4953.500724922597
3585 4953.440100969337
3586 4953.507188828946
3587 4953.445725023261
3588 4953.512191291279
3589 4953.448112423281
3590 4953.51405850121
3591 4953.4480248929
3592 4953.512957674448
3593 4953.446393166852
3594 4953.508558967928
3595 4953.444407652973
3596 4953.511118233486
3597 4953.447866622364
3598 4953.516385148381
3599 4953.451414569966
3600 4953.519304466659
3601 4953.452134683983
3602 4953.515419906765
3603 4953.450468117467
3604 4953.51307638154
3605 4953.445971598831
3606 4953.50696039653
3607 4953.442414644821
3608 4953.506183626194
3609 4953.443214812719
3610 4953.504759811678
3611 4953.442288821503
3612 4953.505863563059
3613 4953.437981979271
3614 4953.505894462829
3615 4953.438815467123
3616 4953.508042440856
3617 4953.437754234708
3618 4953.505681909601
3619 4953.437352462977
3620 4953.506861262888
3621 4953.438779142756
3622 4953.510728053423
3623 4953.442674348777
3624 4953.511049270772
3625 4953.445270964136
3626 4953.510218185096
3627 4953.446202005561
3628 4953.511631021055
3629 4953.444632465441
3630 4953.509226262507
3631 4953.442921679922
3632 4953.511289922738
3633 4953.445877350847
3634 4953.512975436683
3635 4953.448066725934
3636 4953.514373537536
3637 4953.451863879096
3638 4953.515361637
3639 4953.451977942911
3640 4953.51624565456
3641 4953.449326846423
3642 4953.511542633524
3643 4953.447473487203
3644 4953.511924852546
3645 4953.446616524743
3646 4953.51036778574
3647 4953.446140191134
3648 4953.507969156449
3649 4953.442205068814
3650 4953.507030619477
3651 4953.440855762386
3652 4953.506648783991
3653 4953.438837103415
3654 4953.500011095289
3655 4953.432495547638
3656 4953.495615382251
3657 4953.42845819253
3658 4953.495561696362
3659 4953.429888628827
3660 4953.494948093316
3661 4953.432169415108
3662 4953.500301454934
3663 4953.43590630986
3664 4953.504263543734
3665 4953.436822006293
3666 4953.501884170233
3667 4953.435452378254
3668 4953.499198808459
3669 4953.434862717915
3670 4953.50209870056
3671 4953.43551533253
3672 4953.502779313168
3673 4953.434935872468
3674 4953.502866009509
3675 4953.436956033959
3676 4953.506613796112
3677 4953.438991779159
3678 4953.501729755269
3679 4953.436256205039
3680 4953.500510779529
3681 4953.437662966628
3682 4953.503660194188
3683 4953.43789385069
3684 4953.503482729555
3685 4953.438352069292
3686 4953.503913447276
3687 4953.440148613572
3688 4953.50454913975
3689 4953.441512068244
3690 4953.502915350161
3691 4953.439351823091
3692 4953.501865025119
3693 4953.442084586703
3694 4953.507004435472
3695 4953.444169568483
3696 4953.507968508024
3697 4953.446759748702
3698 4953.510140021384
3699 4953.446124096262
3700 4953.513527356826
3701 4953.44966846221
3702 4953.513549055229
3703 4953.450290404989
3704 4953.514475829859
3705 4953.444943583865
3706 4953.506639182988
3707 4953.440390531611
3708 4953.503630264683
3709 4953.436621709261
3710 4953.504669101604
3711 4953.440852384719
3712 4953.50780520171
3713 4953.441929264392
3714 4953.510234428259
3715 4953.442864630342
3716 4953.509078084799
3717 4953.442747249167
3718 4953.508060867569
3719 4953.440703623096
3720 4953.50741065234
3721 4953.441742662993
3722 4953.504644258403
3723 4953.4378264734
3724 4953.503108789087
3725 4953.435403794312
3726 4953.498627066127
3727 4953.431244023614
3728 4953.498765540455
3729 4953.433207642292
3730 4953.498924271855
3731 4953.434780497876
3732 4953.504702081162
3733 4953.440133833064
3734 4953.503898097246
3735 4953.43882091955
3736 4953.505861160811
3737 4953.438295789567
3738 4953.503518345073
3739 4953.438857827897
3740 4953.506167686831
3741 4953.440774842161
3742 4953.506556231179
3743 4953.441541079221
3744 4953.510560109589
3745 4953.445103786785
3746 4953.510858946237
3747 4953.447374922772
3748 4953.51328128321
3749 4953.445187477007
3750 4953.510182882857
3751 4953.441697102859
3752 4953.506522415732
3753 4953.439538380982
3754 4953.508121418341
3755 4953.438281290465
3756 4953.505000099577
3757 4953.436647886803
3758 4953.50260827735
3759 4953.434648949833
3760 4953.500713482927
3761 4953.433457282805
3762 4953.495889889462
3763 4953.429447642827
3764 4953.490523140264
3765 4953.429012735687
3766 4953.492612216628
3767 4953.432799625808
3768 4953.492208360402
3769 4953.432016484202
3770 4953.494785351036
3771 4953.434036808129
3772 4953.495913950625
3773 4953.434225371957
3774 4953.494016063391
3775 4953.426406253245
3776 4953.490582329011
3777 4953.425957720159
3778 4953.488451455004
3779 4953.422574992484
3780 4953.489755702954
3781 4953.4228095177
3782 4953.49067484542
3783 4953.425585662148
3784 4953.494654692786
3785 4953.427945151737
3786 4953.492564897804
3787 4953.427496507972
3788 4953.497814050108
3789 4953.433445771618
3790 4953.497641163272
3791 4953.431375438548
3792 4953.503378162459
3793 4953.436592927168
3794 4953.503482896209
3795 4953.437908539188
3796 4953.509944739381
3797 4953.444633098871
3798 4953.508902288532
3799 4953.446198492122
3800 4953.509142933687
3801 4953.448899684264
3802 4953.510729311106
3803 4953.448809580137
3804 4953.509446667636
3805 4953.448635716127
3806 4953.512833158439
3807 4953.448538961704
3808 4953.509802883167
3809 4953.445701841381
3810 4953.505622908695
3811 4953.439662049922
3812 4953.499256730928
3813 4953.433245868062
3814 4953.496889353512
3815 4953.431528852999
3816 4953.496136959729
3817 4953.432649865907
3818 4953.500682772437
3819 4953.440334503744
3820 4953.499977311457
3821 4953.43933790291
3822 4953.500205816579
3823 4953.437753404588
3824 4953.500638619602
3825 4953.439012340061
3826 4953.499505145952
3827 4953.434362998724
3828 4953.498505851296
3829 4953.434119492354
3830 4953.499424555541
3831 4953.431562299097
3832 4953.505532607531
3833 4953.437578777263
3834 4953.506252138242
3835 4953.438312925135
3836 4953.508731491774
3837 4953.441787514714
3838 4953.507999184082
3839 4953.440303313389
3840 4953.509273865396
3841 4953.442359625451
3842 4953.512261171077
3843 4953.446736518949
3844 4953.51761593589
3845 4953.450177767907
3846 4953.516927982078
3847 4953.448234140173
3848 4953.514735979287
3849 4953.446721965345
3850 4953.513005655982
3851 4953.446980402539
3852 4953.51283437166
3853 4953.445896046866
3854 4953.512046890405
3855 4953.444395300156
3856 4953.510130842295
3857 4953.441651310198
3858 4953.503190608171
3859 4953.435485476018
3860 4953.499992033015
3861 4953.432903893551
3862 4953.497590159835
3863 4953.432326985907
3864 4953.494398824416
3865 4953.429699119759
3866 4953.492167283558
3867 4953.429076620825
3868 4953.493318493932
3869 4953.428090845927
3870 4953.49049227696
3871 4953.426473286045
3872 4953.491910629702
3873 4953.428141431823
3874 4953.490408747994
3875 4953.425458285854
3876 4953.491442742042
3877 4953.428179480269
3878 4953.491063614065
3879 4953.426242535727
3880 4953.493969875814
3881 4953.428438113021
3882 4953.49262459025
3883 4953.429265994987
3884 4953.496110491201
3885 4953.433851901364
3886 4953.499173410684
3887 4953.435447362011
3888 4953.50274157663
3889 4953.439435802161
3890 4953.502222811504
3891 4953.438373724141
3892 4953.506819368914
3893 4953.442350615854
3894 4953.50657793921
3895 4953.442167716823
3896 4953.508153715841
3897 4953.443604328794
3898 4953.511035959963
3899 4953.444271858527
3900 4953.508303764619
3901 4953.443364786695
3902 4953.510227066497
3903 4953.44504893688
3904 4953.511008063766
3905 4953.446135843549
3906 4953.508554022099
3907 4953.444810810738
3908 4953.506280532047
3909 4953.443353693148
3910 4953.50477148152
3911 4953.435769518542
3912 4953.500388658425
3913 4953.435825046118
3914 4953.49720359602
3915 4953.433746818395
3916 4953.496759065143
3917 4953.432606833278
3918 4953.493122746017
3919 4953.431420118853
3920 4953.494929964091
3921 4953.432476114785
3922 4953.496423016583
3923 4953.431986699523
3924 4953.499469109696
3925 4953.433326223384
3926 4953.500495808245
3927 4953.434239270586
3928 4953.500918942244
3929 4953.434936159941
3930 4953.504339580441
3931 4953.44037896444
3932 4953.508580112558
3933 4953.444305156561
3934 4953.513182427713
3935 4953.447128765972
3936 4953.51510004883
3937 4953.446978099086
3938 4953.51451988334
3939 4953.444933665134
3940 4953.512547153284
3941 4953.446061144855
3942 4953.510053438293
3943 4953.444113924473
3944 4953.510767412649
3945 4953.445741315269
3946 4953.510918337661
3947 4953.443459803785
3948 4953.508828957505
3949 4953.445830819013
3950 4953.506851645257
3951 4953.443284425068
3952 4953.507518619396
3953 4953.44016627934
3954 4953.500521508106
3955 4953.434981396076
3956 4953.49900921058
3957 4953.43419889358
3958 4953.499479346126
3959 4953.433605031464
3960 4953.497064023691
3961 4953.43042893439
3962 4953.495499734448
3963 4953.429072221988
3964 4953.49576364922
3965 4953.427211164322
3966 4953.492598233458
3967 4953.423821550764
3968 4953.491491981993
3969 4953.424846279044
3970 4953.494451957433
3971 4953.426332857233
3972 4953.496701655527
3973 4953.428731858904
3974 4953.496721419173
3975 4953.428576442624
3976 4953.498038715426
3977 4953.430490716052
3978 4953.494296600905
3979 4953.427601974903
3980 4953.49489858754
3981 4953.429822599033
3982 4953.493752918013
3983 4953.428205014054
3984 4953.49438887521
3985 4953.43137221627
3986 4953.496207898369
3987 4953.432867372273
3988 4953.497442648323
3989 4953.435345460881
3990 4953.494826220332
3991 4953.430766049312
3992 4953.493713722272
3993 4953.430872793303
3994 4953.49143312979
3995 4953.430711948909
3996 4953.493367952326
3997 4953.432612759555
3998 4953.495738206843
3999 4953.436517439533
4000 4953.497279241165
4001 4953.437883551419
4002 4953.495408822751
4003 4953.437084339317
4004 4953.499194926662
4005 4953.439049550832
4006 4953.504079614432
4007 4953.440091786519
4008 4953.505691844659
4009 4953.441328162594
4010 4953.507912998918
4011 4953.442858571452
4012 4953.509265714899
4013 4953.442556946909
4014 4953.505364746641
4015 4953.436535817207
4016 4953.504892929209
4017 4953.440601928643
4018 4953.507137848111
4019 4953.440908972068
4020 4953.507955725178
4021 4953.440818282867
4022 4953.506356735315
4023 4953.438975175125
4024 4953.506810493087
4025 4953.439923689623
4026 4953.504894784374
4027 4953.437123511449
4028 4953.503753632926
4029 4953.436743989037
4030 4953.501838401867
4031 4953.435218855321
4032 4953.504727652501
4033 4953.438816536455
4034 4953.503984149357
4035 4953.440534560989
4036 4953.50510748783
4037 4953.442134194473
4038 4953.505070092758
4039 4953.441398624829
4040 4953.507160576729
4041 4953.443447220847
4042 4953.510008120398
4043 4953.444049040419
4044 4953.506445468268
4045 4953.441899842521
4046 4953.504678982228
4047 4953.441005519429
4048 4953.504085563072
4049 4953.438524924041
4050 4953.502243163636
4051 4953.437559601427
4052 4953.503750602143
4053 4953.440006910831
4054 4953.503572019476
4055 4953.442558591806
4056 4953.506511515102
4057 4953.442853436918
4058 4953.507336622626
4059 4953.443256816758
4060 4953.507272593152
4061 4953.440676228463
4062 4953.506710211877
4063 4953.441463385737
4064 4953.505591273452
4065 4953.43867439429
4066 4953.505759590324
4067 4953.437240828242
4068 4953.500886644925
4069 4953.433424971819
4070 4953.498823185756
4071 4953.43265426139
4072 4953.499299547528
4073 4953.431862398125
4074 4953.495853729676
4075 4953.427706937908
4076 4953.493329829724
4077 4953.427419873519
4078 4953.493001762869
4079 4953.424136317236
4080 4953.490048621777
4081 4953.423233105491
4082 4953.490414282392
4083 4953.424904795395
4084 4953.489896363933
4085 4953.423769713234
4086 4953.491341382773
4087 4953.426485464437
4088 4953.490312479083
4089 4953.42873779264
4090 4953.496072353009
4091 4953.4323220879
4092 4953.496976793579
4093 4953.433187702604
4094 4953.501214439422
4095 4953.434566994279
4096 4953.499900316639
4097 4953.433856610464
4098 4953.500882734517
4099 4953.435315920868
4100 4953.498101688608
4101 4953.438858395219
4102 4953.506341921525
4103 4953.443094514285
4104 4953.510082554974
4105 4953.442814952754
4106 4953.513828687307
4107 4953.44765141096
4108 4953.51451193259
4109 4953.450018992826
4110 4953.514032461487
4111 4953.452858983806
4112 4953.515405943086
4113 4953.450494474601
4114 4953.515738789195
4115 4953.448763289024
4116 4953.512206667882
4117 4953.446598716288
4118 4953.509057367715
4119 4953.442224590904
4120 4953.503650359506
4121 4953.436983087672
4122 4953.497844162018
4123 4953.433391199273
4124 4953.49463393365
4125 4953.435283700634
4126 4953.499233436184
4127 4953.436477610971
4128 4953.496977693507
4129 4953.437071543647
4130 4953.499868681419
4131 4953.437054782423
4132 4953.498819756941
4133 4953.435206251706
4134 4953.495122944876
4135 4953.432445450766
4136 4953.494789081627
4137 4953.432622320615
4138 4953.494757804881
4139 4953.432298163447
4140 4953.501154738955
4141 4953.435413411893
4142 4953.506771732516
4143 4953.441503422088
4144 4953.511354275337
4145 4953.444690297462
4146 4953.510618690448
4147 4953.442394825893
4148 4953.511563778817
4149 4953.442976417859
4150 4953.515228906012
4151 4953.44610105551
4152 4953.51506658017
4153 4953.443394121737
4154 4953.513241468546
4155 4953.440265429042
4156 4953.509059266785
4157 4953.438359494247
4158 4953.507881525851
4159 4953.438363526075
4160 4953.504263879076
4161 4953.439698972205
4162 4953.504146164187
4163 4953.438450703517
4164 4953.500285707637
4165 4953.435998303808
4166 4953.495683205005
4167 4953.431448977316
4168 4953.493915849138
4169 4953.428490936059
4170 4953.487769264534
4171 4953.425950437425
4172 4953.487121468734
4173 4953.424057609825
4174 4953.488652513069
4175 4953.421687076528
4176 4953.486881770575
4177 4953.420719329322
4178 4953.485414754521
4179 4953.421336212769
4180 4953.489414209943
4181 4953.419838282225
4182 4953.486864959051
4183 4953.417758041977
4184 4953.482902885517
4185 4953.417278695048
4186 4953.485429083002
4187 4953.420754961069
4188 4953.489122539127
4189 4953.426347989149
4190 4953.494468455707
4191 4953.432678661802
4192 4953.499478031753
4193 4953.436192940363
4194 4953.503851104168
4195 4953.439392264767
4196 4953.506466923052
4197 4953.444894862376
4198 4953.509059463187
4199 4953.445122631238
4200 4953.51039587325
4201 4953.445817003731
4202 4953.510347786874
4203 4953.445048766383
4204 4953.507653048246
4205 4953.4413980131
4206 4953.499267708244
4207 4953.436160213953
4208 4953.497013175973
4209 4953.436562682727
4210 4953.497097940399
4211 4953.435648739997
4212 4953.500036700589
4213 4953.437825647577
4214 4953.500823563228
4215 4953.43906919382
4216 4953.504405697029
4217 4953.436443969773
4218 4953.503025043352
4219 4953.436169295536
4220 4953.505015844788
4221 4953.439969729066
4222 4953.505085354524
4223 4953.437718913653
4224 4953.505131662891
4225 4953.436557123662
4226 4953.505421746808
4227 4953.43873425044
4228 4953.507329994321
4229 4953.440867866714
4230 4953.50202338838
4231 4953.436576786395
4232 4953.50068631317
4233 4953.437275265868
4234 4953.49894443789
4235 4953.43530135621
4236 4953.50238784662
4237 4953.439547292728
4238 4953.503597176978
4239 4953.441699916854
4240 4953.509140903519
4241 4953.446143499733
4242 4953.511080013978
4243 4953.449820844177
4244 4953.516079953311
4245 4953.454686691091
4246 4953.51803202123
4247 4953.451549376981
4248 4953.516740497899
4249 4953.450570925638
4250 4953.512508415733
4251 4953.447331729544
4252 4953.512613051887
4253 4953.445270060798
4254 4953.510135843836
4255 4953.442563271145
4256 4953.507461554738
4257 4953.440191986127
4258 4953.506650787653
4259 4953.438290753641
4260 4953.502272487087
4261 4953.433216893202
4262 4953.501324900123
4263 4953.431232351912
4264 4953.496599326091
4265 4953.427189380899
4266 4953.493125288494
4267 4953.426275447733
4268 4953.492536491082
4269 4953.426508449118
4270 4953.495486803917
4271 4953.431055536082
4272 4953.500504111667
4273 4953.43255619879
4274 4953.501715384571
4275 4953.432543459647
4276 4953.503232588921
4277 4953.431628533046
4278 4953.498958180508
4279 4953.42936286571
4280 4953.498717309606
4281 4953.430883849058
4282 4953.495968571728
4283 4953.431642161468
4284 4953.496285662267
4285 4953.429507986589
4286 4953.492986521472
4287 4953.428180364949
4288 4953.489661348925
4289 4953.425861973626
4290 4953.487976601232
4291 4953.429481723872
4292 4953.490387672988
4293 4953.428686302732
4294 4953.494531333292
4295 4953.434863207713
4296 4953.496488237931
4297 4953.434911831233
4298 4953.498724779479
4299 4953.44096819285
4300 4953.501750201737
4301 4953.439844778994
4302 4953.500410171689
4303 4953.439009745729
4304 4953.499719013303
4305 4953.438717052482
4306 4953.503940502628
4307 4953.441926464115
4308 4953.505198840488
4309 4953.441594625619
4310 4953.505239809114
4311 4953.439095928858
4312 4953.503879325381
4313 4953.434905007657
4314 4953.500393291013
4315 4953.432674399342
4316 4953.500565923488
4317 4953.434585404654
4318 4953.501052357837
4319 4953.436457260788
4320 4953.505243607151
4321 4953.439908327449
4322 4953.504410547751
4323 4953.44203614952
4324 4953.504927671544
4325 4953.440118446921
4326 4953.499136717582
4327 4953.434261807335
4328 4953.498820981027
4329 4953.434741026304
4330 4953.500046971883
4331 4953.435875564717
4332 4953.502014285163
4333 4953.435586195757
4334 4953.499103799084
4335 4953.435567533004
4336 4953.499247983697
4337 4953.435098871436
4338 4953.495817282819
4339 4953.432614321745
4340 4953.493913582554
4341 4953.429803300023
4342 4953.49391228735
4343 4953.430268029043
4344 4953.494108997145
4345 4953.431122249494
4346 4953.495913626575
4347 4953.436318869809
4348 4953.500938365441
4349 4953.436551698552
4350 4953.499850454269
4351 4953.435897609004
4352 4953.502414081295
4353 4953.435238341272
4354 4953.501820180886
4355 4953.434989444563
4356 4953.505388103466
4357 4953.44047752581
4358 4953.511121182402
4359 4953.441903897191
4360 4953.512875724025
4361 4953.442753496857
4362 4953.508816139524
4363 4953.438628484513
4364 4953.508088670351
4365 4953.436870856994
4366 4953.506578303969
4367 4953.43456284833
4368 4953.507591915456
4369 4953.435079921597
4370 4953.505516932649
4371 4953.435325186541
4372 4953.507198289101
4373 4953.435903308476
4374 4953.500341895047
4375 4953.431507882926
4376 4953.499060414871
4377 4953.432116324026
4378 4953.496933583444
4379 4953.42972281853
4380 4953.497078177836
4381 4953.431986248521
4382 4953.495239226297
4383 4953.431392983917
4384 4953.495141808969
4385 4953.431744589712
4386 4953.492824237621
4387 4953.428289581826
4388 4953.490506625334
4389 4953.42792062383
4390 4953.492083620898
4391 4953.42838295579
4392 4953.496037369069
4393 4953.432330874993
4394 4953.497377952051
4395 4953.435273000869
4396 4953.503499566999
4397 4953.439369527949
4398 4953.505723332462
4399 4953.442714390526
4400 4953.506702679939
4401 4953.443360033238
4402 4953.506781953181
4403 4953.443454957399
4404 4953.508053795429
4405 4953.441693533296
4406 4953.506532429899
4407 4953.44479948462
4408 4953.50977949049
4409 4953.446037695722
4410 4953.512090321286
4411 4953.448377552167
4412 4953.512199341723
4413 4953.446801984984
4414 4953.512706867298
4415 4953.443203249508
4416 4953.506149540286
4417 4953.437745457012
4418 4953.503626327998
4419 4953.435961500043
4420 4953.501739850828
4421 4953.433668960901
4422 4953.497627553754
4423 4953.432202196555
4424 4953.496730144416
4425 4953.435059093817
4426 4953.500008453221
4427 4953.437379822992
4428 4953.502138874232
4429 4953.437675958735
4430 4953.501159647228
4431 4953.438007000124
4432 4953.501845168823
4433 4953.437842686657
4434 4953.500667256945
4435 4953.437568980235
4436 4953.501240981084
4437 4953.437730434275
4438 4953.501582396006
4439 4953.435915978575
4440 4953.499426394929
4441 4953.435239468228
4442 4953.499414277558
4443 4953.437558422243
4444 4953.501725069496
4445 4953.437960984682
4446 4953.502555588771
4447 4953.440146171514
4448 4953.503921142014
4449 4953.43955775591
4450 4953.506362822497
4451 4953.441375443816
4452 4953.50725560288
4453 4953.440633464255
4454 4953.507447460257
4455 4953.441502936538
4456 4953.508526491055
4457 4953.443442860802
4458 4953.508703460492
4459 4953.443941876995
4460 4953.506580100359
4461 4953.441070711989
4462 4953.509301972281
4463 4953.44020528495
4464 4953.505616957978
4465 4953.436000054977
4466 4953.502519736466
4467 4953.434929678928
4468 4953.49605733763
4469 4953.427153445324
4470 4953.490529087726
4471 4953.422592245392
4472 4953.490061277621
4473 4953.423975457815
4474 4953.49131613996
4475 4953.424563957205
4476 4953.489696409262
4477 4953.424501205261
4478 4953.489323654472
4479 4953.422225725466
4480 4953.487468387769
4481 4953.421717626055
4482 4953.486166948786
4483 4953.420529594197
4484 4953.488167345141
4485 4953.423320305531
4486 4953.489713146307
4487 4953.426705898873
4488 4953.493544958655
4489 4953.42915546212
4490 4953.494873121494
4491 4953.430820757701
4492 4953.497916646608
4493 4953.434098201062
4494 4953.496130794985
4495 4953.434351849394
4496 4953.500824689001
4497 4953.439745535264
4498 4953.507839282765
4499 4953.442269659115
4500 4953.507262255017
4501 4953.442674338492
4502 4953.510269239802
4503 4953.443629721472
4504 4953.507895509348
4505 4953.443887210377
4506 4953.508772014208
4507 4953.440459803909
4508 4953.505318877275
4509 4953.43965391258
4510 4953.501741560263
4511 4953.435474854905
4512 4953.502855245691
4513 4953.438165395237
4514 4953.504022714604
4515 4953.43694635559
4516 4953.505118838929
4517 4953.437975991425
4518 4953.499270773777
4519 4953.435920884126
4520 4953.499188071493
4521 4953.43629140936
4522 4953.501026397144
4523 4953.436007316185
4524 4953.501444203108
4525 4953.439241627371
4526 4953.505774116165
4527 4953.442319258535
4528 4953.50764405986
4529 4953.443425263633
4530 4953.506194890821
4531 4953.445844153553
4532 4953.507026126535
4533 4953.44780904855
4534 4953.511272052659
4535 4953.450363165804
4536 4953.510244546013
4537 4953.448342797256
4538 4953.511925193028
4539 4953.447162320804
4540 4953.511526262197
4541 4953.446621584007
4542 4953.511904289233
4543 4953.445838301865
4544 4953.510413911195
4545 4953.44416054165
4546 4953.513181033742
4547 4953.447837645075
4548 4953.515484459066
4549 4953.445955461182
4550 4953.515977444377
4551 4953.448915216829
4552 4953.518269302643
4553 4953.449722075632
4554 4953.515125819392
4555 4953.444456481379
4556 4953.510146448045
4557 4953.441441518132
4558 4953.50721290717
4559 4953.439915849659
4560 4953.504349247226
4561 4953.439889510207
4562 4953.50331373568
4563 4953.439290453373
4564 4953.503254629825
4565 4953.437392226133
4566 4953.499364322154
4567 4953.435638631027
4568 4953.498339752945
4569 4953.432743630611
4570 4953.498186563156
4571 4953.433959745092
4572 4953.4987123916
4573 4953.434213379152
4574 4953.495741552776
4575 4953.4330679288
4576 4953.497005112977
4577 4953.431469619727
4578 4953.495409503582
4579 4953.434112496818
4580 4953.497822311797
4581 4953.43524862972
4582 4953.502676888558
4583 4953.438776971501
4584 4953.503328638915
4585 4953.436135139877
4586 4953.501345499377
4587 4953.436806725012
4588 4953.500495228651
4589 4953.434752542061
4590 4953.499282467073
4591 4953.433505761349
4592 4953.499569547816
4593 4953.432818203039
4594 4953.497153461785
4595 4953.43204964217
4596 4953.499064125053
4597 4953.431114672383
4598 4953.494339666144
4599 4953.429142783313
4600 4953.495498966053
4601 4953.430274542781
4602 4953.491905775581
4603 4953.430125176811
4604 4953.494940296676
4605 4953.429828737936
4606 4953.498474047632
4607 4953.434974617991
4608 4953.505840812554
4609 4953.437515822224
4610 4953.507843823603
4611 4953.440782084409
4612 4953.510191869077
4613 4953.439855209114
4614 4953.506767584554
4615 4953.438206602759
4616 4953.505340415235
4617 4953.437697791077
4618 4953.506453420977
4619 4953.440111618343
4620 4953.504900617411
4621 4953.437501985427
4622 4953.503573444122
4623 4953.436270918046
4624 4953.500736151501
4625 4953.432443051106
4626 4953.497052401383
4627 4953.43268592613
4628 4953.49521195009
4629 4953.433472039873
4630 4953.500189826535
4631 4953.438413200186
4632 4953.504165271429
4633 4953.438608537561
4634 4953.50245306412
4635 4953.439441661472
4636 4953.50377166964
4637 4953.439552080717
4638 4953.499292237457
4639 4953.436237526563
4640 4953.497335208145
4641 4953.436269501035
4642 4953.49736419834
4643 4953.43376084491
4644 4953.501600975897
4645 4953.439295114295
4646 4953.504076458908
4647 4953.439551994408
4648 4953.501189187744
4649 4953.438081333743
4650 4953.498454845206
4651 4953.435543518819
4652 4953.496906222249
4653 4953.43318370642
4654 4953.500713284146
4655 4953.437187743601
4656 4953.499514786733
4657 4953.435033584447
4658 4953.500054741098
4659 4953.435949202331
4660 4953.501521325497
4661 4953.436201984033
4662 4953.501366154115
4663 4953.437957782387
4664 4953.503279191465
4665 4953.437451512897
4666 4953.504976613039
4667 4953.435601932495
4668 4953.505075609104
4669 4953.437570691935
4670 4953.505977859141
4671 4953.439404142578
4672 4953.506663376865
4673 4953.43799456953
4674 4953.503432814712
4675 4953.434659882683
4676 4953.501196850812
4677 4953.434498870064
4678 4953.499796378554
4679 4953.429624263915
4680 4953.499840355315
4681 4953.428958538194
4682 4953.49623565454
4683 4953.427008767004
4684 4953.495761915543
4685 4953.427167061261
4686 4953.489528957583
4687 4953.421026651019
4688 4953.487925328744
4689 4953.420862010295
4690 4953.486422278131
4691 4953.422061604657
4692 4953.486996249473
4693 4953.424441255833
4694 4953.488206982995
4695 4953.428236276337
4696 4953.491733783882
4697 4953.432248584269
4698 4953.495271241458
4699 4953.433686525894
4700 4953.494486344569
4701 4953.433784045861
4702 4953.496616632993
4703 4953.435074383602
4704 4953.497992212044
4705 4953.435004517066
4706 4953.499887064938
4707 4953.439014378864
4708 4953.504960073226
4709 4953.441250204966
4710 4953.506060381086
4711 4953.442370549666
4712 4953.510369777257
4713 4953.444853206863
4714 4953.512918858703
4715 4953.446757403363
4716 4953.51643521723
4717 4953.447903127842
4718 4953.516846220888
4719 4953.447070736053
4720 4953.518475668773
4721 4953.446513936481
4722 4953.515846787892
4723 4953.442753957165
4724 4953.510388330145
4725 4953.437411026362
4726 4953.503493113939
4727 4953.431546334232
4728 4953.497927556025
4729 4953.430109578225
4730 4953.500069616316
4731 4953.432186633272
4732 4953.498707707198
4733 4953.43135844116
4734 4953.495003068093
4735 4953.430025832566
4736 4953.496931991026
4737 4953.433457415523
4738 4953.498614011933
4739 4953.436587703867
4740 4953.500632932987
4741 4953.438291155198
4742 4953.5027348777
4743 4953.441623610855
4744 4953.505257175659
4745 4953.442539905955
4746 4953.503454187976
4747 4953.4434321197
4748 4953.501920342153
4749 4953.443300186195
4750 4953.504814425123
4751 4953.444723247696
4752 4953.504909556586
4753 4953.447062721546
4754 4953.510252660672
4755 4953.450085641996
4756 4953.512846359152
4757 4953.449493118701
4758 4953.511315794132
4759 4953.442920218851
4760 4953.506978946714
4761 4953.43924293493
4762 4953.504201362429
4763 4953.435796193282
4764 4953.499638744567
4765 4953.434969914934
4766 4953.4998122226
4767 4953.437719751232
4768 4953.503248758981
4769 4953.440802932669
4770 4953.501932218452
4771 4953.437485299581
4772 4953.50068257338
4773 4953.434157912486
4774 4953.498207195361
4775 4953.430920764872
4776 4953.494775478909
4777 4953.427296107148
4778 4953.491613914532
4779 4953.42538255301
4780 4953.492281930342
4781 4953.426776062679
4782 4953.492635541435
4783 4953.425957459775
4784 4953.490557141829
4785 4953.423396938665
4786 4953.489769950511
4787 4953.423369959408
4788 4953.487417443086
4789 4953.423251359428
4790 4953.489609870242
4791 4953.42796565124
4792 4953.494400455
4793 4953.430626177051
4794 4953.499355854525
4795 4953.434142017009
4796 4953.502898258434
4797 4953.438188983484
4798 4953.505828594984
4799 4953.438853101834
4800 4953.508838032971
4801 4953.443031364104
4802 4953.510720880275
4803 4953.442664469213
4804 4953.51266258312
4805 4953.446244057849
4806 4953.510634930305
4807 4953.445704787744
4808 4953.509774231667
4809 4953.445694204306
4810 4953.509011797539
4811 4953.4424721402
4812 4953.506143229567
4813 4953.443565362658
4814 4953.507471733979
4815 4953.442082361398
4816 4953.508618997526
4817 4953.442894616448
4818 4953.508170367635
4819 4953.442189149131
4820 4953.507141651337
4821 4953.439245045802
4822 4953.507006903604
4823 4953.439780672868
4824 4953.50523642195
4825 4953.440842451198
4826 4953.506148246544
4827 4953.440452529809
4828 4953.506503542789
4829 4953.43876113736
4830 4953.502322651187
4831 4953.434706946653
4832 4953.498298688067
4833 4953.435167048632
4834 4953.500355782442
4835 4953.434358620393
4836 4953.501187420738
4837 4953.43641088235
4838 4953.502554143082
4839 4953.438381172282
4840 4953.506883181974
4841 4953.441839708223
4842 4953.50722401521
4843 4953.440855984227
4844 4953.507352248245
4845 4953.442993360217
4846 4953.507800438061
4847 4953.441522915913
4848 4953.510166757186
4849 4953.443796237767
4850 4953.510573940011
4851 4953.444968045267
4852 4953.513218444893
4853 4953.443838274136
4854 4953.50977733462
4855 4953.442249491038
4856 4953.509784380511
4857 4953.444917297753
4858 4953.513423751678
4859 4953.44661110909
4860 4953.513782957829
4861 4953.446080217817
4862 4953.511705986806
4863 4953.444567981921
4864 4953.509186258906
4865 4953.444617369788
4866 4953.505890646463
4867 4953.440289825161
4868 4953.500477496272
4869 4953.437867933412
4870 4953.500914124208
4871 4953.433646554291
4872 4953.497974292462
4873 4953.434658326692
4874 4953.496359118642
4875 4953.433285851102
4876 4953.499168339687
4877 4953.436903968763
4878 4953.496617531587
4879 4953.432736835077
4880 4953.496739028733
4881 4953.434963881583
4882 4953.497147732675
4883 4953.435333172201
4884 4953.496412243315
4885 4953.433305830139
4886 4953.498297700634
4887 4953.43607860903
4888 4953.497400606098
4889 4953.432405434545
4890 4953.496592548317
4891 4953.42970394359
4892 4953.493952379071
4893 4953.426114635352
4894 4953.496204742361
4895 4953.427711065023
4896 4953.497393318484
4897 4953.429811786348
4898 4953.503295871908
4899 4953.436886938605
4900 4953.505300779873
4901 4953.43717270959
4902 4953.50649103364
4903 4953.436542225393
4904 4953.506587163401
4905 4953.437250460275
4906 4953.506562464449
4907 4953.437606677094
4908 4953.502319927215
4909 4953.43696835326
4910 4953.500965710597
4911 4953.436418472211
4912 4953.502879542129
4913 4953.437730693349
4914 4953.501014423482
4915 4953.436131762194
4916 4953.501940788023
4917 4953.439272769377
4918 4953.501844224131
4919 4953.437564030654
4920 4953.503611162784
4921 4953.441355228614
4922 4953.504308341227
4923 4953.444136912902
4924 4953.510663964176
4925 4953.450487546325
4926 4953.512405331237
4927 4953.449078950701
4928 4953.512668510917
4929 4953.450478029585
4930 4953.510729142773
4931 4953.446901182901
4932 4953.510201426657
4933 4953.444969505944
4934 4953.508259064904
4935 4953.444070792458
4936 4953.507615666821
4937 4953.441887609221
4938 4953.504492632832
4939 4953.438348585496
4940 4953.502271470943
4941 4953.434792775651
4942 4953.499045487227
4943 4953.433987201101
4944 4953.499689002112
4945 4953.434193452981
4946 4953.501197669289
4947 4953.437136569891
4948 4953.504656856597
4949 4953.44126449858
4950 4953.507142130425
4951 4953.447260387111
4952 4953.513097067015
4953 4953.447444579216
4954 4953.515081890593
4955 4953.448457021405
4956 4953.516020886899
4957 4953.448966130954
4958 4953.513356794979
4959 4953.445355318308
4960 4953.512782770009
4961 4953.442908665157
4962 4953.504659160017
4963 4953.441661012643
4964 4953.507587378041
4965 4953.444413037645
4966 4953.508484028891
4967 4953.444323155286
4968 4953.510225726198
4969 4953.444599814503
4970 4953.50950860558
4971 4953.445926166933
4972 4953.5125492056
4973 4953.446198371307
4974 4953.510923757698
4975 4953.442963298606
4976 4953.5070408439
4977 4953.442612410361
4978 4953.506759425053
4979 4953.440473916188
4980 4953.50489109715
4981 4953.436282821531
4982 4953.502833467021
4983 4953.437816026372
4984 4953.501704372061
4985 4953.43943772649
4986 4953.498384076507
4987 4953.436128439991
4988 4953.495031533115
4989 4953.433463795326
4990 4953.494100384872
4991 4953.430130092138
4992 4953.494865918436
4993 4953.432634584478
4994 4953.497824476533
4995 4953.431963277623
4996 4953.496665818856
4997 4953.431844648203
4998 4953.498849453742
4999 4953.434917336647
5000 4953.502933810411
5001 4953.437367716655
5002 4953.507563553632
5003 4953.439618387934
5004 4953.504306878969
5005 4953.439489214707
5006 4953.507927042341
5007 4953.4437496848
5008 4953.512915087854
5009 4953.448108384458
5010 4953.514006706323
5011 4953.447182603613
5012 4953.515332972299
5013 4953.446361538162
5014 4953.516912516272
5015 4953.445085508784
5016 4953.516131158797
5017 4953.445250561693
5018 4953.514662344617
5019 4953.44714392558
5020 4953.512912791995
5021 4953.446003293649
5022 4953.511341977374
5023 4953.443329985632
5024 4953.507469600922
5025 4953.440942088726
5026 4953.507566282165
5027 4953.439143756817
5028 4953.504815636619
5029 4953.439395196032
5030 4953.504776842665
5031 4953.439935044042
5032 4953.504172110064
5033 4953.438599517714
5034 4953.500459291505
5035 4953.434602225948
5036 4953.499065325862
5037 4953.437984237785
5038 4953.503712085625
5039 4953.436342208456
5040 4953.500822411263
5041 4953.437074890807
5042 4953.500686981895
5043 4953.43774925697
5044 4953.499601274417
5045 4953.435380638776
5046 4953.497666983317
5047 4953.434346865734
5048 4953.496331247593
5049 4953.433492484266
5050 4953.500674162116
5051 4953.438927525279
5052 4953.502642338573
5053 4953.438753804876
5054 4953.507112587138
5055 4953.444825072848
5056 4953.508778364295
5057 4953.447438374804
5058 4953.511966632156
5059 4953.448602114926
5060 4953.511318597757
5061 4953.449447689136
5062 4953.512314823941
5063 4953.447285552117
5064 4953.509614664376
5065 4953.443696456117
5066 4953.507293062434
5067 4953.440612913541
5068 4953.504401392995
5069 4953.437724442374
5070 4953.500860758282
5071 4953.43320779413
5072 4953.498291793654
5073 4953.430801451109
5074 4953.496984163198
5075 4953.428572338028
5076 4953.493140480036
5077 4953.425623854383
5078 4953.492881633176
5079 4953.429740169382
5080 4953.496449856816
5081 4953.430984354488
5082 4953.493972186449
5083 4953.429965584955
5084 4953.493595775845
5085 4953.429057269303
5086 4953.492360196878
5087 4953.428042246969
5088 4953.489460687182
5089 4953.42476310154
5090 4953.490051581389
5091 4953.427387887741
5092 4953.493924866249
5093 4953.432751184773
5094 4953.498840186448
5095 4953.436225908376
5096 4953.500451831465
5097 4953.441480010952
5098 4953.505533169489
5099 4953.442820789034
5100 4953.50600118284
5101 4953.44012752548
5102 4953.50383309132
5103 4953.439461974533
5104 4953.506194523618
5105 4953.442578935315
5106 4953.508546773528
5107 4953.442797242453
5108 4953.509645368588
5109 4953.444534843244
5110 4953.509941038518
5111 4953.443528021395
5112 4953.511203887379
5113 4953.443292455834
5114 4953.509410776419
5115 4953.443406729996
5116 4953.511341653501
5117 4953.44303420313
5118 4953.508745797685
5119 4953.442388569407
5120 4953.507636048473
5121 4953.441008415105
5122 4953.505816648489
5123 4953.438211229568
5124 4953.503043563109
5125 4953.437115011731
5126 4953.506863015599
5127 4953.439672785651
5128 4953.507618792965
5129 4953.440023602101
5130 4953.507479057408
5131 4953.441298658479
5132 4953.50740241209
5133 4953.439488354616
5134 4953.508268120771
5135 4953.438660057556
5136 4953.508784222399
5137 4953.441681589973
5138 4953.509839212936
5139 4953.444072143529
5140 4953.513552152341
5141 4953.447565257117
5142 4953.514420134012
5143 4953.448187572021
5144 4953.514465686728
5145 4953.449282098017
5146 4953.512122688586
5147 4953.444609480472
5148 4953.509350950865
5149 4953.443537714406
5150 4953.508791400224
5151 4953.444098438388
5152 4953.512962861631
5153 4953.447322593403
5154 4953.513484837427
5155 4953.447761589969
5156 4953.51606094163
5157 4953.450790326749
5158 4953.514052517291
5159 4953.447777571748
5160 4953.5121471942
5161 4953.447686897022
5162 4953.510304311351
5163 4953.445252004317
5164 4953.507879213899
5165 4953.442691517942
5166 4953.504153134902
5167 4953.439354772726
5168 4953.500340324418
5169 4953.436906888302
5170 4953.501059646344
5171 4953.436306671602
5172 4953.49845269103
5173 4953.433587677086
5174 4953.49633860724
5175 4953.431942390349
5176 4953.493055414259
5177 4953.428099092119
5178 4953.491945275408
5179 4953.42771757645
5180 4953.490110787156
5181 4953.428778802615
5182 4953.493650811564
5183 4953.431888633477
5184 4953.499006251301
5185 4953.436734877289
5186 4953.501719411232
5187 4953.437221708044
5188 4953.504477825817
5189 4953.439431052896
5190 4953.500875056771
5191 4953.434488097188
5192 4953.499421710746
5193 4953.432379811369
5194 4953.498198146042
5195 4953.431999437238
5196 4953.497818634679
5197 4953.431363517439
5198 4953.496272937197
5199 4953.429926397147
5200 4953.497636807098
5201 4953.429803515387
5202 4953.491899325298
5203 4953.426540717051
5204 4953.494011311337
5205 4953.428664942566
5206 4953.495503056412
5207 4953.430367877951
5208 4953.497396557863
5209 4953.431780411915
5210 4953.498071130755
5211 4953.434345490728
5212 4953.501802952967
5213 4953.437986369919
5214 4953.499888228561
5215 4953.43567363008
5216 4953.501347052057
5217 4953.439508411062
5218 4953.502377486937
5219 4953.439828828895
5220 4953.50249807305
5221 4953.440644146954
5222 4953.504183047553
5223 4953.443668615261
5224 4953.50614302589
5225 4953.442121929423
5226 4953.505675305476
5227 4953.438814010073
5228 4953.501618082559
5229 4953.436125729971
5230 4953.502331661201
5231 4953.435970091007
5232 4953.502991160963
5233 4953.436916143242
5234 4953.504531894552
5235 4953.43371615027
5236 4953.503346879057
5237 4953.435594917946
5238 4953.501785423986
5239 4953.43403042193
5240 4953.502495280835
5241 4953.435114301363
5242 4953.502069749199
5243 4953.432332638123
5244 4953.49985585983
5245 4953.433165353365
5246 4953.503257683459
5247 4953.437379431105
5248 4953.505146588332
5249 4953.438368322725
5250 4953.503966935611
5251 4953.435821946998
5252 4953.501071622555
5253 4953.436929322846
5254 4953.504194590504
5255 4953.434837194869
5256 4953.500343100013
5257 4953.437633044447
5258 4953.504457362007
5259 4953.440116317757
5260 4953.50856817211
5261 4953.442962430178
5262 4953.511346826823
5263 4953.441869050095
5264 4953.50922118863
5265 4953.444657796058
5266 4953.507918627892
5267 4953.442416102883
5268 4953.509939598886
5269 4953.445728450062
5270 4953.508820406094
5271 4953.446429750901
5272 4953.510550672019
5273 4953.447480416067
5274 4953.506704563361
5275 4953.44503271805
5276 4953.507548103573
5277 4953.444466714814
5278 4953.501612026832
5279 4953.439509202834
5280 4953.500289226251
5281 4953.440415200414
5282 4953.501223289391
5283 4953.440221289312
5284 4953.501617435243
5285 4953.436224145433
5286 4953.497801244666
5287 4953.436471189247
