"mz-rfile"
"Iteration" "mz"
("Iteration" "mz")
1 889.0065728435281
2 837.2658522883225
3 740.6920104261046
4 666.1953104315927
5 591.6470648706486
6 534.7609875493582
7 474.9871001394994
8 441.8790628087187
9 403.941922586123
10 402.0487769023318
11 388.1154580775385
12 389.1227084078247
13 384.2749642811669
14 382.2833550975009
15 378.9786902723275
16 374.0791881956325
17 370.7292069956918
18 364.5896992537719
19 360.8715736354179
20 353.6945735015705
21 349.2412291594393
22 342.9416772391559
23 341.7329774247135
24 339.6111603641677
25 342.7990529958961
26 345.2108908198186
27 351.2629801180022
28 356.2982913000443
29 364.1519173548294
30 370.2276874607066
31 377.4804582849264
32 384.9966297936127
33 390.6690526850879
34 398.9252591158488
35 405.9465096241865
36 413.6576265446278
37 419.5081858827635
38 427.5115083981982
39 431.4920952828439
40 437.4263690309683
41 439.5363314758712
42 442.9883433945916
43 443.3741433030377
44 445.3360683882947
45 444.3519741676831
46 445.5981832416941
47 444.214693595324
48 444.8003860980369
49 443.3548208813574
50 443.5411473588763
51 442.2610391158787
52 442.1910291913549
53 441.1433768920959
54 441.0259259899438
55 440.2619354913987
56 440.2184088437661
57 439.7898138702134
58 439.8716233394496
59 439.6923456857181
60 439.8433827152107
61 439.9550802704408
62 440.207205374521
63 440.3947923701838
64 440.7437672053471
65 441.0365005083149
66 441.5082327028093
67 441.8352118499489
68 442.3727719475212
69 442.7682604125973
70 443.3646408132161
71 443.7966467239385
72 444.4345868802112
73 444.8723181160245
74 445.4999229064052
75 445.9143243677097
76 446.3269070694244
77 446.9083354640119
78 447.3000284682815
79 447.6300706907855
80 448.0059260663432
81 448.2852959653374
82 448.6456714143258
83 448.8868002558375
84 449.2152695656399
85 449.4274873774699
86 449.7234405727215
87 449.8994321400203
88 450.1562450257604
89 450.3012150162253
90 450.5338679185674
91 450.6613428283162
92 450.873379099703
93 450.9798788511551
94 451.1673610807183
95 451.266115922571
96 451.4486527290905
97 451.5390988181576
98 451.7194065630586
99 451.8040114077714
100 451.9912007053769
101 452.0876848155033
102 452.2881559840947
103 452.4010235903881
104 452.6225911562878
105 452.7651965008484
106 453.0128949288907
107 453.1834455110579
108 453.4637566326484
109 453.6764805338989
110 453.9756065388807
111 454.2212803658595
112 454.5471750255086
113 454.8214310671112
114 455.1693012341944
115 455.4766334173896
116 456.007250751398
117 456.3131841648665
118 456.6739570501538
119 457.0082299418397
120 457.560528293495
121 457.8923838773927
122 458.2573476097581
123 458.7793150516501
124 459.1380872668932
125 459.4717737811059
126 459.9860412960475
127 460.3094935247014
128 460.801191669653
129 461.1153761372526
130 461.5766234341526
131 461.8721242576617
132 462.3058094744562
133 462.582671018907
134 462.9929934849247
135 463.381974334057
136 463.6329009951262
137 464.0015078862755
138 464.2344278737263
139 464.5774293091437
140 464.8968061358672
141 465.1130340370076
142 465.4060016114703
143 465.6099993398799
144 465.8821862041466
145 466.1674462181754
146 466.3265334433985
147 466.5093693784488
148 466.7364291553334
149 466.993199691164
150 467.1268439869801
151 467.2919849928888
152 467.4868178890981
153 467.6415692129219
154 467.7559436568751
155 467.9813036803587
156 468.0893173253667
157 468.2282545229375
158 468.391042674557
159 468.5288774720828
160 468.6142055535941
161 468.8043514357455
162 468.8863117982312
163 469.0089626890067
164 469.0741766580298
165 469.1934537844486
166 469.2470414080142
167 469.3572487729534
168 469.4027627237283
169 469.5084951761024
170 469.5447932081903
171 469.6406552542873
172 469.6718687977265
173 469.7662740088282
174 469.7928787461565
175 469.8770353276714
176 469.8902366593212
177 469.9708067179873
178 469.9686304938889
179 470.0402440668712
180 470.0329014312267
181 470.1012317853141
182 470.0779870293311
183 470.1387750377867
184 470.1036146665808
185 470.161191398147
186 470.1169631141815
187 470.1658724950914
188 470.1156559177144
189 470.1566960981636
190 470.1004571720476
191 470.1377206749596
192 470.0796087029096
193 470.1170146922479
194 470.0527287335106
195 470.0843156218489
196 470.0241003218283
197 470.055182252574
198 469.9993315713712
199 470.0310069976538
200 469.9743111103552
201 470.0049535571266
202 469.9534170848775
203 469.9929575556198
204 469.9446303693676
205 469.9934036870399
206 469.9457113040824
207 469.9976581782439
208 469.958046434678
209 470.0151079443394
210 469.9832586217055
211 470.0411052128486
212 470.0099668608928
213 470.0735959750704
214 470.0473255725464
215 470.1171027032042
216 470.1005489475879
217 470.1764944050401
218 470.1645859029052
219 470.2416486115488
220 470.2379401571676
221 470.3180063436331
222 470.3181301091453
223 470.3993345367341
224 470.4019132752686
225 470.4841411729126
226 470.4897811650636
227 470.5750237730917
228 470.5858335511944
229 470.6750823112906
230 470.6897749971388
231 470.7782427217104
232 470.7967112271563
233 470.8877351513658
234 470.9073619929786
235 470.9979971340276
236 471.020204166569
237 471.1121757745103
238 471.1335305412847
239 471.2255332313248
240 471.249534788143
241 471.342702424892
242 471.365842704636
243 471.4609790272601
244 471.4809683176773
245 471.5797316039299
246 471.6014630793783
247 471.6972796575587
248 471.7161864554274
249 471.8147356429438
250 471.8322269950054
251 471.9271847323378
252 471.9434509202517
253 472.039885378564
254 472.0551304555117
255 472.1547369683189
256 472.1689995760053
257 472.264428133468
258 472.2779768325404
259 472.3724214916629
260 472.3846866771535
261 472.4798956149638
262 472.4894667459075
263 472.5840508413269
264 472.5908412158062
265 472.6855448508385
266 472.691851966671
267 472.7862435778326
268 472.7919416848042
269 472.8843448106131
270 472.8901410040829
271 472.9803495818846
272 472.9844679230272
273 473.0720414540463
274 473.0766077409259
275 473.1627747550178
276 473.1656101401558
277 473.2511330979539
278 473.2516629819216
279 473.3374758457898
280 473.3369314185392
281 473.4242128654402
282 473.4217690513263
283 473.5081694599208
284 473.5025529288346
285 473.5899924592611
286 473.5828099818469
287 473.6692762981119
288 473.6649999417369
289 473.752169638389
290 473.7460836471628
291 473.8308282006191
292 473.8253590119348
293 473.9099106191346
294 473.9008972099041
295 473.9848488861429
296 473.9759574531928
297 474.0607534553033
298 474.0492919490995
299 474.1315197265218
300 474.1229962762727
301 474.2054756306218
302 474.1945312344138
303 474.2758987025608
304 474.2645512909023
305 474.3444846754122
306 474.3321968227379
307 474.413507342364
308 474.3991250717559
309 474.4808427056563
310 474.466369896696
311 474.5490490438582
312 474.5328609250611
313 474.6163430341329
314 474.5996033886531
315 474.680935335848
316 474.6658188122229
317 474.7469763991141
318 474.7292149495058
319 474.8109400702161
320 474.7955549125981
321 474.8764278332444
322 474.8589796839995
323 474.9366134281519
324 474.9210848454804
325 474.9989097783189
326 474.9834214384019
327 475.0601649132535
328 475.0408424950443
329 475.1190929989505
330 475.0978393657208
331 475.1769189678104
332 475.1577033675223
333 475.2354327690267
334 475.2126640488646
335 475.2911925748409
336 475.2687140877742
337 475.3471066805221
338 475.3236091637099
339 475.4000734786571
340 475.3786280538529
341 475.4517747545017
342 475.4302478312875
343 475.5020652970499
344 475.4825707045774
345 475.5515758860167
346 475.5349506541086
347 475.6055778898713
348 475.5897900994678
349 475.6580026632575
350 475.6414641555477
351 475.7077087634818
352 475.6894510899013
353 475.7529009965559
354 475.734944546519
355 475.7986931401268
356 475.7812801091989
357 475.8450734214965
358 475.8242452762337
359 475.8899136661611
360 475.8707187162953
361 475.9343609333168
362 475.914868474136
363 475.9801295600597
364 475.9612116705736
365 476.0235307287754
366 476.0036894762088
367 476.0662995287396
368 476.0487655713617
369 476.109726586433
370 476.0908145067606
371 476.1498071878952
372 476.1313990953375
373 476.1907348483406
374 476.1710297605692
375 476.2292315507589
376 476.2090995945818
377 476.268663362586
378 476.2467381972003
379 476.3081547779878
380 476.284529328533
381 476.3460102660827
382 476.3208185766542
383 476.3839957908609
384 476.3584958446169
385 476.4217208761432
386 476.3948465714465
387 476.4577992595306
388 476.4306069842954
389 476.4926876857829
390 476.4675584113862
391 476.5297330397324
392 476.5043994897401
393 476.5646819336295
394 476.5386797269811
395 476.5984579301115
396 476.5699186188735
397 476.6286660462242
398 476.599222825624
399 476.658252339658
400 476.6310160935562
401 476.6873377976943
402 476.6608940578976
403 476.7172309172034
404 476.6917585555569
405 476.7470389109435
406 476.7218387767991
407 476.7766069367485
408 476.7533547239826
409 476.8066688314623
410 476.7807561039302
411 476.8348534789621
412 476.809506275396
413 476.8639344568851
414 476.8379798877339
415 476.8917750557662
416 476.8645261006811
417 476.9197671386309
418 476.889898246363
419 476.9470656948547
420 476.9155304374943
421 476.9723058612045
422 476.9365671133865
423 476.994162407435
424 476.9586713398153
425 477.01750143984
426 476.983103974846
427 477.043487408338
428 477.0105657013695
429 477.0679728417995
430 477.0358934048135
431 477.0937585353219
432 477.0639393534261
433 477.1184377462499
434 477.08478934498
435 477.1383137187801
436 477.1077850725213
437 477.1599534992114
438 477.1294975590413
439 477.1826390841711
440 477.1552509892589
441 477.2054680881899
442 477.1772629161066
443 477.2254798754529
444 477.1986426384623
445 477.2466955181623
446 477.2160105668378
447 477.2662743242507
448 477.236724362508
449 477.2865632494749
450 477.2578739109387
451 477.3065620797607
452 477.2806537358822
453 477.3278209958473
454 477.2988483858905
455 477.3486283530728
456 477.320443608854
457 477.3703375413832
458 477.3394587819251
459 477.3901226746422
460 477.3608381669039
461 477.408895845411
462 477.3769717548677
463 477.4257864693612
464 477.3945285082215
465 477.443476517902
466 477.4113677030599
467 477.4621653052964
468 477.4313237989506
469 477.482259468398
470 477.4492834528569
471 477.4996290408043
472 477.4709458323386
473 477.5183513783897
474 477.4861462304282
475 477.534725588533
476 477.5054461665208
477 477.5535688296409
478 477.5215961684056
479 477.569943036473
480 477.5372408972587
481 477.5875759870855
482 477.5514819711258
483 477.5985898888256
484 477.5646546772402
485 477.6118467492997
486 477.5784289807498
487 477.6260986890989
488 477.5943274291423
489 477.6399666512562
490 477.6087832112759
491 477.6529655852185
492 477.6241515278059
493 477.6684627374628
494 477.638899556403
495 477.6828270152084
496 477.6544080533658
497 477.6985841017612
498 477.667148675188
499 477.7134493514303
500 477.6820272035383
501 477.7277172847698
502 477.6934823828377
503 477.740996573681
504 477.7069293859087
505 477.7553970859202
506 477.7181802819294
507 477.7694507471632
508 477.7347451073051
509 477.7811748829747
510 477.7464234563085
511 477.7934928611315
512 477.7597002661833
513 477.8053516995667
514 477.7687104348457
515 477.8155357014101
516 477.7812803449801
517 477.8267499358284
518 477.7929634942713
519 477.8379931305519
520 477.8057358669917
521 477.8482823016367
522 477.8154536371513
523 477.8578313707732
524 477.8269615046278
525 477.8676183340741
526 477.8362224513534
527 477.8787769854288
528 477.8480045757944
529 477.892079649995
530 477.8537761759169
531 477.8997836227016
532 477.8653000099684
533 477.9098669132284
534 477.8747956217864
535 477.9200591959454
536 477.8845112094988
537 477.9305137966887
538 477.8928122155568
539 477.9409659801285
540 477.9036139404216
541 477.9502975023214
542 477.9098876945827
543 477.9564115629835
544 477.9152973136949
545 477.9630928298344
546 477.9202430303118
547 477.9701263688056
548 477.9296278706288
549 477.9766206709176
550 477.9389762302048
551 477.9865001061753
552 477.9498213365528
553 477.9938312294933
554 477.9564950482106
555 477.9987038216249
556 477.9629686228473
557 478.0063803413101
558 477.9700325240253
559 478.0137542695369
560 477.9776828589083
561 478.0214900404884
562 477.9841401859053
563 478.0271738113045
564 477.9914812908478
565 478.0356956211738
566 477.9974575896487
567 478.0417965672823
568 478.0051116483815
569 478.0497326857052
570 478.0125891443029
571 478.0547832754675
572 478.0196684996375
573 478.0633565930165
574 478.0242799338773
575 478.0708339117646
576 478.0326295512728
577 478.0773012719142
578 478.0333335610205
579 478.0803695089751
580 478.0406458493014
581 478.0849190628581
582 478.0462774724826
583 478.0897244009236
584 478.0526355868228
585 478.0952175260503
586 478.0557909512866
587 478.0997133760796
588 478.0649909772235
589 478.1098274798007
590 478.0735308691114
591 478.1154292102839
592 478.0794508652472
593 478.1195418893043
594 478.0802111385173
595 478.12395326238
596 478.0859488832692
597 478.1293055978505
598 478.0915095750775
599 478.1349105398442
600 478.098174269181
601 478.139469840925
602 478.0999528332088
603 478.1412305479014
604 478.103807312192
605 478.1485329229691
606 478.1098102750153
607 478.1530819791855
608 478.1167614757479
609 478.1571034754832
610 478.1218033097994
611 478.159410354411
612 478.1252888518903
613 478.1615033155836
614 478.1298792685958
615 478.1648905918725
616 478.1334965499126
617 478.1743389741878
618 478.1410245552581
619 478.1786739502492
620 478.1438146521025
621 478.1860041062327
622 478.152082732273
623 478.191948027733
624 478.1542198075022
625 478.195708191344
626 478.1588847319711
627 478.1989057817634
628 478.1588035111856
629 478.2025858028653
630 478.1644101826086
631 478.2042666209602
632 478.167348397258
633 478.2094458633493
634 478.1696339975087
635 478.2112891238619
636 478.175406755769
637 478.2159771737117
638 478.1803271877379
639 478.2204342542346
640 478.1868502983169
641 478.2245993450321
642 478.1894083656998
643 478.2290192990379
644 478.1940617439596
645 478.2336064538989
646 478.1967340122986
647 478.2372663607951
648 478.2003620920165
649 478.2394087942093
650 478.2024818227665
651 478.240749902533
652 478.2051695123133
653 478.2440386955745
654 478.20527243346
655 478.2447224837665
656 478.2053906486595
657 478.2456875635023
658 478.2082650621442
659 478.2492655068777
660 478.2102071309379
661 478.2516857379946
662 478.2115452572448
663 478.2549657717914
664 478.215866030857
665 478.2607718920548
666 478.2179040391806
667 478.2622300193864
668 478.222778156833
669 478.2681760672274
670 478.2273449938476
671 478.2716092237961
672 478.2309529727951
673 478.27119555664
674 478.2300849220225
675 478.2717261574323
676 478.2323090225509
677 478.2734147822792
678 478.2317807756673
679 478.2761370563614
680 478.2363877724874
681 478.278169860756
682 478.2398444216331
683 478.2809545605442
684 478.2425273865673
685 478.2815088646657
686 478.2452459827371
687 478.286356703976
688 478.2497750891547
689 478.2867498420383
690 478.2489303692244
691 478.2872137054104
692 478.252431409738
693 478.2895743587365
694 478.255752739666
695 478.2943959278933
696 478.2591197081766
697 478.2984737746912
698 478.262322697879
699 478.2997981832112
700 478.2636943879874
701 478.3044500255767
702 478.2663573502386
703 478.3059489144488
704 478.2684454394681
705 478.3080619112857
706 478.2696959030422
707 478.3103400387755
708 478.271993866811
709 478.3134253043602
710 478.275290152383
711 478.3184142213945
712 478.278038385534
713 478.3180076699143
714 478.2763704103458
715 478.3184492593526
716 478.2797053991573
717 478.3201608179381
718 478.2792812071178
719 478.3211283302406
720 478.2815748941556
721 478.3200597987277
722 478.2812342984473
723 478.3192785253618
724 478.2817115838687
725 478.3214736627552
726 478.2846832870472
727 478.3258450503325
728 478.2882654407276
729 478.3260180312537
730 478.2897911933705
731 478.3267501093802
732 478.2907024443212
733 478.32838881749
734 478.2895707850524
735 478.3294122834424
736 478.2913227843812
737 478.3321475874045
738 478.290832086947
739 478.3346170782506
740 478.2952112041579
741 478.3360396845068
742 478.2947913244147
743 478.3387663722668
744 478.3002322983256
745 478.3431431001185
746 478.3023580724793
747 478.3447133362894
748 478.302845254555
749 478.3462009191044
750 478.3027551298691
751 478.3472868881749
752 478.3029709510103
753 478.3501514680086
754 478.3041259433852
755 478.3498203819192
756 478.3064452110331
757 478.3521099559137
758 478.3068828909264
759 478.3543342009243
760 478.3092116457318
761 478.3526005321351
762 478.3080702762921
763 478.3509293508888
764 478.3101682385742
765 478.3507809963842
766 478.310583783495
767 478.3520958364586
768 478.3141362333366
769 478.3554244314286
770 478.3156457268423
771 478.3540365874294
772 478.315632651839
773 478.3518159710301
774 478.3134512769541
775 478.3510308790421
776 478.3163009106395
777 478.3534679530567
778 478.3181116763765
779 478.3555081209653
780 478.321900943931
781 478.3573325866042
782 478.3221674108456
783 478.3586549557172
784 478.3215699219526
785 478.3586580513508
786 478.3199668038202
787 478.3590445632713
788 478.321396008573
789 478.3618168473531
790 478.321979638621
791 478.3646931435972
792 478.3245483526355
793 478.3673028186488
794 478.3248139902922
795 478.3663325508279
796 478.3237609846218
797 478.3688955150645
798 478.3241900884058
799 478.3705075467277
800 478.3283523614608
801 478.3707266572948
802 478.3288755294171
803 478.3707254577498
804 478.3297005422973
805 478.3723220468075
806 478.3284276916503
807 478.3708154667665
808 478.3295997841054
809 478.3693295630639
810 478.3309417244908
811 478.3686842673824
812 478.3310382213341
813 478.369459514268
814 478.3326693778901
815 478.3697915007278
816 478.3336050580185
817 478.3720240244828
818 478.333654790732
819 478.3727825162792
820 478.3356861303974
821 478.3737885772439
822 478.3367249073959
823 478.374571511201
824 478.3367010368172
825 478.3767954602475
826 478.3370897263263
827 478.3770628741227
828 478.3369636111561
829 478.3794607677777
830 478.3363598492659
831 478.3773119504911
832 478.3352555633215
833 478.3757030714465
834 478.3322214608871
835 478.3731683371005
836 478.3308797528567
837 478.3767186350335
838 478.3340854082242
839 478.3810826449679
840 478.3400362707815
841 478.3831424312845
842 478.3405387756284
843 478.3817648876648
844 478.3406865077111
845 478.3840309091523
846 478.342710348904
847 478.3857888756186
848 478.3457972424061
849 478.386012587049
850 478.3443742336705
851 478.38381079439
852 478.3440217548437
853 478.3827403736123
854 478.3426887187795
855 478.3813898426601
856 478.343251009018
857 478.3815135042769
858 478.3424131037387
859 478.3816952626747
860 478.3428439955121
861 478.3809345862564
862 478.3428865822499
863 478.3810659575805
864 478.3436544419135
865 478.3827453040573
866 478.3442116915796
867 478.3830568938151
868 478.3449628282456
869 478.3827389333867
870 478.3443043831202
871 478.3848183600963
872 478.34395013914
873 478.3843060528431
874 478.3409895297199
875 478.3836168945307
876 478.3408188574198
877 478.382580013988
878 478.3413551911951
879 478.3851845177663
880 478.3433872380036
881 478.3869226835744
882 478.3464528827989
883 478.3893779490178
884 478.3465879533169
885 478.389576865783
886 478.3468664356167
887 478.3891916580799
888 478.3477379442167
889 478.3879115472395
890 478.3489741725544
891 478.3860851145453
892 478.3480929436669
893 478.3869567940131
894 478.3484767832522
895 478.387690442232
896 478.3500652447765
897 478.3890655192102
898 478.3484131914327
899 478.3878666059242
900 478.3483338921632
901 478.3874682811662
902 478.3474430885175
903 478.3892706824959
904 478.3493531803739
905 478.390870675591
906 478.3501662449191
907 478.3902387641989
908 478.3506006548359
909 478.3901573115293
910 478.3490915590471
911 478.3923220304015
912 478.3507369415296
913 478.391791666016
914 478.3519401117243
915 478.3934279385387
916 478.3535048118802
917 478.3926973157529
918 478.3528930275025
919 478.3958086867667
920 478.3579628372357
921 478.3963053443773
922 478.3539134440795
923 478.3929240947148
924 478.3509562666741
925 478.3919232567137
926 478.3520176078807
927 478.3930638402574
928 478.3564466406646
929 478.3946245121021
930 478.3560004210515
931 478.3935143447991
932 478.3548755122785
933 478.3925794422887
934 478.3550590795282
935 478.3932454285556
936 478.3559601623323
937 478.3947711146491
938 478.3562422855325
939 478.3960378904994
940 478.3566569543642
941 478.3961864735365
942 478.3566742656724
943 478.3956431190562
944 478.3574540943836
945 478.3980707550079
946 478.3561465663359
947 478.3946547566615
948 478.3562258590687
949 478.3949318377323
950 478.3567760112667
951 478.3965855258912
952 478.3549097271983
953 478.3960933424145
954 478.3533829723476
955 478.3929795351846
956 478.3550588791747
957 478.3967663527062
958 478.3560321043161
959 478.397031051695
960 478.3595160778937
961 478.3990543565092
962 478.3617805823466
963 478.4028669690541
964 478.3615004167775
965 478.3996971850125
966 478.3587563117603
967 478.400299043073
968 478.3614766505874
969 478.3987530028375
970 478.3593937508554
971 478.3972570018637
972 478.3579361211556
973 478.397032093662
974 478.3604402887102
975 478.39961204309
976 478.3610332566233
977 478.4027505512079
978 478.3626238408868
979 478.4039108034988
980 478.3639389672014
981 478.4042717988458
982 478.3632818496181
983 478.4041866386437
984 478.360587881992
985 478.401792296786
986 478.3602459318471
987 478.3993667207591
988 478.3587858521928
989 478.3988766103498
990 478.3574562766393
991 478.399158624989
992 478.3587539715884
993 478.4013316961542
994 478.3591030641571
995 478.4006997117665
996 478.3565865955695
997 478.4016236609077
998 478.3561039531635
999 478.4016715745326
1000 478.3568891238434
1001 478.4021280131008
1002 478.360889328922
1003 478.4035759297733
1004 478.3581429981974
1005 478.4036753517062
1006 478.3575928862288
1007 478.4003753776869
1008 478.3568901375517
1009 478.4002415006908
1010 478.3576241305259
1011 478.4005026625615
1012 478.3588863694335
1013 478.4012780700439
1014 478.3612168112355
1015 478.4028242861097
1016 478.3612486728249
1017 478.4024641901033
1018 478.3632346955861
1019 478.4029460520002
1020 478.3648776430214
1021 478.4061068851627
1022 478.3641964977546
1023 478.4060485958926
1024 478.3638167502728
1025 478.40154767855
1026 478.3595453803591
1027 478.3997575019273
1028 478.3604544504993
1029 478.4019336599431
1030 478.3631100685315
1031 478.4025549375123
1032 478.363052998901
1033 478.4039205148351
1034 478.3637548718668
1035 478.4035899789568
1036 478.3627086135294
1037 478.4069971097747
1038 478.3647037869624
1039 478.4099175245576
1040 478.3627162046156
1041 478.4069786189331
1042 478.3626057849339
1043 478.4045065581911
1044 478.3595181128885
1045 478.4036487940677
1046 478.3595956886064
1047 478.4027046426015
1048 478.3605129047415
1049 478.4023669042166
1050 478.3616841945694
1051 478.4005477690195
1052 478.3615499038242
1053 478.401415157826
1054 478.3621339962485
1055 478.4009515733971
1056 478.3622348208939
1057 478.4031285333189
1058 478.3621649441427
1059 478.4027082460382
1060 478.362712847493
1061 478.4013829128144
1062 478.361242220922
1063 478.4006141138659
1064 478.3616535408894
1065 478.4005120815834
1066 478.3594550986418
1067 478.3996915932165
1068 478.3612196792615
1069 478.4012048176457
1070 478.3638045586974
1071 478.401545862943
1072 478.3648356030664
1073 478.4024191133078
1074 478.3629838297666
1075 478.403504743835
1076 478.3649371282715
1077 478.4042083910923
1078 478.3631689319732
1079 478.4055527473586
1080 478.3655198839172
1081 478.4081437334779
1082 478.3631796881715
1083 478.404621334233
1084 478.3600924987327
1085 478.4057025957297
1086 478.363051810383
1087 478.4069087052122
1088 478.3609286769243
1089 478.404256505311
1090 478.3590592616582
1091 478.4006831219752
1092 478.3582587663304
1093 478.4000377933481
1094 478.3574465467135
1095 478.3994345945312
1096 478.3595119409273
1097 478.4022429917761
1098 478.3610283793784
1099 478.4028597949428
1100 478.3608783934802
1101 478.4024554620948
1102 478.3567885966812
1103 478.3999202486837
1104 478.3566206618739
1105 478.4010068001876
1106 478.3574430394224
1107 478.3995421111069
1108 478.3588034368232
1109 478.4004123386467
1110 478.3578553566605
1111 478.3992419323385
1112 478.3565398059127
1113 478.4011068863305
1114 478.3564135017434
1115 478.4009560379189
1116 478.3593795840265
1117 478.4043931457668
1118 478.3622092390734
1119 478.4056873491247
1120 478.3613212031404
1121 478.4040745160889
1122 478.3612889748679
1123 478.4034387695386
1124 478.3598213313421
1125 478.4059270278584
1126 478.3613684165038
1127 478.4050742844371
1128 478.3619940849169
1129 478.4053516636674
1130 478.3617862917633
1131 478.403027658316
1132 478.36151524371
1133 478.40451192983
1134 478.3628914279816
1135 478.4032237871348
1136 478.3639369757179
1137 478.4035501206373
1138 478.3658010420718
1139 478.4028634854475
1140 478.3644240696419
1141 478.4042642590798
1142 478.3653057528414
1143 478.402100952755
1144 478.3640626746765
1145 478.4025709767189
1146 478.3633837292146
1147 478.4035877896156
1148 478.3637371527387
1149 478.4046569601968
1150 478.3643017174657
1151 478.4043838115607
1152 478.3646475579799
1153 478.4036713469523
1154 478.3637275132215
1155 478.4025099930257
1156 478.3634407241036
1157 478.4032696774156
1158 478.3624991012184
1159 478.4036767714949
1160 478.3628635387101
1161 478.4017016346911
1162 478.3614706439781
1163 478.4009907629593
1164 478.3624779451589
1165 478.4008260546286
1166 478.3625908816924
1167 478.4017813309596
1168 478.3625064085534
1169 478.4049997311812
1170 478.3645582075575
1171 478.4015380249431
1172 478.3596632947946
1173 478.3982516293739
1174 478.3581532397471
1175 478.3980996812657
1176 478.3589433470318
1177 478.4000812347113
1178 478.3603840490896
1179 478.402475294306
1180 478.3630134452923
1181 478.4047119074291
1182 478.3652736746014
1183 478.4040625759585
1184 478.3678607652549
1185 478.4025927839026
1186 478.3655162684613
1187 478.4006295855986
1188 478.362839948684
1189 478.4006412893093
1190 478.3613626044146
1191 478.399998384237
1192 478.3622873738158
1193 478.402536087014
1194 478.3611400630923
1195 478.403334470321
1196 478.3605732679401
1197 478.4050456574384
1198 478.3592089401229
1199 478.4037428968546
1200 478.3579804006863
1201 478.4020711894238
1202 478.3565859312288
1203 478.400245564863
1204 478.3567635319232
1205 478.4003128301812
1206 478.355039555765
1207 478.3992594964548
1208 478.3590215467356
1209 478.4028458311693
1210 478.3621092174229
1211 478.4028567347855
1212 478.3640657497924
1213 478.4021401119522
1214 478.3635813386132
1215 478.4027201331868
1216 478.3630444552999
1217 478.4009426713669
1218 478.3567149200041
1219 478.3967850188026
1220 478.3566769073238
1221 478.3948200849102
1222 478.357244558619
1223 478.3956708627151
1224 478.3556715351496
1225 478.3973053141324
1226 478.3577124305649
1227 478.3995790335453
1228 478.3585053325926
1229 478.4026300584627
1230 478.3595304791839
1231 478.4033104153903
1232 478.3590251093831
1233 478.4037798412439
1234 478.3572566768665
1235 478.4031934254248
1236 478.3565410415221
1237 478.4043763644077
1238 478.3562937567088
1239 478.4043484899913
1240 478.3575446437372
1241 478.4029089860049
1242 478.3587415947304
1243 478.4015311575949
1244 478.3603162782838
1245 478.4010256627815
1246 478.359360016779
1247 478.4013593057961
1248 478.3615674895451
1249 478.4025548069045
1250 478.3616723035187
1251 478.4011384719467
1252 478.3628516681594
1253 478.3979855274679
1254 478.3612551586258
1255 478.3973293162464
1256 478.3603980130476
1257 478.3980701476423
1258 478.3596236451824
1259 478.3977049975105
1260 478.3626520712857
1261 478.40068322774
1262 478.3640809142617
1263 478.3987344882182
1264 478.3603550044111
1265 478.397057048863
1266 478.3570612891655
1267 478.3966209481854
1268 478.3583909470117
1269 478.3994396472191
1270 478.3602169613011
1271 478.4007923957405
1272 478.3620387796342
1273 478.4038219013136
1274 478.3643651403304
1275 478.4052685393011
1276 478.3634257733734
1277 478.4043491958322
1278 478.361097351969
1279 478.4048931972405
1280 478.3595172260776
1281 478.4043959612818
1282 478.3585702327038
1283 478.4020231870331
1284 478.3591051557012
1285 478.4029318571577
1286 478.3573662788051
1287 478.4026120144534
1288 478.3591307303567
1289 478.4042007294869
1290 478.3606388016615
1291 478.4046643372004
1292 478.3632295540144
1293 478.40702086463
1294 478.3634925111152
1295 478.4073471133558
1296 478.3645667271393
1297 478.4075925367043
1298 478.3650976662215
1299 478.4060073056754
1300 478.3665442299782
1301 478.4061890131914
1302 478.3650835659544
1303 478.4040430833574
1304 478.3653730890723
1305 478.4062125860131
1306 478.3651626916101
1307 478.4065441449169
1308 478.3679514909343
1309 478.4084932023921
1310 478.3682978558552
1311 478.407146777604
1312 478.3687984398024
1313 478.407827178376
1314 478.3663702513676
1315 478.4057302795651
1316 478.3656349312993
1317 478.4046090041618
1318 478.362671912528
1319 478.40324835065
1320 478.3617258915975
1321 478.4032984356622
1322 478.3621134049741
1323 478.4050146643477
1324 478.3628551244418
1325 478.4057563306049
1326 478.3624875619171
1327 478.4061800540615
1328 478.3641287263144
1329 478.4071501938193
1330 478.3625369730485
1331 478.4053630742021
1332 478.3632939719866
1333 478.4049143672652
1334 478.3623296463373
1335 478.4024008745224
1336 478.3595416898091
1337 478.4001272807501
1338 478.3575309586219
1339 478.3987330301688
1340 478.3577288754346
1341 478.4005099560793
1342 478.3575807702601
1343 478.4020070107711
1344 478.3578985663427
1345 478.402000991258
1346 478.3588066170452
1347 478.4025924580999
1348 478.3608049881082
1349 478.4056519754136
1350 478.3623849842122
1351 478.407628696874
1352 478.3622534967922
1353 478.4081489438842
1354 478.3647581329075
1355 478.4095920585087
1356 478.3647241247645
1357 478.4082366383994
1358 478.363009657726
1359 478.4080309220383
1360 478.3637954521246
1361 478.407169021028
1362 478.3620497602166
1363 478.4061702100133
1364 478.3615635852213
1365 478.4050054162407
1366 478.3616533143393
1367 478.4042983606664
1368 478.362467989315
1369 478.4055821624371
1370 478.3642734714983
1371 478.4056195429274
1372 478.3629056257919
1373 478.4076239983978
1374 478.3653398786222
1375 478.4067877112757
1376 478.3627061380951
1377 478.4038353241264
1378 478.3607047873296
1379 478.4034832167103
1380 478.3603890324315
1381 478.4036431344209
1382 478.3606772440976
1383 478.4040295573039
1384 478.3593115849631
1385 478.4028833051959
1386 478.3589288664198
1387 478.4036797247596
1388 478.3594284700948
1389 478.4040759753809
1390 478.362418861313
1391 478.4053066560416
1392 478.3615214552935
1393 478.4059848259581
1394 478.3620338048398
1395 478.4057951133689
1396 478.3619506893699
1397 478.4059682923183
1398 478.3628406863751
1399 478.4060930918301
1400 478.3634620945399
1401 478.4064794680938
1402 478.3611557784903
1403 478.4052640946303
1404 478.3580548422707
1405 478.4054362236105
1406 478.3583572034606
1407 478.404506424543
1408 478.3599093356283
1409 478.4062497895192
1410 478.3613782890781
1411 478.4077139235549
1412 478.3623346171407
1413 478.4049491685203
1414 478.3605815677892
1415 478.4022750122034
1416 478.3617915524151
1417 478.4049108738693
1418 478.363715786012
1419 478.407126733477
1420 478.3652099805485
1421 478.4076513775938
1422 478.3638890393
1423 478.4052870542778
1424 478.3618185205633
1425 478.4056352338827
1426 478.3601863756015
1427 478.4040854199206
1428 478.358396853207
1429 478.4041082263674
1430 478.3587530799933
1431 478.4043908659476
1432 478.3575576986495
1433 478.4062573468062
1434 478.3585227518371
1435 478.4058892549343
1436 478.3585229713354
1437 478.4071713459859
1438 478.3574609980309
1439 478.4064729023922
1440 478.3575431697955
1441 478.4044889320961
1442 478.3565107291133
1443 478.4015156087213
1444 478.3552880086257
1445 478.4042747215456
1446 478.3580939013768
1447 478.4055569740198
1448 478.3601024846094
1449 478.4079456314172
1450 478.3620548413461
1451 478.4062313809908
1452 478.3613155885971
1453 478.4048151231682
1454 478.3612030924168
1455 478.4050556930991
1456 478.3637987979276
1457 478.4045458372844
1458 478.3634481468505
1459 478.4035041939304
1460 478.363961087157
1461 478.4052110631968
1462 478.3626078730624
1463 478.4024694401949
1464 478.3614913710593
1465 478.4024284182543
1466 478.3631708438709
1467 478.4029000899118
1468 478.3641254201804
1469 478.4061154257244
1470 478.3654773020598
1471 478.4056125216754
1472 478.3642371696828
1473 478.4067537680851
1474 478.3636287306078
1475 478.4069716345573
1476 478.3639976528233
1477 478.4087658311131
1478 478.3643692051038
1479 478.4090136476077
1480 478.3635866502353
1481 478.4097537260591
1482 478.3630779672837
1483 478.4105113546134
1484 478.3645942497656
1485 478.4114911743171
1486 478.3643573635811
1487 478.4109960081983
1488 478.3619674690422
1489 478.4072792866335
1490 478.3614555947826
1491 478.4066265027263
1492 478.360662100094
1493 478.4062551491244
1494 478.3622321602977
1495 478.4056869996002
1496 478.3609363873296
1497 478.4051887047691
1498 478.3631534489251
1499 478.4085761053946
1500 478.369869155208
1501 478.4091333887114
1502 478.3688871970558
1503 478.4083080199789
1504 478.3688145772165
1505 478.4118098601131
1506 478.3673787228573
1507 478.4099506434285
1508 478.3688374865172
1509 478.4092267867085
1510 478.3699587502854
1511 478.4080216259313
1512 478.3706076228475
1513 478.4100585860562
1514 478.3740938919777
1515 478.413172327393
1516 478.3714899675862
1517 478.4121861656637
1518 478.3703485360111
1519 478.4111769021453
1520 478.3674349758164
1521 478.4104689633849
1522 478.3668123849395
1523 478.4103821820934
1524 478.3649026587487
1525 478.412100101704
1526 478.3617487792585
1527 478.4107399955702
1528 478.3621593720511
1529 478.410588006693
1530 478.3622974706878
1531 478.410118693944
1532 478.3649925534868
1533 478.4103239689451
1534 478.3676434078803
1535 478.4112832106783
1536 478.3679866704296
1537 478.4103874361671
1538 478.3686216661017
1539 478.4099140903426
1540 478.3695907690376
1541 478.4088140366766
1542 478.3716544648084
1543 478.4072937211898
1544 478.3698895997139
1545 478.4088215648036
1546 478.3692788252825
1547 478.4089025956011
1548 478.3677152801241
1549 478.4077867113767
1550 478.367606306323
1551 478.4075442646241
1552 478.3665504908008
1553 478.4052991452221
1554 478.3664874125326
1555 478.4054120019712
1556 478.3668556623761
1557 478.4066938591444
1558 478.365921074787
1559 478.4069126828074
1560 478.3649338360635
1561 478.4113683388051
1562 478.367088404857
1563 478.412118560178
1564 478.3617729010817
1565 478.4125544810265
1566 478.362375131256
1567 478.4109302219464
1568 478.3644378047283
1569 478.4144432134523
1570 478.3640489148626
1571 478.410100461234
1572 478.3626536941895
1573 478.4073389793401
1574 478.3618482167773
1575 478.4056062752714
1576 478.361861193452
1577 478.406076362074
1578 478.3621313785767
1579 478.405415065089
1580 478.362402930178
1581 478.4065813676513
1582 478.3661667517578
1583 478.4080185720014
1584 478.3673062910787
1585 478.4107887711176
1586 478.3671164542699
1587 478.4092794468028
1588 478.3668813686131
1589 478.4075918707247
1590 478.366819438411
1591 478.4044887450908
1592 478.363532686708
1593 478.4061772088645
1594 478.3654628095272
1595 478.4043187304041
1596 478.3614864272968
1597 478.4057613230249
1598 478.3656094744751
1599 478.4073821113258
1600 478.3662233736886
1601 478.4090680969865
1602 478.3677257062732
1603 478.4096891578649
1604 478.3676522010153
1605 478.4101690200253
1606 478.3669769691249
1607 478.4090640521749
1608 478.3648561508408
1609 478.4099567441052
