"x-rfile"
"Iteration" "x"
("Iteration" "x")
1 2268.597121860432
2 2028.880492275139
3 1479.772408845092
4 1186.827101036271
5 907.9314433621283
6 731.50281410147
7 563.7340849512195
8 432.3324451753302
9 319.289306335804
10 222.1486505025125
11 152.4407802547051
12 94.11850101946921
13 62.47865395416072
14 35.34021568292485
15 23.17825346546597
16 14.64926284940009
17 15.50019025636452
18 15.64785751944844
19 22.32139482570381
20 26.39863362624484
21 36.32635303188134
22 41.80162421761943
23 51.0154735100705
24 55.36077285583944
25 63.41301263159485
26 66.39824905594483
27 72.25568377045457
28 73.64302860144247
29 78.44476666840453
30 78.72668894068678
31 82.10083074162176
32 82.09000728033573
33 84.37898512714386
34 84.11729227700486
35 86.10910593020226
36 85.40925114897715
37 86.78547599586516
38 85.72289245110727
39 86.62314854141194
40 85.1619381351246
41 85.62848122383731
42 83.99892165605065
43 84.06851964495188
44 82.48296856281144
45 82.40127300830993
46 80.77355991629611
47 80.50124628386914
48 78.8933101538954
49 78.47611015272223
50 76.92865320721495
51 76.45328909964502
52 75.01516959443936
53 74.52443476704465
54 73.22914550476274
55 72.75519326448503
56 71.61604420976775
57 71.17017013698505
58 70.18943810090622
59 69.7729601258727
60 68.93208343616632
61 68.55113756116073
62 67.83583769476964
63 67.55682214290395
64 66.94028725294415
65 66.66041936656636
66 66.11729959067253
67 65.82550512667835
68 65.33279159224901
69 65.04648677239663
70 64.59557187746265
71 64.31838625657693
72 63.90412936134089
73 63.64244163083713
74 63.25871000225001
75 63.00942535320797
76 62.67731017805897
77 62.42254439267418
78 62.10564940284905
79 61.87949859172228
80 61.58292841317038
81 61.36728949891293
82 61.08779267349041
83 60.87839140853315
84 60.61089751746982
85 60.4087462550164
86 60.15502251411282
87 59.96052554023873
88 59.71816574319379
89 59.5328374565613
90 59.30553848468982
91 59.13198268457596
92 58.91874739192008
93 58.75724263429424
94 58.55702205903514
95 58.40670236276392
96 58.22019303262829
97 58.08059651494665
98 57.90674351709239
99 57.77739616961433
100 57.61744640768742
101 57.49860438458954
102 57.35173700316012
103 57.24323541270326
104 57.10975473509341
105 57.01247687129965
106 56.89224020040511
107 56.80397631406891
108 56.69606075454481
109 56.61794473192869
110 56.5210262946856
111 56.45207173700469
112 56.3671371054815
113 56.30753564119179
114 56.23373668412223
115 56.18280031255271
116 56.11590422385891
117 56.07286403110569
118 56.01871492124864
119 55.9830705821343
120 55.93902129565737
121 55.90865494606293
122 55.86942513018888
123 55.84854843739688
124 55.8154142876608
125 55.79425890867724
126 55.769460113564
127 55.75215825309461
128 55.73072842501823
129 55.71418560859356
130 55.6951260440495
131 55.68075529202127
132 55.66273138687265
133 55.64839436803494
134 55.6312707960106
135 55.62005844443851
136 55.6007585648292
137 55.5900543776642
138 55.57093071997411
139 55.55862053301767
140 55.54106863893418
141 55.52771054519435
142 55.50838419569688
143 55.49477069663654
144 55.47437118941394
145 55.45814331531639
146 55.43903898258881
147 55.42411330657025
148 55.40085881887259
149 55.3814536368962
150 55.36301074269155
151 55.34826590262892
152 55.32582728659518
153 55.3100361294313
154 55.29319016023162
155 55.27279421313507
156 55.25554535825376
157 55.23988098171868
158 55.21722649250676
159 55.20099615089367
160 55.1845631883498
161 55.16393875496752
162 55.14907045725099
163 55.1347974373878
164 55.11979960498437
165 55.10627541840617
166 55.09202194564928
167 55.07796797289774
168 55.06331423500474
169 55.04861048046693
170 55.03410013027571
171 55.01901934909442
172 55.00490376559089
173 54.98988056053776
174 54.97584877390733
175 54.96172948113193
176 54.94834567889301
177 54.93554309339634
178 54.9224355464806
179 54.90966233144636
180 54.89660872772714
181 54.88472403120432
182 54.87284117582169
183 54.86143787056847
184 54.84934301552384
185 54.83875240508347
186 54.82674441868255
187 54.81605532894789
188 54.80502893450682
189 54.79568373559404
190 54.78520384418672
191 54.77617076191242
192 54.76589887812931
193 54.75693032381676
194 54.74747710604669
195 54.73876428894094
196 54.72944890914139
197 54.72152806969509
198 54.71243062113504
199 54.70428210542686
200 54.69524752279798
201 54.68771378864435
202 54.67882689509107
203 54.67176808553779
204 54.66293655606269
205 54.65653493380437
206 54.64851603797113
207 54.64267711419119
208 54.6357331856465
209 54.63126831928108
210 54.62474041176518
211 54.62037839623218
212 54.61435209223742
213 54.61041004781793
214 54.60480582901027
215 54.60071611034878
216 54.59594333625601
217 54.59251086477502
218 54.58921810108643
219 54.58658166586131
220 54.58400078957109
221 54.58213148586617
222 54.57975068684355
223 54.57815063405383
224 54.57651704556199
225 54.57479680046337
226 54.57316145011317
227 54.57146217236445
228 54.56976590023678
229 54.56843635816798
230 54.56702762120091
231 54.56584981405956
232 54.56513487308789
233 54.56423705089971
234 54.56382360066721
235 54.56282506769609
236 54.56249745212114
237 54.56212674387235
238 54.56119463524296
239 54.55996848861133
240 54.55914242682223
241 54.55835086744326
242 54.55788747077464
243 54.55738402324248
244 54.5572740069455
245 54.55766216257988
246 54.55760572180155
247 54.55740324160543
248 54.55741153328407
249 54.5573292368799
250 54.5565124985397
251 54.55588215520059
252 54.55511114008919
253 54.55485018554094
254 54.55382586323621
255 54.55376202158703
256 54.55298882465821
257 54.55314131648967
258 54.55210550780118
259 54.55171840285725
260 54.55027806215046
261 54.55014879148956
262 54.54823875725968
263 54.54774107795674
264 54.54602330632245
265 54.54610385923645
266 54.54471711739291
267 54.54542813151544
268 54.54444478510672
269 54.54590159103936
270 54.54571534323262
271 54.54702079456209
272 54.54630495247436
273 54.54683000063313
274 54.54574863069688
275 54.5457195932391
276 54.544112233302
277 54.54407718650179
278 54.5424458771745
279 54.54226317795741
280 54.54077665730269
281 54.54113705045584
282 54.54027921037559
283 54.5402150006822
284 54.5391479298059
285 54.53909417009058
286 54.53754528500874
287 54.53706542172714
288 54.53617794079221
289 54.53615484652637
290 54.53551244755131
291 54.53570630265544
292 54.53551719839952
293 54.53604819291013
294 54.53568672400974
295 54.53655022691695
296 54.53626032087045
297 54.53729428094941
298 54.53656703750657
299 54.53717582610553
300 54.53651026839838
301 54.53710726859362
302 54.53654437329484
303 54.53771293793935
304 54.53765270564329
305 54.53884629066658
306 54.53824054029769
307 54.5396319567306
308 54.53883155024702
309 54.53980347393276
310 54.53854058941526
311 54.53929095639732
312 54.53723000554803
313 54.53818109220867
314 54.53656977297275
315 54.53769958336752
316 54.53631383716977
317 54.53776230778391
318 54.53648156736956
319 54.53770244540254
320 54.53655367918939
321 54.53771291019969
322 54.53664969672081
323 54.53777598698916
324 54.53704674535862
325 54.53863451040284
326 54.5380636824656
327 54.53899928079256
328 54.53839205343805
329 54.53978107064534
330 54.53881787274469
331 54.53952168634501
332 54.53952699411821
333 54.5404052543805
334 54.54013416385551
335 54.54043588843567
336 54.54020532457584
337 54.54041898611988
338 54.53981325085794
339 54.53954248982195
340 54.53907620891219
341 54.53932902609749
342 54.53912196165888
343 54.53929940477063
344 54.53904945344495
345 54.54009654807345
346 54.54069606327433
347 54.54175834631602
348 54.5417825809205
349 54.54225409874486
350 54.54186955482349
351 54.54200108953057
352 54.54143397466791
353 54.54205786355459
354 54.54176069532484
355 54.54187971417324
356 54.54145991317043
357 54.54185267089239
358 54.54127714805018
359 54.54125234164054
360 54.54110120285488
361 54.54172056230587
362 54.54183875832515
363 54.5425743396601
364 54.54238646778113
365 54.54285862011829
366 54.54253129914377
367 54.54296292031412
368 54.54238741573391
369 54.54245166377217
370 54.54211778616875
371 54.54236691442038
372 54.54214113678236
373 54.5429659758864
374 54.54299457026024
375 54.54318127876216
376 54.54294016325012
377 54.54320057386722
378 54.54329593630075
379 54.54316858594985
380 54.54323665836854
381 54.54312533174757
382 54.54300050032887
383 54.54312279543155
384 54.54340511882218
385 54.5439909241008
386 54.543807506641
387 54.543596173365
388 54.54338895786578
389 54.54339381647109
390 54.54292926362192
391 54.54351439533659
392 54.54337006168441
393 54.54360235851941
394 54.54312119488981
395 54.54387184304011
396 54.54414385899605
397 54.54499372724654
398 54.54491146523378
399 54.54574893203002
400 54.54560029518538
401 54.54583927081607
402 54.54555273301243
403 54.54589365816761
404 54.54557558908531
405 54.54594488633634
406 54.54566203394888
407 54.54565928914083
408 54.54582148098724
409 54.54653465128951
410 54.54690928496692
411 54.54687300161482
412 54.54648273269156
413 54.54668804289212
414 54.54559520688383
415 54.54519540850292
416 54.54440872764621
417 54.54440538065379
418 54.54346743846793
419 54.54376263937017
420 54.54374846341614
421 54.54452949978373
422 54.54406075573137
423 54.54480783460615
424 54.54421488699526
425 54.54453125816122
426 54.54402667284158
427 54.54446074295944
428 54.54387052145207
429 54.54421093848271
430 54.54370023805738
431 54.5443840070215
432 54.54399520756002
433 54.54471767917993
434 54.54402540442312
435 54.54423203499054
436 54.54349104203615
437 54.54389196542231
438 54.54302090308595
439 54.54331754703624
440 54.54254908159093
441 54.54272444822514
442 54.54209574217776
443 54.54237736794254
444 54.54252373293129
445 54.54361737335643
446 54.54370695849686
447 54.54551587826899
448 54.54601885171261
449 54.54741657691537
450 54.5475546995613
451 54.54881902351848
452 54.54868434852943
453 54.5492607534734
454 54.54884254672423
455 54.54944370275519
456 54.54896382432806
457 54.54933649313497
458 54.54873180870578
459 54.54902973639232
460 54.54834573293662
461 54.5482004177022
462 54.54718915188918
463 54.54676250289521
464 54.54586691427136
465 54.54549397095227
466 54.54465900897649
467 54.54457467878939
468 54.54427380749604
469 54.54505483935505
470 54.54488835127987
471 54.54528784526888
472 54.54551041917361
473 54.54638519092261
474 54.54670404940795
475 54.54694712921181
476 54.54685174345173
477 54.54712349572828
478 54.54672620686286
479 54.54715438804738
480 54.54679738098648
481 54.54764825138009
482 54.54725027145161
483 54.54754921069037
484 54.54684573241867
485 54.54720936378406
486 54.5460516691983
487 54.54557520753063
488 54.54438781839036
489 54.54436965071
490 54.54344717733954
491 54.54355575765412
492 54.54300929671067
493 54.5444298321339
494 54.5445212160084
495 54.54579293318825
496 54.54585318058243
497 54.54736472582121
498 54.54679540485362
499 54.54764075504582
500 54.54674669010105
501 54.54726555027721
502 54.54630093351954
503 54.54707788992729
504 54.54662407742642
505 54.54742483515571
506 54.54655664262159
507 54.54759460320057
508 54.54686060692356
509 54.54706529377869
510 54.54597310662497
511 54.54594631528104
512 54.54477935467735
513 54.54465947153334
514 54.54355725312079
515 54.54430659594705
516 54.54385265824614
517 54.54508849496373
518 54.54497705347775
519 54.54587418335799
520 54.54596638887087
521 54.54704071510323
522 54.54680630488702
523 54.54700286115843
524 54.54632245878398
525 54.54672205865332
526 54.54603020506951
527 54.546353048585
528 54.54578970360525
529 54.54700108803765
530 54.54599859382022
531 54.54678358064652
532 54.54591703026799
533 54.54666831195649
534 54.54581999565109
535 54.54630780511022
536 54.54549557683593
537 54.5462083805146
538 54.54481486402209
539 54.54568555704191
540 54.54486947561308
541 54.54587539171008
542 54.5451330409764
543 54.54600970198068
544 54.54548929786539
545 54.54641473447285
546 54.54575001558858
547 54.54677017156207
548 54.54590594259616
549 54.54667610339347
550 54.54619411263165
551 54.54720632249127
552 54.54664335864179
553 54.54791377501613
554 54.54727693107078
555 54.54796589600819
556 54.547047536225
557 54.54779089393225
558 54.54660164303009
559 54.54705135710158
560 54.5456173717907
561 54.54609221413104
562 54.54466746524618
563 54.54563583397424
564 54.54475026161511
565 54.5463539485288
566 54.54535595948178
567 54.54662611133158
568 54.54596820310582
569 54.54713624118691
570 54.5462695189583
571 54.54697759848872
572 54.54620617068336
573 54.54696801476796
574 54.54584373586803
575 54.5466559804612
576 54.54576952181213
577 54.54700583065839
578 54.54575702081118
579 54.54712113557028
580 54.54596729992664
581 54.54663634975649
582 54.54523031755568
583 54.54512327011282
584 54.54403922599728
585 54.54427565914767
586 54.54307936027935
587 54.5435419637571
588 54.54325471000277
589 54.54440779892553
590 54.54397825189923
591 54.54472951099205
592 54.54433021786364
593 54.54482833156305
594 54.54402306436924
595 54.54483804822615
596 54.5445120984434
597 54.54527924082135
598 54.54489847604876
599 54.54577187819658
600 54.54594462207744
601 54.54727531471593
602 54.54717219183774
603 54.5477776873456
604 54.5472535900247
605 54.54765944567102
606 54.54673878787508
607 54.5463910778906
608 54.5449853524288
609 54.5442957160382
610 54.5432666622136
611 54.54281879174655
612 54.54221994697217
613 54.54257996136069
614 54.54275111938152
615 54.5429634219653
616 54.54337467612937
617 54.54432939416694
618 54.54439879444613
619 54.54476052497146
620 54.54464668601068
621 54.54572699866328
622 54.54590954865869
623 54.54649823547781
624 54.54659923120494
625 54.54759714040181
626 54.54778122696079
627 54.54785468882271
628 54.548003752282
629 54.5485631083539
630 54.54807775218398
631 54.54737706462372
632 54.54636455244238
633 54.54617131217204
634 54.54505005677736
635 54.54490618903716
636 54.54468151098929
637 54.54492480448432
638 54.54424908521868
639 54.54442788794152
640 54.54433341285116
641 54.54438064948953
642 54.54345707544345
643 54.54395836323108
644 54.54388850833791
645 54.54472383273909
646 54.54449748831741
647 54.54567833953365
648 54.54576464627932
649 54.54683166615251
650 54.54669935751603
651 54.54748778361057
652 54.54709863895936
653 54.54786420436094
654 54.54710206823991
655 54.54710819586591
656 54.54602755586105
657 54.54681916371608
658 54.54597293272945
659 54.54623626917373
660 54.54533960402809
661 54.54629043446041
662 54.54546713852432
663 54.54598712740782
664 54.54553210630862
665 54.54632510012013
666 54.54520216013891
667 54.54518943037215
668 54.54441778349138
669 54.54480008869621
670 54.54380829460472
671 54.54390278421336
672 54.54309275930171
673 54.54326100045225
674 54.54262336271182
675 54.54300936895761
676 54.54266702216592
677 54.54288825364585
678 54.54197147435117
679 54.54244820449514
680 54.5417526386904
681 54.54217770769402
682 54.5418146467626
683 54.54199218345106
684 54.54152456081271
685 54.54222030217036
686 54.54234670896468
687 54.54314491103467
688 54.5432481214151
689 54.54421982890069
690 54.5443249109818
691 54.54511231904529
692 54.54504233497415
693 54.54545364148266
694 54.54518533779117
695 54.54540008145757
696 54.54494716790504
697 54.5451811579415
698 54.54469696749656
699 54.54535964834242
700 54.54526170709292
701 54.54627898461321
702 54.54612339254188
703 54.54715817621704
704 54.54701653156704
705 54.54767462060826
706 54.54724913614971
707 54.54778792650028
708 54.54705214792497
709 54.54730650828287
710 54.54669315024095
711 54.54688721173787
712 54.54601864728227
713 54.5462650325475
714 54.54592128233428
715 54.54646560986868
716 54.54606203017387
717 54.54683394494458
718 54.54598148666926
719 54.54603898202257
720 54.54532433232051
721 54.54522424060281
722 54.54433760352131
723 54.54422748503524
724 54.54397753326404
725 54.54510245398404
726 54.54474605588452
727 54.54565568767218
728 54.54507494226502
729 54.54575511592785
730 54.5447316839965
731 54.54443902001864
732 54.54343429551328
733 54.54378797602325
734 54.54262583131921
735 54.54299671463922
736 54.54280187009878
737 54.54403469672846
738 54.54400199109089
739 54.54523098095593
740 54.54527881346211
741 54.54573055959862
742 54.54549720881639
743 54.54606454946973
744 54.54581796248797
745 54.54603545797882
746 54.54538730918376
747 54.54552998625834
748 54.54483233209871
749 54.54528805545076
750 54.54442905773556
751 54.54424115841145
752 54.54351151499649
753 54.54398455745537
754 54.54328004830696
755 54.54349564183935
756 54.54284534675725
757 54.54336561685541
758 54.54262666531215
759 54.54323990126673
760 54.5425364623342
761 54.54315826047864
762 54.54246091982198
763 54.54358338022264
764 54.54344050328559
765 54.54464296993928
766 54.54421412100039
767 54.54533469762063
768 54.54518203134879
769 54.54577869970793
770 54.54498737889945
771 54.54543965414058
772 54.54483337765113
773 54.54536371378316
774 54.5446817068938
775 54.54533835706452
776 54.54535632747211
777 54.5461378933137
778 54.54597261712765
779 54.54606930911528
780 54.5465089512136
781 54.54665523525746
782 54.54644127909028
783 54.54593396295152
784 54.54574167140252
785 54.54597441428326
786 54.54545522779626
787 54.54566898366335
788 54.54594756352991
789 54.54662434732596
790 54.5463627896671
791 54.54684746636314
792 54.54673161294644
793 54.54739404175472
794 54.54688325009123
795 54.54698422896914
796 54.54634819964108
797 54.54654989550948
798 54.54554394792468
799 54.54596691127249
800 54.5455277359926
801 54.54616228607449
802 54.54598298651057
803 54.5464671907842
804 54.54580454503571
805 54.546536576504
806 54.54518726583805
807 54.54500218955199
808 54.54383480284213
809 54.5439137055045
810 54.54337737745288
811 54.5436564634854
812 54.54375432146946
813 54.54463772833448
814 54.5447986484575
815 54.54536253906223
816 54.54548377282935
817 54.5458001756629
818 54.54478046898605
819 54.54427050428199
820 54.54300573941954
821 54.54266470146487
822 54.5418271619059
823 54.54185379176597
824 54.54196541362602
825 54.54279033033373
826 54.54292705807788
827 54.54359980478031
828 54.54387450363058
829 54.54441409049331
830 54.54436639507786
831 54.54435256281104
832 54.54398887830499
833 54.54415791036201
834 54.54398058503698
835 54.54430944823653
836 54.54450191979118
837 54.54575538744246
838 54.54616461819615
839 54.54727598418664
840 54.54715385994825
841 54.54787570687326
842 54.54692137759893
843 54.54707475144614
844 54.5457369321374
845 54.54589874423511
846 54.54434076124387
847 54.54486605498825
848 54.54426546867555
849 54.54528669312604
850 54.54498933960486
851 54.5457411930238
852 54.54516682243726
853 54.54572424942866
854 54.54510265128182
855 54.54499510109491
856 54.5440515122252
857 54.54438648268228
858 54.54403065106492
859 54.54450096215227
860 54.54431519744934
861 54.54553235284633
862 54.54538277002992
863 54.54559105107644
864 54.5453215343868
865 54.54588596573144
866 54.54541380253418
867 54.54531671971081
868 54.54498487118919
869 54.54498312213777
870 54.54461311367578
871 54.54471071404342
872 54.54460308227117
873 54.54518598393177
874 54.54474579532094
875 54.54526509593239
876 54.54486575015462
877 54.54564924652738
878 54.54474824629293
879 54.54512255547173
880 54.54444388303085
881 54.54513466303828
882 54.54421447515729
883 54.54484752946099
884 54.54399769455296
885 54.54475377583508
886 54.54390642749265
887 54.54487068101909
888 54.5443376915341
889 54.54520723540831
890 54.54484134127578
891 54.54506540039856
892 54.54454510555119
893 54.54504626837456
894 54.5444880203297
895 54.54456906630795
896 54.54397113015322
897 54.54394380595686
898 54.54327432599116
899 54.54319657279334
900 54.54262810697039
901 54.5427381271947
902 54.54212536035967
903 54.54245519656492
904 54.541856375462
905 54.54272427077878
906 54.54222966354867
907 54.54303843515473
908 54.54280066865155
909 54.54406753877806
910 54.54411504432743
911 54.54518231922993
912 54.54571770069484
913 54.54688757704098
914 54.5473863087535
915 54.5477190097516
916 54.54802616408142
917 54.54823505388317
918 54.54770920382493
919 54.5476400524097
920 54.54773760782145
921 54.54776455099983
922 54.54727379322802
923 54.54676209284106
924 54.54609765021881
925 54.54580073818234
926 54.54500638123773
927 54.54447158061286
928 54.54425847831718
929 54.54407624728834
930 54.54364005078381
931 54.54359001254997
932 54.54344869044718
933 54.54388441640558
934 54.54380708677471
935 54.54418564775897
936 54.54405948998934
937 54.54476262444389
938 54.54435256063416
939 54.54461715433304
940 54.54403481171708
941 54.54434968156774
942 54.54383410835699
943 54.54360153447278
944 54.543376441784
945 54.54401011150161
946 54.54383323453861
947 54.54440953598411
948 54.54477771930416
949 54.54506791961846
950 54.54486188419062
951 54.54503099914083
952 54.544927818422
953 54.54515668107117
954 54.54484498234284
955 54.54531788586407
956 54.54536535620806
957 54.54570670737811
958 54.54514444145319
959 54.54536663649275
960 54.54547397672253
961 54.54578093536544
962 54.54579214861266
963 54.5459939320522
964 54.54545949005119
965 54.54617931704458
966 54.54525526737626
967 54.54510638151117
968 54.54407227878296
969 54.54429779782935
970 54.54396438862999
971 54.54418715147439
972 54.54391919162204
973 54.54429054013848
974 54.54371532692231
975 54.54335107538812
976 54.54291552839531
977 54.54334922899699
978 54.54293365448233
979 54.5438004324429
980 54.54356851824212
981 54.54446452513328
982 54.54406686117892
983 54.54498954935664
984 54.54438044320061
985 54.54497842314336
986 54.54399783321783
987 54.54372820941902
988 54.54291752920081
989 54.5432150136432
990 54.54262538790518
991 54.54292311227704
992 54.54246025233027
993 54.54302795570943
994 54.54301809117727
995 54.54317087704878
996 54.542349099904
997 54.54299501224539
998 54.54250662058878
999 54.5429620607682
1000 54.54235423648775
1001 54.54320137229868
1002 54.54334596976998
1003 54.54402425601521
1004 54.54400800972626
1005 54.54534583403122
1006 54.54538396327909
1007 54.54585334012088
1008 54.54547661689669
1009 54.54586717755829
1010 54.54559264727821
1011 54.54596523666289
1012 54.5456086634361
1013 54.54640450350055
1014 54.54600425095481
1015 54.54693682576306
1016 54.54666046393162
1017 54.54733898093729
1018 54.5472706347039
1019 54.54806303020959
1020 54.54790048864267
1021 54.5482304715553
1022 54.54725791658127
1023 54.54771693770123
1024 54.5464546725745
1025 54.54571072676165
1026 54.54464191057149
1027 54.54474557218425
1028 54.54449767210299
1029 54.54464716657092
1030 54.54412399219974
1031 54.5441391418514
1032 54.54391805728859
1033 54.54412599117833
1034 54.54390496865985
1035 54.5438334711652
1036 54.54363221356144
1037 54.54407326158109
1038 54.54415664136793
1039 54.54507618483383
1040 54.5447603663026
1041 54.54582886538289
1042 54.54533631482843
1043 54.54494631664515
1044 54.54345854052189
1045 54.543287722411
1046 54.54208223243684
1047 54.54204588759681
1048 54.54121560994626
1049 54.54195631485699
1050 54.54134226964777
1051 54.54234222483662
1052 54.54201950851486
1053 54.54299312305041
1054 54.54272668094913
1055 54.54314857475913
1056 54.54318330161239
1057 54.544167621912
1058 54.54430739507913
1059 54.5451246054214
1060 54.54482825057965
1061 54.5456620177259
1062 54.54512116011683
1063 54.54575091483466
1064 54.54584721688049
1065 54.54677336925528
1066 54.54672359989267
1067 54.54718884883966
1068 54.54658088974293
1069 54.54669434286718
1070 54.54581787754931
1071 54.54520750033374
1072 54.54482177367102
1073 54.54424423187301
1074 54.54383371316155
1075 54.54353049357327
1076 54.54354340817588
1077 54.54316570629008
1078 54.54308684451409
1079 54.54329292420656
1080 54.54334057000849
1081 54.54377596916107
1082 54.54368583613991
1083 54.54457179448907
1084 54.54451249693631
1085 54.54537250267048
1086 54.54497278237584
1087 54.54577487205468
1088 54.54532165460692
1089 54.54614410142617
1090 54.54526613822128
1091 54.54618527364151
1092 54.54538044253909
1093 54.54600579342485
1094 54.54509833538508
1095 54.54566612916572
1096 54.54508725022143
1097 54.54562045737286
1098 54.54484526789829
1099 54.54555151596473
1100 54.54507605913146
1101 54.54607656584816
1102 54.54529262926325
1103 54.54650527129125
1104 54.54590576599775
1105 54.54629927503904
1106 54.5451718339195
1107 54.54518756238708
1108 54.54410001063555
1109 54.54401474582887
1110 54.54312061431434
1111 54.54265184558001
1112 54.54195295013896
1113 54.54213176960214
1114 54.54157440263958
1115 54.54126518925833
1116 54.54137318686374
1117 54.54145333571009
1118 54.540872552366
1119 54.54051472300011
1120 54.54038132528983
1121 54.54067989092187
1122 54.54073392110386
1123 54.54136083285307
1124 54.541537601679
1125 54.54289301747896
1126 54.5429946993878
1127 54.54409201614213
1128 54.54383429740059
1129 54.54472759905804
1130 54.54422233551357
1131 54.54496123718182
1132 54.54457988453114
1133 54.54552033703138
1134 54.54508803440631
1135 54.54579765296788
1136 54.54555231392206
1137 54.54607476834236
1138 54.54579438719288
1139 54.54597688976101
1140 54.54555039591193
1141 54.54554101458849
1142 54.54499195735556
1143 54.5450801925514
1144 54.54471049457075
1145 54.54482585950307
1146 54.54448174382382
1147 54.54497786455334
1148 54.54440767396114
1149 54.54461296704158
1150 54.5445324255335
1151 54.54470142772247
1152 54.54449499863216
1153 54.54451481088673
1154 54.54449854897586
1155 54.5445623042717
1156 54.54461507345099
1157 54.54480058360872
1158 54.54502182033021
1159 54.5455440141564
1160 54.5455828737886
1161 54.54543620227915
1162 54.54542540189865
1163 54.544972075873
1164 54.54487058800756
1165 54.54480305512149
1166 54.54456878664182
1167 54.54429009150348
1168 54.54454248658799
1169 54.54466047125131
1170 54.54458125780086
1171 54.54459108708301
1172 54.54444832644506
1173 54.54485846406467
1174 54.54464428387095
1175 54.54494274645525
1176 54.54487851909303
1177 54.54510891030592
1178 54.54482443845768
1179 54.54463428776
1180 54.54390495286548
1181 54.54352814569905
1182 54.54306994665253
1183 54.54312093387205
1184 54.54315280582185
1185 54.54316301297454
1186 54.54374684968318
1187 54.54358264599249
1188 54.54366237050323
1189 54.54357382291231
1190 54.54367074407114
1191 54.5435874469565
1192 54.54364752301918
1193 54.54384305319499
1194 54.5436498655923
1195 54.54358833828397
1196 54.54299780546018
1197 54.54294900633614
1198 54.54239348569636
1199 54.54237045954511
1200 54.54190298253362
1201 54.54247442550245
1202 54.54222871830137
1203 54.54301596979829
1204 54.54299869786696
1205 54.54385725770543
1206 54.54373462311192
1207 54.54435799381352
1208 54.54480608155583
1209 54.54553952978436
1210 54.54578694289556
1211 54.54617429619624
1212 54.54604897677476
1213 54.54603010587828
1214 54.54558255938324
1215 54.54579380431436
1216 54.54534967319523
1217 54.54543364788983
1218 54.54472973722189
1219 54.54506329552152
1220 54.54433259329016
1221 54.54429924478107
1222 54.54358662976298
1223 54.54321334971906
1224 54.54217017046791
1225 54.54213880324284
1226 54.54142011220137
1227 54.54160050852846
1228 54.54124212942471
1229 54.54198170681947
1230 54.54162458369512
1231 54.54238809089192
1232 54.54193050585069
1233 54.54287986814883
1234 54.54236884185453
1235 54.54291927819185
1236 54.54238191179274
1237 54.54328391948757
1238 54.54259801082021
1239 54.54319462003023
1240 54.54280387678957
1241 54.54345601264126
1242 54.54335709817151
1243 54.54401666027488
1244 54.54379899023869
1245 54.54422436532234
1246 54.54417014748922
1247 54.5444084316408
1248 54.54450853067657
1249 54.54474571342643
1250 54.54498622145297
1251 54.54472292872929
1252 54.54495837647652
1253 54.54521462975889
1254 54.54602921092693
1255 54.545762784396
1256 54.54594335258159
1257 54.54591682480415
1258 54.54573329656095
1259 54.5453911546136
1260 54.54532388074622
1261 54.54554607756748
1262 54.54566593711278
1263 54.54564359550131
1264 54.54549457927907
1265 54.54582329774444
1266 54.54514335680283
1267 54.54497359223835
1268 54.54464918749365
1269 54.54473342287158
1270 54.54443483434461
1271 54.54459945851541
1272 54.54451873533586
1273 54.54519890828814
1274 54.54534357147057
1275 54.54551489753445
1276 54.54496885292143
1277 54.54509790203503
1278 54.54446336532294
1279 54.54459643915116
1280 54.54368341748552
1281 54.54437550362202
1282 54.54356941677891
1283 54.54380297562226
1284 54.54306218668375
1285 54.54360892609454
1286 54.5430904911285
1287 54.54374853329306
1288 54.5437659418043
1289 54.54495334071937
1290 54.54449006138163
1291 54.5451455055742
1292 54.54496169429721
1293 54.54577457002502
1294 54.54542705810942
1295 54.54592839609039
1296 54.5458902172863
1297 54.54682711856784
1298 54.54672216354385
1299 54.54694267187676
1300 54.54686004754554
1301 54.54710732791519
1302 54.54648127165481
1303 54.54633732674264
1304 54.54582407146774
1305 54.54603813659368
1306 54.54544774545528
1307 54.54547164613951
1308 54.54508263686388
1309 54.54580515165127
1310 54.54553691737663
1311 54.5458130145886
1312 54.5456403162517
1313 54.54603943852258
1314 54.54535024208102
1315 54.54512292046295
1316 54.54426238777004
1317 54.54381466456024
1318 54.54316467629502
1319 54.54315901133498
1320 54.54297917625281
1321 54.54324721474696
1322 54.54302415806875
1323 54.54334203892239
1324 54.54332663600804
1325 54.54384591921126
1326 54.54353357126515
1327 54.54413441267903
1328 54.54378517545284
1329 54.5444686077756
1330 54.54381999714185
1331 54.54463180948292
1332 54.54391014959999
1333 54.54473268664773
1334 54.5442694966744
1335 54.54493374922079
1336 54.54466033550915
1337 54.5454951284821
1338 54.54462918642942
1339 54.54482550447245
1340 54.54401067834488
1341 54.54450607944897
1342 54.54380755992544
1343 54.5447262067829
1344 54.54453048844484
1345 54.54579823714614
1346 54.545629712022
1347 54.5466178589291
1348 54.54624677761026
1349 54.54683766666979
1350 54.54593848027216
1351 54.54614525833207
1352 54.54494902836272
1353 54.54520833271226
1354 54.54411858664375
1355 54.54401469188659
1356 54.54335992195762
1357 54.54405469890422
1358 54.5438975366206
1359 54.54457532708186
1360 54.54466837187852
1361 54.54518549780031
1362 54.54474691196125
1363 54.5444910538036
1364 54.5440529126178
1365 54.54384103244481
1366 54.54313852486786
1367 54.54301689912116
1368 54.54297641729474
1369 54.54364048037036
1370 54.54344096632451
1371 54.54364190380402
1372 54.54303558322906
1373 54.54391167343254
1374 54.54340219484733
1375 54.54352361336726
1376 54.5430922976766
1377 54.5433171579831
1378 54.54240971392514
1379 54.54268888901366
1380 54.5422061844498
1381 54.54327612681098
1382 54.54338900355554
1383 54.54418007689571
1384 54.54422728877057
1385 54.54546329581672
1386 54.54520678504238
1387 54.54600426516041
1388 54.54498386462723
1389 54.54524848127519
1390 54.54426031545328
1391 54.54398144928778
1392 54.54306563494291
1393 54.54378566325142
1394 54.54351403903257
1395 54.54419736154055
1396 54.54385176304319
1397 54.54512166453001
1398 54.54484100638324
1399 54.54548163708398
1400 54.54506796730914
1401 54.54554405032267
1402 54.54461019744117
1403 54.54468336846144
1404 54.54388108450127
1405 54.54455951060534
1406 54.54400022574813
1407 54.54439684838604
1408 54.54440262841683
1409 54.54517149340569
1410 54.54504552592801
1411 54.54501969640752
1412 54.54482535727279
1413 54.54506294082795
1414 54.54451877846751
1415 54.54475696500939
1416 54.54456557712068
1417 54.54548646773537
1418 54.54540099949923
1419 54.54658476764082
1420 54.54670064507711
1421 54.5478804562169
1422 54.54738588918355
1423 54.54776876650544
1424 54.54674145772334
1425 54.54747049395511
1426 54.54585497901113
1427 54.5458471489192
1428 54.5441611238104
1429 54.54468938033214
1430 54.54337531482073
1431 54.54358205747512
1432 54.54258803554958
1433 54.54356909255426
1434 54.54250689206414
1435 54.54264479996864
1436 54.54135099096009
1437 54.54183868251509
1438 54.54063601086868
1439 54.54129673969035
1440 54.54035480903791
1441 54.5417630700682
1442 54.54144660400037
1443 54.54234834243998
1444 54.54224119033935
1445 54.54403278646414
1446 54.54391291071184
1447 54.54483156488966
1448 54.54446117930416
1449 54.54527451921627
1450 54.54422770329797
1451 54.54393802687852
1452 54.5430098514224
1453 54.54331072406367
1454 54.5426828358145
1455 54.54334706240299
1456 54.543432666703
1457 54.54443650294218
1458 54.5441627872617
1459 54.54439840625549
1460 54.54388672118141
1461 54.54400432658476
1462 54.5432228771711
1463 54.54353040798105
1464 54.54302008971162
1465 54.54359216995887
1466 54.54261551847906
1467 54.5432205723123
1468 54.54296913572821
1469 54.54379169302803
1470 54.54341262522981
1471 54.54448276998719
1472 54.54397133030869
1473 54.54505502178278
1474 54.54434854884548
1475 54.54502524158511
1476 54.54419858448865
1477 54.54491846883654
1478 54.54455403460305
1479 54.54522510077697
1480 54.54519824318208
1481 54.54611181816875
1482 54.54617969631465
1483 54.54662986464005
1484 54.54629348382365
1485 54.54670291996808
1486 54.54622582701981
1487 54.54615246342161
1488 54.54549112332143
1489 54.54597811919898
1490 54.54574255636147
1491 54.5458365046297
1492 54.5451955655799
1493 54.54545791554565
1494 54.54518983875715
1495 54.54499830703057
1496 54.54441085385591
1497 54.54455947612702
1498 54.54427868298684
1499 54.54441872561648
1500 54.5444751064285
1501 54.54479275983292
1502 54.54499819999102
1503 54.54498357330225
1504 54.54493333504588
1505 54.54538632332745
1506 54.54485555913788
1507 54.54512367200403
1508 54.54476311625297
1509 54.54417767827773
1510 54.5434454138611
1511 54.54285096383287
1512 54.54249275859755
1513 54.54307603729318
1514 54.54324368430375
1515 54.5435615026915
1516 54.54316954045683
1517 54.54464434726182
1518 54.54483744839034
1519 54.54572313550474
1520 54.54519597649667
1521 54.5458397388894
1522 54.54490092514276
1523 54.54500915599636
1524 54.54456879275834
1525 54.54547265779127
1526 54.54471664902402
1527 54.54585527380383
1528 54.54490428540293
1529 54.54553274608393
1530 54.54433667549226
1531 54.54520647513233
1532 54.54387745035268
1533 54.54464784636657
1534 54.54389504172062
1535 54.54443678108912
1536 54.54352880815993
1537 54.54453843564625
1538 54.54387787492452
1539 54.54413280740579
1540 54.54336113900064
1541 54.5444453056333
1542 54.54416197095308
1543 54.54399781763407
1544 54.54342813099969
1545 54.54384349956663
1546 54.54315114287862
1547 54.54326265269984
1548 54.5425083588427
1549 54.54308454387986
1550 54.54249117667879
1551 54.54278658816898
1552 54.54253721756261
1553 54.54316258821122
1554 54.54305522730802
1555 54.54375935123396
1556 54.54390219387476
1557 54.54474074419626
1558 54.54483756638065
1559 54.54536806933997
1560 54.54518522807097
1561 54.54633296494316
1562 54.54613414866777
1563 54.54659324761862
1564 54.54571916166149
1565 54.54712802343734
1566 54.546497818467
1567 54.54703065179931
1568 54.54690544183432
1569 54.5482588891105
1570 54.54774676512379
1571 54.54866594842406
1572 54.54748065846842
1573 54.54778686997564
1574 54.54663483209402
1575 54.5468529497622
1576 54.54539858320609
1577 54.54577422712791
1578 54.54431047911807
1579 54.54439524746762
1580 54.54292087436646
1581 54.54359037725045
1582 54.54271851156079
1583 54.5429557424868
1584 54.54235580370061
1585 54.54303433550007
1586 54.54249279897574
1587 54.54305379130627
1588 54.54267812509164
1589 54.54337789432462
1590 54.54302964422251
1591 54.54314397690833
1592 54.54272810518084
1593 54.54370907418752
1594 54.54349592186149
1595 54.54414639320805
1596 54.54357968991092
1597 54.54467654347188
1598 54.54394845414685
1599 54.54423146490451
1600 54.54350248216717
1601 54.54459026943347
1602 54.54367091031992
1603 54.54365317441894
1604 54.542524298846
1605 54.54319267701381
1606 54.54254042542144
1607 54.54316785626291
1608 54.543199570988
1609 54.54416556826318
