"y-rfile"
"Iteration" "y"
("Iteration" "y")
1 4897.070121012191
2 6322.925687968793
3 6734.07549917275
4 6497.645284738424
5 5893.141280321121
6 5088.267344050259
7 4204.313056565977
8 3338.69332271848
9 2548.923387115557
10 1872.304682377389
11 1328.753102632038
12 924.567525468441
13 651.9754162151153
14 497.5601482909967
15 443.075160162758
16 468.9219720369699
17 553.5763720133253
18 679.1940116760454
19 828.4072330202857
20 985.9556334254953
21 1140.243681681693
22 1282.510481533133
23 1406.682134332094
24 1509.037955891553
25 1588.935417510057
26 1647.023156788757
27 1685.409155400131
28 1706.832099006667
29 1714.7076632451
30 1712.190912344282
31 1702.868501267511
32 1689.720862061702
33 1675.130034628336
34 1661.096550021783
35 1649.191831823816
36 1640.259521414526
37 1634.777602747426
38 1632.776444558921
39 1634.030963763827
40 1638.13636792533
41 1644.475091612772
42 1652.50325720301
43 1661.558329468739
44 1671.107021169545
45 1680.623357408598
46 1689.738497782417
47 1698.157705505233
48 1705.7132232843
49 1712.337642807847
50 1717.996483706798
51 1722.728833515493
52 1726.632819157943
53 1729.823817446345
54 1732.45551630924
55 1734.628083437956
56 1736.477135837968
57 1738.147510359377
58 1739.680678566836
59 1741.162901689075
60 1742.621054543255
61 1744.096078552569
62 1745.594452052246
63 1747.084569763755
64 1748.607965909247
65 1750.097005565365
66 1751.558271252321
67 1752.981950695498
68 1754.312329418199
69 1755.542970690846
70 1756.679841567015
71 1757.706573374403
72 1758.595096244789
73 1759.37099794924
74 1760.012437298416
75 1760.553755341556
76 1760.980527026032
77 1761.31989513771
78 1761.554111552364
79 1761.704965791257
80 1761.784824012235
81 1761.807885092027
82 1761.774583062087
83 1761.694903042226
84 1761.55415368966
85 1761.371743428156
86 1761.153168659421
87 1760.901622893427
88 1760.600462366927
89 1760.252736386211
90 1759.859534349654
91 1759.455993348223
92 1759.014830077119
93 1758.534747120738
94 1758.039196732881
95 1757.507325050992
96 1756.943669340512
97 1756.37086493517
98 1755.780349555522
99 1755.167790763958
100 1754.545945796841
101 1753.927308016123
102 1753.301765824032
103 1752.677771052997
104 1752.052725554372
105 1751.456132321672
106 1750.863627928228
107 1750.287403658817
108 1750.008502043881
109 1749.439536952582
110 1749.171825010174
111 1748.60611719606
112 1748.084300465788
113 1747.590361177956
114 1747.408899044919
115 1746.992967103905
116 1746.643067702049
117 1746.358933560487
118 1746.150383188422
119 1746.016410668152
120 1745.95717520753
121 1745.95886597848
122 1746.037166880205
123 1746.189564879678
124 1746.403546367537
125 1746.688429873421
126 1747.045976705705
127 1747.467617659615
128 1747.942843117467
129 1748.416238663719
130 1749.061875100811
131 1749.62421129179
132 1750.426417470569
133 1751.085751201236
134 1752.026918785998
135 1752.761173216738
136 1753.838113778264
137 1754.929938565698
138 1755.762863508617
139 1756.956930049769
140 1758.159648971363
141 1759.369558613501
142 1760.586175248613
143 1761.809719263334
144 1763.057810432054
145 1764.30433263715
146 1765.554214512584
147 1766.820160858157
148 1768.101414743691
149 1769.393016947714
150 1770.688715484159
151 1771.989751185965
152 1773.291194850612
153 1774.585155044205
154 1775.885369830184
155 1777.161923937395
156 1778.431956672447
157 1779.684645658497
158 1780.913438462774
159 1782.133471238829
160 1783.321883687354
161 1784.478937238679
162 1785.612850859505
163 1786.713078952228
164 1787.783344278023
165 1788.823037160985
166 1789.821976640161
167 1790.785664463382
168 1791.694426200416
169 1792.574097913712
170 1793.405378073534
171 1794.200838734293
172 1794.950713647626
173 1795.65704701305
174 1796.317508917422
175 1796.939603941592
176 1797.51734024896
177 1798.042415082866
178 1798.529614951971
179 1798.97647935505
180 1799.387893975656
181 1799.767767712685
182 1800.106833758444
183 1800.407241423963
184 1800.67591029975
185 1800.907547859876
186 1801.113186486861
187 1801.289931204381
188 1801.439892461727
189 1801.56343068633
190 1801.665453751057
191 1801.749159672294
192 1801.812642552567
193 1801.861205291031
194 1801.8895861415
195 1801.898595327516
196 1801.892634101627
197 1801.876640728258
198 1801.849224111447
199 1801.812226662062
200 1801.765160986998
201 1801.711072213246
202 1801.653467453501
203 1801.581932173588
204 1801.503476860189
205 1801.422930075598
206 1801.332173535775
207 1801.239779078212
208 1801.141569897599
209 1801.033956828588
210 1800.922119729252
211 1800.795160671575
212 1800.665220958927
213 1800.526848116791
214 1800.378794906641
215 1800.219442068864
216 1800.050050633323
217 1799.874257961657
218 1799.685305348201
219 1799.4797899192
220 1799.260902996998
221 1799.024749407964
222 1798.776670615284
223 1798.513446421098
224 1798.235476783316
225 1797.936941121631
226 1797.628443136908
227 1797.301169812439
228 1796.948830590524
229 1796.586350423557
230 1796.201840753763
231 1795.807144763684
232 1795.392493142009
233 1794.956886456305
234 1794.51109365242
235 1794.040492318608
236 1793.54596174008
237 1793.043820722671
238 1792.518556147407
239 1791.972414619776
240 1791.4063501175
241 1790.824386868379
242 1790.225687185676
243 1789.61650081282
244 1788.98847788934
245 1788.344277804467
246 1787.687748839255
247 1787.018103576664
248 1786.330481416223
249 1785.636137276117
250 1784.931582573643
251 1784.214664285503
252 1783.482816493813
253 1782.740528070895
254 1781.98355332416
255 1781.219145059091
256 1780.446693634246
257 1779.668772341224
258 1778.875598658129
259 1778.078059254186
260 1777.276676239376
261 1776.475615198872
262 1775.666739862384
263 1774.857534165017
264 1774.049679873601
265 1773.230838890257
266 1772.411370938443
267 1771.587313720967
268 1770.760646053268
269 1769.93167687176
270 1769.106140100465
271 1768.28163090512
272 1767.455552828922
273 1766.633807483924
274 1765.808311061073
275 1764.987552220982
276 1764.17637241826
277 1763.367788551514
278 1762.559286701073
279 1761.746463902078
280 1760.939875777405
281 1760.144824255545
282 1759.3530780338
283 1758.565539497133
284 1757.779911429752
285 1757.000565437145
286 1756.224277669388
287 1755.454886091193
288 1754.687888392325
289 1753.928219590852
290 1753.177073445592
291 1752.436171234162
292 1751.703191076072
293 1750.976719535087
294 1750.26467383441
295 1749.556157658768
296 1748.846699028891
297 1748.141210836766
298 1747.449938561962
299 1746.759647079593
300 1746.081028552607
301 1745.408947999458
302 1744.744749259857
303 1744.089028132255
304 1743.434646040779
305 1742.792215749362
306 1742.149403563712
307 1741.514415037495
308 1740.891222377537
309 1740.270077912953
310 1739.652188227678
311 1739.037418488126
312 1738.43207143404
313 1737.834763792891
314 1737.243794479291
315 1736.649102887175
316 1736.059562917479
317 1735.471457089376
318 1734.888575843665
319 1734.308520870534
320 1733.735521671972
321 1733.151474061019
322 1732.57780403681
323 1731.995579762774
324 1731.41751790399
325 1730.832449516332
326 1730.239352435786
327 1729.652178052584
328 1729.058705045868
329 1728.46354833338
330 1727.859358351602
331 1727.25069065457
332 1726.640540847286
333 1726.016131180634
334 1725.397304903215
335 1724.771727642232
336 1724.143462996989
337 1723.510549784325
338 1722.866229575698
339 1722.231115628864
340 1721.599960157658
341 1720.958614387587
342 1720.308017970892
343 1719.657952772124
344 1719.008665038468
345 1718.349063959957
346 1717.697844068404
347 1717.040333499556
348 1716.386787623239
349 1715.744967360234
350 1715.092409809595
351 1714.461485923391
352 1713.82004506239
353 1713.192305791224
354 1712.57014110234
355 1711.954438201229
356 1711.342916052123
357 1710.728051514165
358 1710.127227782934
359 1709.534389567759
360 1708.958983622299
361 1708.387665316794
362 1707.835824818452
363 1707.303995137015
364 1706.763476357856
365 1706.241616859604
366 1705.73284541274
367 1705.243925909699
368 1704.752725187049
369 1704.282776406234
370 1703.820075909775
371 1703.356021915994
372 1702.905526011845
373 1702.472339146711
374 1702.041360361777
375 1701.61847576518
376 1701.206925039564
377 1700.794532279057
378 1700.385293660497
379 1700.001224069688
380 1699.614168842066
381 1699.234434644933
382 1698.853492596008
383 1698.449240090797
384 1698.063043660786
385 1697.673413746172
386 1697.290593029349
387 1696.909514531297
388 1696.525560412633
389 1696.149055088667
390 1695.755586833179
391 1695.347165457804
392 1694.965899999194
393 1694.56147781221
394 1694.15625425688
395 1693.738454865486
396 1693.328153240786
397 1692.918580120032
398 1692.499085579857
399 1692.085318240293
400 1691.671739170587
401 1691.250902230691
402 1690.813406343028
403 1690.354264647632
404 1689.903147978853
405 1689.445058814916
406 1688.971985915037
407 1688.509667832969
408 1688.030585871528
409 1687.564051489403
410 1687.096490019039
411 1686.619740349941
412 1686.152264675789
413 1685.683474218975
414 1685.205624573481
415 1684.74577708264
416 1684.285657451349
417 1683.856269087289
418 1683.405252693818
419 1682.95937259292
420 1682.525212694995
421 1682.108824318117
422 1681.685023932939
423 1681.288113381066
424 1680.917863960874
425 1680.564090227926
426 1680.226391957528
427 1679.910393518547
428 1679.619114246988
429 1679.345265666932
430 1679.084399081369
431 1678.862073120969
432 1678.659800853419
433 1678.474580556568
434 1678.302906552955
435 1678.185516620397
436 1678.094873490315
437 1678.030256050898
438 1677.983146931443
439 1677.977098558528
440 1677.991451812414
441 1678.026236065095
442 1678.085918827923
443 1678.193460188063
444 1678.316215218871
445 1678.483411307965
446 1678.673151373436
447 1678.894908174036
448 1679.128088995095
449 1679.39099543198
450 1679.671194716336
451 1679.992736895567
452 1680.319271806952
453 1680.673181652679
454 1681.051280909806
455 1681.451386802212
456 1681.87073185465
457 1682.291518316841
458 1682.737165667456
459 1683.197801740715
460 1683.659931181222
461 1684.135216505846
462 1684.600214530148
463 1685.075068337588
464 1685.563401079892
465 1686.020838357798
466 1686.482830166798
467 1686.947634188959
468 1687.422762514105
469 1687.884896700877
470 1688.334245694422
471 1688.795515188275
472 1689.250802905672
473 1689.662161250209
474 1690.07800357008
475 1690.471813596872
476 1690.847829042549
477 1691.200240244301
478 1691.532711568985
479 1691.852521479846
480 1692.147734386971
481 1692.43312616651
482 1692.684699576303
483 1692.908551179722
484 1693.103444973193
485 1693.253091088882
486 1693.39329925102
487 1693.51156359814
488 1693.612895296394
489 1693.68414942961
490 1693.74444612887
491 1693.742627707508
492 1693.711545374233
493 1693.660255780945
494 1693.598016556667
495 1693.482834469143
496 1693.363262295051
497 1693.199313691011
498 1693.004766112788
499 1692.766454892633
500 1692.519245907069
501 1692.232407727985
502 1691.905868479932
503 1691.546761749444
504 1691.14277996128
505 1690.705852561032
506 1690.241460212634
507 1689.715312069584
508 1689.145347519265
509 1688.530600573036
510 1687.881076291223
511 1687.172411791564
512 1686.424381537291
513 1685.620097671872
514 1684.773486175005
515 1683.873938420861
516 1682.920559678727
517 1681.909301972936
518 1680.857418018401
519 1679.735885613706
520 1678.535683360967
521 1677.306956148293
522 1676.027607662963
523 1674.684784878418
524 1673.28243557431
525 1671.838784365704
526 1670.349005256329
527 1668.79951901556
528 1667.233502866516
529 1665.6458829566
530 1664.012944219371
531 1662.341346927868
532 1660.660398109819
533 1658.968028397876
534 1657.238202476846
535 1655.498579209567
536 1653.764962377822
537 1652.023587177741
538 1650.263478402898
539 1648.502420044311
540 1646.755220309786
541 1645.02472955744
542 1643.315442589165
543 1641.632510666465
544 1639.960001841475
545 1638.311838569658
546 1636.673035013537
547 1635.058309442144
548 1633.469959080775
549 1631.918653016592
550 1630.408629163522
551 1628.894870038555
552 1627.415942782929
553 1625.962749018961
554 1624.520450253143
555 1623.111714963286
556 1621.722821223609
557 1620.367254529758
558 1619.036568721816
559 1617.697772321768
560 1616.367413222449
561 1615.05752024927
562 1613.757946990018
563 1612.460303776773
564 1611.153280452427
565 1609.878596771194
566 1608.612909495331
567 1607.358743118834
568 1606.114756804106
569 1604.903131306059
570 1603.690644916956
571 1602.48212310275
572 1601.303914503839
573 1600.156401179971
574 1599.033595476451
575 1597.933449884125
576 1596.855131834015
577 1595.806668944353
578 1594.798823164851
579 1593.841682884193
580 1592.921391328559
581 1592.042987168829
582 1591.219038264378
583 1590.460671088726
584 1589.730110840391
585 1589.040360300954
586 1588.395346363931
587 1587.80919160504
588 1587.255273868755
589 1586.784582995472
590 1586.366499331288
591 1586.01124084651
592 1585.704842295007
593 1585.442938501364
594 1585.24104646509
595 1585.097743059478
596 1584.98528984054
597 1584.887790839298
598 1584.84991270901
599 1584.839303854346
600 1584.839660854242
601 1584.86586766265
602 1584.922380103895
603 1584.974408727187
604 1585.000678831673
605 1585.011614178444
606 1585.023537125957
607 1585.02755926214
608 1585.015408912521
609 1584.977258926067
610 1584.888091076746
611 1584.743071060761
612 1584.58204897849
613 1584.372835225181
614 1584.152010856729
615 1583.876556355508
616 1583.567027621701
617 1583.195978946665
618 1582.765292638709
619 1582.307271112604
620 1581.795676364176
621 1581.225690529437
622 1580.614213612999
623 1579.992106503187
624 1579.3274546772
625 1578.659526329371
626 1577.932635823483
627 1577.217200678713
628 1576.446083099675
629 1575.671377986836
630 1574.900991432534
631 1574.150797574862
632 1573.365865096495
633 1572.632247064936
634 1571.89488697989
635 1571.175185049421
636 1570.492121889031
637 1569.83578922593
638 1569.186817019641
639 1568.628442931202
640 1568.10317774998
641 1567.579171388466
642 1567.082696421891
643 1566.637698563641
644 1566.184639614806
645 1565.777443226226
646 1565.387480434604
647 1565.035735211423
648 1564.680086308196
649 1564.326945040944
650 1563.962719867502
651 1563.614839789291
652 1563.261908576342
653 1562.881868055645
654 1562.44372249539
655 1561.974466642491
656 1561.461534586551
657 1560.900650353181
658 1560.27006447859
659 1559.569114770214
660 1558.760746613155
661 1557.885948257879
662 1556.895701084024
663 1555.773085507426
664 1554.542378981847
665 1553.184612712741
666 1551.698262691768
667 1550.060155874203
668 1548.26090345207
669 1546.351651910078
670 1544.298232390455
671 1542.063994171719
672 1539.68281918867
673 1537.153699289579
674 1534.473454046087
675 1531.65726049916
676 1528.653198197595
677 1525.517466640177
678 1522.265598339054
679 1518.872464841906
680 1515.342285192026
681 1511.688202670251
682 1507.931001716547
683 1504.074853396214
684 1500.110594112174
685 1496.079840899091
686 1491.947175706846
687 1487.735328957601
688 1483.474648600376
689 1479.142299813432
690 1474.771297872796
691 1470.354591253236
692 1465.881128732814
693 1461.388804129276
694 1456.869532777517
695 1452.337265516534
696 1447.832012612395
697 1443.335080319981
698 1438.832379702892
699 1434.337767834529
700 1429.880864260372
701 1425.433669094677
702 1421.041138600063
703 1416.675706638894
704 1412.372940330505
705 1408.148060406894
706 1403.96317075976
707 1399.840505565025
708 1395.784113017193
709 1391.780960509379
710 1387.837125578922
711 1383.952997108775
712 1380.096474282777
713 1376.326077074689
714 1372.64386801649
715 1369.046647635744
716 1365.523400494454
717 1362.069105145141
718 1358.693899776082
719 1355.418119346099
720 1352.220241695567
721 1349.103279732552
722 1346.098199084564
723 1343.176167835688
724 1340.31939684856
725 1337.574826509557
726 1334.922552319265
727 1332.354691792536
728 1329.87371414157
729 1327.468578056325
730 1325.136489275061
731 1322.875291181082
732 1320.712277527744
733 1318.616115379655
734 1316.586621965641
735 1314.644153990269
736 1312.765028011137
737 1310.955843019867
738 1309.175009852037
739 1307.461497070428
740 1305.80127774372
741 1304.191568264154
742 1302.637682484538
743 1301.117120981652
744 1299.639271164582
745 1298.195012197652
746 1296.794495724089
747 1295.40897689372
748 1294.05313209289
749 1292.7236777022
750 1291.418938105587
751 1290.12977047186
752 1288.868781193706
753 1287.629614509579
754 1286.445828731424
755 1285.287132404919
756 1284.177828561073
757 1283.05395842395
758 1281.967102990079
759 1280.920039276354
760 1279.90543540557
761 1278.938592600198
762 1278.017818838036
763 1277.119585718016
764 1276.238669893929
765 1275.389266842767
766 1274.545836512069
767 1273.742976868318
768 1272.944706365163
769 1272.120312504704
770 1271.280520110035
771 1270.42088893856
772 1269.534500332712
773 1268.623863521128
774 1267.65891539673
775 1266.662792773318
776 1265.623867411042
777 1264.495936966739
778 1263.310743426643
779 1262.016661631043
780 1260.648573365012
781 1259.211572130817
782 1257.702488911732
783 1256.09355013895
784 1254.391337521017
785 1252.618395466442
786 1250.765453469105
787 1248.820257014402
788 1246.795398416858
789 1244.721764706558
790 1242.569961756358
791 1240.362737983447
792 1238.098093947905
793 1235.829320688086
794 1233.549580133139
795 1231.257867442205
796 1228.980924786815
797 1226.770450569327
798 1224.576259567787
799 1222.460991724805
800 1220.427738024729
801 1218.501870096231
802 1216.701230458038
803 1215.007184376924
804 1213.438695342981
805 1212.024653063988
806 1210.794230485991
807 1209.745862049303
808 1208.879623547104
809 1208.214174388298
810 1207.702560194967
811 1207.389271825393
812 1207.264397499608
813 1207.342835058136
814 1207.618123557397
815 1208.078946430779
816 1208.7360728996
817 1209.607068802051
818 1210.647182777144
819 1211.803162256924
820 1213.151761261945
821 1214.628783020893
822 1216.27497481393
823 1218.033441310919
824 1219.937736633509
825 1221.903183674872
826 1223.96883451335
827 1226.096017923818
828 1228.262726856621
829 1230.426979989629
830 1232.616585116474
831 1234.790686093284
832 1236.912566347091
833 1238.992202544719
834 1241.036295775948
835 1242.971307491934
836 1244.863928948589
837 1246.622582805644
838 1248.242332948336
839 1249.744749800257
840 1251.095658130927
841 1252.287064735763
842 1253.331711894
843 1254.214876347879
844 1254.914764187145
845 1255.449476147198
846 1255.7904594328
847 1256.001339311286
848 1256.046094287741
849 1255.903571601888
850 1255.613026703934
851 1255.160572933484
852 1254.616462845487
853 1253.942909381274
854 1253.130799360393
855 1252.20803784704
856 1251.195179461586
857 1250.131079210616
858 1249.028706062993
859 1247.875520190707
860 1246.72425417407
861 1245.606438174329
862 1244.469811682457
863 1243.390633417112
864 1242.375225067028
865 1241.451162252121
866 1240.657822599129
867 1239.915911248861
868 1239.295269072133
869 1238.825650473874
870 1238.511744552281
871 1238.337621377181
872 1238.37244756816
873 1238.565104425121
874 1238.938086911628
875 1239.477270473603
876 1240.190330525003
877 1241.12026778777
878 1242.2151697043
879 1243.493449162158
880 1244.92051856235
881 1246.506175280619
882 1248.266593307814
883 1250.186883343306
884 1252.230934902332
885 1254.402956197124
886 1256.642338054293
887 1259.015269196251
888 1261.465029436907
889 1264.00191444207
890 1266.581189364309
891 1269.204461943993
892 1271.80682770765
893 1274.438065449449
894 1277.026517563871
895 1279.581360682125
896 1282.116604248809
897 1284.611461617505
898 1287.045237134842
899 1289.410015464484
900 1291.712402802141
901 1293.896842879195
902 1296.00813349775
903 1298.013430712959
904 1299.916545532175
905 1301.707686354119
906 1303.403831008616
907 1304.986422238585
908 1306.482101812386
909 1307.888910110087
910 1309.180571832953
911 1310.39485496564
912 1311.50148029429
913 1312.501537324996
914 1313.436093074873
915 1314.269045517751
916 1315.020365755553
917 1315.680598709576
918 1316.252452662173
919 1316.737664080308
920 1317.145273209681
921 1317.44963461417
922 1317.661730859663
923 1317.802432679077
924 1317.890640862189
925 1317.886030218875
926 1317.815535958936
927 1317.682340893929
928 1317.477658489919
929 1317.198493302089
930 1316.861185406378
931 1316.440050523443
932 1315.952687387666
933 1315.402369739563
934 1314.786462935851
935 1314.085849138025
936 1313.318501696973
937 1312.483577726598
938 1311.613733439027
939 1310.666229192477
940 1309.682135151874
941 1308.621272650942
942 1307.499035134602
943 1306.296331758813
944 1305.034091967117
945 1303.721824086272
946 1302.350409069865
947 1300.925228094295
948 1299.454998266653
949 1297.937916844131
950 1296.390718359726
951 1294.82866933495
952 1293.244829169694
953 1291.630480779399
954 1290.004088045155
955 1288.361835108764
956 1286.722471196167
957 1285.108928024471
958 1283.496134266296
959 1281.910510946195
960 1280.377278046727
961 1278.879660853342
962 1277.416356259176
963 1275.958570194389
964 1274.58211314253
965 1273.254422535111
966 1271.993935387439
967 1270.827739192079
968 1269.723569398678
969 1268.710526453696
970 1267.810546289633
971 1266.991051869758
972 1266.279586335994
973 1265.683460273882
974 1265.196070319091
975 1264.827981214014
976 1264.563959709639
977 1264.413241983445
978 1264.384992992973
979 1264.454072491244
980 1264.658453943124
981 1264.96594476184
982 1265.393058271198
983 1265.923199629113
984 1266.547273785185
985 1267.291973847586
986 1268.118074897124
987 1269.025145884511
988 1270.010767962379
989 1271.078785688752
990 1272.19617610584
991 1273.349264797424
992 1274.562515411482
993 1275.816070890641
994 1277.085759936359
995 1278.378344969594
996 1279.682106737558
997 1280.991545107961
998 1282.299718976636
999 1283.585069958895
1000 1284.845644482585
1001 1286.092194174036
1002 1287.291484930998
1003 1288.453582077817
1004 1289.56511372667
1005 1290.61969244058
1006 1291.611338410408
1007 1292.537476817773
1008 1293.393720406938
1009 1294.182720408162
1010 1294.884367640279
1011 1295.521238130366
1012 1296.065252851703
1013 1296.529734802818
1014 1296.897868597818
1015 1297.174890241213
1016 1297.36012586105
1017 1297.446949075342
1018 1297.441864530039
1019 1297.327903021787
1020 1297.107773235267
1021 1296.793918798892
1022 1296.372216721003
1023 1295.854195277263
1024 1295.235960411733
1025 1294.525545908068
1026 1293.706975096169
1027 1292.806372041157
1028 1291.805342206486
1029 1290.702254406163
1030 1289.506483349254
1031 1288.242735449044
1032 1286.895089934371
1033 1285.470535980357
1034 1283.965869788086
1035 1282.407281295414
1036 1280.774135108014
1037 1279.088407171648
1038 1277.348350258975
1039 1275.569985367069
1040 1273.750817649497
1041 1271.897278707618
1042 1270.028042188322
1043 1268.138300682778
1044 1266.242762994913
1045 1264.335735932851
1046 1262.434356187303
1047 1260.548813348485
1048 1258.688197389178
1049 1256.840485261023
1050 1255.029414192876
1051 1253.247741398632
1052 1251.503437010962
1053 1249.806203606049
1054 1248.175083061121
1055 1246.598187824157
1056 1245.089725734543
1057 1243.638075306768
1058 1242.255156094664
1059 1240.955671107538
1060 1239.743156706953
1061 1238.590614246698
1062 1237.522254618289
1063 1236.532700895692
1064 1235.622501511922
1065 1234.793417731021
1066 1234.047240727697
1067 1233.372038389066
1068 1232.791768349264
1069 1232.28189909366
1070 1231.843505479871
1071 1231.473125953559
1072 1231.161318151721
1073 1230.918249694856
1074 1230.739427144476
1075 1230.603857754762
1076 1230.514611211817
1077 1230.473163344948
1078 1230.471805987973
1079 1230.505490655472
1080 1230.557401368997
1081 1230.643634903435
1082 1230.737998376213
1083 1230.855274006483
1084 1230.990920003045
1085 1231.12114455757
1086 1231.247200819816
1087 1231.372060898227
1088 1231.485941725894
1089 1231.58288879793
1090 1231.665520070879
1091 1231.735986659611
1092 1231.777716058144
1093 1231.787482233342
1094 1231.777236930624
1095 1231.729634541674
1096 1231.648506156936
1097 1231.533524156177
1098 1231.39014124262
1099 1231.209605984166
1100 1230.99119005786
1101 1230.748199729817
1102 1230.462386508729
1103 1230.149531711174
1104 1229.812494969117
1105 1229.445360960164
1106 1229.056923244998
1107 1228.641279305902
1108 1228.210679217183
1109 1227.771653290916
1110 1227.329864808201
1111 1226.869935379913
1112 1226.405404176715
1113 1225.947234490171
1114 1225.502026223561
1115 1225.083137343618
1116 1224.672896186217
1117 1224.271594554114
1118 1223.902770317703
1119 1223.574198639507
1120 1223.278827531745
1121 1223.009597525575
1122 1222.777627830201
1123 1222.591395250741
1124 1222.440156253874
1125 1222.345580700291
1126 1222.298094262053
1127 1222.295013520517
1128 1222.341328182875
1129 1222.440077551466
1130 1222.587172673225
1131 1222.774913166572
1132 1223.018719788955
1133 1223.316514833889
1134 1223.667658462617
1135 1224.058863372056
1136 1224.487750453644
1137 1224.975289505953
1138 1225.502365488848
1139 1226.07059837996
1140 1226.662220224243
1141 1227.28404337023
1142 1227.948011902695
1143 1228.639392007132
1144 1229.348602685464
1145 1230.071408967109
1146 1230.811582246416
1147 1231.575108668656
1148 1232.343921466261
1149 1233.123070793209
1150 1233.902928110952
1151 1234.681916931365
1152 1235.462256618012
1153 1236.235436662714
1154 1236.997808844278
1155 1237.756024933554
1156 1238.493004830048
1157 1239.213064388338
1158 1239.909090142225
1159 1240.581994919763
1160 1241.222873927657
1161 1241.841022482212
1162 1242.434141942597
1163 1242.982746343602
1164 1243.4925976249
1165 1243.967559814268
1166 1244.412075333311
1167 1244.815597538842
1168 1245.174310850062
1169 1245.49978930751
1170 1245.791644175569
1171 1246.046394597641
1172 1246.266478945796
1173 1246.441001761906
1174 1246.573436652732
1175 1246.674274309525
1176 1246.747740723362
1177 1246.789356664505
1178 1246.796363243338
1179 1246.766343483836
1180 1246.708003339064
1181 1246.618958676151
1182 1246.50356851401
1183 1246.357712975041
1184 1246.193497181333
1185 1245.999922198732
1186 1245.784803206757
1187 1245.544546568509
1188 1245.278389005828
1189 1244.990156219535
1190 1244.67794347629
1191 1244.352860461877
1192 1244.016492109221
1193 1243.656366607377
1194 1243.280540425983
1195 1242.888715606858
1196 1242.484906895609
1197 1242.069745836119
1198 1241.650037040994
1199 1241.224661221659
1200 1240.789323790548
1201 1240.354775763859
1202 1239.918324547968
1203 1239.481433786757
1204 1239.044425251548
1205 1238.618199339578
1206 1238.195776960484
1207 1237.779446668762
1208 1237.36888930808
1209 1236.965555775459
1210 1236.573939173242
1211 1236.187455317419
1212 1235.822620752494
1213 1235.467694708255
1214 1235.127668309344
1215 1234.803492006554
1216 1234.494419767075
1217 1234.208850953201
1218 1233.937841909741
1219 1233.680562639667
1220 1233.443478761226
1221 1233.224564346202
1222 1233.021656504751
1223 1232.838605864406
1224 1232.671318024394
1225 1232.519491051731
1226 1232.388495723213
1227 1232.267877847596
1228 1232.161609379145
1229 1232.065813958754
1230 1231.98466310056
1231 1231.912822461815
1232 1231.847787781582
1233 1231.790090928227
1234 1231.739997459367
1235 1231.69290101676
1236 1231.650494068896
1237 1231.604878168383
1238 1231.551102856593
1239 1231.494379146681
1240 1231.430398260852
1241 1231.366191073858
1242 1231.295460426899
1243 1231.214098241529
1244 1231.12601434535
1245 1231.026166747413
1246 1230.913050138908
1247 1230.794300714516
1248 1230.66229235062
1249 1230.524382163597
1250 1230.377267728034
1251 1230.223135730906
1252 1230.058000343626
1253 1229.889824398826
1254 1229.713870480818
1255 1229.53455519732
1256 1229.349590794627
1257 1229.166830564876
1258 1228.980746605055
1259 1228.78612089813
1260 1228.592159674059
1261 1228.402351144296
1262 1228.214777287451
1263 1228.0262054424
1264 1227.848618722772
1265 1227.677269091801
1266 1227.511056171471
1267 1227.359904808972
1268 1227.219868031528
1269 1227.084716354134
1270 1226.964378463771
1271 1226.858914583042
1272 1226.762548144563
1273 1226.68243528435
1274 1226.614397644544
1275 1226.553354256622
1276 1226.501248996416
1277 1226.454259161658
1278 1226.417430544776
1279 1226.391531382089
1280 1226.363524867258
1281 1226.340276601719
1282 1226.307627598283
1283 1226.268775150988
1284 1226.22685888878
1285 1226.181299936998
1286 1226.132725109974
1287 1226.070926727758
1288 1225.993405474338
1289 1225.895008333958
1290 1225.778436261693
1291 1225.652643820506
1292 1225.504376953128
1293 1225.329146014899
1294 1225.12186615486
1295 1224.894790928208
1296 1224.644223533277
1297 1224.368927983341
1298 1224.05347361269
1299 1223.718086695616
1300 1223.34800940919
1301 1222.946553553992
1302 1222.513234573342
1303 1222.054228487913
1304 1221.558118041162
1305 1221.036332989924
1306 1220.487555782818
1307 1219.913455370864
1308 1219.321000733941
1309 1218.69968548312
1310 1218.056870968192
1311 1217.40034151351
1312 1216.722626651662
1313 1216.042850741352
1314 1215.348730680902
1315 1214.643850337375
1316 1213.937965509455
1317 1213.239024817658
1318 1212.539433630338
1319 1211.849846076478
1320 1211.172222830709
1321 1210.490645282727
1322 1209.829343676814
1323 1209.192248554121
1324 1208.564553140742
1325 1207.952573134085
1326 1207.370917407851
1327 1206.82456486288
1328 1206.319307824298
1329 1205.844363350886
1330 1205.414856613923
1331 1205.035906073521
1332 1204.703319863746
1333 1204.414239289554
1334 1204.171209014133
1335 1203.970852376678
1336 1203.82189814253
1337 1203.725877464591
1338 1203.692858026082
1339 1203.713779307267
1340 1203.785020594045
1341 1203.906016451986
1342 1204.082796149223
1343 1204.31168394702
1344 1204.595520006801
1345 1204.920434608174
1346 1205.301517232299
1347 1205.735944559907
1348 1206.223572345559
1349 1206.748753710804
1350 1207.304874688614
1351 1207.909170370293
1352 1208.549967150653
1353 1209.221271256914
1354 1209.913858614233
1355 1210.632131477994
1356 1211.355446969403
1357 1212.096949634025
1358 1212.848953717991
1359 1213.612814527556
1360 1214.372603586524
1361 1215.132180700416
1362 1215.891946174572
1363 1216.643853375144
1364 1217.359278537801
1365 1218.0687335435
1366 1218.742936698777
1367 1219.394278397814
1368 1220.012904668607
1369 1220.605466113349
1370 1221.151195929084
1371 1221.65353364217
1372 1222.107938125299
1373 1222.504553534394
1374 1222.857063784106
1375 1223.161619329832
1376 1223.417257614549
1377 1223.608089931182
1378 1223.745311995658
1379 1223.827641371723
1380 1223.850754887944
1381 1223.827412194634
1382 1223.747769324959
1383 1223.613871293094
1384 1223.435206358625
1385 1223.204749471018
1386 1222.928267675719
1387 1222.614881712838
1388 1222.261771760499
1389 1221.880202075246
1390 1221.456603441166
1391 1221.01826749902
1392 1220.537287378134
1393 1220.039907457353
1394 1219.52072359035
1395 1218.99032705093
1396 1218.440493405078
1397 1217.876480011141
1398 1217.320834944904
1399 1216.762987345758
1400 1216.205568680743
1401 1215.641550146018
1402 1215.083198255098
1403 1214.531699780153
1404 1213.999572710572
1405 1213.473570602233
1406 1212.975209493672
1407 1212.486766118397
1408 1212.027564989102
1409 1211.586935214701
1410 1211.183556416487
1411 1210.809710074604
1412 1210.456861373252
1413 1210.136645258243
1414 1209.851764182851
1415 1209.606464211477
1416 1209.385608932153
1417 1209.212732263078
1418 1209.070426819102
1419 1208.966347199496
1420 1208.891015143512
1421 1208.856222911174
1422 1208.866987799698
1423 1208.911306628081
1424 1208.988191523078
1425 1209.101735452737
1426 1209.248557223535
1427 1209.422434444263
1428 1209.627631902275
1429 1209.866274442434
1430 1210.125992734448
1431 1210.406075916141
1432 1210.712107818506
1433 1211.022762765573
1434 1211.347852251376
1435 1211.688299133069
1436 1212.046115641224
1437 1212.415525869264
1438 1212.80244530543
1439 1213.183528727132
1440 1213.552788083653
1441 1213.938258004502
1442 1214.314733511668
1443 1214.697168724686
1444 1215.061523660187
1445 1215.424724514701
1446 1215.783954027099
1447 1216.127234311612
1448 1216.459258548999
1449 1216.775731718973
1450 1217.072016843179
1451 1217.363962206368
1452 1217.649905623724
1453 1217.917710052596
1454 1218.155367577231
1455 1218.384691559536
1456 1218.593298947952
1457 1218.767650845391
1458 1218.925318168007
1459 1219.074142628647
1460 1219.207317957938
1461 1219.337182992826
1462 1219.456468345443
1463 1219.580323469667
1464 1219.686091462372
1465 1219.794420477064
1466 1219.91044066968
1467 1220.02687313404
1468 1220.155505176233
1469 1220.292211678971
1470 1220.438910740129
1471 1220.615465680783
1472 1220.806822630452
1473 1221.030638659186
1474 1221.269713223171
1475 1221.543497788584
1476 1221.841127421101
1477 1222.170388996339
1478 1222.513896888805
1479 1222.885640624573
1480 1223.292204646705
1481 1223.720875902012
1482 1224.169192856538
1483 1224.638876204868
1484 1225.124271698736
1485 1225.623185948543
1486 1226.140681043685
1487 1226.660590177248
1488 1227.197020679237
1489 1227.732652971983
1490 1228.264073223204
1491 1228.790630698023
1492 1229.308784108777
1493 1229.821842973771
1494 1230.317611236947
1495 1230.807883201075
1496 1231.277599813422
1497 1231.72342054843
1498 1232.14178166234
1499 1232.528058870892
1500 1232.88534269247
1501 1233.210475484534
1502 1233.494296218801
1503 1233.736816681512
1504 1233.935115575376
1505 1234.091671910834
1506 1234.184562332399
1507 1234.233977245888
1508 1234.232902420488
1509 1234.186503520527
1510 1234.095364867443
1511 1233.947368588582
1512 1233.753703934057
1513 1233.516631420403
1514 1233.225835768867
1515 1232.900082570908
1516 1232.522325305505
1517 1232.116757897975
1518 1231.677713269961
1519 1231.2100560425
1520 1230.717290665221
1521 1230.195835836782
1522 1229.65414550251
1523 1229.084537089594
1524 1228.512889541831
1525 1227.937027569078
1526 1227.355688389993
1527 1226.776410958051
1528 1226.189012578291
1529 1225.618402448321
1530 1225.066175923663
1531 1224.525892679911
1532 1223.998250332336
1533 1223.497078826523
1534 1223.024609417848
1535 1222.577821595777
1536 1222.166514746281
1537 1221.781142305821
1538 1221.437885003224
1539 1221.126776431068
1540 1220.857600795556
1541 1220.631672608308
1542 1220.445090583669
1543 1220.299620254056
1544 1220.20288698209
1545 1220.144190889009
1546 1220.119844206594
1547 1220.146669113032
1548 1220.207157301181
1549 1220.301683883051
1550 1220.434676720137
1551 1220.603125547109
1552 1220.79803860302
1553 1221.019876793483
1554 1221.267087872861
1555 1221.531083462833
1556 1221.81952195313
1557 1222.123811354871
1558 1222.434908997498
1559 1222.750450248803
1560 1223.079808708951
1561 1223.407239958355
1562 1223.732945192124
1563 1224.05460409207
1564 1224.373118306161
1565 1224.689153927373
1566 1224.987801573328
1567 1225.284536278213
1568 1225.558429450694
1569 1225.824133223198
1570 1226.058070483805
1571 1226.268861704955
1572 1226.459783818176
1573 1226.628545265416
1574 1226.781607793847
1575 1226.904406680639
1576 1227.010570173954
1577 1227.090831324553
1578 1227.151644450344
1579 1227.194209821024
1580 1227.217896390329
1581 1227.224403905934
1582 1227.205246738337
1583 1227.176722702138
1584 1227.130304231001
1585 1227.073672221517
1586 1227.006751437789
1587 1226.926021250223
1588 1226.836519725521
1589 1226.735148429764
1590 1226.629860904822
1591 1226.524551518429
1592 1226.422967644761
1593 1226.322006727183
1594 1226.219779737778
1595 1226.11854535672
1596 1226.019253699175
1597 1225.930301776322
1598 1225.847652837029
1599 1225.765620843508
1600 1225.704341465795
1601 1225.646199657576
1602 1225.599613458187
1603 1225.566587792392
1604 1225.540548531685
1605 1225.539486053854
1606 1225.561157865339
1607 1225.59802376007
1608 1225.648671473235
1609 1225.716443614727
1610 1225.814659548557
1611 1225.924413113738
1612 1226.052069901244
1613 1226.198428639894
1614 1226.357334252592
1615 1226.53699247957
1616 1226.728846248486
1617 1226.938799587959
1618 1227.160156559638
1619 1227.397541788323
1620 1227.647966969759
1621 1227.910207937786
1622 1228.183607203249
1623 1228.447458184523
1624 1228.716391277819
1625 1228.98639176239
1626 1229.250868453694
1627 1229.504976366169
1628 1229.750688014621
1629 1229.987160685605
1630 1230.204607571479
1631 1230.405134053597
1632 1230.581327194424
1633 1230.726804133272
1634 1230.835573275033
1635 1230.913884023262
1636 1230.967184449757
1637 1230.983721379809
1638 1230.96806045522
1639 1230.907434045854
1640 1230.820710681115
1641 1230.690047607921
1642 1230.530833919645
1643 1230.331238827839
1644 1230.091090891006
1645 1229.821971491189
1646 1229.507906154024
1647 1229.167863163564
1648 1228.801073198368
1649 1228.40716425471
1650 1227.997106198102
1651 1227.561889657274
1652 1227.109978184778
1653 1226.643941283431
1654 1226.179724355635
1655 1225.712472520165
1656 1225.240355635682
1657 1224.776410290363
1658 1224.327314114249
1659 1223.884981502956
1660 1223.465402508358
1661 1223.063582137779
1662 1222.690321408593
1663 1222.351021806522
1664 1222.033010266864
1665 1221.75031071311
1666 1221.50165765718
1667 1221.286877842369
1668 1221.110644820687
1669 1220.97006498248
1670 1220.869631700501
1671 1220.806490238687
1672 1220.781662668978
1673 1220.788663099475
1674 1220.829240396952
1675 1220.906178979577
1676 1221.016227147297
1677 1221.15202460367
1678 1221.317903512724
1679 1221.502950464617
1680 1221.71054621093
1681 1221.942429379925
1682 1222.191531416618
1683 1222.451206675045
1684 1222.725500345521
1685 1223.006678381957
1686 1223.295540327226
1687 1223.588227341706
1688 1223.87874065679
1689 1224.160135400967
1690 1224.439260418001
1691 1224.703229298494
1692 1224.954372667934
1693 1225.186066386726
1694 1225.398631574088
1695 1225.589700094836
1696 1225.761278483267
1697 1225.907398087023
1698 1226.028302250619
1699 1226.12115936009
1700 1226.184567787218
1701 1226.223160311024
1702 1226.238441282267
1703 1226.23237185055
1704 1226.192472383538
1705 1226.124853496151
1706 1226.022800322922
1707 1225.899784190671
1708 1225.751200352086
1709 1225.584517123704
1710 1225.390050077385
1711 1225.175145740797
1712 1224.936297883228
1713 1224.676899477825
1714 1224.407534715364
1715 1224.12667598523
1716 1223.831220042417
1717 1223.526740689614
1718 1223.218804857668
1719 1222.904400995344
1720 1222.590330153182
1721 1222.268806145017
1722 1221.946370021947
1723 1221.621096121844
1724 1221.301685171945
1725 1220.98430134785
1726 1220.673477793014
1727 1220.364763877895
1728 1220.068043302641
1729 1219.780331518743
1730 1219.502305258362
1731 1219.232991035698
1732 1218.984693241704
1733 1218.749522815407
1734 1218.532075568212
1735 1218.331568127421
1736 1218.148453595415
1737 1217.986544491105
1738 1217.850208098303
1739 1217.731627806341
1740 1217.639739638826
1741 1217.573771758668
1742 1217.542227662735
1743 1217.536268180658
1744 1217.555551668346
1745 1217.603425955817
1746 1217.681301239815
1747 1217.783416892762
1748 1217.913584514256
1749 1218.075344663343
1750 1218.263884917192
1751 1218.475666817104
1752 1218.712697330869
1753 1218.970886364922
1754 1219.254125567744
1755 1219.551179915074
1756 1219.868520051844
1757 1220.198619140146
1758 1220.53761742875
1759 1220.887121939641
1760 1221.244773800932
1761 1221.606461171443
1762 1221.974149144784
1763 1222.341328000158
1764 1222.710725983224
1765 1223.073000204783
1766 1223.431075764614
1767 1223.784163028644
1768 1224.129800638457
1769 1224.464367685308
1770 1224.787619712451
1771 1225.100257780754
1772 1225.397934833438
1773 1225.681951171472
1774 1225.952383381158
1775 1226.207809010478
1776 1226.445975334272
1777 1226.67180270646
1778 1226.878997116223
1779 1227.074985195143
1780 1227.257897759197
1781 1227.426711373597
1782 1227.584299599631
1783 1227.730697850422
1784 1227.865508409522
1785 1227.992148810545
1786 1228.111058062586
1787 1228.221417745832
1788 1228.327264656179
1789 1228.42750736226
1790 1228.521159688956
1791 1228.614247455857
1792 1228.704026175443
1793 1228.793955886327
1794 1228.880408361779
1795 1228.967690370369
1796 1229.05474141898
1797 1229.141541829429
1798 1229.231257060623
1799 1229.322466793236
1800 1229.412388114351
1801 1229.500061035863
1802 1229.584319120593
1803 1229.668534112415
1804 1229.745188045576
1805 1229.817112267694
1806 1229.88655474087
1807 1229.954378737036
1808 1230.0157863057
1809 1230.070997539294
1810 1230.121098356
1811 1230.158525040839
1812 1230.18639862026
1813 1230.203965808438
1814 1230.206250505428
1815 1230.193855858465
1816 1230.167782394346
1817 1230.125562069787
1818 1230.068018027599
1819 1229.993578734417
1820 1229.901365628116
1821 1229.790076546204
1822 1229.666483340379
1823 1229.526752353455
1824 1229.368958455743
1825 1229.194168251492
1826 1229.001618327251
1827 1228.800284891867
1828 1228.582361266338
1829 1228.352582623252
1830 1228.110744915801
1831 1227.857172844392
1832 1227.593011162046
1833 1227.321892189595
1834 1227.046716270276
1835 1226.762187691746
1836 1226.477355938542
1837 1226.188682462701
1838 1225.901151546115
1839 1225.614335135423
1840 1225.329989517189
1841 1225.050477138084
1842 1224.778210435058
1843 1224.513991547295
1844 1224.258688413252
1845 1224.016004323692
1846 1223.787815308539
1847 1223.570083744428
1848 1223.365081328392
1849 1223.176922758427
1850 1223.006705099659
1851 1222.85191059006
1852 1222.712471169371
1853 1222.590825160428
1854 1222.488571738933
1855 1222.396530663319
1856 1222.320245579444
1857 1222.25476788138
1858 1222.203093317871
1859 1222.167046088334
1860 1222.137735820032
1861 1222.119089931564
1862 1222.106946886001
1863 1222.103710582397
1864 1222.102119447688
1865 1222.101550287076
1866 1222.10222589575
1867 1222.095392082377
1868 1222.088995318215
1869 1222.078591636245
1870 1222.060722851604
1871 1222.035626390706
1872 1221.997929912854
1873 1221.951385074632
1874 1221.89015755143
1875 1221.81300539277
1876 1221.720363586064
1877 1221.612257948287
1878 1221.483985826407
1879 1221.338211320299
1880 1221.175703191277
1881 1220.998720197885
1882 1220.803255208763
1883 1220.590326820402
1884 1220.363156174583
1885 1220.117843844409
1886 1219.859212255656
1887 1219.589682555116
1888 1219.311107194854
1889 1219.019490105814
1890 1218.722371643895
1891 1218.420962686191
1892 1218.115547269908
1893 1217.80565461717
1894 1217.495573866708
1895 1217.187760183976
1896 1216.880573525384
1897 1216.579199313945
1898 1216.288624198286
1899 1216.009811457979
1900 1215.744913708963
1901 1215.493939166814
1902 1215.254632999603
1903 1215.035067558061
1904 1214.834764922214
1905 1214.656198616454
1906 1214.497845853011
1907 1214.358345899267
1908 1214.243198112204
1909 1214.149514440272
1910 1214.080170896346
1911 1214.035777077338
1912 1214.011338789185
1913 1214.011565271983
1914 1214.030647080563
1915 1214.072297173073
1916 1214.135081732928
1917 1214.218293624708
1918 1214.321498037665
1919 1214.439065426709
1920 1214.577844567839
1921 1214.72699881962
1922 1214.892971560484
1923 1215.067746563281
1924 1215.253629216184
1925 1215.443112348886
1926 1215.640915772195
1927 1215.840877954014
1928 1216.040270123624
1929 1216.23605393501
1930 1216.429294807472
1931 1216.617183342787
1932 1216.799529059235
1933 1216.969155282506
1934 1217.12493441774
1935 1217.269650589199
1936 1217.403913840895
1937 1217.52274542907
1938 1217.626327926751
1939 1217.714556213965
1940 1217.787392667421
1941 1217.842529789372
1942 1217.880806878793
1943 1217.90376103225
1944 1217.908061561028
1945 1217.895176717331
1946 1217.863630419091
1947 1217.817739783209
1948 1217.759341354209
1949 1217.683865077098
1950 1217.598099638916
1951 1217.504737784917
1952 1217.405056705909
1953 1217.299946999403
1954 1217.191815827834
1955 1217.077484967813
1956 1216.965089871237
1957 1216.852606003564
1958 1216.743368057379
1959 1216.636186453833
1960 1216.531425131668
1961 1216.434388059481
1962 1216.343568821908
1963 1216.261684938363
1964 1216.189174166016
1965 1216.126688686328
1966 1216.076076442447
1967 1216.035479687551
1968 1216.006209070019
1969 1215.986159745067
1970 1215.975307444714
1971 1215.976152924795
1972 1215.989231363752
1973 1216.007988863647
1974 1216.035210834189
1975 1216.070633147971
1976 1216.112759035836
1977 1216.158788863338
1978 1216.20757733903
1979 1216.258309951377
1980 1216.309417539054
1981 1216.360216075913
1982 1216.409433570567
1983 1216.45486463288
1984 1216.494916185883
1985 1216.531232329411
1986 1216.558060693814
1987 1216.577859527662
1988 1216.588785228832
1989 1216.587144178862
1990 1216.575058709898
1991 1216.549521977785
1992 1216.514777261813
1993 1216.468696224303
1994 1216.403560651787
1995 1216.329829836058
1996 1216.241551551173
1997 1216.141731337696
1998 1216.028111567234
1999 1215.908253871344
2000 1215.775823196639
2001 1215.638565904973
2002 1215.493083866457
2003 1215.341459528035
2004 1215.189178271801
2005 1215.032334357887
2006 1214.8744755829
2007 1214.719042406955
2008 1214.566865640369
2009 1214.415671772275
2010 1214.268880824659
2011 1214.131959490618
2012 1214.00633868281
2013 1213.893002038185
2014 1213.794651325013
2015 1213.70986576587
2016 1213.644490364256
2017 1213.599706885863
2018 1213.581485484945
2019 1213.582122640267
2020 1213.606140175848
2021 1213.65512933996
2022 1213.728344671996
2023 1213.830368786854
2024 1213.958289060532
2025 1214.113859882414
2026 1214.295773346325
2027 1214.505842408296
2028 1214.743100979785
2029 1215.008419846208
2030 1215.301755588809
2031 1215.621643315098
2032 1215.961251743248
2033 1216.323268215152
2034 1216.706214238133
2035 1217.111621336416
2036 1217.53358358949
2037 1217.975021385417
2038 1218.430627294631
2039 1218.897063676867
2040 1219.373793688834
2041 1219.858263473286
2042 1220.34687198019
2043 1220.841448634053
2044 1221.3310008599
2045 1221.81617503348
2046 1222.299194167455
2047 1222.780858570231
2048 1223.251411802225
2049 1223.710370072417
2050 1224.158525584208
2051 1224.58346823181
2052 1224.991241391043
2053 1225.37713854883
2054 1225.740714105354
2055 1226.080078879586
2056 1226.395112380612
2057 1226.68767848466
2058 1226.95713322441
2059 1227.201813677115
2060 1227.41910548803
2061 1227.609944231582
2062 1227.777867587985
2063 1227.918207397865
2064 1228.034951091767
2065 1228.118982338631
2066 1228.179684045224
2067 1228.215520930088
2068 1228.229851147657
2069 1228.220301822699
2070 1228.188589862226
2071 1228.136378924832
2072 1228.07156377346
2073 1227.98951741779
2074 1227.894845621005
2075 1227.783508150182
2076 1227.664269324308
2077 1227.539383336949
2078 1227.414013402738
2079 1227.281144757681
2080 1227.147552169488
2081 1227.0185079694
2082 1226.887384698155
2083 1226.756855902637
2084 1226.632696469999
2085 1226.511168035702
2086 1226.401568849533
2087 1226.300532538115
2088 1226.206581180305
2089 1226.121764960908
2090 1226.049837131473
2091 1225.990454348147
2092 1225.944807511225
2093 1225.913143864853
2094 1225.896493327284
2095 1225.894175500988
2096 1225.90414594879
2097 1225.927302375113
2098 1225.965283736299
2099 1226.014662931308
2100 1226.070811288886
2101 1226.137217868277
2102 1226.21757013087
2103 1226.306229790575
2104 1226.40328429213
2105 1226.50598103239
2106 1226.614263217772
2107 1226.72168260995
2108 1226.831702366442
2109 1226.941050895593
2110 1227.047861352573
2111 1227.146934233384
2112 1227.24583818415
2113 1227.332489805314
2114 1227.410357511118
2115 1227.473191624082
2116 1227.521454443369
2117 1227.557713847971
2118 1227.580068756486
2119 1227.58252667083
2120 1227.572081424923
2121 1227.534489158914
2122 1227.48010203182
2123 1227.404511387331
2124 1227.306366397499
2125 1227.191392133455
2126 1227.054019410451
2127 1226.894497505087
2128 1226.71743423459
2129 1226.520965813361
2130 1226.307861067729
2131 1226.07849100526
2132 1225.838958815004
2133 1225.583558922619
2134 1225.317466170643
2135 1225.037298574965
2136 1224.755746210766
2137 1224.468747543347
2138 1224.180964807197
2139 1223.895401516349
2140 1223.613849175026
2141 1223.339353063243
2142 1223.07825534269
2143 1222.826711088551
2144 1222.591396881674
2145 1222.377243184197
2146 1222.176353872539
2147 1222.000140433591
2148 1221.844028160088
2149 1221.713998141731
2150 1221.619617555973
2151 1221.551609761444
2152 1221.505518427362
2153 1221.489268708176
2154 1221.506007810309
2155 1221.555353012571
2156 1221.637434549723
2157 1221.754070627677
2158 1221.89922138462
2159 1222.074099729173
2160 1222.274400459054
2161 1222.510891663175
2162 1222.773419983351
2163 1223.049595967721
2164 1223.352035213334
2165 1223.680384035848
2166 1224.026760184116
2167 1224.398660537851
2168 1224.77398959072
2169 1225.166436623054
2170 1225.560975227064
2171 1225.958799201722
2172 1226.356017700058
2173 1226.759673686418
2174 1227.145947734492
2175 1227.535422885888
2176 1227.905835216508
2177 1228.259191882415
2178 1228.593625749208
2179 1228.907750005425
2180 1229.191986146465
2181 1229.455801517442
2182 1229.691021926782
2183 1229.891533538398
2184 1230.061488683207
2185 1230.193864930107
2186 1230.292321613695
2187 1230.355189243956
2188 1230.382781892287
2189 1230.370511874583
2190 1230.322369999522
2191 1230.239697520229
2192 1230.12691049409
2193 1229.975877131826
2194 1229.796918595003
2195 1229.586716838309
2196 1229.346599630405
2197 1229.080584402518
2198 1228.792179632659
2199 1228.485215677049
2200 1228.164766839008
2201 1227.825675223841
2202 1227.480953424047
2203 1227.127369896624
2204 1226.770379371088
2205 1226.412669976627
2206 1226.055081861191
2207 1225.696789760443
2208 1225.345653485137
2209 1225.006945753419
2210 1224.683213912832
2211 1224.369825166241
2212 1224.074071114424
2213 1223.796196723955
2214 1223.535601151915
2215 1223.293653496306
2216 1223.067502062475
2217 1222.86681704268
2218 1222.68604674279
2219 1222.52803395052
2220 1222.392270870123
2221 1222.28132338665
2222 1222.186558070933
2223 1222.113720043609
2224 1222.062826644281
2225 1222.034755540181
2226 1222.027043988066
2227 1222.040642780691
2228 1222.074042897002
2229 1222.121979004007
2230 1222.185112189542
2231 1222.263798661391
2232 1222.355367145958
2233 1222.46153834069
2234 1222.576640254875
2235 1222.698567950421
2236 1222.829130245128
2237 1222.964613323055
2238 1223.102903718111
2239 1223.249183171643
2240 1223.396993139309
2241 1223.542281323685
2242 1223.685364344125
2243 1223.826793939508
2244 1223.968098052513
2245 1224.104501378949
2246 1224.238363379132
2247 1224.366970112392
2248 1224.49069256251
2249 1224.609959974589
2250 1224.724426348424
2251 1224.832799271349
2252 1224.934800996589
2253 1225.036410644751
2254 1225.134490866971
2255 1225.228392642863
2256 1225.32148074196
2257 1225.411309876234
2258 1225.498583995105
2259 1225.584351609804
2260 1225.670096716592
2261 1225.754418498306
2262 1225.836818523031
2263 1225.920307319846
2264 1226.003424651173
2265 1226.086832872934
2266 1226.171469595515
2267 1226.253122939183
2268 1226.339187663914
2269 1226.424302434132
2270 1226.512420447012
2271 1226.598178632875
2272 1226.683400561583
2273 1226.768352382436
2274 1226.852380418376
2275 1226.934184627827
2276 1227.011850970195
2277 1227.088022389983
2278 1227.164034817224
2279 1227.233810852514
2280 1227.296378239412
2281 1227.354206363108
2282 1227.407431783453
2283 1227.4560216269
2284 1227.49556124017
2285 1227.528794832658
2286 1227.551087162736
2287 1227.56599664748
2288 1227.574948244726
2289 1227.572056326256
2290 1227.561559564519
2291 1227.540404781914
2292 1227.5058153969
2293 1227.46340448251
2294 1227.411404847428
2295 1227.351297156735
2296 1227.280254804207
2297 1227.202150551954
2298 1227.115230592412
2299 1227.018980146006
2300 1226.914322623424
2301 1226.804670274632
2302 1226.687355679751
2303 1226.565592108927
2304 1226.437514292666
2305 1226.304254973589
2306 1226.163729001652
2307 1226.021513246354
2308 1225.879647066402
2309 1225.732491240939
2310 1225.584097040761
2311 1225.436325179938
2312 1225.286691070527
2313 1225.140107450994
2314 1224.993495917997
2315 1224.852408763557
2316 1224.716037788903
2317 1224.584361196391
2318 1224.457480821185
2319 1224.340889718803
2320 1224.236329553351
2321 1224.140329856323
2322 1224.05621433538
2323 1223.984764414932
2324 1223.929147277802
2325 1223.890483290586
2326 1223.865022162478
2327 1223.8603707192
2328 1223.8727924454
2329 1223.902558808408
2330 1223.949392149003
2331 1224.021744842678
2332 1224.114237395795
2333 1224.228560257026
2334 1224.363951570135
2335 1224.521989130911
2336 1224.69885200513
2337 1224.901994419348
2338 1225.125336336192
2339 1225.364467144194
2340 1225.626069420405
2341 1225.906878838232
2342 1226.202006910348
2343 1226.513411371609
2344 1226.839775187084
2345 1227.182820256463
2346 1227.532401015053
2347 1227.891973513051
2348 1228.254958402086
2349 1228.618585674103
2350 1228.98384986122
2351 1229.351361137741
2352 1229.709263612909
2353 1230.060903275681
2354 1230.402825137576
2355 1230.733093168336
2356 1231.055951014017
2357 1231.367833441495
2358 1231.664313059016
2359 1231.934866739823
2360 1232.183898306132
2361 1232.407770025415
2362 1232.604330985823
2363 1232.776729039473
2364 1232.925544804375
2365 1233.046398410337
2366 1233.143186589948
2367 1233.210125900467
2368 1233.250063418697
2369 1233.2659956656
2370 1233.254901942254
2371 1233.214085447322
2372 1233.158902867362
2373 1233.080807025081
2374 1232.981190900339
2375 1232.861175970941
2376 1232.720231079295
2377 1232.55846970837
2378 1232.39382138332
2379 1232.208096852542
2380 1232.014464556427
2381 1231.81713123432
2382 1231.614286422216
2383 1231.406996473914
2384 1231.198756744627
2385 1230.992348953527
2386 1230.786117966364
2387 1230.581442014381
2388 1230.376539107101
2389 1230.179212088741
2390 1229.986076085182
2391 1229.800818871676
2392 1229.625421676068
2393 1229.454857018575
2394 1229.295182878483
2395 1229.143078082929
2396 1229.00118281077
2397 1228.866564212241
2398 1228.742527421198
2399 1228.624203606738
2400 1228.513457734938
2401 1228.410672944512
2402 1228.317925076374
2403 1228.230734289686
2404 1228.151151982473
2405 1228.079677514119
2406 1228.014352223409
2407 1227.959968814587
2408 1227.910903966507
2409 1227.865474722648
2410 1227.827351168089
2411 1227.794892085867
2412 1227.770450629696
2413 1227.75081042558
2414 1227.730990236845
2415 1227.717571359489
2416 1227.710575463533
2417 1227.706323702935
2418 1227.703676128471
2419 1227.704031207365
2420 1227.708984449199
2421 1227.717299974056
2422 1227.734069570606
2423 1227.751479692808
2424 1227.774568637666
2425 1227.801400461299
2426 1227.832204645198
2427 1227.870337917709
2428 1227.908393880221
2429 1227.951904306272
2430 1227.998197716818
2431 1228.048078193852
2432 1228.098176347074
2433 1228.150828691966
2434 1228.20653416138
2435 1228.264833107264
2436 1228.323303075104
2437 1228.382617628367
2438 1228.443756253787
2439 1228.507634066833
2440 1228.569733940005
2441 1228.631219775006
2442 1228.687388739088
2443 1228.73915553851
2444 1228.785561745741
2445 1228.82607063042
2446 1228.860234630327
2447 1228.889723238492
2448 1228.913182938573
2449 1228.929629842113
2450 1228.935311639121
2451 1228.934697918475
2452 1228.924039224986
2453 1228.905887997865
2454 1228.876849953688
2455 1228.836272588889
2456 1228.787992746715
2457 1228.729585660742
2458 1228.656979153076
2459 1228.578671158628
2460 1228.488354954408
2461 1228.391254099746
2462 1228.289425971099
2463 1228.184586198249
2464 1228.070481150893
2465 1227.957756964492
2466 1227.837489048233
2467 1227.720680298747
2468 1227.599664928497
2469 1227.483670199335
2470 1227.369913047318
2471 1227.261084162862
2472 1227.157853583554
2473 1227.06087060195
2474 1226.967517437309
2475 1226.884389214155
2476 1226.812579354923
2477 1226.751983729335
2478 1226.707678658177
2479 1226.677098681279
2480 1226.662766210761
2481 1226.66155742435
2482 1226.680717475973
2483 1226.714075231296
2484 1226.770837630549
2485 1226.84525380654
2486 1226.936281470937
2487 1227.043994605551
2488 1227.173963975749
2489 1227.320125730342
2490 1227.484477682209
2491 1227.667009214974
2492 1227.861575702258
2493 1228.072832309573
2494 1228.304148048068
2495 1228.548067874817
2496 1228.806843716308
2497 1229.073467783682
2498 1229.351921739658
2499 1229.638986456068
2500 1229.935418634111
2501 1230.235798504858
2502 1230.541384288406
2503 1230.841178709514
2504 1231.140480593824
2505 1231.44268719508
2506 1231.739305242175
2507 1232.028504527874
2508 1232.31115130962
2509 1232.581637621145
2510 1232.838418271682
2511 1233.081441041719
2512 1233.309226344424
2513 1233.520807896828
2514 1233.714453281623
2515 1233.888155614542
2516 1234.039691468568
2517 1234.169741614278
2518 1234.274891044648
2519 1234.36083377615
2520 1234.428695204927
2521 1234.47321471411
2522 1234.495428502653
2523 1234.49802144273
2524 1234.478941708534
2525 1234.443790415555
2526 1234.392547670453
2527 1234.323403898088
2528 1234.241644334204
2529 1234.143963779442
2530 1234.036807782191
2531 1233.919511936413
2532 1233.790970051455
2533 1233.655743489478
2534 1233.517128290947
2535 1233.374305580014
2536 1233.229502310251
2537 1233.085524870639
2538 1232.944090913237
2539 1232.800460687497
2540 1232.662296958371
2541 1232.528291650887
2542 1232.401618596469
2543 1232.281290542171
2544 1232.168672818588
2545 1232.059513372671
2546 1231.958528237
2547 1231.865127836117
2548 1231.780367682921
2549 1231.702123804976
2550 1231.632315600995
2551 1231.574347568658
2552 1231.526018924654
2553 1231.484658604693
2554 1231.454775887222
2555 1231.427774731033
2556 1231.406764054896
2557 1231.392656772138
2558 1231.386437857245
2559 1231.38906112126
2560 1231.394240891308
2561 1231.402732772633
2562 1231.41763780577
2563 1231.435837916592
2564 1231.45501735662
2565 1231.472275085961
2566 1231.489349597396
2567 1231.512044809829
2568 1231.530860817296
2569 1231.545092090992
2570 1231.55438852487
2571 1231.559058449804
2572 1231.554903980083
2573 1231.545270260464
2574 1231.525764463788
2575 1231.49647136868
2576 1231.458278092097
2577 1231.411211912306
2578 1231.352198623373
2579 1231.282245321349
2580 1231.200006716224
2581 1231.107813258363
2582 1231.005298976975
2583 1230.888845465266
2584 1230.75975288486
2585 1230.61918572181
2586 1230.470080729879
2587 1230.305331793468
2588 1230.13178353788
2589 1229.946336029585
2590 1229.75317959364
2591 1229.55224490877
2592 1229.340398571464
2593 1229.120794027994
2594 1228.897026113194
2595 1228.668020656427
2596 1228.435390428789
2597 1228.196943597728
2598 1227.95661295085
2599 1227.723031077963
2600 1227.488435121404
2601 1227.254609775305
2602 1227.022277138949
2603 1226.791374018026
2604 1226.570679164472
2605 1226.356649961049
2606 1226.151731522429
2607 1225.960204851169
2608 1225.777653969885
2609 1225.607219775723
2610 1225.453231803763
2611 1225.311676506227
2612 1225.183583053102
2613 1225.073143020452
2614 1224.977759651282
2615 1224.896562416996
2616 1224.83103543182
2617 1224.785160870866
2618 1224.757149796392
2619 1224.750320880703
2620 1224.761290747943
2621 1224.793950672434
2622 1224.84359751131
2623 1224.913721704389
2624 1225.002044743625
2625 1225.111844944669
2626 1225.239994958982
2627 1225.386548690246
2628 1225.550263012016
2629 1225.731751474104
2630 1225.928583963464
2631 1226.14476564297
2632 1226.374254868583
2633 1226.614993236122
2634 1226.868598744021
2635 1227.133844908084
2636 1227.40843724478
2637 1227.688753209335
2638 1227.977321706012
2639 1228.265929280172
2640 1228.555179805299
2641 1228.849180269744
2642 1229.139412826111
2643 1229.424161478109
2644 1229.704011236484
2645 1229.972780990509
2646 1230.223633257327
2647 1230.462173121232
2648 1230.685435244098
2649 1230.890153198121
2650 1231.07662536053
2651 1231.240311742551
2652 1231.391369323753
2653 1231.519485833054
2654 1231.623361384088
2655 1231.701824232941
2656 1231.757770455063
2657 1231.786026882293
2658 1231.793936142946
2659 1231.77350593044
2660 1231.727847266195
2661 1231.663684336811
2662 1231.574263039809
2663 1231.462322434754
2664 1231.337724464239
2665 1231.195101766208
2666 1231.030980390249
2667 1230.854656605088
2668 1230.667562441351
2669 1230.46777880445
2670 1230.261516620565
2671 1230.047885559621
2672 1229.827031788853
2673 1229.606334035435
2674 1229.385327476915
2675 1229.163905279656
2676 1228.951056185795
2677 1228.740443979935
2678 1228.539695879376
2679 1228.346602170813
2680 1228.164572164416
2681 1227.993193838537
2682 1227.834185298558
2683 1227.690268663807
2684 1227.558018071428
2685 1227.440640797957
2686 1227.336658247959
2687 1227.248126233936
2688 1227.174478778976
2689 1227.115524682491
2690 1227.073078568672
2691 1227.042748119038
2692 1227.023986876386
2693 1227.02015941912
2694 1227.028489963165
2695 1227.050228383565
2696 1227.078848916289
2697 1227.121618546042
2698 1227.170622110626
2699 1227.229794605609
2700 1227.296846110426
2701 1227.368980502286
2702 1227.447865545495
2703 1227.532245924061
2704 1227.621654659148
2705 1227.717301272682
2706 1227.818700172584
2707 1227.925433927106
2708 1228.032618885139
2709 1228.143266099405
2710 1228.254726844192
2711 1228.367096845176
2712 1228.482432763105
2713 1228.597485448949
2714 1228.713402573156
2715 1228.829254773691
2716 1228.944498891924
2717 1229.057636309974
2718 1229.170534592684
2719 1229.282916769273
2720 1229.394684780086
2721 1229.504541823608
2722 1229.611885765221
2723 1229.716234005202
2724 1229.821024459775
2725 1229.923776879237
2726 1230.025536278158
2727 1230.127003371574
2728 1230.22539937941
2729 1230.318004958036
2730 1230.409575602088
2731 1230.495243764532
2732 1230.581094916792
2733 1230.662807904231
2734 1230.737261560987
2735 1230.807958883818
2736 1230.873907826659
2737 1230.933330287831
2738 1230.992829235006
2739 1231.044484689435
2740 1231.090712894344
2741 1231.131551981669
2742 1231.164753923787
2743 1231.192867498926
2744 1231.215034158545
2745 1231.236411566457
2746 1231.248032926728
2747 1231.257262828513
2748 1231.259006101856
2749 1231.257706065719
2750 1231.252976108469
2751 1231.244359140238
2752 1231.231077267993
2753 1231.215606214726
2754 1231.201453780417
2755 1231.189361235487
2756 1231.177285319174
2757 1231.166597851372
2758 1231.161603668602
2759 1231.159263875677
2760 1231.160900324656
2761 1231.167958866022
2762 1231.184789752533
2763 1231.210485238373
2764 1231.250513659403
2765 1231.296638569917
2766 1231.357925390552
2767 1231.43105081086
2768 1231.513979682639
2769 1231.612009755522
2770 1231.726029234103
2771 1231.851473554032
2772 1231.995019607974
2773 1232.15260425394
2774 1232.329763889777
2775 1232.524034300886
2776 1232.725038526357
2777 1232.943150575228
2778 1233.176213337407
2779 1233.422634193945
2780 1233.679844245907
2781 1233.952592530622
2782 1234.233325663567
2783 1234.522333954032
2784 1234.818168946369
2785 1235.119391480246
2786 1235.426129781744
2787 1235.727642068799
2788 1236.023838230486
2789 1236.318451714745
2790 1236.605894809499
2791 1236.887931359991
2792 1237.165401925964
2793 1237.43065513315
2794 1237.681093412257
2795 1237.914110824308
2796 1238.128438284164
2797 1238.322292498826
2798 1238.494037032852
2799 1238.646490943352
2800 1238.771630306013
2801 1238.871733443288
2802 1238.946123388037
2803 1238.996715789481
2804 1239.017945682174
2805 1239.009947680294
2806 1238.97955037332
2807 1238.922673558686
2808 1238.840666126524
2809 1238.730938835843
2810 1238.598333366488
2811 1238.43920581202
2812 1238.258120156594
2813 1238.06287189258
2814 1237.846760369151
2815 1237.619109643164
2816 1237.383368963338
2817 1237.130805419678
2818 1236.870444781572
2819 1236.602421523861
2820 1236.326013484832
2821 1236.046155700645
2822 1235.766898948339
2823 1235.484068960426
2824 1235.197887041517
2825 1234.916068077347
2826 1234.635416038214
2827 1234.359875530184
2828 1234.094131538044
2829 1233.838758522273
2830 1233.589879382846
2831 1233.351349832239
2832 1233.12608342635
2833 1232.914390967451
2834 1232.717784834731
2835 1232.537484069199
2836 1232.369771240058
2837 1232.217096912797
2838 1232.080037843512
2839 1231.959431991909
2840 1231.856969089971
2841 1231.770353668676
2842 1231.700891781724
2843 1231.647631162287
2844 1231.616058286508
2845 1231.596509766375
2846 1231.59876941879
2847 1231.621579536463
2848 1231.661509637388
2849 1231.717365837806
2850 1231.789896331014
2851 1231.872422693717
2852 1231.973799487286
2853 1232.094130781925
2854 1232.22150563028
2855 1232.367188130828
2856 1232.521623991184
2857 1232.685010252222
2858 1232.862105249456
2859 1233.04665674679
2860 1233.240423925615
2861 1233.437782753512
2862 1233.641921734272
2863 1233.843888797789
2864 1234.057691396418
2865 1234.266752634266
2866 1234.477462871592
2867 1234.680082828726
2868 1234.878562608583
2869 1235.066592664544
2870 1235.250038384625
2871 1235.422761283648
2872 1235.586449526088
2873 1235.739817079618
2874 1235.879014961034
2875 1236.002751137573
2876 1236.105111408812
2877 1236.191925138433
2878 1236.259385419172
2879 1236.303577639611
2880 1236.333136150188
2881 1236.338489605344
2882 1236.321439165232
2883 1236.281249097668
2884 1236.2148169287
2885 1236.124496066715
2886 1236.009467315971
2887 1235.867442976487
2888 1235.705219256646
2889 1235.515634753433
2890 1235.307106921963
2891 1235.075809788736
2892 1234.822836898735
2893 1234.552762960463
2894 1234.261223587069
2895 1233.953391732844
2896 1233.63286512253
2897 1233.297919934181
2898 1232.956038118534
2899 1232.601273929379
2900 1232.239404852937
2901 1231.869388190243
2902 1231.498948541779
2903 1231.123280175061
2904 1230.750098171232
2905 1230.378262700097
2906 1230.008803881107
2907 1229.645174401921
2908 1229.292483629754
2909 1228.953158480688
2910 1228.623556021114
2911 1228.301699491596
2912 1227.998027026948
2913 1227.714248055482
2914 1227.44501232959
2915 1227.194675931456
2916 1226.964264272318
2917 1226.753166163979
2918 1226.566454223885
2919 1226.404098203876
2920 1226.259624533024
2921 1226.14063481854
2922 1226.046225179372
2923 1225.977185325967
2924 1225.928646068211
2925 1225.905043728819
2926 1225.90864726183
2927 1225.932389660149
2928 1225.981961920266
2929 1226.048757995167
2930 1226.135153628615
2931 1226.239236115046
2932 1226.362613342606
2933 1226.500330623292
2934 1226.651387430876
2935 1226.814372104863
2936 1226.985507355975
2937 1227.166159485169
2938 1227.356936233562
2939 1227.550095234165
2940 1227.741294660312
2941 1227.93868764675
2942 1228.129580612987
2943 1228.317872755453
2944 1228.495741201164
2945 1228.669261787826
2946 1228.837663123257
2947 1228.998620772323
2948 1229.146332225027
2949 1229.28188813008
2950 1229.406631990818
2951 1229.520117973959
2952 1229.618574605915
2953 1229.709279221579
2954 1229.784355715771
2955 1229.844955186526
2956 1229.895201546986
2957 1229.935700783496
2958 1229.967500502893
2959 1229.990273792198
2960 1230.005431036565
2961 1230.013562908669
2962 1230.018673679921
2963 1230.016907040999
2964 1230.015845935324
2965 1230.022338481879
2966 1230.030164121161
2967 1230.03710781244
2968 1230.048442955469
2969 1230.065925633135
2970 1230.092752135776
2971 1230.12882050743
2972 1230.175149566901
2973 1230.233883096179
2974 1230.299012667536
2975 1230.38287773286
2976 1230.475132927208
2977 1230.580999297138
2978 1230.696217421329
2979 1230.823615095514
2980 1230.96171822938
2981 1231.10584568284
2982 1231.260602746895
2983 1231.421694387248
2984 1231.587976045518
2985 1231.758515844917
2986 1231.929839717319
2987 1232.103605030288
2988 1232.280318794147
2989 1232.449096983108
2990 1232.619682473342
2991 1232.779077580669
2992 1232.932556426586
2993 1233.076254547736
2994 1233.209078112723
2995 1233.322571497242
2996 1233.422518632595
2997 1233.498622274147
2998 1233.556556437067
2999 1233.593475254207
3000 1233.608742991308
3001 1233.601665559564
3002 1233.570113951418
3003 1233.513560878791
3004 1233.425474714357
3005 1233.309894990001
3006 1233.174370515126
3007 1233.007945340938
3008 1232.810895596196
3009 1232.590528996562
3010 1232.342813034998
3011 1232.076528071274
3012 1231.790876531195
3013 1231.483277017848
3014 1231.15995962702
3015 1230.816755920503
3016 1230.457888280333
3017 1230.090479932511
3018 1229.71243033168
3019 1229.326630324407
3020 1228.929794939467
3021 1228.535856820089
3022 1228.137252427995
3023 1227.742112840304
3024 1227.349819160057
3025 1226.967796464561
3026 1226.592462224311
3027 1226.22284477408
3028 1225.867942171287
3029 1225.521479812881
3030 1225.195103070681
3031 1224.887336441071
3032 1224.595372524186
3033 1224.328245063915
3034 1224.082115800323
3035 1223.860623513569
3036 1223.665987165022
3037 1223.49712536654
3038 1223.349069763812
3039 1223.227221478079
3040 1223.133724464744
3041 1223.066697452893
3042 1223.028427607872
3043 1223.013911743403
3044 1223.02973557249
3045 1223.070170268817
3046 1223.137858041378
3047 1223.231133001628
3048 1223.352691849054
3049 1223.497208638551
3050 1223.666900289652
3051 1223.856897733976
3052 1224.067574221993
3053 1224.302596393429
3054 1224.561394048517
3055 1224.841310032922
3056 1225.136396832697
3057 1225.452400937793
3058 1225.785262099622
3059 1226.132208132872
3060 1226.493668827989
3061 1226.866020051167
3062 1227.254724888831
3063 1227.647905502781
3064 1228.049891131156
3065 1228.459631264632
3066 1228.873981492879
3067 1229.297047234372
3068 1229.721219235653
3069 1230.146810384238
3070 1230.571151714514
3071 1230.99532141687
3072 1231.411574615488
3073 1231.823100337939
3074 1232.231560199168
3075 1232.629188315934
3076 1233.010681206486
3077 1233.382724352744
3078 1233.735270727478
3079 1234.077775430923
3080 1234.40575637344
3081 1234.712851211265
3082 1234.99826790108
3083 1235.26275453201
3084 1235.50644729477
3085 1235.726074705503
3086 1235.924883464892
3087 1236.103736751932
3088 1236.259647026626
3089 1236.389933280013
3090 1236.496096993056
3091 1236.578678512269
3092 1236.636789112751
3093 1236.672440335482
3094 1236.682555574754
3095 1236.676161507794
3096 1236.641960964025
3097 1236.588512479698
3098 1236.514467775775
3099 1236.427790243092
3100 1236.321925883267
3101 1236.194554058838
3102 1236.058992374868
3103 1235.908559935258
3104 1235.745256956906
3105 1235.573244902302
3106 1235.392698513596
3107 1235.200287777228
3108 1235.004187579775
3109 1234.800320504447
3110 1234.59177896163
3111 1234.378301774792
3112 1234.163241058234
3113 1233.939783192623
3114 1233.718009653531
3115 1233.500284923513
3116 1233.285963909916
3117 1233.07342888508
3118 1232.863563055728
3119 1232.663599211314
3120 1232.466993121769
3121 1232.269831059658
3122 1232.079604864446
3123 1231.898337193958
3124 1231.725175413855
3125 1231.555043005988
3126 1231.39012793931
3127 1231.23724731892
3128 1231.095911946282
3129 1230.962636231957
3130 1230.843066268659
3131 1230.734312549769
3132 1230.6347364812
3133 1230.546678991942
3134 1230.467378906252
3135 1230.39509981977
3136 1230.336706031589
3137 1230.289821170295
3138 1230.257249909511
3139 1230.235904208489
3140 1230.223447722083
3141 1230.219921454197
3142 1230.228751323868
3143 1230.243205968876
3144 1230.273744775255
3145 1230.313441297693
3146 1230.364118431562
3147 1230.424514257274
3148 1230.489239178302
3149 1230.561933451419
3150 1230.640421706777
3151 1230.728244477968
3152 1230.819047331004
3153 1230.916120990502
3154 1231.015213127448
3155 1231.116381816143
3156 1231.219426388261
3157 1231.320256472342
3158 1231.419144432352
3159 1231.514669580671
3160 1231.603911307153
3161 1231.692848782754
3162 1231.774716601981
3163 1231.847889860765
3164 1231.913792726595
3165 1231.97573821638
3166 1232.023635455165
3167 1232.062648599831
3168 1232.091018368713
3169 1232.10919617625
3170 1232.115327601358
3171 1232.103348526551
3172 1232.0753241506
3173 1232.033482032925
3174 1231.977418077548
3175 1231.911567531102
3176 1231.831176620347
3177 1231.7405120188
3178 1231.634137717475
3179 1231.513449857112
3180 1231.385374967452
3181 1231.244413894603
3182 1231.100423926249
3183 1230.944465784817
3184 1230.781794353004
3185 1230.61927896874
3186 1230.458502138063
3187 1230.296457810381
3188 1230.128743952003
3189 1229.965096602418
3190 1229.802743428091
3191 1229.650068257673
3192 1229.506240193042
3193 1229.371592387342
3194 1229.245112058069
3195 1229.132693144121
3196 1229.035529325468
3197 1228.958417910907
3198 1228.899019298925
3199 1228.853653021736
3200 1228.82863524039
3201 1228.824610778028
3202 1228.842158078685
3203 1228.882246120799
3204 1228.938912106662
3205 1229.018784473435
3206 1229.11633008656
3207 1229.238393547934
3208 1229.378507236204
3209 1229.542825346141
3210 1229.723023346397
3211 1229.926144046524
3212 1230.140485947179
3213 1230.376695022721
3214 1230.623553384928
3215 1230.886411999524
3216 1231.163989719585
3217 1231.450525713392
3218 1231.744422174219
3219 1232.046466779421
3220 1232.351213833888
3221 1232.65689016295
3222 1232.962957807802
3223 1233.262205279962
3224 1233.556456373509
3225 1233.841917812329
3226 1234.116734462815
3227 1234.378660614264
3228 1234.626917057065
3229 1234.864838422842
3230 1235.086580278878
3231 1235.288188370339
3232 1235.468254822611
3233 1235.62525248452
3234 1235.759902597701
3235 1235.875379073947
3236 1235.962794876578
3237 1236.018380493859
3238 1236.054891637119
3239 1236.066141944276
3240 1236.055612635982
3241 1236.018398025632
3242 1235.956289634424
3243 1235.873873180717
3244 1235.769710011455
3245 1235.642335591971
3246 1235.496073456686
3247 1235.333008176145
3248 1235.156159775118
3249 1234.964274476697
3250 1234.759228612362
3251 1234.542675781222
3252 1234.315207542375
3253 1234.08367622179
3254 1233.848339377329
3255 1233.606302885524
3256 1233.364195941093
3257 1233.121162563032
3258 1232.885277305666
3259 1232.656080597564
3260 1232.429992913919
3261 1232.212173671316
3262 1232.005337441675
3263 1231.808905615816
3264 1231.623164159778
3265 1231.451325619041
3266 1231.285540985102
3267 1231.131927088178
3268 1230.993371310019
3269 1230.866700541219
3270 1230.755036947774
3271 1230.659925123415
3272 1230.583215271956
3273 1230.516860780704
3274 1230.464454959429
3275 1230.43031530379
3276 1230.410938837997
3277 1230.410478129191
3278 1230.426646950446
3279 1230.457824987338
3280 1230.501891741378
3281 1230.556597855681
3282 1230.626710225653
3283 1230.704344555281
3284 1230.799205834662
3285 1230.902010887258
3286 1231.014542876426
3287 1231.13530459353
3288 1231.269039571423
3289 1231.403466237129
3290 1231.546686178538
3291 1231.693496923216
3292 1231.839357449657
3293 1231.985690755467
3294 1232.135238785145
3295 1232.279565613476
3296 1232.424214766063
3297 1232.566938084211
3298 1232.707454288859
3299 1232.839082120841
3300 1232.957038738091
3301 1233.071257387199
3302 1233.177063698004
3303 1233.266936189904
3304 1233.344248640288
3305 1233.409907200193
3306 1233.46267928633
3307 1233.50111399404
3308 1233.526399069063
3309 1233.535969147167
3310 1233.524889189332
3311 1233.498090870214
3312 1233.454824148072
3313 1233.394199611311
3314 1233.318353825317
3315 1233.225126940736
3316 1233.111837762021
3317 1232.986062816723
3318 1232.844228572643
3319 1232.685256400496
3320 1232.513437757693
3321 1232.325846959206
3322 1232.123078452365
3323 1231.906822572384
3324 1231.681320714031
3325 1231.444885445623
3326 1231.202928192603
3327 1230.951395266622
3328 1230.696727082468
3329 1230.437267462459
3330 1230.174929194887
3331 1229.912743522577
3332 1229.647949367067
3333 1229.381719410358
3334 1229.124334211402
3335 1228.867077587144
3336 1228.613402762822
3337 1228.37222013829
3338 1228.140218673392
3339 1227.915518168995
3340 1227.703484154151
3341 1227.50549643869
3342 1227.316092748134
3343 1227.143552490458
3344 1226.988732585623
3345 1226.85196749049
3346 1226.729503693622
3347 1226.628933393406
3348 1226.549232881804
3349 1226.48884769963
3350 1226.451840978214
3351 1226.436492534237
3352 1226.439377830785
3353 1226.464512460296
3354 1226.511506442602
3355 1226.577526557267
3356 1226.662493762361
3357 1226.771512520127
3358 1226.898303634802
3359 1227.045716668815
3360 1227.209908473119
3361 1227.390631232523
3362 1227.588924602171
3363 1227.80104303799
3364 1228.027216249802
3365 1228.262764544879
3366 1228.504763088095
3367 1228.752568470362
3368 1229.003922721048
3369 1229.255575786
3370 1229.50887277496
3371 1229.761597284387
3372 1230.015388724548
3373 1230.261129987659
3374 1230.495269733107
3375 1230.720305671972
3376 1230.938197009438
3377 1231.141905630077
3378 1231.327853630376
3379 1231.500394732428
3380 1231.651346262317
3381 1231.780524983342
3382 1231.888814401035
3383 1231.980123006739
3384 1232.045679153409
3385 1232.088195872459
3386 1232.109290924131
3387 1232.106534696149
3388 1232.088304431325
3389 1232.047591834549
3390 1231.988977287851
3391 1231.907096361125
3392 1231.808891513479
3393 1231.700988193026
3394 1231.577064949603
3395 1231.443344847023
3396 1231.298048217635
3397 1231.141249850918
3398 1230.981680229259
3399 1230.822083928386
3400 1230.659353431607
3401 1230.491412918743
3402 1230.326600496107
3403 1230.163718656912
3404 1230.004441687472
3405 1229.856223423531
3406 1229.718812487206
3407 1229.593158441135
3408 1229.48492121966
3409 1229.389280307934
3410 1229.309384602661
3411 1229.243574938552
3412 1229.197686787399
3413 1229.168087190822
3414 1229.155145653179
3415 1229.158773170777
3416 1229.180759611631
3417 1229.218233709696
3418 1229.272441977972
3419 1229.343643722309
3420 1229.430706146931
3421 1229.538172260274
3422 1229.652301662989
3423 1229.779036915669
3424 1229.912195150679
3425 1230.057996226068
3426 1230.213013209752
3427 1230.372955547388
3428 1230.535711122282
3429 1230.699320318112
3430 1230.863388653348
3431 1231.024880677188
3432 1231.184446819557
3433 1231.339055544059
3434 1231.490012097291
3435 1231.631791319144
3436 1231.759723339399
3437 1231.880718430274
3438 1231.989767922843
3439 1232.080363315511
3440 1232.157643571587
3441 1232.219950834616
3442 1232.268890985357
3443 1232.292982195401
3444 1232.301333081469
3445 1232.289322544729
3446 1232.257798681752
3447 1232.207257048741
3448 1232.137348253973
3449 1232.046982756148
3450 1231.940212459019
3451 1231.817143378928
3452 1231.674420527437
3453 1231.516684999903
3454 1231.339701542192
3455 1231.146812731757
3456 1230.942488620182
3457 1230.726366532447
3458 1230.499350660107
3459 1230.264192318278
3460 1230.016575389143
3461 1229.764305475467
3462 1229.506346365405
3463 1229.242814299259
3464 1228.97825051394
3465 1228.711632484868
3466 1228.448253737809
3467 1228.185850557202
3468 1227.926741120214
3469 1227.671014254409
3470 1227.422491963431
3471 1227.181033647876
3472 1226.945812114838
3473 1226.722738667338
3474 1226.510124816712
3475 1226.314970487884
3476 1226.130186395705
3477 1225.958035411044
3478 1225.800813634906
3479 1225.657509131843
3480 1225.534175619413
3481 1225.43036369645
3482 1225.342925766936
3483 1225.274016503923
3484 1225.222043960143
3485 1225.192471202439
3486 1225.179396556795
3487 1225.185921092795
3488 1225.213236827532
3489 1225.261853770326
3490 1225.328331215374
3491 1225.418320758304
3492 1225.530186487744
3493 1225.659144075483
3494 1225.806301649032
3495 1225.970916098936
3496 1226.156548468318
3497 1226.35682879454
3498 1226.577727025055
3499 1226.811354254287
3500 1227.064438508491
3501 1227.328408688797
3502 1227.599720473613
3503 1227.889222374184
3504 1228.189559743871
3505 1228.50293891826
3506 1228.827281413408
3507 1229.15728497256
3508 1229.497315490834
3509 1229.837705554168
3510 1230.17510498006
3511 1230.515812718868
3512 1230.858920580418
3513 1231.193422157114
3514 1231.52266789022
3515 1231.847498857801
3516 1232.160446192398
3517 1232.469581698132
3518 1232.761473216821
3519 1233.042426418738
3520 1233.313718050072
3521 1233.568715459581
3522 1233.813143245788
3523 1234.04506991814
3524 1234.254693702091
3525 1234.447875104894
3526 1234.619069862136
3527 1234.768274670007
3528 1234.898053982879
3529 1235.00512663931
3530 1235.087774050156
3531 1235.151303482035
3532 1235.193655597621
3533 1235.214910363424
3534 1235.21456139717
3535 1235.192666512938
3536 1235.153916161567
3537 1235.092944248763
3538 1235.021680282098
3539 1234.925974961736
3540 1234.811904079888
3541 1234.691619981453
3542 1234.556217625775
3543 1234.40535165963
3544 1234.242968434457
3545 1234.071051231371
3546 1233.895105825095
3547 1233.708970289893
3548 1233.515304153988
3549 1233.318681669411
3550 1233.112285566319
3551 1232.908344704221
3552 1232.699318705659
3553 1232.494805784632
3554 1232.286125778451
3555 1232.079573450104
3556 1231.874318489753
3557 1231.671495155887
3558 1231.47600803534
3559 1231.287993569453
3560 1231.10426816218
3561 1230.928887923051
3562 1230.758168318381
3563 1230.597289577011
3564 1230.449517155568
3565 1230.311581154649
3566 1230.183475974696
3567 1230.063409606409
3568 1229.956235571787
3569 1229.863112384093
3570 1229.784364433099
3571 1229.718167944339
3572 1229.666290279851
3573 1229.628455174159
3574 1229.606687928379
3575 1229.598338264951
3576 1229.59842866173
3577 1229.613594863723
3578 1229.642945682708
3579 1229.68604659721
3580 1229.741214494748
3581 1229.804524118479
3582 1229.875464426118
3583 1229.959088398131
3584 1230.053345346828
3585 1230.154099747492
3586 1230.260580259682
3587 1230.374339032133
3588 1230.490573331592
3589 1230.610595955445
3590 1230.733536100955
3591 1230.857617211907
3592 1230.977452808464
3593 1231.094039221069
3594 1231.205526077728
3595 1231.311555571303
3596 1231.408661189852
3597 1231.499279474937
3598 1231.579141860751
3599 1231.641906514001
3600 1231.695239049527
3601 1231.732414775821
3602 1231.76068182491
3603 1231.771998388446
3604 1231.760288169767
3605 1231.729455181103
3606 1231.684536005724
3607 1231.621154883046
3608 1231.53927365626
3609 1231.434905531304
3610 1231.313749542336
3611 1231.175413806548
3612 1231.013232290086
3613 1230.837282259725
3614 1230.644427515785
3615 1230.433496688661
3616 1230.206087027204
3617 1229.966089335378
3618 1229.717053926297
3619 1229.456394007881
3620 1229.186641527728
3621 1228.914606351269
3622 1228.632960884491
3623 1228.353203354889
3624 1228.070553803572
3625 1227.787214478651
3626 1227.506482583142
3627 1227.228707247202
3628 1226.959079036179
3629 1226.696494929238
3630 1226.442206124266
3631 1226.202882120755
3632 1225.985349459538
3633 1225.782368508874
3634 1225.595126400746
3635 1225.425465448501
3636 1225.273920930503
3637 1225.143374983124
3638 1225.040505372082
3639 1224.957499070513
3640 1224.903242671529
3641 1224.872842893702
3642 1224.870374612073
3643 1224.893090289378
3644 1224.944612151072
3645 1225.024213812097
3646 1225.12613504911
3647 1225.257229559531
3648 1225.408617213762
3649 1225.58728615757
3650 1225.790074450278
3651 1226.014280048069
3652 1226.257928217492
3653 1226.524752590628
3654 1226.809646762725
3655 1227.105650801989
3656 1227.420664006107
3657 1227.746131957427
3658 1228.080738164847
3659 1228.422661605524
3660 1228.772713804718
3661 1229.121713946406
3662 1229.474826161159
3663 1229.823041249991
3664 1230.161343665938
3665 1230.492724820203
3666 1230.813353232108
3667 1231.122118278049
3668 1231.417707290631
3669 1231.696196049182
3670 1231.954182069516
3671 1232.187985348086
3672 1232.398393491767
3673 1232.591216732888
3674 1232.759979304653
3675 1232.899174948164
3676 1233.009627329379
3677 1233.090980138676
3678 1233.145613478756
3679 1233.172338293932
3680 1233.172580893475
3681 1233.146379168904
3682 1233.092948675435
3683 1233.016574648909
3684 1232.914304570446
3685 1232.793580381131
3686 1232.648953533734
3687 1232.483339907764
3688 1232.303150363063
3689 1232.106170028077
3690 1231.895373011708
3691 1231.674773954118
3692 1231.449175213123
3693 1231.220046472257
3694 1230.980502865666
3695 1230.74356617528
3696 1230.509070749777
3697 1230.278960597804
3698 1230.048291641176
3699 1229.82859547624
3700 1229.616278381559
3701 1229.410595691304
3702 1229.218902420247
3703 1229.041319601128
3704 1228.882296773523
3705 1228.737500753456
3706 1228.610118820202
3707 1228.499616336586
3708 1228.408907170393
3709 1228.334700801032
3710 1228.279229962284
3711 1228.241138965647
3712 1228.220926241728
3713 1228.217308129945
3714 1228.231223091373
3715 1228.262573673573
3716 1228.310321450914
3717 1228.374853807041
3718 1228.452128010132
3719 1228.538688321747
3720 1228.637923596031
3721 1228.750471676118
3722 1228.871037270233
3723 1228.997479796543
3724 1229.129423946924
3725 1229.261335002505
3726 1229.401198800615
3727 1229.54355474368
3728 1229.683964490802
3729 1229.822738361438
3730 1229.960893200807
3731 1230.090208026007
3732 1230.211424794995
3733 1230.325082445165
3734 1230.428449904642
3735 1230.515706919373
3736 1230.589314509384
3737 1230.650147096374
3738 1230.697738520368
3739 1230.726734502141
3740 1230.737482810625
3741 1230.731913804919
3742 1230.708546754232
3743 1230.669732282166
3744 1230.609612804459
3745 1230.536950747193
3746 1230.442781892771
3747 1230.332060987144
3748 1230.202541146348
3749 1230.059911116854
3750 1229.899134671373
3751 1229.723075314071
3752 1229.535547250526
3753 1229.336308659451
3754 1229.127935443417
3755 1228.909398802572
3756 1228.683311740475
3757 1228.448935685014
3758 1228.209911531802
3759 1227.967988794712
3760 1227.72293469379
3761 1227.477469090331
3762 1227.234090430561
3763 1226.991249899332
3764 1226.751606702554
3765 1226.523907973546
3766 1226.298638219966
3767 1226.083484868561
3768 1225.878163084549
3769 1225.684149135645
3770 1225.49917964596
3771 1225.326405173719
3772 1225.164542209569
3773 1225.019854941285
3774 1224.892055343684
3775 1224.778835424484
3776 1224.683730720692
3777 1224.602714688987
3778 1224.541501458513
3779 1224.496756836832
3780 1224.470400327412
3781 1224.465725253974
3782 1224.480571884933
3783 1224.515776335772
3784 1224.57345651852
3785 1224.649499147743
3786 1224.741771452989
3787 1224.853258825461
3788 1224.985887421914
3789 1225.142627963286
3790 1225.313836614355
3791 1225.502181403176
3792 1225.706256406434
3793 1225.929770842876
3794 1226.164696920181
3795 1226.415481059558
3796 1226.678869984342
3797 1226.955922299354
3798 1227.243537753543
3799 1227.543120221077
3800 1227.847193253278
3801 1228.1600678
3802 1228.486782178312
3803 1228.81698191628
3804 1229.144511626273
3805 1229.474345622922
3806 1229.80472478853
3807 1230.130259024098
3808 1230.446793402912
3809 1230.757162446705
3810 1231.056829330633
3811 1231.348121275019
3812 1231.62505863198
3813 1231.887971268521
3814 1232.131059002415
3815 1232.356970269256
3816 1232.563387419509
3817 1232.747831291488
3818 1232.909010292566
3819 1233.046615798615
3820 1233.167652637711
3821 1233.256836244205
3822 1233.324821051055
3823 1233.367633086316
3824 1233.380532824673
3825 1233.368516315012
3826 1233.329882088186
3827 1233.267855960442
3828 1233.178668386277
3829 1233.069910552614
3830 1232.938399766519
3831 1232.786777434346
3832 1232.616046948221
3833 1232.426200893133
3834 1232.225565035102
3835 1232.002382628314
3836 1231.772938987937
3837 1231.531061717112
3838 1231.281886507969
3839 1231.026913075658
3840 1230.768643897343
3841 1230.509035258445
3842 1230.256420652821
3843 1230.004958789103
3844 1229.755891337101
3845 1229.513264070374
3846 1229.280454397378
3847 1229.056513995082
3848 1228.850048479945
3849 1228.649984586542
3850 1228.463402962701
3851 1228.295272635294
3852 1228.14048342759
3853 1228.009410080941
3854 1227.896787387165
3855 1227.80434748419
3856 1227.733735288823
3857 1227.682642144876
3858 1227.65349028998
3859 1227.642631232738
3860 1227.65143038336
3861 1227.67722532296
3862 1227.722637868912
3863 1227.78507138704
3864 1227.862707936835
3865 1227.955700988507
3866 1228.06449613635
3867 1228.186920312856
3868 1228.325423658659
3869 1228.473785087153
3870 1228.630030030305
3871 1228.790395565456
3872 1228.958422990489
3873 1229.13212674496
3874 1229.30743479891
3875 1229.487812598841
3876 1229.67016728838
3877 1229.845518052323
3878 1230.020538137632
3879 1230.188688777808
3880 1230.349362411389
3881 1230.503635895218
3882 1230.643545664326
3883 1230.774743106307
3884 1230.891908490519
3885 1230.998245196415
3886 1231.087477215641
3887 1231.163460411588
3888 1231.224871171805
3889 1231.265962976851
3890 1231.288206239441
3891 1231.291522463568
3892 1231.276796715899
3893 1231.243487201732
3894 1231.192635715731
3895 1231.125621186792
3896 1231.039371458763
3897 1230.935086327408
3898 1230.813989605905
3899 1230.677433901357
3900 1230.525382048987
3901 1230.356886272571
3902 1230.172889004396
3903 1229.977075023829
3904 1229.772784607444
3905 1229.558454857103
3906 1229.336473509572
3907 1229.104504635553
3908 1228.868913088394
3909 1228.626222680925
3910 1228.379146416168
3911 1228.131055285553
3912 1227.885018554529
3913 1227.636013484619
3914 1227.386933061738
3915 1227.142345706193
3916 1226.901140687291
3917 1226.66914245878
3918 1226.446955268832
3919 1226.226715135132
3920 1226.023305166993
3921 1225.831368040496
3922 1225.655442339038
3923 1225.487628780756
3924 1225.333687388886
3925 1225.19758824624
3926 1225.078578629361
3927 1224.979988173699
3928 1224.895264687872
3929 1224.832022049149
3930 1224.790330941039
3931 1224.768661136069
3932 1224.767608202039
3933 1224.786843101889
3934 1224.830386964577
3935 1224.894537584101
3936 1224.976953690127
3937 1225.080385316335
3938 1225.202159283377
3939 1225.341881817295
3940 1225.499912751326
3941 1225.673361597872
3942 1225.87046412071
3943 1226.08430290809
3944 1226.314583223103
3945 1226.559800529108
3946 1226.812018136736
3947 1227.078973442479
3948 1227.353857651705
3949 1227.634756263986
3950 1227.925082807274
3951 1228.22129975542
3952 1228.514481245132
3953 1228.809155523792
3954 1229.106260423682
3955 1229.400004923212
3956 1229.684608534038
3957 1229.962828558122
3958 1230.232533667421
3959 1230.491351150563
3960 1230.739391167809
3961 1230.971353101246
3962 1231.188320772553
3963 1231.389862359908
3964 1231.57473789776
3965 1231.738468824533
3966 1231.881875830678
3967 1232.011115607786
3968 1232.11951232973
3969 1232.202138337844
3970 1232.26416810274
3971 1232.304388841295
3972 1232.32128135205
3973 1232.323183451368
3974 1232.302539299264
3975 1232.263068398598
3976 1232.207197388932
3977 1232.133331259838
3978 1232.043239009222
3979 1231.936583308808
3980 1231.817612492898
3981 1231.689188330251
3982 1231.546657723587
3983 1231.398730779515
3984 1231.244520586035
3985 1231.08801238068
3986 1230.92525596357
3987 1230.759685808367
3988 1230.596287078062
3989 1230.431693389654
3990 1230.27481509039
3991 1230.124202742342
3992 1229.975485013806
3993 1229.835278356568
3994 1229.701306569761
3995 1229.576522140258
3996 1229.461283425211
3997 1229.355186336458
3998 1229.25818933508
3999 1229.171532620455
4000 1229.097488711383
4001 1229.040160562125
4002 1228.992614698727
4003 1228.962183631142
4004 1228.942981691487
4005 1228.9350677348
4006 1228.938162121202
4007 1228.956441714422
4008 1228.984929086216
4009 1229.024001744038
4010 1229.077179350311
4011 1229.138800954433
4012 1229.207832750815
4013 1229.287919001755
4014 1229.374324934187
4015 1229.473078666059
4016 1229.57982017212
4017 1229.694496332656
4018 1229.811063648622
4019 1229.930092765532
4020 1230.055385456943
4021 1230.183230103922
4022 1230.311651214912
4023 1230.442192820831
4024 1230.568211025267
4025 1230.695628729273
4026 1230.82118674551
4027 1230.945801732789
4028 1231.064032168512
4029 1231.175430466904
4030 1231.278364957549
4031 1231.372255744395
4032 1231.457193678781
4033 1231.528628306805
4034 1231.594269334259
4035 1231.643204295501
4036 1231.680250618865
4037 1231.707834687154
4038 1231.717668448738
4039 1231.71212656302
4040 1231.692329035717
4041 1231.653335645255
4042 1231.596140698786
4043 1231.52359494483
4044 1231.433688027204
4045 1231.3320626886
4046 1231.214153006581
4047 1231.07686832122
4048 1230.921943358857
4049 1230.752236965639
4050 1230.566176700832
4051 1230.365285233584
4052 1230.150763208451
4053 1229.926173926531
4054 1229.689842129406
4055 1229.442790744968
4056 1229.186391250196
4057 1228.922366467046
4058 1228.65374702349
4059 1228.377282502039
4060 1228.097521317027
4061 1227.818323122868
4062 1227.537587404233
4063 1227.25456273618
4064 1226.975014645691
4065 1226.701311291087
4066 1226.432176536355
4067 1226.170799306573
4068 1225.917079088869
4069 1225.674155167384
4070 1225.442497207702
4071 1225.222696751945
4072 1225.014030484605
4073 1224.819647981267
4074 1224.647110781195
4075 1224.487885820343
4076 1224.348600762929
4077 1224.233909606832
4078 1224.138596043063
4079 1224.064792826115
4080 1224.01210223201
4081 1223.984631060204
4082 1223.976009211968
4083 1223.98704335675
4084 1224.020365215712
4085 1224.078750811867
4086 1224.156798657196
4087 1224.254579226173
4088 1224.376420894957
4089 1224.516444820121
4090 1224.680123499609
4091 1224.859201821895
4092 1225.063309153037
4093 1225.280298390873
4094 1225.516650733031
4095 1225.772452283421
4096 1226.041772399293
4097 1226.325124111211
4098 1226.619371079427
4099 1226.923887102773
4100 1227.240516507203
4101 1227.555990777208
4102 1227.876928822068
4103 1228.203347821173
4104 1228.532078134868
4105 1228.853932396235
4106 1229.171805839431
4107 1229.486285272208
4108 1229.787819050275
4109 1230.077677314756
4110 1230.360576369422
4111 1230.631199890693
4112 1230.892221229999
4113 1231.136251799007
4114 1231.358872556395
4115 1231.563574304347
4116 1231.74956356789
4117 1231.917573022692
4118 1232.06598863928
4119 1232.188943881493
4120 1232.292659016772
4121 1232.370552223215
4122 1232.427134260227
4123 1232.460949390271
4124 1232.472370724235
4125 1232.46254092593
4126 1232.43080047214
4127 1232.38326681341
4128 1232.316468494293
4129 1232.231917139629
4130 1232.137436181597
4131 1232.030599617288
4132 1231.915592211005
4133 1231.794849936887
4134 1231.659745512205
4135 1231.520668146514
4136 1231.381766928086
4137 1231.234587161712
4138 1231.092247974947
4139 1230.941928614454
4140 1230.800980029838
4141 1230.662553321822
4142 1230.530106211133
4143 1230.402343624799
4144 1230.27841305003
4145 1230.166912765808
4146 1230.065312005909
4147 1229.971356013485
4148 1229.889268147166
4149 1229.821045138127
4150 1229.764214287796
4151 1229.721049171416
4152 1229.68812368351
4153 1229.665567720361
4154 1229.654447938814
4155 1229.654445308028
4156 1229.665017988255
4157 1229.686006924338
4158 1229.715994598277
4159 1229.753629606951
4160 1229.801859764535
4161 1229.855261375042
4162 1229.913525046905
4163 1229.978050532613
4164 1230.044630677946
4165 1230.115843072438
4166 1230.186043441648
4167 1230.253871712207
4168 1230.325340182763
4169 1230.391322920324
4170 1230.453860317706
4171 1230.517346264787
4172 1230.572359892609
4173 1230.620921621526
4174 1230.660818361283
4175 1230.690955724609
4176 1230.712076041477
4177 1230.720299175297
4178 1230.721637723773
4179 1230.709525429845
4180 1230.683455561351
4181 1230.645075691653
4182 1230.593542564896
4183 1230.527582701481
4184 1230.44640153621
4185 1230.352400439946
4186 1230.246481932121
4187 1230.124749216
4188 1229.991786676536
4189 1229.844527206322
4190 1229.684847806763
4191 1229.512900734296
4192 1229.332817116264
4193 1229.142284326424
4194 1228.943696335119
4195 1228.741154622431
4196 1228.532751692423
4197 1228.314730805919
4198 1228.096288963279
4199 1227.875551780687
4200 1227.65412724658
4201 1227.433362699587
4202 1227.21356891915
4203 1226.994852672361
4204 1226.781110324401
4205 1226.573641860176
4206 1226.372216558419
4207 1226.180370360891
4208 1225.997115423421
4209 1225.825676941807
4210 1225.663404274357
4211 1225.511524782873
4212 1225.371547598801
4213 1225.247661835943
4214 1225.137061789426
4215 1225.040409066392
4216 1224.957942743107
4217 1224.891208631118
4218 1224.840915109382
4219 1224.808557310606
4220 1224.791288930224
4221 1224.790453386454
4222 1224.803572582728
4223 1224.837580559701
4224 1224.888725359575
4225 1224.955029939945
4226 1225.039674033406
4227 1225.142698424669
4228 1225.259376845374
4229 1225.395102257171
4230 1225.547005253829
4231 1225.712728943117
4232 1225.89171161566
4233 1226.086581263733
4234 1226.293567966839
4235 1226.516932622141
4236 1226.750892206281
4237 1226.996400058067
4238 1227.256222997167
4239 1227.525178517196
4240 1227.803833091197
4241 1228.091666141908
4242 1228.38144633313
4243 1228.678614719381
4244 1228.984000052755
4245 1229.295012316185
4246 1229.603676297849
4247 1229.912468202895
4248 1230.21856137676
4249 1230.523599655789
4250 1230.820764782139
4251 1231.115042791419
4252 1231.40132676326
4253 1231.676653275127
4254 1231.941333829769
4255 1232.196291764531
4256 1232.432529492625
4257 1232.65695561904
4258 1232.860498017167
4259 1233.047310589623
4260 1233.2158873064
4261 1233.363831014264
4262 1233.495390020791
4263 1233.605627030831
4264 1233.695344105767
4265 1233.758675198539
4266 1233.798338872172
4267 1233.815972702553
4268 1233.812896165322
4269 1233.786560293398
4270 1233.742266580214
4271 1233.675071260383
4272 1233.585344360544
4273 1233.478908734304
4274 1233.356510044719
4275 1233.213595458117
4276 1233.060000480079
4277 1232.889877876346
4278 1232.704888066607
4279 1232.511353565881
4280 1232.310094958373
4281 1232.103369974216
4282 1231.892554110815
4283 1231.670402892377
4284 1231.450721996279
4285 1231.228430437029
4286 1231.010165259703
4287 1230.798171784343
4288 1230.592420768742
4289 1230.389973109236
4290 1230.193089409544
4291 1230.002897322659
4292 1229.820944283013
4293 1229.647865253945
4294 1229.487329604065
4295 1229.339564286345
4296 1229.204084393831
4297 1229.082271858229
4298 1228.974815041063
4299 1228.884942905973
4300 1228.802425821181
4301 1228.734684206148
4302 1228.680624367561
4303 1228.643138098315
4304 1228.620349994501
4305 1228.610764465174
4306 1228.61463053424
4307 1228.628776059468
4308 1228.659392286132
4309 1228.706954706855
4310 1228.764413920763
4311 1228.831476388228
4312 1228.906622086156
4313 1228.988124847027
4314 1229.079358390906
4315 1229.181020353865
4316 1229.284684424078
4317 1229.390858417755
4318 1229.498016791903
4319 1229.610005982835
4320 1229.722470864209
4321 1229.836638702671
4322 1229.945404130724
4323 1230.053598643429
4324 1230.15524702892
4325 1230.253561161201
4326 1230.35078898065
4327 1230.431531394177
4328 1230.506321039017
4329 1230.57410565201
4330 1230.629437998608
4331 1230.667034733965
4332 1230.696297448354
4333 1230.712898280578
4334 1230.71954076134
4335 1230.713843923689
4336 1230.692465114761
4337 1230.658966980819
4338 1230.611305824101
4339 1230.548487514328
4340 1230.471265414008
4341 1230.377718052693
4342 1230.273428021047
4343 1230.158779919683
4344 1230.034046497694
4345 1229.896140173067
4346 1229.749019881056
4347 1229.596319913123
4348 1229.434859710024
4349 1229.266578456997
4350 1229.093595104797
4351 1228.911422276755
4352 1228.728424351275
4353 1228.540723127703
4354 1228.352918070629
4355 1228.162935308818
4356 1227.976024317762
4357 1227.784272747583
4358 1227.601757647029
4359 1227.419792297791
4360 1227.244338576465
4361 1227.071358155501
4362 1226.904479937867
4363 1226.745908344481
4364 1226.595620313853
4365 1226.452926360565
4366 1226.321654604865
4367 1226.200609343728
4368 1226.089416812734
4369 1225.99296031885
4370 1225.909389304458
4371 1225.839108275173
4372 1225.784688923983
4373 1225.746928739031
4374 1225.721907230445
4375 1225.712282288192
4376 1225.717154973336
4377 1225.742386152458
4378 1225.779035066551
4379 1225.834561975501
4380 1225.904858659453
4381 1225.989907018754
4382 1226.092495530139
4383 1226.212349598227
4384 1226.348459237751
4385 1226.500393002956
4386 1226.666037604156
4387 1226.84871268968
4388 1227.044562077925
4389 1227.248947017257
4390 1227.464489665592
4391 1227.691686266438
4392 1227.927982199015
4393 1228.172146114938
4394 1228.422823671726
4395 1228.677628200738
4396 1228.930874881063
4397 1229.187002368991
4398 1229.442034563579
4399 1229.692878944062
4400 1229.937088316841
4401 1230.180064973068
4402 1230.412678013642
4403 1230.636435826293
4404 1230.850729818668
4405 1231.050481645554
4406 1231.240837380506
4407 1231.410456540599
4408 1231.563872979025
4409 1231.699894114289
4410 1231.819031658676
4411 1231.919338197238
4412 1232.003201303727
4413 1232.065717095513
4414 1232.104218807674
4415 1232.12338019513
4416 1232.123619575155
4417 1232.105690209961
4418 1232.063448235609
4419 1232.006177925134
4420 1231.933059876254
4421 1231.843806962813
4422 1231.740686385725
4423 1231.625281790183
4424 1231.493025254011
4425 1231.350200545775
4426 1231.194598029349
4427 1231.037695227609
4428 1230.877750946593
4429 1230.710411727667
4430 1230.546203351441
4431 1230.378560177933
4432 1230.20767188651
4433 1230.041448374474
4434 1229.879398173501
4435 1229.726255521039
4436 1229.586628115329
4437 1229.452965778318
4438 1229.32898786297
4439 1229.213341167041
4440 1229.110090147679
4441 1229.017945653204
4442 1228.940686669469
4443 1228.877367492712
4444 1228.826556254309
4445 1228.794459571017
4446 1228.775046341402
4447 1228.771657217224
4448 1228.781011853332
4449 1228.807444097239
4450 1228.847471921337
4451 1228.905043175565
4452 1228.971446425029
4453 1229.05462560011
4454 1229.149833898908
4455 1229.257169545932
4456 1229.377550345685
4457 1229.50725865729
4458 1229.644559805443
4459 1229.788934790855
4460 1229.937479141515
4461 1230.091294452616
4462 1230.248103878007
4463 1230.40758245453
4464 1230.567379349512
4465 1230.721648601513
4466 1230.878824860153
4467 1231.035231155639
4468 1231.184484525148
4469 1231.328053556926
4470 1231.46495465006
4471 1231.591174010641
4472 1231.705640480557
4473 1231.810963646101
4474 1231.904658424559
4475 1231.985721713986
4476 1232.049309276488
4477 1232.10056988114
4478 1232.135492303713
4479 1232.1520426299
4480 1232.151564605694
4481 1232.131906455419
4482 1232.0927970407
4483 1232.041219004897
4484 1231.976127225697
4485 1231.891543963537
4486 1231.788314769321
4487 1231.666525599766
4488 1231.531830637539
4489 1231.379649287019
4490 1231.213128993383
4491 1231.036355441919
4492 1230.844768115017
4493 1230.639717252344
4494 1230.42468722095
4495 1230.202964694137
4496 1229.972399510803
4497 1229.732052461057
4498 1229.487162603027
4499 1229.235861365253
4500 1228.981106531666
4501 1228.72415557327
4502 1228.467811153374
4503 1228.211648421209
4504 1227.958667918381
4505 1227.710672901604
4506 1227.463623941935
4507 1227.220732279401
4508 1226.984629685528
4509 1226.754475674564
4510 1226.533055669841
4511 1226.320536995203
4512 1226.119733968897
4513 1225.928731693548
4514 1225.750522521912
4515 1225.584872915784
4516 1225.431875224154
4517 1225.293039731238
4518 1225.169750233764
4519 1225.061038570068
4520 1224.971346157961
4521 1224.898713419984
4522 1224.842099467417
4523 1224.801839054301
4524 1224.783804075918
4525 1224.780592477914
4526 1224.796453240046
4527 1224.830673915062
4528 1224.885844681422
4529 1224.960540435894
4530 1225.053895487799
4531 1225.168287833754
4532 1225.297232272543
4533 1225.447677668333
4534 1225.619966152576
4535 1225.806785061924
4536 1226.010183503246
4537 1226.225187291959
4538 1226.461608293065
4539 1226.712946219526
4540 1226.974649505347
4541 1227.250738956185
4542 1227.543800057039
4543 1227.847654673191
4544 1228.148733490712
4545 1228.455920741278
4546 1228.764219124158
4547 1229.079819929666
4548 1229.400659906205
4549 1229.716850474748
4550 1230.025217115635
4551 1230.331677346241
4552 1230.628705831195
4553 1230.915999977652
4554 1231.195151269932
4555 1231.460095247295
4556 1231.710552511286
4557 1231.949023965469
4558 1232.172327146588
4559 1232.38010639901
4560 1232.566263300628
4561 1232.735950606626
4562 1232.885276508807
4563 1233.012134351145
4564 1233.120727402129
4565 1233.205378326334
4566 1233.271211545727
4567 1233.317406833188
4568 1233.344006427778
4569 1233.346923363673
4570 1233.331679930489
4571 1233.299124092485
4572 1233.250036230479
4573 1233.179898959615
4574 1233.09416589847
4575 1232.99844439048
4576 1232.889591556102
4577 1232.77269478067
4578 1232.646980262481
4579 1232.510010490383
4580 1232.367464171774
4581 1232.225204626302
4582 1232.077936935729
4583 1231.928273741715
4584 1231.780355209741
4585 1231.631862047489
4586 1231.484111440725
4587 1231.336559521965
4588 1231.194573400056
4589 1231.062535282577
4590 1230.935845198981
4591 1230.819149780672
4592 1230.710980857255
4593 1230.611138411083
4594 1230.523702255786
4595 1230.444389922804
4596 1230.373120740486
4597 1230.310115121015
4598 1230.260881412695
4599 1230.223007081096
4600 1230.1984301238
4601 1230.184111401858
4602 1230.177400986588
4603 1230.181122521817
4604 1230.192718341684
4605 1230.216351284998
4606 1230.248173032686
4607 1230.291715508358
4608 1230.342460820712
4609 1230.397184308584
4610 1230.459834985786
4611 1230.529243968399
4612 1230.5990600784
4613 1230.670872664225
4614 1230.7404168594
4615 1230.813012119629
4616 1230.886181823771
4617 1230.956601875866
4618 1231.024161294465
4619 1231.086671369991
4620 1231.144403837484
4621 1231.195660033207
4622 1231.241492400534
4623 1231.278203385548
4624 1231.308218382883
4625 1231.326222599455
4626 1231.333353023723
4627 1231.331761120882
4628 1231.316950449348
4629 1231.28933174837
4630 1231.249502585395
4631 1231.193324061067
4632 1231.12071189784
4633 1231.035222408404
4634 1230.940277841829
4635 1230.827915619871
4636 1230.700868780303
4637 1230.558863341316
4638 1230.402740927024
4639 1230.234530203011
4640 1230.057037946433
4641 1229.870615550524
4642 1229.674398120774
4643 1229.471440661613
4644 1229.257173626728
4645 1229.036625115463
4646 1228.809711213228
4647 1228.574886449801
4648 1228.337387023894
4649 1228.095153377847
4650 1227.852615622503
4651 1227.611968014045
4652 1227.371671487712
4653 1227.133997175988
4654 1226.897381567425
4655 1226.669640803686
4656 1226.445006102212
4657 1226.231622679137
4658 1226.026236805616
4659 1225.832780711991
4660 1225.64519055646
4661 1225.47018158969
4662 1225.309931743837
4663 1225.165782144369
4664 1225.037347502408
4665 1224.926955781824
4666 1224.834706221265
4667 1224.761238893526
4668 1224.708185969022
4669 1224.675151490396
4670 1224.66333665139
4671 1224.670733103297
4672 1224.699191279699
4673 1224.753962899956
4674 1224.827938271693
4675 1224.923002933514
4676 1225.043236457434
4677 1225.183968035419
4678 1225.34481232654
4679 1225.527311049842
4680 1225.731400371556
4681 1225.957162025448
4682 1226.203927330234
4683 1226.46285259002
4684 1226.744772676488
4685 1227.040138924723
4686 1227.350998212088
4687 1227.673065959555
4688 1228.005062386465
4689 1228.347701030934
4690 1228.70136442187
4691 1229.057216517808
4692 1229.416925908644
4693 1229.780413098188
4694 1230.146235750239
4695 1230.505075363338
4696 1230.857528649344
4697 1231.20651677938
4698 1231.550911442249
4699 1231.880635120909
4700 1232.190942352996
4701 1232.490435318976
4702 1232.776986804752
4703 1233.045286834761
4704 1233.289621503982
4705 1233.513889872516
4706 1233.717185188161
4707 1233.902796933999
4708 1234.061931935751
4709 1234.195679593752
4710 1234.302854649852
4711 1234.385077040554
4712 1234.442245587982
4713 1234.471744332397
4714 1234.478444927547
4715 1234.457021376648
4716 1234.415564950869
4717 1234.350886615865
4718 1234.265582817414
4719 1234.156702402136
4720 1234.031278464244
4721 1233.885958116476
4722 1233.731157307943
4723 1233.556160511337
4724 1233.371220830662
4725 1233.176095057533
4726 1232.973060588737
4727 1232.765802118107
4728 1232.546686067767
4729 1232.323281685647
4730 1232.100861375317
4731 1231.880436230791
4732 1231.653165683141
4733 1231.433411424839
4734 1231.215640375879
4735 1231.005454350776
4736 1230.797036391386
4737 1230.599375727626
4738 1230.41119581283
4739 1230.236019271749
4740 1230.07056561996
4741 1229.913630489253
4742 1229.77306408898
4743 1229.643974326409
4744 1229.526991865645
4745 1229.423117028537
4746 1229.331799951713
4747 1229.257823921998
4748 1229.198058269559
4749 1229.148482672078
4750 1229.110290087041
4751 1229.086826946369
4752 1229.077098188603
4753 1229.081613063094
4754 1229.10006433086
4755 1229.126437962069
4756 1229.164138287817
4757 1229.211758717024
4758 1229.269778419017
4759 1229.332946118876
4760 1229.403191709167
4761 1229.479622047405
4762 1229.563658903147
4763 1229.654946538498
4764 1229.743942105173
4765 1229.833576987206
4766 1229.924467073083
4767 1230.015285585429
4768 1230.104784953906
4769 1230.192564218386
4770 1230.273982652358
4771 1230.350025977759
4772 1230.415979976155
4773 1230.476214471136
4774 1230.529000084089
4775 1230.572456831301
4776 1230.603028611382
4777 1230.627548156809
4778 1230.64171006246
4779 1230.643868692167
4780 1230.63214242987
4781 1230.606261655679
4782 1230.566936371011
4783 1230.515085009215
4784 1230.450836346648
4785 1230.376782859945
4786 1230.287738487441
4787 1230.187540009167
4788 1230.076637840966
4789 1229.956152605582
4790 1229.824194853154
4791 1229.681270727454
4792 1229.531523814776
4793 1229.375240564382
4794 1229.206496774151
4795 1229.034119546335
4796 1228.855869485024
4797 1228.672302071362
4798 1228.485275739812
4799 1228.2952647687
4800 1228.104878166311
4801 1227.913181192451
4802 1227.722723973782
4803 1227.534881231945
4804 1227.354107206372
4805 1227.178507998997
4806 1227.008642513616
4807 1226.846976426267
4808 1226.690872647038
4809 1226.543351459073
4810 1226.407065730134
4811 1226.283503978531
4812 1226.172106942961
4813 1226.072358909019
4814 1225.988605464887
4815 1225.919720070644
4816 1225.865055350851
4817 1225.824847043207
4818 1225.804594435037
4819 1225.803412171452
4820 1225.820780591264
4821 1225.852847282264
4822 1225.904345644316
4823 1225.973394076981
4824 1226.060919843008
4825 1226.167204925736
4826 1226.289746312185
4827 1226.4332594208
4828 1226.59217088481
4829 1226.764367444255
4830 1226.959498203562
4831 1227.167508987858
4832 1227.391979698228
4833 1227.626768886466
4834 1227.874912101476
4835 1228.137229751038
4836 1228.405056630677
4837 1228.681784302759
4838 1228.963692859117
4839 1229.256212148559
4840 1229.543962878025
4841 1229.833079700579
4842 1230.118700432153
4843 1230.403912121611
4844 1230.685047259437
4845 1230.958968444452
4846 1231.223421853623
4847 1231.480488968228
4848 1231.720510816044
4849 1231.944830294957
4850 1232.161514159456
4851 1232.354713123589
4852 1232.531967252241
4853 1232.687403215557
4854 1232.827415675595
4855 1232.941362450345
4856 1233.02920684087
4857 1233.10010921763
4858 1233.146392934867
4859 1233.16553432824
4860 1233.158580648251
4861 1233.132345828787
4862 1233.082421414391
4863 1233.017724700784
4864 1232.930603296564
4865 1232.819821710212
4866 1232.691261155399
4867 1232.544687290342
4868 1232.384281240608
4869 1232.207972264856
4870 1232.017274880281
4871 1231.822182270972
4872 1231.617245748872
4873 1231.404012258275
4874 1231.185704608516
4875 1230.96290216582
4876 1230.743942529636
4877 1230.525182530355
4878 1230.312699441031
4879 1230.108793329154
4880 1229.912831991858
4881 1229.725725265598
4882 1229.543632173172
4883 1229.376207490579
4884 1229.21748087844
4885 1229.072567984566
4886 1228.94531118645
4887 1228.833835018046
4888 1228.739430667911
4889 1228.661174064743
4890 1228.601450617139
4891 1228.55897330395
4892 1228.531180500604
4893 1228.524665666112
4894 1228.534199520816
4895 1228.562210228358
4896 1228.604222180923
4897 1228.664162682453
4898 1228.737121322779
4899 1228.828088982441
4900 1228.930506087646
4901 1229.042762543356
4902 1229.16788314606
4903 1229.302456619776
4904 1229.445510083444
4905 1229.592203253967
4906 1229.741239254989
4907 1229.892009572615
4908 1230.05017497738
4909 1230.206507440248
4910 1230.362461740374
4911 1230.51701379667
4912 1230.664901181806
4913 1230.807222102572
4914 1230.940231172769
4915 1231.062934605777
4916 1231.177533692348
4917 1231.278570259998
4918 1231.366943370735
4919 1231.44241638294
4920 1231.506400852395
4921 1231.553675491816
4922 1231.583431708687
4923 1231.597548692539
4924 1231.594535741771
4925 1231.57281174927
4926 1231.534934129556
4927 1231.479477160641
4928 1231.409151997024
4929 1231.321580382976
4930 1231.212570074016
4931 1231.090521999815
4932 1230.954505037264
4933 1230.8030898358
4934 1230.638659555276
4935 1230.461089422264
4936 1230.272979975199
4937 1230.074608902931
4938 1229.869303277099
4939 1229.651430636307
4940 1229.428304828403
4941 1229.200606043493
4942 1228.967645464481
4943 1228.732779051306
4944 1228.495631200068
4945 1228.255835133573
4946 1228.014043918387
4947 1227.777876043452
4948 1227.546471910834
4949 1227.317390861862
4950 1227.091857501855
4951 1226.872515630366
4952 1226.661197539748
4953 1226.457548285209
4954 1226.263725578101
4955 1226.079699232853
4956 1225.904296281023
4957 1225.742294111961
4958 1225.593169425137
4959 1225.460519909027
4960 1225.338453809128
4961 1225.232750219178
4962 1225.139605655482
4963 1225.066148227772
4964 1225.008673206242
4965 1224.968128933447
4966 1224.945379059641
4967 1224.942550301138
4968 1224.958692810142
4969 1224.991173099296
4970 1225.043240875663
4971 1225.114304030023
4972 1225.202420332977
4973 1225.309484023458
4974 1225.436633772593
4975 1225.578673079083
4976 1225.73685993199
4977 1225.912657155096
4978 1226.108529590908
4979 1226.313215320274
4980 1226.536124993457
4981 1226.769333856268
4982 1227.013535071579
4983 1227.268431225178
4984 1227.537572564548
4985 1227.817640686961
4986 1228.109922276108
4987 1228.402246774076
4988 1228.69357476054
4989 1228.988635899889
4990 1229.28569553983
4991 1229.582040672838
4992 1229.875325828553
4993 1230.163632264532
4994 1230.442865052214
4995 1230.714747228469
4996 1230.980802635039
4997 1231.229445586315
4998 1231.464927552119
4999 1231.68980019427
5000 1231.894141760887
5001 1232.086743034708
5002 1232.260793414836
5003 1232.413996084
5004 1232.548283155935
5005 1232.660335982006
5006 1232.750973397111
5007 1232.820297473625
5008 1232.867293007982
5009 1232.892302270334
5010 1232.89789582837
5011 1232.88559038765
5012 1232.851173084509
5013 1232.798975648285
5014 1232.726890855072
5015 1232.637566474401
5016 1232.536452078066
5017 1232.415886448229
5018 1232.284678417328
5019 1232.143780805067
5020 1231.998410602211
5021 1231.842264011229
5022 1231.682294258339
5023 1231.518135028451
5024 1231.350204855072
5025 1231.180945842325
5026 1231.013900233732
5027 1230.847577361691
5028 1230.685861111871
5029 1230.528977782974
5030 1230.380972955466
5031 1230.23444003918
5032 1230.098849683646
5033 1229.969434308175
5034 1229.85404066995
5035 1229.748813156451
5036 1229.654524561467
5037 1229.576283817718
5038 1229.510532769384
5039 1229.456170218946
5040 1229.416975990755
5041 1229.390030142543
5042 1229.376508412457
5043 1229.379802597091
5044 1229.39517585435
5045 1229.423073525286
5046 1229.462213178116
5047 1229.517060689788
5048 1229.582236015674
5049 1229.657021569692
5050 1229.74593017011
5051 1229.841626019524
5052 1229.945040413141
5053 1230.054261011428
5054 1230.168834273195
5055 1230.286478008821
5056 1230.409490375701
5057 1230.531398740117
5058 1230.653291999605
5059 1230.77417151487
5060 1230.893885764465
5061 1231.007620089486
5062 1231.119274577703
5063 1231.225351368505
5064 1231.322908825005
5065 1231.413568978903
5066 1231.491954050674
5067 1231.560013087681
5068 1231.615840702637
5069 1231.661725895787
5070 1231.69418842796
5071 1231.711502147355
5072 1231.716890523044
5073 1231.70377761757
5074 1231.671904993197
5075 1231.623205789703
5076 1231.557781711058
5077 1231.475016900297
5078 1231.373616825673
5079 1231.256519943078
5080 1231.11831792658
5081 1230.96459397819
5082 1230.798388866751
5083 1230.616548989748
5084 1230.421357217108
5085 1230.212840336858
5086 1229.994771052647
5087 1229.763461902773
5088 1229.52118882811
5089 1229.273144968323
5090 1229.0169565049
5091 1228.755651352993
5092 1228.490085991494
5093 1228.215172187761
5094 1227.946075156864
5095 1227.670859084613
5096 1227.394556797587
5097 1227.119003345028
5098 1226.845902705636
5099 1226.57758275185
5100 1226.315448733584
5101 1226.058415987891
5102 1225.809989956739
5103 1225.571550690006
5104 1225.347744036854
5105 1225.13537849771
5106 1224.933445863753
5107 1224.746984749585
5108 1224.575489814174
5109 1224.423300788007
5110 1224.288758413335
5111 1224.174905116675
5112 1224.080300893648
5113 1224.00406610508
5114 1223.948690954484
5115 1223.915899525215
5116 1223.903937377757
5117 1223.913225159582
5118 1223.947205578267
5119 1224.00483443021
5120 1224.084957297888
5121 1224.188226581475
5122 1224.314730579924
5123 1224.47091619729
5124 1224.646700320091
5125 1224.847027077911
5126 1225.068172509857
5127 1225.310814337194
5128 1225.569913568752
5129 1225.849528978729
5130 1226.146389857937
5131 1226.454901577162
5132 1226.777470581317
5133 1227.118610746243
5134 1227.475046802578
5135 1227.831465114106
5136 1228.190364072875
5137 1228.556620767029
5138 1228.921313791171
5139 1229.292582718666
5140 1229.660332472452
5141 1230.023857791001
5142 1230.381086315726
5143 1230.726999204885
5144 1231.061797539812
5145 1231.386285992565
5146 1231.691679889415
5147 1231.981091555025
5148 1232.254035603442
5149 1232.513351329243
5150 1232.749059202481
5151 1232.961108513838
5152 1233.149633246179
5153 1233.311117846381
5154 1233.448653411204
5155 1233.562194368875
5156 1233.651039793431
5157 1233.717033294862
5158 1233.753336086967
5159 1233.761611619974
5160 1233.747043008078
5161 1233.714484529771
5162 1233.661474146458
5163 1233.585894424335
5164 1233.49191469524
5165 1233.377054960365
5166 1233.249459049313
5167 1233.110318561321
5168 1232.957640420247
5169 1232.795056722172
5170 1232.619435183334
5171 1232.437660041338
5172 1232.245490760256
5173 1232.053502714359
5174 1231.860438770325
5175 1231.668287615832
5176 1231.47633181489
5177 1231.286561766592
5178 1231.101583491654
5179 1230.918346276138
5180 1230.737721193454
5181 1230.567364120571
5182 1230.408748729925
5183 1230.258681038892
5184 1230.119065408115
5185 1229.990246770194
5186 1229.871715162861
5187 1229.763303379503
5188 1229.663820489074
5189 1229.577464263956
5190 1229.504545130819
5191 1229.444767433616
5192 1229.394566238237
5193 1229.357287619321
5194 1229.328702948135
5195 1229.311591483469
5196 1229.31075316881
5197 1229.318893970588
5198 1229.335434399118
5199 1229.360250725432
5200 1229.391036259391
5201 1229.430181209688
5202 1229.477131132262
5203 1229.529327717701
5204 1229.586537850681
5205 1229.642657821316
5206 1229.700931477407
5207 1229.759077194002
5208 1229.816209473601
5209 1229.870954035883
5210 1229.922304905204
5211 1229.973491490579
5212 1230.019910588135
5213 1230.060105481931
5214 1230.091609539913
5215 1230.113702759412
5216 1230.130284871925
5217 1230.136394597245
5218 1230.135360032938
5219 1230.123452753138
5220 1230.100412559326
5221 1230.066818107914
5222 1230.024087692429
5223 1229.968706924031
5224 1229.901808410778
5225 1229.824678677854
5226 1229.733072065169
5227 1229.629222764051
5228 1229.515145097613
5229 1229.394532759384
5230 1229.258797016063
5231 1229.116117972007
5232 1228.966989994194
5233 1228.809758452502
5234 1228.646663617266
5235 1228.476929647227
5236 1228.30353677118
5237 1228.122196681961
5238 1227.93769343292
5239 1227.75423872527
5240 1227.571152063611
5241 1227.385160659963
5242 1227.199281806199
5243 1227.013240305753
5244 1226.837921338529
5245 1226.663353229815
5246 1226.495586021424
5247 1226.331778601321
5248 1226.178775214386
5249 1226.031002059294
5250 1225.89305892125
5251 1225.763142325027
5252 1225.644388114203
5253 1225.535675687599
5254 1225.436472060846
5255 1225.348336985344
5256 1225.272951548589
5257 1225.216794933441
5258 1225.174436259643
5259 1225.146201594267
5260 1225.136606816541
5261 1225.14086250265
5262 1225.162993822342
5263 1225.199977703651
5264 1225.253475476648
5265 1225.325545901441
5266 1225.411456258508
5267 1225.515420684342
5268 1225.63730057695
5269 1225.775891387681
5270 1225.927146191734
5271 1226.094482819366
5272 1226.276844613807
5273 1226.476904696841
5274 1226.689151155671
5275 1226.916307517209
5276 1227.152632126097
5277 1227.400285887779
5278 1227.658869699198
5279 1227.930784343843
5280 1228.213669337937
5281 1228.501810231433
5282 1228.797576353554
5283 1229.086424136091
5284 1229.378449629756
5285 1229.6721170879
5286 1229.960408341404
5287 1230.251567015158
5288 1230.532526185255
