"cx-rfile"
"Iteration" "cx"
("Iteration" "cx")
1 1.74159760137745
2 1.567264835949989
3 1.196495751364316
4 0.9426512340447301
5 0.7009644712907055
6 0.5167286280579334
7 0.3969353585590071
8 0.2435181756834658
9 0.1293266027953552
10 0.03271259694425952
11 -0.04636616883841672
12 -0.1044938800464153
13 -0.1527381909230159
14 -0.1919137146909893
15 -0.2218007179261731
16 -0.2407215227617924
17 -0.2579492117350374
18 -0.2684996400001477
19 -0.2776111134684947
20 -0.283451417979093
21 -0.2881765548131857
22 -0.2916876932369817
23 -0.2941349987891817
24 -0.2953717704382374
25 -0.296508088657654
26 -0.2972999583302438
27 -0.2982595135963426
28 -0.2995258340026026
29 -0.3014481552253969
30 -0.3039420514490578
31 -0.3069627778811141
32 -0.3101518039744691
33 -0.314305437989062
34 -0.3189389269914188
35 -0.324885352970794
36 -0.3304622822981353
37 -0.3363385955618217
38 -0.3431198317186439
39 -0.3497914927834724
40 -0.3563450041177453
41 -0.3624995790944959
42 -0.3699646970129008
43 -0.376545297408242
44 -0.3834259317026021
45 -0.3894468260985252
46 -0.3959484849034238
47 -0.4027641574169585
48 -0.4081955515484529
49 -0.4142306158732151
50 -0.4204951256443183
51 -0.4269098745414933
52 -0.4332799646411087
53 -0.4412820428747482
54 -0.4468033145915398
55 -0.4538948698582856
56 -0.4600710388902043
57 -0.4658497098631733
58 -0.4699723566668086
59 -0.4754475234782162
60 -0.4792280573328673
61 -0.4842780437315762
62 -0.4877764538425543
63 -0.4915782873326005
64 -0.495206086731502
65 -0.4989493756634982
66 -0.5024528724101751
67 -0.5060499645055807
68 -0.5093980789572619
69 -0.5127662821592319
70 -0.5158917964319871
71 -0.5190484266865829
72 -0.5219508103620292
73 -0.5248984716326358
74 -0.5275941899141929
75 -0.5303350907893216
76 -0.5328317667734607
77 -0.5353811029254089
78 -0.5376908194236423
79 -0.5400642752154449
80 -0.5421746818792629
81 -0.5443949307801721
82 -0.5463449837687172
83 -0.5483926991334196
84 -0.5496443985564879
85 -0.5518118165523281
86 -0.5535973478241211
87 -0.554964556748222
88 -0.5567817376868087
89 -0.5580920266230747
90 -0.5598156237879539
91 -0.561037736296907
92 -0.5626546186310817
93 -0.5637818189929931
94 -0.565257677011209
95 -0.5662817599663135
96 -0.5676373347272237
97 -0.5685610750398487
98 -0.5697700083052361
99 -0.5705972307940949
100 -0.571347965071145
101 -0.572512096028703
102 -0.5731336861039568
103 -0.5738870595682888
104 -0.5747706796513603
105 -0.5754089998427651
106 -0.5761533125815429
107 -0.5767186893834679
108 -0.577128169919949
109 -0.5778739042897795
110 -0.5781699834558718
111 -0.5787949592724386
112 -0.5790087441901809
113 -0.5794081412063714
114 -0.5796973698550156
115 -0.5800175850617089
116 -0.5801987359672404
117 -0.580448797679918
118 -0.5805203179759647
119 -0.5807122159313366
120 -0.5806822807703524
121 -0.5808079550984945
122 -0.580684870012465
123 -0.5807508817270992
124 -0.5805293309862106
125 -0.580518830696606
126 -0.5801957509180244
127 -0.5801180392944242
128 -0.5796937151724233
129 -0.5795409788622128
130 -0.5790070080639408
131 -0.578799749705554
132 -0.5781814973130479
133 -0.5779067517565417
134 -0.5772119531537023
135 -0.5766720340873687
136 -0.5758836276782405
137 -0.5754888386288035
138 -0.5746440211225613
139 -0.5739619351106853
140 -0.5730714462611108
141 -0.5723202360061517
142 -0.5713955156767143
143 -0.5706251596547713
144 -0.5696802820855645
145 -0.5688817829229078
146 -0.5678849200855022
147 -0.5670928832238489
148 -0.5661155440638151
149 -0.5653060985530339
150 -0.5643159047763844
151 -0.5635158694957859
152 -0.5625260191340924
153 -0.5617351088669986
154 -0.5607462904465237
155 -0.5599356838421096
156 -0.558947992160972
157 -0.5579027055462915
158 -0.5569618404881671
159 -0.5562213113886977
160 -0.5550558486400894
161 -0.5543884005749783
162 -0.5532851462920707
163 -0.5526967430404499
164 -0.5516539409529905
165 -0.5510978850837679
166 -0.5501072756109184
167 -0.5496008698530197
168 -0.5486669616147006
169 -0.5479865431136309
170 -0.547124219552972
171 -0.5465278367546265
172 -0.5457407087102858
173 -0.5451924654859684
174 -0.5444346011794583
175 -0.5439051192193168
176 -0.5432140982948014
177 -0.5427783960282068
178 -0.5420970149926102
179 -0.5416482312788695
180 -0.540996228444897
181 -0.5405761483045239
182 -0.5399375924295402
183 -0.5395363299186094
184 -0.5389081515999327
185 -0.5384997922544746
186 -0.5379095925551168
187 -0.5375255812475833
188 -0.5369528906952721
189 -0.536481247158748
190 -0.5359149290652531
191 -0.5355629222956093
192 -0.5349073494481958
193 -0.5345844172060282
194 -0.534048087972266
195 -0.5336374360143362
196 -0.5331406730237492
197 -0.5328909238728625
198 -0.5322855416548858
199 -0.5319635796365716
200 -0.53136507855447
201 -0.5310889686673281
202 -0.5304798134101296
203 -0.5302022604257368
204 -0.5296506690089647
205 -0.5294024175310524
206 -0.528867381270675
207 -0.528625150082664
208 -0.5282604313025372
209 -0.5279777786669162
210 -0.5275795789606328
211 -0.527435207313661
212 -0.5270500399790504
213 -0.5269889899606727
214 -0.5268034193180483
215 -0.5268285943275564
216 -0.5267044100896233
217 -0.5268204895401938
218 -0.5267942864560355
219 -0.5270130747921175
220 -0.5270643707409306
221 -0.5273832195567303
222 -0.527548020964474
223 -0.5280039430706721
224 -0.5282819637284325
225 -0.5288457598890896
226 -0.5292610736919565
227 -0.5297851683822605
228 -0.5303596327168795
229 -0.5311454258131469
230 -0.5316071605671463
231 -0.5324965214289493
232 -0.5332104463096791
233 -0.534117292029925
234 -0.5348160258776194
235 -0.5357553961867827
236 -0.5364957754503926
237 -0.5374479264017605
238 -0.5381266007539768
239 -0.5390420380415876
240 -0.539706617239601
241 -0.5407201842949925
242 -0.5412395342469328
243 -0.5421357919615888
244 -0.5425510959976972
245 -0.5432768304893343
246 -0.5435519262112545
247 -0.5441147583715168
248 -0.5443308616695611
249 -0.5446450025641383
250 -0.5446708903815459
251 -0.5448661024748808
252 -0.5447283986136026
253 -0.5447214068838088
254 -0.5443896274184226
255 -0.5442075854491438
256 -0.5436361428150335
257 -0.5432749233964211
258 -0.542533805592365
259 -0.5420198464329967
260 -0.5410497397431091
261 -0.5403699159603264
262 -0.5391745942297284
263 -0.5383073093764782
264 -0.5370978736328886
265 -0.5360022744428565
266 -0.5345765714753083
267 -0.5332792534495957
268 -0.5317003709349493
269 -0.5302412698549662
270 -0.5285071297329925
271 -0.5269309898823653
272 -0.5254502754078196
273 -0.5236073862956689
274 -0.5219867018931097
275 -0.5204255146035445
276 -0.5185675915897652
277 -0.516813855482105
278 -0.5148362327560109
279 -0.5130012501029086
280 -0.5109697019627399
281 -0.509107808595095
282 -0.5070677573200666
283 -0.5052258675872456
284 -0.503246330045051
285 -0.501464433205114
286 -0.5000956845288523
287 -0.4982090433345117
288 -0.496304445831628
289 -0.4946595580095841
290 -0.4929496023990922
291 -0.4915061128488942
292 -0.4899797490325138
293 -0.488727348064675
294 -0.4874253141002284
295 -0.4863752008295292
296 -0.4852461830216107
297 -0.4843996798890993
298 -0.4834729085876106
299 -0.4828190293611276
300 -0.4820913282122619
301 -0.4816503306271296
302 -0.4811309367132147
303 -0.4808765403479657
304 -0.4805342244483792
305 -0.4804501069504354
306 -0.4802704896694956
307 -0.4803215695008121
308 -0.4802837553831764
309 -0.4804715410669146
310 -0.480537882285254
311 -0.4808233950155584
312 -0.4809526459480894
313 -0.4813130225648335
314 -0.4814937938534802
315 -0.4818870826851444
316 -0.4820856307542625
317 -0.4824615209198833
318 -0.4826420313740459
319 -0.4829596793963564
320 -0.4831510906350805
321 -0.4834258005070771
322 -0.4835113429259786
323 -0.4836917550533958
324 -0.4836109090816921
325 -0.4836844382727924
326 -0.4834680379612008
327 -0.4833627728297492
328 -0.4830488951872964
329 -0.4828583797978144
330 -0.4823286107953025
331 -0.4820654866198953
332 -0.4815141355889785
333 -0.4811054514894835
334 -0.480441777809486
335 -0.4799359004077671
336 -0.479185521652354
337 -0.4785882480514503
338 -0.4777702760206183
339 -0.4771148589336494
340 -0.4762395645386439
341 -0.4755459209998549
342 -0.4746149776399406
343 -0.4738958364865569
344 -0.4729734154912862
345 -0.4724766635418696
346 -0.4714514268151508
347 -0.4709187294966414
348 -0.4698650823971332
349 -0.4690683040313522
350 -0.4683785936822744
351 -0.4675718510357832
352 -0.4666760020204478
353 -0.4660006076695683
354 -0.4652306941898962
355 -0.4646793507074405
356 -0.4640249522015698
357 -0.4635810835038058
358 -0.4630320353326521
359 -0.4626798067766258
360 -0.4622318138283392
361 -0.4619775504314378
362 -0.4616299181092609
363 -0.4614811679735035
364 -0.4612202726988791
365 -0.4611749943058059
366 -0.4610236491154975
367 -0.4610643765848402
368 -0.4610006044778102
369 -0.4611378538994421
370 -0.4611670929083068
371 -0.4613979562137421
372 -0.4615110370550058
373 -0.4618111869429714
374 -0.4619833982855722
375 -0.4623618185308522
376 -0.46249608356967
377 -0.4629315388159203
378 -0.4632145293069928
379 -0.4635643457046746
380 -0.4638775522967672
381 -0.4643552382807753
382 -0.4646782685225267
383 -0.4651613253776568
384 -0.4654700912494044
385 -0.4659317731557762
386 -0.4661968361932919
387 -0.4666171019469915
388 -0.4668432081059267
389 -0.467228375122317
390 -0.4673973365099277
391 -0.4677235445445587
392 -0.4678337774053424
393 -0.4681063923317437
394 -0.4681887439000936
395 -0.4684109679142225
396 -0.4684456998392804
397 -0.4686210212596746
398 -0.4686101640729027
399 -0.4687200944287866
400 -0.4686785662431385
401 -0.4687772384052921
402 -0.4687014363414242
403 -0.4687836462680846
404 -0.4687030987671473
405 -0.4687541752040088
406 -0.4686672715198199
407 -0.4687172187974105
408 -0.4686303414128339
409 -0.4686923994311013
410 -0.4686054082883271
411 -0.468687219474295
412 -0.4686159566164602
413 -0.468711191246264
414 -0.468661939327185
415 -0.4687789572561163
416 -0.4687509976560871
417 -0.4688832726211054
418 -0.468863355195879
419 -0.4690137258749932
420 -0.4690228302471085
421 -0.4692055121731987
422 -0.4692407097267134
423 -0.4694505115660825
424 -0.4695101432783562
425 -0.4697453007774327
426 -0.4698405230401195
427 -0.4700432536738338
428 -0.4701645467870764
429 -0.4703893153894202
430 -0.470538358650421
431 -0.4707754898436169
432 -0.4709550044036386
433 -0.4712153099840714
434 -0.4714089699881867
435 -0.4716865652761361
436 -0.4718167780524667
437 -0.4722155688670124
438 -0.4723455490282659
439 -0.4726610557324816
440 -0.4728202232124596
441 -0.4731528161121059
442 -0.4733316001558248
443 -0.4736705908573208
444 -0.4739817558018011
445 -0.4742976201018647
446 -0.4744926555254623
447 -0.4748281616119787
448 -0.4750314636260689
449 -0.4753738195345565
450 -0.4757026453843996
451 -0.4760263267441988
452 -0.4762182326479449
453 -0.4766813058286455
454 -0.4768576508159436
455 -0.477204830610595
456 -0.4775275616259159
457 -0.4778596994586362
458 -0.4781781017472438
459 -0.4785146319849209
460 -0.4788334527597546
461 -0.4791860601335373
462 -0.4795078508285993
463 -0.479982306770665
464 -0.480164669075025
465 -0.480664417883724
466 -0.4809856068751348
467 -0.4813406566736131
468 -0.4816994227433543
469 -0.4821965302435426
470 -0.4824167167294411
471 -0.4829402937979829
472 -0.4831660912220054
473 -0.4837209462620145
474 -0.4839523300726058
475 -0.4845093387485351
476 -0.4847558916111159
477 -0.4851673465114538
478 -0.4855776197481697
479 -0.4859794165657835
480 -0.4862427970919589
481 -0.4866639707195264
482 -0.4869220827319267
483 -0.4873485821058044
484 -0.4875988436520645
485 -0.4880215950908949
486 -0.4882739078126662
487 -0.4886747383555627
488 -0.4889165581911264
489 -0.4893051116298581
490 -0.4895156945599237
491 -0.4898816430503883
492 -0.4900695162073926
493 -0.4903969869566359
494 -0.4905616400497532
495 -0.4909722252449655
496 -0.491085421165129
497 -0.491341754194328
498 -0.4914494918712348
499 -0.4917650582186536
500 -0.491835010560833
501 -0.492049879440278
502 -0.4921687019013292
503 -0.4923491131648367
504 -0.4923996856129546
505 -0.4926470451180597
506 -0.492670516312593
507 -0.4928914990902747
508 -0.4929199455328179
509 -0.4931398954285918
510 -0.493207241339055
511 -0.4934058074902344
512 -0.4934636752091934
513 -0.4936827429507609
514 -0.4937487800434667
515 -0.4939808597460811
516 -0.4940621734371071
517 -0.4943201976811848
518 -0.4944355020218636
519 -0.4947231495147931
520 -0.49486741076261
521 -0.4951873739609706
522 -0.4953604485710971
523 -0.4957075180921722
524 -0.4959092449978035
525 -0.496281700211106
526 -0.496498658073861
527 -0.4967974530146702
528 -0.4970833707441716
529 -0.4974015836261623
530 -0.4977163578567831
531 -0.4980464789539
532 -0.4983752503985806
533 -0.4987218942520685
534 -0.4989398545536932
535 -0.4993155336298725
536 -0.4995503329392913
537 -0.4999413654696351
538 -0.5001882541733649
539 -0.5005796128172612
540 -0.5008358403296451
541 -0.5012202885884847
542 -0.5014582391898927
543 -0.5018198310142883
544 -0.5020363546047016
545 -0.5023839486341982
546 -0.502577121890098
547 -0.5029019788688094
548 -0.5030673409370197
549 -0.5033628757635674
550 -0.5034999328824051
551 -0.5037740842547539
552 -0.5038842678381414
553 -0.5041360592210538
554 -0.5042110056124656
555 -0.5044367193570053
556 -0.5044820102131685
557 -0.5046906978278968
558 -0.5047022929564852
559 -0.5048938208974815
560 -0.5048982781173657
561 -0.5050956096760826
562 -0.5050613608830599
563 -0.5052011192946634
564 -0.505166608410087
565 -0.5053334935647604
566 -0.5052803667679692
567 -0.5054114171410716
568 -0.5053734082407714
569 -0.5055073239691357
570 -0.5054852564947959
571 -0.5056268170420936
572 -0.5055938101196991
573 -0.5057456600047797
574 -0.5057214690196614
575 -0.5058962512786055
576 -0.505885965454397
577 -0.506079484783421
578 -0.5060865511360663
579 -0.5063037485563591
580 -0.5063316143286108
581 -0.5065199490426197
582 -0.5066281664337343
583 -0.5068282140975583
584 -0.5068928506459345
585 -0.5071218666493196
586 -0.5072027575958911
587 -0.5074435361269709
588 -0.5075359584467383
589 -0.5077939520425968
590 -0.5079036817454478
591 -0.5081596573554003
592 -0.5082829599731576
593 -0.5085422699320266
594 -0.5086573599032472
595 -0.5089185359826444
596 -0.5090264326284388
597 -0.5092871700613847
598 -0.5093887265452824
599 -0.5096380685127071
600 -0.5097341668728428
601 -0.5099812686105567
602 -0.5100680000789533
603 -0.5102995047370797
604 -0.5103744053908142
605 -0.5105968858623727
606 -0.5106615779457724
607 -0.5108731315566297
608 -0.5109186736589547
609 -0.5111233896185176
610 -0.5111577237100468
611 -0.5113477380406392
612 -0.5113632627277908
613 -0.5115449727215007
614 -0.5115573475378439
615 -0.511726246500536
616 -0.5117260809397112
617 -0.5118933737527531
618 -0.5118939405626802
619 -0.5120458402551009
620 -0.5120449232592297
621 -0.5121923819158356
622 -0.5121849799347599
623 -0.5123300909430802
624 -0.5123180625144436
625 -0.5124657560054959
626 -0.5124560083812104
627 -0.5126044773076478
628 -0.5125924954034219
629 -0.5127454245880919
630 -0.5127394985461714
631 -0.5128863752352733
632 -0.5128824616950353
633 -0.5130327822923971
634 -0.5130294096250193
635 -0.5131766906467513
636 -0.5131773852008493
637 -0.5133305210701271
638 -0.5133295630464186
639 -0.5134815456904082
640 -0.5134833299400519
641 -0.5136327470824305
642 -0.513639619283077
643 -0.513769956177619
644 -0.513776120317296
645 -0.5139095385984632
646 -0.5139106145996679
647 -0.5140374679474403
648 -0.5140311488094342
649 -0.5141561522974605
650 -0.5141366873168284
651 -0.5142495567068702
652 -0.514219419863215
653 -0.5143306266524422
654 -0.5142901909742458
655 -0.514394011987956
656 -0.5143356585624131
657 -0.5144422196759747
658 -0.5143783053295651
659 -0.5144683420723335
660 -0.5143947786527178
661 -0.514471276301931
662 -0.5143917064052657
663 -0.5144585935519164
664 -0.5143711921673901
665 -0.5144223156768897
666 -0.514336305969902
667 -0.5143845377504409
668 -0.5142922251496505
669 -0.5143359200164825
670 -0.5142388370681612
671 -0.5142778731470476
672 -0.5141765263401626
673 -0.5142188438200909
674 -0.5141195349875664
675 -0.5141609562856353
676 -0.514059006987444
677 -0.5141101822119744
678 -0.5140135521157966
679 -0.5140674541520585
680 -0.5139705136958633
681 -0.5140324128472845
682 -0.5139480917404778
683 -0.514013796530689
684 -0.5139338384822825
685 -0.5140111439638402
686 -0.5139402680844914
687 -0.5140216723593397
688 -0.5139522859763749
689 -0.5140437844911293
690 -0.5139881195796482
691 -0.5140793101420358
692 -0.5140292877624757
693 -0.514128766914118
694 -0.5140866678967985
695 -0.5141863791536446
696 -0.5141512246210648
697 -0.5142629222330041
698 -0.5142320801071936
699 -0.5143366514962265
700 -0.5143098148829063
701 -0.5144282581037851
702 -0.5144006845824907
703 -0.5145167079647921
704 -0.5144788147761939
705 -0.5146105758360042
706 -0.5145697399000841
707 -0.5146848133902542
708 -0.5146433143810755
709 -0.5147545067645399
710 -0.5147127443243306
711 -0.514817230005952
712 -0.5147642392869625
713 -0.5148675233587401
714 -0.5148155767408223
715 -0.5149075554178979
716 -0.5148455932511878
717 -0.5149335155517909
718 -0.5148676937060591
719 -0.5149423546293178
720 -0.5148692287174026
721 -0.5149294436897682
722 -0.5148576971730583
723 -0.514910658197018
724 -0.5148272709286181
725 -0.5148804137236151
726 -0.5147948089176567
727 -0.5148390659787678
728 -0.5147494996347285
729 -0.5147863581980882
730 -0.5146897357422034
731 -0.5147147095814361
732 -0.5146203730970429
733 -0.5146295382757495
734 -0.5145307098721325
735 -0.5145385102909211
736 -0.5144385408954344
737 -0.5144461830142879
738 -0.514333793297858
739 -0.5143445483812064
740 -0.5142329315183398
741 -0.514232581789137
742 -0.5141105791398262
743 -0.5141135911222477
744 -0.5139933281611809
745 -0.5139993788989733
746 -0.5138775904072066
747 -0.5138801995541951
748 -0.5137633496916857
749 -0.5137780168444576
750 -0.5136490163065441
751 -0.5136657607526258
752 -0.513546568721993
753 -0.5135723665296184
754 -0.5134459564040729
755 -0.5134885012183436
756 -0.5133692642855109
757 -0.5134130543651455
758 -0.5132877414862911
759 -0.5133334558178402
760 -0.5132207837438708
761 -0.5132757804827995
762 -0.5131613510866915
763 -0.5132209530769897
764 -0.513116421822312
765 -0.5131830327056501
766 -0.5130717289625448
767 -0.51313550199347
768 -0.5130320635831833
769 -0.5130913780165035
770 -0.5129882273991371
771 -0.5130436281203582
772 -0.5129669580854093
773 -0.5130118291981726
774 -0.512921600762768
775 -0.5129700383815016
776 -0.5128879173715278
777 -0.512929893913153
778 -0.5128453383381097
779 -0.5128889758137971
780 -0.5127990356539839
781 -0.5128305326786322
782 -0.512731170853494
783 -0.5127660821583566
784 -0.5126683656682269
785 -0.5126952754060301
786 -0.5125807936418217
787 -0.5126115569253347
788 -0.5124924543444055
789 -0.5125065890932184
790 -0.5123695641430196
791 -0.5123817969861441
792 -0.5122304637893849
793 -0.5122322978051062
794 -0.5120570880091885
795 -0.5120547439715004
796 -0.5118930029520153
797 -0.511882788692494
798 -0.5117104095667366
799 -0.5116983114695137
800 -0.5115434764271259
801 -0.5115320049676161
802 -0.5113683490122201
803 -0.5113447003279379
804 -0.5111796217845633
805 -0.5111555964330088
806 -0.5109827229450434
807 -0.5109645502317917
808 -0.5108141453792292
809 -0.51079075477433
810 -0.510635776610628
811 -0.510627146214257
812 -0.5104844243930297
813 -0.5104814727325042
814 -0.5103386557556331
815 -0.5103565807939857
816 -0.5102347816497511
817 -0.5102563157652876
818 -0.5101418027388794
819 -0.510184448577379
820 -0.51007642218671
821 -0.5101237743948736
822 -0.5100481031058273
823 -0.5101271800356475
824 -0.5100660145201404
825 -0.5101560971078652
826 -0.5101105338002342
827 -0.5102088768917952
828 -0.5101671946259259
829 -0.5102877307430851
830 -0.5102611319941395
831 -0.5103863097013993
832 -0.5103730773185258
833 -0.5105116175955589
834 -0.5105137024184364
835 -0.5106650376081694
836 -0.5106564814858784
837 -0.5108167520612831
838 -0.5108165679428377
839 -0.51097932301141
840 -0.5109811398167691
841 -0.5111386953492888
842 -0.5111308969549168
843 -0.5112818943475065
844 -0.5112702406362801
845 -0.5114045719888126
846 -0.5113838021768283
847 -0.511506478315876
848 -0.5114762736527518
849 -0.5115819219035644
850 -0.5115421203779715
851 -0.5116186449912788
852 -0.511558319625075
853 -0.5116127332422304
854 -0.5115192297739868
855 -0.511549874921966
856 -0.5114573283254936
857 -0.5114662675075561
858 -0.5113496750869434
859 -0.5113472613473573
860 -0.5112152692160504
861 -0.511195425656875
862 -0.5110357602767917
863 -0.5110020278195996
864 -0.5108276870441948
865 -0.5107909486693336
866 -0.5105947790115324
867 -0.5105583442044307
868 -0.5103527776535947
869 -0.5103068571624845
870 -0.5100918672736973
871 -0.5100345510039238
872 -0.5098309256147509
873 -0.5097664861223962
874 -0.5095660757459423
875 -0.5094966248615089
876 -0.5093110753735013
877 -0.5092488033347313
878 -0.5090712935361564
879 -0.5090064880514231
880 -0.508845053413265
881 -0.5087944340482666
882 -0.5086355055472478
883 -0.5085997395528002
884 -0.5084631453940267
885 -0.5084452120142616
886 -0.5083094228898546
887 -0.5083149355342186
888 -0.5081959714645645
889 -0.5082209572824001
890 -0.5081172561560804
891 -0.5081647425831531
892 -0.5080770750431172
893 -0.5081390347556723
894 -0.5080521786291674
895 -0.5081322259688141
896 -0.5080706473309997
897 -0.5081632527756896
898 -0.5081042548512125
899 -0.5082058856882055
900 -0.5081725687397037
901 -0.5082784408014959
902 -0.5082493651004687
903 -0.508364470944381
904 -0.5083485806993905
905 -0.5084636849023551
906 -0.508441231622312
907 -0.5085582095275366
908 -0.5085369305069167
909 -0.5086473986347652
910 -0.508617456142392
911 -0.5087232070857671
912 -0.5086775360563105
913 -0.508777809028688
914 -0.5087148225078343
915 -0.5088083712357381
916 -0.5087350694356357
917 -0.5088139428275784
918 -0.5087199807035099
919 -0.5087807721575353
920 -0.5086806658149698
921 -0.5087228753507262
922 -0.5086080200181209
923 -0.508630328633214
924 -0.508507901678775
925 -0.5085117770287712
926 -0.5083840645024956
927 -0.5083695677286396
928 -0.5082254227544286
929 -0.5082031350538923
930 -0.5080509674335714
931 -0.5080130842733173
932 -0.5078541661114043
933 -0.5078164413050129
934 -0.5076512339314853
935 -0.5076115212275411
936 -0.5074379172622059
937 -0.5073993907284423
938 -0.5072295337918953
939 -0.5071917936405895
940 -0.5070126028904907
941 -0.5069873376651132
942 -0.5068094601098733
943 -0.5067918992158593
944 -0.5066256054542502
945 -0.5066057752064963
946 -0.5064544726580612
947 -0.5064425941276418
948 -0.5063038690915649
949 -0.5062932575956419
950 -0.5061668627035779
951 -0.5061660767126716
952 -0.5060504698885577
953 -0.5060679406503594
954 -0.505963228985314
955 -0.5059838922538248
956 -0.5058895031566829
957 -0.5059267719545947
958 -0.505838812801872
959 -0.5058810034899963
960 -0.5058026968158909
961 -0.5058560178293563
962 -0.505780294266148
963 -0.5058342981612315
964 -0.505765717839251
965 -0.5058332861085638
966 -0.505764498586761
967 -0.5058293289475438
968 -0.5057629262898999
969 -0.5058342012110281
970 -0.5057769252085746
971 -0.5058384092685829
972 -0.5057768477772348
973 -0.5058385736688071
974 -0.5057743952896194
975 -0.5058319638157662
976 -0.5057621433695716
977 -0.5058065444393886
978 -0.5057353724442731
979 -0.5057667560338885
980 -0.5056848688677557
981 -0.5057161731863307
982 -0.5056230823354576
983 -0.5056566628743326
984 -0.5055458986416458
985 -0.5055765875119375
986 -0.5054616692823776
987 -0.5054841327781273
988 -0.5053589046713725
989 -0.5053786935903827
990 -0.5052531066159435
991 -0.5052604574581265
992 -0.5051323665182219
993 -0.5051436020432537
994 -0.5050128124843895
995 -0.5050217609945797
996 -0.5048951830359939
997 -0.5048996280156353
998 -0.5047712436097583
999 -0.5047755379598177
1000 -0.504648870568041
1001 -0.5046535817998991
1002 -0.5045374955674331
1003 -0.5045476762308098
1004 -0.5044376161598997
1005 -0.5044425987463313
1006 -0.5043491187772503
1007 -0.5043622893634762
1008 -0.5042676101733888
1009 -0.504288384016416
1010 -0.5042053677115415
1011 -0.5042364350294219
1012 -0.5041484462972228
1013 -0.5041924674612717
1014 -0.5041117370531192
1015 -0.5041573936518819
1016 -0.5040784475689685
1017 -0.5041394908710213
1018 -0.5040638684616222
1019 -0.5041293697799631
1020 -0.5040565166904157
1021 -0.504123992877107
1022 -0.5040585830231428
1023 -0.5041345958919708
1024 -0.5040654752095629
1025 -0.5041435003922334
1026 -0.5040702857608892
1027 -0.5041418022803553
1028 -0.5040731632312148
1029 -0.5041419151235758
1030 -0.5040716281967085
1031 -0.5041442896910985
1032 -0.5040714310158899
1033 -0.5041352164898232
1034 -0.504058851574676
1035 -0.5041123939817121
1036 -0.504031681602629
1037 -0.5040806783559705
1038 -0.5040005651645723
1039 -0.5040323344069229
1040 -0.5039475771531881
1041 -0.5039805508536698
1042 -0.5038916347869731
1043 -0.5039184418668555
1044 -0.5038209332566796
1045 -0.5038451484926292
1046 -0.5037441813124576
1047 -0.5037566605546012
1048 -0.503650721867148
1049 -0.5036647916320003
1050 -0.5035625751539415
1051 -0.5035649601007098
1052 -0.5034553722535305
1053 -0.5034605178907758
1054 -0.5033477532282178
1055 -0.5033617108757514
1056 -0.5032420405553578
1057 -0.5032538514549709
1058 -0.5031402245867591
1059 -0.5031516373288752
1060 -0.5030426824159964
1061 -0.5030554846248415
1062 -0.5029459943602186
1063 -0.5029677381817207
1064 -0.5028482206120098
1065 -0.5028808112922435
1066 -0.5027679121717308
1067 -0.5028027839103636
1068 -0.5026964936014676
1069 -0.5027336464526577
1070 -0.5026327626610965
1071 -0.502673512909724
1072 -0.5025786065024556
1073 -0.5026294634869699
1074 -0.502539455642491
1075 -0.5025797289898802
1076 -0.5024953815849574
1077 -0.5025411712401308
1078 -0.5024635459292233
1079 -0.5025092462652649
1080 -0.5024357147517503
1081 -0.5024898565405438
1082 -0.5024207595208928
1083 -0.5024623272926519
1084 -0.50239609524879
1085 -0.5024423031688485
1086 -0.5023787593197101
1087 -0.5024173702962276
1088 -0.5023460520263999
1089 -0.5023911962531059
1090 -0.5023193670030914
1091 -0.5023626485488246
1092 -0.502283657483065
1093 -0.5023380514749778
1094 -0.5022509494895874
1095 -0.5023019052670832
1096 -0.502203875118946
1097 -0.5022578690449734
1098 -0.5021624942886075
1099 -0.5022083664473567
1100 -0.5021130088916441
1101 -0.5021540578448193
1102 -0.5020627662025187
1103 -0.5020997004316147
1104 -0.5020054686612903
1105 -0.5020406098067635
1106 -0.5019457081477114
1107 -0.5019703065393721
1108 -0.5018823858327209
1109 -0.5019133496641054
1110 -0.5018279657023703
1111 -0.5018536570723916
1112 -0.5017747002830167
1113 -0.5018036294298155
1114 -0.501726751358099
1115 -0.5017527144370476
1116 -0.5016743245853552
1117 -0.5017072036357387
1118 -0.5016289677592427
1119 -0.5016660812838845
1120 -0.5015872516844163
1121 -0.5016373587604107
1122 -0.5015635450775002
1123 -0.5016085314360407
1124 -0.5015375841503085
1125 -0.501587715477006
1126 -0.5015205623883793
1127 -0.5015712836057407
1128 -0.5015066931648833
1129 -0.5015628450491949
1130 -0.5015029544676047
1131 -0.5015562331025359
1132 -0.5014982796571523
1133 -0.5015598574198592
1134 -0.5015009721416634
1135 -0.5015684086014965
1136 -0.5015056259142697
1137 -0.5015726671799156
1138 -0.5015108735199978
1139 -0.5015744484532222
1140 -0.5015224556310177
1141 -0.5015760813897707
1142 -0.5015261096940117
1143 -0.5015819910808278
1144 -0.5015243775451287
1145 -0.5015817262323916
1146 -0.5015251642223072
1147 -0.5015770148172548
1148 -0.5015187821363231
1149 -0.5015639238602121
1150 -0.5015007643805017
1151 -0.5015489009156304
1152 -0.5014775097484175
1153 -0.5015302498412918
1154 -0.5014614943644254
1155 -0.5014983324254304
1156 -0.501431138152943
1157 -0.501465649902091
1158 -0.5014021289874148
1159 -0.5014285056362974
1160 -0.5013555799671331
1161 -0.5013832430530784
1162 -0.5013072461868359
1163 -0.5013327449682015
1164 -0.5012540735945457
1165 -0.5012802943713478
1166 -0.5011975612716143
1167 -0.5012285432211919
1168 -0.5011383473671931
1169 -0.5011691604833677
1170 -0.5010747631355895
1171 -0.5011069979952114
1172 -0.5010142270316728
1173 -0.501045218565317
1174 -0.5009549208728404
1175 -0.5009886108001366
1176 -0.5008987840956681
1177 -0.5009355828857402
1178 -0.5008425279960685
1179 -0.500876137596226
1180 -0.5007888731327925
1181 -0.5008313825822497
1182 -0.5007473959046042
1183 -0.5007850035816067
1184 -0.5007108157430966
1185 -0.5007511356446314
1186 -0.500673026866307
1187 -0.5007208491363341
1188 -0.5006457494659554
1189 -0.5006969392501329
1190 -0.5006226000726055
1191 -0.5006806874484495
1192 -0.5006106094845963
1193 -0.5006651069124755
1194 -0.5006036336656461
1195 -0.5006506437017901
1196 -0.5005993816293129
1197 -0.5006439411506924
1198 -0.5005942407975545
1199 -0.5006458959850605
1200 -0.5005965783555425
1201 -0.5006506034318896
1202 -0.5005963614165664
1203 -0.5006486704151926
1204 -0.5005987747334496
1205 -0.500655842336989
1206 -0.5006102211468303
1207 -0.5006729783070348
1208 -0.5006235455605559
1209 -0.5006888625701328
1210 -0.5006343577007903
1211 -0.5006963185823657
1212 -0.500643557139148
1213 -0.5007102272111961
1214 -0.5006523055341399
1215 -0.5007220229943793
1216 -0.5006704245875023
1217 -0.5007392896078326
1218 -0.5006880088920728
1219 -0.5007507754655219
1220 -0.5007093675193309
1221 -0.5007654996906372
1222 -0.5007258261561315
1223 -0.5007849783051906
1224 -0.500748970765492
1225 -0.5008133781305146
1226 -0.5007721170923524
1227 -0.5008334379050015
1228 -0.5007953601263808
1229 -0.5008566913477895
1230 -0.5008227403084963
1231 -0.5008869444465892
1232 -0.500853582226611
1233 -0.5009170240714118
1234 -0.5008788834015957
1235 -0.5009507905626456
1236 -0.5009074820750727
1237 -0.5009881229543846
1238 -0.5009432311737606
1239 -0.5010277755186944
1240 -0.5009826665770509
1241 -0.5010764872720878
1242 -0.5010198024392476
1243 -0.5011138924072083
1244 -0.5010608785185607
1245 -0.5011534811917518
1246 -0.5010978334281222
1247 -0.5011910919088073
1248 -0.501139901683567
1249 -0.5012336344891914
1250 -0.501174923829267
1251 -0.501264913008769
1252 -0.5012136271260369
1253 -0.5012968935291388
1254 -0.5012503433800527
1255 -0.5013297562233189
1256 -0.5012874975599867
1257 -0.5013554934779186
1258 -0.5013121364226762
1259 -0.5013767133555489
1260 -0.5013294481699305
1261 -0.5013918581846898
1262 -0.5013372647659288
1263 -0.501404653363006
1264 -0.5013445160261399
1265 -0.50140321214693
1266 -0.501341447290051
1267 -0.5013914419315888
1268 -0.5013344470724852
1269 -0.5013706149937357
1270 -0.5013132971880941
1271 -0.5013453490854516
1272 -0.5012830806915656
1273 -0.5013099910090031
1274 -0.5012422851454141
1275 -0.5012644171996904
1276 -0.5011928954591208
1277 -0.5012099574994443
1278 -0.5011300839003235
1279 -0.50115382985577
1280 -0.5010689679167447
1281 -0.5010908180168947
1282 -0.5009994774597392
1283 -0.5010242541102773
1284 -0.5009267438632621
1285 -0.5009492342746801
1286 -0.5008426740813093
1287 -0.5008680134141384
1288 -0.5007630236070811
1289 -0.5007928949993184
1290 -0.500687388658939
1291 -0.5007138570266609
1292 -0.5006099767488082
1293 -0.50063837137062
1294 -0.5005360497355609
1295 -0.5005632438144317
1296 -0.5004716378468478
1297 -0.5004929475779706
1298 -0.5004085480415634
1299 -0.5004335742876301
1300 -0.5003514206439006
1301 -0.5003826529803623
1302 -0.5003004969864089
1303 -0.5003381854378375
1304 -0.5002630454170552
1305 -0.5003032971107351
1306 -0.5002292072213538
1307 -0.5002769153526135
1308 -0.5002072238986651
1309 -0.5002604606168458
1310 -0.5001942813041927
1311 -0.5002508638829399
1312 -0.5001949824181257
1313 -0.5002511917676633
1314 -0.5001992010459879
1315 -0.5002637592634503
1316 -0.5002152809647089
1317 -0.5002851686915823
1318 -0.5002348356227776
1319 -0.5003087016193559
1320 -0.5002679791034677
1321 -0.5003419709827227
1322 -0.5003076007789684
1323 -0.5003720914657553
1324 -0.5003521679463064
1325 -0.500419345372226
1326 -0.5003926485483267
1327 -0.5004643208384804
1328 -0.5004415587366911
1329 -0.5005127326130716
1330 -0.5004876575061926
1331 -0.5005649784831803
1332 -0.5005350463485823
1333 -0.5006157050225305
1334 -0.5005801660475585
1335 -0.5006651665871882
1336 -0.5006299005652036
1337 -0.5007084186400477
1338 -0.5006692334673652
1339 -0.5007590066103191
1340 -0.5007188217935427
1341 -0.5008011876202797
1342 -0.5007616543087394
1343 -0.5008426848160854
1344 -0.5007999212820334
1345 -0.5008864396904538
1346 -0.5008403650627946
1347 -0.500922456629616
1348 -0.5008718064713616
1349 -0.5009524464317522
1350 -0.5009012618900213
1351 -0.5009773595257411
1352 -0.5009317366361292
1353 -0.501012657647476
1354 -0.5009638635961116
1355 -0.5010479644664345
1356 -0.5009889498006618
1357 -0.5010727163852785
1358 -0.501009130478794
1359 -0.5010912451740407
1360 -0.5010376421668846
1361 -0.5011147088190522
1362 -0.5010589352025661
1363 -0.5011338422806439
1364 -0.5010786205923197
1365 -0.5011583660176183
1366 -0.5011009814176721
1367 -0.5011748704573056
1368 -0.5011201694440656
1369 -0.5011952018479351
1370 -0.5011459709918136
1371 -0.5012199712852634
1372 -0.5011723185365059
1373 -0.5012406450358173
1374 -0.5011953106486278
1375 -0.501264244640476
1376 -0.5012206131664022
1377 -0.5012816362947562
1378 -0.5012486340408004
1379 -0.5013178729187606
1380 -0.5012837788767622
1381 -0.5013479453896782
1382 -0.5013154650269379
1383 -0.5013812901769436
1384 -0.5013521158978984
1385 -0.5014200844828209
1386 -0.5013854887741178
1387 -0.5014529200220645
1388 -0.5014222246556531
1389 -0.5014893038134649
1390 -0.5014494558327507
1391 -0.5015216873803319
1392 -0.5014797548341369
1393 -0.5015573163134128
1394 -0.5015123310440961
1395 -0.5015884490248091
1396 -0.5015389142365209
1397 -0.5016170218841443
1398 -0.50156653907306
1399 -0.5016394330619789
1400 -0.5015915745862941
1401 -0.5016570722791038
1402 -0.5016046512639591
1403 -0.5016766585198706
1404 -0.5016128791978482
1405 -0.5016881301956919
1406 -0.5016219097560604
1407 -0.5016943461408664
1408 -0.5016279796730005
1409 -0.5016976811893966
1410 -0.5016273059737915
1411 -0.5016931558838369
1412 -0.5016319267715279
1413 -0.501689574581202
1414 -0.5016229381925107
1415 -0.501681133043131
1416 -0.5016109664757021
1417 -0.501670514632696
1418 -0.5015965733626181
1419 -0.501656745764764
1420 -0.5015789851254322
1421 -0.5016387750970868
1422 -0.5015603360931284
1423 -0.5016196367442605
1424 -0.5015505009853222
1425 -0.5015994845326402
1426 -0.5015362079664524
1427 -0.5015914575740695
1428 -0.5015257207103342
1429 -0.5015837459359808
1430 -0.5015146314765029
1431 -0.501575559407207
1432 -0.5015078770758075
1433 -0.5015702175039786
1434 -0.5015060904044807
1435 -0.5015763624136311
1436 -0.5015091487671898
1437 -0.5015814499687923
1438 -0.5015233563092542
1439 -0.501595094036225
1440 -0.5015336219909901
1441 -0.5016115259627513
1442 -0.5015484858404586
1443 -0.5016279382985364
1444 -0.5015683007773408
1445 -0.5016486027867809
1446 -0.5015918357668705
1447 -0.5016695698078678
1448 -0.5016276011908724
1449 -0.5016960715985451
1450 -0.5016647799673103
1451 -0.5017299894546934
1452 -0.5017015878739309
1453 -0.501770678353521
1454 -0.5017391146043355
1455 -0.5018166563904379
1456 -0.5017860404399562
1457 -0.5018562748582337
1458 -0.5018275636753948
1459 -0.5019068165487981
1460 -0.5018711778593314
1461 -0.5019523087574834
1462 -0.5019179292173632
1463 -0.5020033027053409
1464 -0.5019706546118089
1465 -0.5020558009764965
1466 -0.502018930178892
1467 -0.5021083120676976
1468 -0.5020751323205611
1469 -0.5021602792009359
1470 -0.5021216593161058
1471 -0.5022098616809463
1472 -0.5021705710603747
1473 -0.502257334716585
1474 -0.5022163381265744
1475 -0.502302885011468
1476 -0.5022636938578219
1477 -0.5023475103275997
1478 -0.5023036293915877
1479 -0.502388397341389
1480 -0.5023373122733389
1481 -0.5024231903792826
1482 -0.5023652151311934
1483 -0.5024536196000183
1484 -0.5023976624259986
1485 -0.5024785583515433
1486 -0.5024205266340558
1487 -0.5024963740057115
1488 -0.5024402898916058
1489 -0.5025136212655045
1490 -0.5024545641725655
1491 -0.5025303625188623
1492 -0.5024679068404151
1493 -0.5025369483457468
1494 -0.5024711458771391
1495 -0.5025409368036722
1496 -0.5024802173989134
1497 -0.5025418166608265
1498 -0.5024812304272791
1499 -0.5025424230273607
1500 -0.5024826980128326
1501 -0.5025355848557194
1502 -0.5024751808373109
1503 -0.5025247120291163
1504 -0.5024625652936047
1505 -0.5025137577030989
1506 -0.5024429241757075
1507 -0.5024990891589288
1508 -0.5024245840554474
1509 -0.5024816418523607
1510 -0.5024049745249251
1511 -0.5024622706748832
1512 -0.5023918316144775
1513 -0.5024409495276505
1514 -0.5023670240082078
1515 -0.5024211629868178
1516 -0.5023425980032928
1517 -0.5023972780041639
1518 -0.502319737933391
1519 -0.5023804236112569
1520 -0.5023005340149063
1521 -0.5023536027176203
1522 -0.5022796609819096
1523 -0.5023378631631609
1524 -0.5022658299942157
1525 -0.502318992811049
1526 -0.5022486976774142
1527 -0.5023054452028431
1528 -0.5022440076725455
1529 -0.5022947103766364
1530 -0.5022347732882909
1531 -0.5022939629473255
1532 -0.5022303448429297
1533 -0.5022933006173311
1534 -0.5022276515318223
1535 -0.5022975385436125
1536 -0.5022322787858561
1537 -0.5023064465820821
1538 -0.5022466285915912
1539 -0.5023159583625502
1540 -0.5022634414124695
1541 -0.5023369433312009
1542 -0.5022861848273935
1543 -0.5023564946895666
1544 -0.5023074491746671
1545 -0.5023761119428746
1546 -0.5023289338446774
1547 -0.5024044137515796
1548 -0.5023567123148901
1549 -0.5024336389153705
1550 -0.5023879892891915
1551 -0.5024590836467445
1552 -0.5024209853544658
1553 -0.5024920595096658
1554 -0.502452764730998
1555 -0.5025257383054416
1556 -0.5024850076123615
1557 -0.5025579202415777
1558 -0.5025158113830571
1559 -0.5025883368269979
1560 -0.5025487242538228
1561 -0.5026146447636021
1562 -0.5025765740956116
1563 -0.5026443964701909
1564 -0.5026023067719817
1565 -0.5026677256600685
1566 -0.5026221953697415
1567 -0.5026935695993687
1568 -0.5026492956875322
1569 -0.5027143029887097
1570 -0.5026703700807454
1571 -0.5027402378037585
1572 -0.5026861107554733
1573 -0.5027576900720967
1574 -0.5026971426149732
1575 -0.5027635104611993
1576 -0.5027085415226114
1577 -0.5027719078268671
1578 -0.5027126332140437
1579 -0.5027785176448717
1580 -0.5027159425055314
1581 -0.5027851840073364
1582 -0.5027174416544884
1583 -0.5027785827050245
1584 -0.5027139833222891
1585 -0.5027722720658846
1586 -0.5027045607242477
1587 -0.5027656864785773
1588 -0.5026973331521738
1589 -0.5027514194070168
1590 -0.5026785856836643
1591 -0.5027358649604522
1592 -0.5026651235126149
1593 -0.5027134661719785
1594 -0.5026435436565998
1595 -0.502691487410348
1596 -0.5026196090689827
1597 -0.5026671291930088
1598 -0.5025875756486906
1599 -0.5026370280128279
1600 -0.502564609400504
1601 -0.5026081624445173
1602 -0.5025364700856657
1603 -0.5025780420525501
1604 -0.5025027654286526
1605 -0.5025515266769793
1606 -0.5024716853426919
1607 -0.5025210325908892
1608 -0.5024382165725187
1609 -0.5024893453486574
1610 -0.5024066878315422
1611 -0.5024590695953122
1612 -0.5023875098674188
1613 -0.5024356166389784
1614 -0.5023673167398519
1615 -0.5024146516986836
1616 -0.5023539095290696
1617 -0.5023980862296252
1618 -0.5023354471825844
1619 -0.5023867906697644
1620 -0.5023208123464722
1621 -0.5023722496000907
1622 -0.5023127850684754
1623 -0.5023641482250786
1624 -0.502313770770591
1625 -0.5023698744798338
1626 -0.5023238924069647
1627 -0.5023828287844496
1628 -0.5023314873136325
1629 -0.5023925728381801
1630 -0.502338399008161
1631 -0.5024052523494155
1632 -0.5023517380716075
1633 -0.5024268255723978
1634 -0.5023734463399008
1635 -0.5024466954278604
1636 -0.502391497473975
1637 -0.502470858115951
1638 -0.5024128573615583
1639 -0.5024907919422014
1640 -0.5024358613833885
1641 -0.5025138116243586
1642 -0.5024585777415007
1643 -0.5025414683666666
1644 -0.5024875030048639
1645 -0.5025667746239401
1646 -0.5025100740133693
1647 -0.5025861463656783
1648 -0.5025330700758353
1649 -0.5026002241624711
1650 -0.5025434404029204
1651 -0.5026137320713912
1652 -0.5025606069701829
1653 -0.5026245814032462
1654 -0.5025632762785324
1655 -0.5026311446962581
1656 -0.5025640057783907
1657 -0.5026286251675265
1658 -0.5025569013243579
1659 -0.5026215072510498
1660 -0.5025438013124072
1661 -0.5026055101158979
1662 -0.5025263683237349
1663 -0.5025841506554009
1664 -0.5025096537054864
1665 -0.5025579191326843
1666 -0.5024831905264852
1667 -0.5025268095825879
1668 -0.5024458682335363
1669 -0.5024935853406544
1670 -0.5024050400034594
1671 -0.5024487004358313
1672 -0.5023615850596842
1673 -0.5024010279815766
1674 -0.5023124227407051
1675 -0.5023573345086785
1676 -0.5022724246244099
1677 -0.5023117942844032
1678 -0.5022252979837938
1679 -0.5022667755263545
1680 -0.5021780537398687
1681 -0.5022145257025029
1682 -0.5021216787424618
1683 -0.5021643575529614
1684 -0.5020699586710705
1685 -0.5021122289719613
1686 -0.5020168574816345
1687 -0.5020582563399574
1688 -0.5019729934425223
1689 -0.5020131191101473
1690 -0.5019265152714687
1691 -0.5019644536761589
1692 -0.501881144886522
1693 -0.501919275963164
1694 -0.5018391506012174
1695 -0.5018761651569419
1696 -0.5018018832591713
1697 -0.5018372659111852
1698 -0.5017611212191837
1699 -0.501799762081984
1700 -0.5017243821045886
1701 -0.5017585017286055
1702 -0.5016805417682743
1703 -0.5017107910443194
1704 -0.50163722751649
1705 -0.5016721870548873
1706 -0.5015906923844642
1707 -0.5016329251649376
1708 -0.5015498130838972
1709 -0.5015906122038345
1710 -0.5014985107880975
1711 -0.5015456989748256
1712 -0.5014511317879838
1713 -0.5014938754803682
1714 -0.501400491869217
1715 -0.5014467053822427
1716 -0.5013517908757861
1717 -0.5013934684750428
1718 -0.5013017319554784
1719 -0.5013369409057506
1720 -0.5012483228605742
1721 -0.5012782356302039
1722 -0.5011887846570257
1723 -0.501221948260587
1724 -0.5011352235509156
1725 -0.5011622862072002
1726 -0.5010771947598147
1727 -0.5011030627820557
1728 -0.5010185865922731
1729 -0.5010435900660881
1730 -0.5009585437213225
1731 -0.5009858375067524
1732 -0.5009074226890331
1733 -0.5009330618272962
1734 -0.500846018769182
1735 -0.5008758813152284
1736 -0.5007943278742421
1737 -0.500825798565917
1738 -0.500739303284512
1739 -0.5007709871618413
1740 -0.5006799712578291
1741 -0.5007193276523826
1742 -0.5006298665113315
1743 -0.5006631181457341
1744 -0.5005811183418334
1745 -0.5006160682197056
1746 -0.5005321530092415
1747 -0.5005711188160972
1748 -0.5004907943901733
1749 -0.5005244795592633
1750 -0.5004377874537336
1751 -0.5004785339648745
1752 -0.5003895821045817
1753 -0.5004237208464638
1754 -0.5003393771025184
1755 -0.5003770947846858
1756 -0.5002845328660976
1757 -0.5003191996513922
1758 -0.500222806663036
1759 -0.5002643883074568
1760 -0.5001640330483076
1761 -0.5001998482994906
1762 -0.5001035785561682
1763 -0.5001356774182603
1764 -0.5000361064120534
1765 -0.5000634144123181
1766 -0.4999601706796061
1767 -0.4999874943947019
1768 -0.499889301909974
1769 -0.4999075262056985
1770 -0.4998094833112085
1771 -0.4998205358289255
1772 -0.4997220680516135
1773 -0.4997314249875294
1774 -0.4996326688838174
1775 -0.4996352647994793
1776 -0.4995338127246461
1777 -0.4995379899532424
1778 -0.4994378008654923
1779 -0.4994361144545515
1780 -0.4993382475676778
1781 -0.4993300263188339
1782 -0.4992238592336375
1783 -0.4992226299141536
1784 -0.4991118334374355
1785 -0.4991089377340322
1786 -0.4989913233001625
1787 -0.4990001080592113
1788 -0.4988721035984504
1789 -0.4988798758889036
1790 -0.4987517233855957
1791 -0.4987620660224157
1792 -0.4986422897848124
1793 -0.4986485578803898
1794 -0.498536305680832
1795 -0.4985379334431871
1796 -0.4984218871147867
1797 -0.4984240393740741
1798 -0.4983090963509599
1799 -0.4983127438868039
1800 -0.4982077074221568
1801 -0.4982101429679837
1802 -0.4981055296291552
1803 -0.498113298075586
1804 -0.4980070717842826
1805 -0.4980149987838138
1806 -0.4979111136093877
1807 -0.4979113679883005
1808 -0.4978178296650859
1809 -0.4978156134530984
1810 -0.4977174919833369
1811 -0.4977270150077374
1812 -0.4976267802123574
1813 -0.4976415178833258
1814 -0.4975331186795628
1815 -0.4975533985643178
1816 -0.4974397324764428
1817 -0.4974592288446215
1818 -0.4973422210279395
1819 -0.4973587247303212
1820 -0.4972508206697056
1821 -0.4972637042094938
1822 -0.4971524955181732
1823 -0.49717364499731
1824 -0.4970597187282054
1825 -0.4970830883660287
1826 -0.4969661272619565
1827 -0.4969818507064399
1828 -0.4968629337631524
1829 -0.4968829523987372
1830 -0.496765915778888
1831 -0.4967814860822299
1832 -0.4966635008907365
1833 -0.4966763615618174
1834 -0.4965589670061896
1835 -0.4965676458175822
1836 -0.4964532825044567
1837 -0.4964636267386933
1838 -0.4963441405402809
1839 -0.496353956159531
1840 -0.496243503219656
1841 -0.4962469393276837
1842 -0.4961366465916473
1843 -0.4961382554709227
1844 -0.4960268964299565
1845 -0.4960273588819368
1846 -0.4959103514514956
1847 -0.4959206331916206
1848 -0.4958012330728029
1849 -0.4958084194722978
1850 -0.4956899011496669
1851 -0.4956967457859437
1852 -0.495581899296853
1853 -0.4955937505008782
1854 -0.4954758937302483
1855 -0.4954879635339933
1856 -0.495371288592343
1857 -0.4953813218249687
1858 -0.4952610219031845
1859 -0.4952798056973813
1860 -0.4951619374872704
1861 -0.4951714056298469
1862 -0.4950511777804476
1863 -0.4950612285519651
1864 -0.4949438030698103
1865 -0.4949478271632752
1866 -0.4948334778430922
1867 -0.4948357134127325
1868 -0.494720651482317
1869 -0.4947145239863098
1870 -0.4945984132862329
1871 -0.4945972256536389
1872 -0.494474371087076
1873 -0.4944713956030411
1874 -0.4943446929136556
1875 -0.4943363668496638
1876 -0.4942114116468391
1877 -0.4942028132973277
1878 -0.4940704599449047
1879 -0.4940636568654772
1880 -0.4939274342346369
1881 -0.49392134582681
1882 -0.4937787385486701
1883 -0.493770104008603
1884 -0.4936237062481668
1885 -0.493617350392113
1886 -0.4934684561301094
1887 -0.4934457794594219
1888 -0.4933058891175621
1889 -0.4932788044208175
1890 -0.4931323645217476
1891 -0.4931113463855151
1892 -0.4929676316114436
1893 -0.4929365404611433
1894 -0.4927977474356581
1895 -0.4927742673337909
1896 -0.4926310527058267
1897 -0.4926065214216734
1898 -0.4924660474998941
1899 -0.4924340105899957
1900 -0.4923027082997018
1901 -0.4922754923580803
1902 -0.4921476848266714
1903 -0.4921237339808472
1904 -0.4919952860519327
1905 -0.4919810531289274
1906 -0.4918519058769694
1907 -0.4918574021648498
1908 -0.4917176594189452
1909 -0.4917282233185627
1910 -0.4915960271654387
1911 -0.4916079913915767
1912 -0.4914918956224569
1913 -0.4915020245467815
1914 -0.4913936767713923
1915 -0.491402092582686
1916 -0.4913014591883992
1917 -0.4913148833343657
1918 -0.4912226698166808
1919 -0.4912490073868881
1920 -0.4911550951698225
1921 -0.4911857079393804
1922 -0.4910968070502708
1923 -0.4911255587697863
1924 -0.4910502581013975
1925 -0.4910809956683274
1926 -0.4910063863452278
1927 -0.4910456680519318
1928 -0.4909757202494457
1929 -0.4910110042910965
1930 -0.4909392835922974
1931 -0.4909900033457108
1932 -0.4909114454503184
1933 -0.4909655995050493
1934 -0.4908849547945055
1935 -0.490937135972756
1936 -0.490855987298407
1937 -0.4909110242187579
1938 -0.4908284071453498
1939 -0.4908895560856726
1940 -0.4908071638648321
1941 -0.4908591545259137
1942 -0.4907691829892484
1943 -0.4908352537874173
1944 -0.4907401681961764
1945 -0.4907972078610022
1946 -0.4907036890107153
1947 -0.4907507502871973
1948 -0.4906647097173635
1949 -0.4907024137191315
1950 -0.4906161156315474
1951 -0.4906489591248612
1952 -0.4905638507985554
1953 -0.490589875344879
1954 -0.4905004732194467
1955 -0.4905265264711237
1956 -0.4904301820095807
1957 -0.4904488592755308
1958 -0.4903478334168707
1959 -0.4903629503657561
1960 -0.4902590693652802
1961 -0.490268572848876
1962 -0.4901599220600205
1963 -0.4901721247527318
1964 -0.490059382075194
1965 -0.4900606744265393
1966 -0.4899495453706952
1967 -0.4899487578509735
1968 -0.4898292628668924
1969 -0.4898309118725993
1970 -0.4897056168506398
1971 -0.4897005450288191
1972 -0.4895738686578599
1973 -0.4895650669122029
1974 -0.4894424989826708
1975 -0.489427815119522
1976 -0.4893073576929662
1977 -0.4892960493604365
1978 -0.4891793667115333
1979 -0.4891595395567401
1980 -0.4890481461831498
1981 -0.4890342511446414
1982 -0.4889076688531635
1983 -0.4889002483658835
1984 -0.4887719136661549
1985 -0.4887730451970389
1986 -0.4886486259265777
1987 -0.4886501351475687
1988 -0.4885251919247544
1989 -0.4885256430828607
1990 -0.4884073309382813
1991 -0.4884265588841888
1992 -0.4883075132213239
1993 -0.4883195016445411
1994 -0.4882081680044418
1995 -0.4882203367270903
1996 -0.4881244935252084
1997 -0.4881414907606326
1998 -0.4880471748827188
1999 -0.4880746294702195
2000 -0.4879866083452074
2001 -0.4880140774089573
2002 -0.4879354131087914
2003 -0.4879723530055963
2004 -0.4878985358451619
2005 -0.4879450617335618
2006 -0.4878715495590519
2007 -0.4879291999977149
2008 -0.4878615602778043
2009 -0.487925795269802
2010 -0.4878684564987328
2011 -0.487934643245129
2012 -0.4878765732977005
2013 -0.4879504918751685
2014 -0.4879002487483211
2015 -0.48798402966265
2016 -0.4879342043905734
2017 -0.4880217790065044
2018 -0.4879760658648933
2019 -0.4880678858614226
2020 -0.4880231256770209
2021 -0.4881210274580852
2022 -0.4880810824851019
2023 -0.4881721791200698
2024 -0.4881322812202127
2025 -0.488219882426093
2026 -0.4881815497124657
2027 -0.4882773930950743
2028 -0.4882296986343299
2029 -0.48832392356348
2030 -0.4882784242447365
2031 -0.4883627409246417
2032 -0.4883126546849186
2033 -0.4883907415358265
2034 -0.4883314725615786
2035 -0.4883976338359185
2036 -0.4883375871114625
2037 -0.4884000829376354
2038 -0.4883336237070834
2039 -0.4883978291391589
2040 -0.4883111415786493
2041 -0.4883652697044241
2042 -0.4882723391359691
2043 -0.4883111572446003
2044 -0.4882167246837735
2045 -0.4882375844835477
2046 -0.4881344270841386
2047 -0.4881478179261589
2048 -0.4880332591451524
2049 -0.4880381176806868
2050 -0.4879142492967101
2051 -0.4879152120273582
2052 -0.4877730525891524
2053 -0.4877697529790345
2054 -0.4876217319347035
2055 -0.4876073612116392
2056 -0.487446592643078
2057 -0.4874301997225461
2058 -0.4872716523875651
2059 -0.4872405446739654
2060 -0.4870756684546235
2061 -0.4870392037139186
2062 -0.4868667563200478
2063 -0.4868395994244677
2064 -0.4866610135144624
2065 -0.4866279849922214
2066 -0.486455201595494
2067 -0.4864115826525798
2068 -0.4862384510112646
2069 -0.4862021974428581
2070 -0.4860328575324882
2071 -0.4859911994343838
2072 -0.4858371678711134
2073 -0.4858001178787349
2074 -0.4856554323499978
2075 -0.4856290138462267
2076 -0.4854885680582912
2077 -0.4854643489289114
2078 -0.4853289920262728
2079 -0.4853186163364416
2080 -0.4851954872399777
2081 -0.485193475024351
2082 -0.4850812956627596
2083 -0.4850916265680287
2084 -0.4849881674784398
2085 -0.4850027501981942
2086 -0.4849078827875154
2087 -0.4849453544987253
2088 -0.4848523392328674
2089 -0.4849024838848505
2090 -0.484822398232705
2091 -0.4848730590861074
2092 -0.484797696501362
2093 -0.4848652740113966
2094 -0.4848004747189806
2095 -0.4848652395636888
2096 -0.4847980627987737
2097 -0.484871209726451
2098 -0.484811773102644
2099 -0.4848830970371161
2100 -0.4848177501163771
2101 -0.484895802085264
2102 -0.4848309505272716
2103 -0.4849028679516303
2104 -0.4848277425595169
2105 -0.4848964403141061
2106 -0.4848234659314334
2107 -0.4848821798167863
2108 -0.4847972846589516
2109 -0.484854547741391
2110 -0.484767509547813
2111 -0.4848153596890485
2112 -0.4847139311986939
2113 -0.4847618262778263
2114 -0.4846568469171427
2115 -0.4846905278750403
2116 -0.4845765233615104
2117 -0.4846065588767021
2118 -0.4844953149469172
2119 -0.4845087908585869
2120 -0.4843911691295288
2121 -0.4843950892471648
2122 -0.4842745706716416
2123 -0.4842765678481444
2124 -0.4841476609389674
2125 -0.4841460155560725
2126 -0.4840182419773396
2127 -0.4840128187325557
2128 -0.4838787574525388
2129 -0.4838683854589906
2130 -0.4837337652295651
2131 -0.4837253563805937
2132 -0.4835856456853027
2133 -0.4835878774943684
2134 -0.4834474522166438
2135 -0.4834581020100314
2136 -0.4833216181080813
2137 -0.4833280420484103
2138 -0.4831970745522259
2139 -0.4832094864361942
2140 -0.4830762521706375
2141 -0.483101950308671
2142 -0.4829731606138413
2143 -0.4830075218700995
2144 -0.4828870212885095
2145 -0.4829222814834583
2146 -0.4828131800999865
2147 -0.4828550157949717
2148 -0.4827469687248573
2149 -0.4827972786664931
2150 -0.4827036715280378
2151 -0.4827518875263473
2152 -0.4826733791142461
2153 -0.4827218960944636
2154 -0.4826547336761713
2155 -0.4827111944753704
2156 -0.4826437624228609
2157 -0.4827136856647883
2158 -0.4826408413202099
2159 -0.4827227819495885
2160 -0.4826529105558176
2161 -0.4827345633965904
2162 -0.4826753377287805
2163 -0.4827605647261516
2164 -0.4827036958968645
2165 -0.4827845891719116
2166 -0.4827343403082312
2167 -0.4828124423508441
2168 -0.4827604760565155
2169 -0.4828379987774821
2170 -0.482786318784302
2171 -0.4828598004521625
2172 -0.4828001759255531
2173 -0.4828747860963132
2174 -0.4828220225478568
2175 -0.4828889713769187
2176 -0.4828359792391425
2177 -0.4828999423530209
2178 -0.4828463308289611
2179 -0.4829086087894338
2180 -0.4828470267455353
2181 -0.482912643123298
2182 -0.482845264590069
2183 -0.4829172463081035
2184 -0.4828448436879995
2185 -0.4829173581955649
2186 -0.4828376492749
2187 -0.4829223347261443
2188 -0.4828445223258773
2189 -0.4829205337216232
2190 -0.4828529960851816
2191 -0.482928900204931
2192 -0.4828616782205952
2193 -0.4829397465078584
2194 -0.4828689706126306
2195 -0.4829576679027763
2196 -0.4828965323344868
2197 -0.4829843335034666
2198 -0.4829298144412201
2199 -0.4830176204041893
2200 -0.4829669259348998
2201 -0.4830590518863449
2202 -0.4830174206168116
2203 -0.4831048352804613
2204 -0.4830772862144502
2205 -0.483163511910079
2206 -0.4831361320677732
2207 -0.4832389230928614
2208 -0.483207733622549
2209 -0.4833091821578482
2210 -0.4832737591327443
2211 -0.4833863186960207
2212 -0.4833517112029242
2213 -0.4834702115789461
2214 -0.4834347616254797
2215 -0.4835455219163646
2216 -0.4835143437265544
2217 -0.4836206163395333
2218 -0.4835858859812144
2219 -0.4836897397589078
2220 -0.4836474143041861
2221 -0.4837485460499555
2222 -0.4837001619364183
2223 -0.4837935738330656
2224 -0.4837369219444298
2225 -0.4838295324873665
2226 -0.4837682572957066
2227 -0.4838524813571081
2228 -0.4837898369606694
2229 -0.4838588655010341
2230 -0.4837810511754955
2231 -0.4838428502781741
2232 -0.4837570997394827
2233 -0.4838158415690399
2234 -0.483715319584634
2235 -0.4837706966692754
2236 -0.4836574776074978
2237 -0.4837085698863163
2238 -0.4835974416304541
2239 -0.4836333939914542
2240 -0.483507956582459
2241 -0.4835367697663964
2242 -0.4834167174353092
2243 -0.483437435928213
2244 -0.4833152709949012
2245 -0.4833261712508245
2246 -0.4832061649939513
2247 -0.4832141416311258
2248 -0.483089360076607
2249 -0.4830997829093466
2250 -0.4829764785404728
2251 -0.4829914107005777
2252 -0.4828676678645942
2253 -0.4828809917679819
2254 -0.4827614517316137
2255 -0.4827800794238972
2256 -0.4826607681153069
2257 -0.4826812532681305
2258 -0.4825624968869212
2259 -0.4825833032269675
2260 -0.4824770746801364
2261 -0.4825096064345668
2262 -0.482407618612103
2263 -0.482446132581207
2264 -0.4823516294705262
2265 -0.4824019499261726
2266 -0.4823079451755879
2267 -0.4823714786612063
2268 -0.4822883179462423
2269 -0.4823488219239786
2270 -0.4822712004131007
2271 -0.4823389442912439
2272 -0.4822635768237328
2273 -0.4823404531935565
2274 -0.482273247690387
2275 -0.4823584596863186
2276 -0.4822993904741323
2277 -0.4823878981802349
2278 -0.4823282704910642
2279 -0.4824238047687338
2280 -0.4823712428907753
2281 -0.4824583889942146
2282 -0.4824140792585906
2283 -0.4825109291346362
2284 -0.4824621308087663
2285 -0.4825636966984495
2286 -0.482517117842842
2287 -0.4826151565839936
2288 -0.482572488524695
2289 -0.4826673583946015
2290 -0.4826272213359128
2291 -0.4827225541379291
2292 -0.4826819378544281
2293 -0.4827707688259721
2294 -0.4827287270255298
2295 -0.4828248485135354
2296 -0.4827791137257013
2297 -0.482868579852853
2298 -0.4828187863382039
2299 -0.4829059003695026
2300 -0.4828537454389702
2301 -0.4829346137104621
2302 -0.4828781746080433
2303 -0.4829569857070758
2304 -0.4829050287235573
2305 -0.4829779962298004
2306 -0.4829242857471588
2307 -0.4829903231780777
2308 -0.4829299548097858
2309 -0.4829989853146084
2310 -0.4829395004034433
2311 -0.4830023984530322
2312 -0.4829381876320262
2313 -0.482998990763384
2314 -0.4829318829845311
2315 -0.482992495802017
2316 -0.4829173422893608
2317 -0.4829746379493782
2318 -0.4829004814184661
2319 -0.4829531414426019
2320 -0.4828803516698367
2321 -0.482930229981913
2322 -0.4828468039492174
2323 -0.4829020090835204
2324 -0.4828157435719692
2325 -0.4828684795243193
2326 -0.4827767600678509
2327 -0.4828230141780136
2328 -0.4827285472673444
2329 -0.4827728542909343
2330 -0.4826786717913884
2331 -0.4827190974733104
2332 -0.4826233904522397
2333 -0.482668187055724
2334 -0.4825711253189737
2335 -0.4826101607268387
2336 -0.4825127103521479
2337 -0.4825524078311719
2338 -0.4824492795154645
2339 -0.4824949189974507
2340 -0.4823852952864124
2341 -0.4824325337152983
2342 -0.4823193869183701
2343 -0.4823638729741612
2344 -0.4822582961514345
2345 -0.4822941424860142
2346 -0.4821904133176478
2347 -0.4822227476555074
2348 -0.4821220178286517
2349 -0.4821535404162163
2350 -0.4820473545218751
2351 -0.482084754102649
2352 -0.4819823705072756
2353 -0.4820166509913854
2354 -0.4819172219846974
2355 -0.4819547210233863
2356 -0.4818540219133013
2357 -0.4818851774290214
2358 -0.4817878075039768
2359 -0.4818179309898961
2360 -0.4817223328138199
2361 -0.481754162267503
2362 -0.4816583181875062
2363 -0.4816931857569569
2364 -0.4816013833567596
2365 -0.4816329311634431
2366 -0.4815385689992727
2367 -0.4815731885808572
2368 -0.4814802140824745
2369 -0.4815199231866976
2370 -0.481424814902183
2371 -0.4814652795239088
2372 -0.4813675094207268
2373 -0.481417496272744
2374 -0.4813205746812314
2375 -0.4813731829713906
2376 -0.4812788385936784
2377 -0.4813364880789404
2378 -0.4812477850956923
2379 -0.4813025788509017
2380 -0.4812199548187373
2381 -0.4812784532051245
2382 -0.4811921101025043
2383 -0.4812584928151823
2384 -0.4811705499059506
2385 -0.4812416472954354
2386 -0.4811613237751801
2387 -0.4812259832723778
2388 -0.4811521394556417
2389 -0.4812204310215258
2390 -0.4811518516689675
2391 -0.4812170047106766
2392 -0.4811577838021566
2393 -0.4812256918505118
2394 -0.4811651768110323
2395 -0.481234863376762
2396 -0.4811778415416839
2397 -0.4812471877941921
2398 -0.4811928785060466
2399 -0.4812654718400112
2400 -0.4812202267289841
2401 -0.4812927404186769
2402 -0.481250266126736
2403 -0.4813219646907951
2404 -0.4812842542826444
2405 -0.4813596681283205
2406 -0.4813226480296739
2407 -0.4814026627073599
2408 -0.4813675730962873
2409 -0.4814503480829437
2410 -0.4814114028561977
2411 -0.4814989860632406
2412 -0.4814508072206503
2413 -0.4815403788382076
2414 -0.4814966886049944
2415 -0.4815884190766521
2416 -0.4815384253276786
2417 -0.4816343897201814
2418 -0.481590790640793
2419 -0.4816870570614183
2420 -0.4816367389894498
2421 -0.4817418452741267
2422 -0.4816919914240411
2423 -0.4817929991254583
2424 -0.4817427962954099
2425 -0.4818409821265496
2426 -0.481796907274517
2427 -0.4818924053274122
2428 -0.4818526607679364
2429 -0.4819478764407477
2430 -0.4819107420193675
2431 -0.4820051726021886
2432 -0.4819655850151789
2433 -0.4820661179801499
2434 -0.4820228789124666
2435 -0.4821269436722366
2436 -0.4820833740614675
2437 -0.4821869978342316
2438 -0.4821458845696036
2439 -0.4822446726954361
2440 -0.4822133785473618
2441 -0.482307447177289
2442 -0.4822766132591706
2443 -0.4823731120693479
2444 -0.4823414548831935
2445 -0.4824376520487252
2446 -0.4824129866517573
2447 -0.4825084652857736
2448 -0.4824798708713679
2449 -0.4825719652684105
2450 -0.4825482943176447
2451 -0.4826402268399635
2452 -0.4826133372896472
2453 -0.4827047889173938
2454 -0.4826727201856917
2455 -0.4827657340501348
2456 -0.4827254598502621
2457 -0.4828181492830504
2458 -0.4827732182051716
2459 -0.4828706550121455
2460 -0.4828167847414115
2461 -0.4829120251005448
2462 -0.4828521095870265
2463 -0.4829428941305084
2464 -0.4828832517456572
2465 -0.4829699748797855
2466 -0.4829001444285341
2467 -0.4829828487028235
2468 -0.4829033349375057
2469 -0.482980836085777
2470 -0.4829067636272968
2471 -0.48297532334939
2472 -0.4828952623878021
2473 -0.4829615634143235
2474 -0.4828807235995128
2475 -0.4829276896708399
2476 -0.4828462751705243
2477 -0.4828923405839792
2478 -0.4828136471197072
2479 -0.4828578245431764
2480 -0.4827658212866227
2481 -0.4828129386883698
2482 -0.4827208655304882
2483 -0.4827586581854288
2484 -0.4826705698668615
2485 -0.4827104630941423
2486 -0.4826237061131011
2487 -0.4826606876370942
2488 -0.4825828628946251
2489 -0.4826227273565172
2490 -0.4825482151340306
2491 -0.4825912791939789
2492 -0.4825126435134076
2493 -0.4825671632750784
2494 -0.4824879866535366
2495 -0.4825495887871369
2496 -0.4824800678359168
2497 -0.4825417595412349
2498 -0.4824797114209112
2499 -0.4825421746164524
2500 -0.4824950605795811
2501 -0.4825619739259484
2502 -0.4825164753979643
2503 -0.4825972135217463
2504 -0.4825530371615316
2505 -0.4826371581646624
2506 -0.4825998120877669
2507 -0.4826951781717838
2508 -0.4826571819736857
2509 -0.4827620750492452
2510 -0.4827266175276135
2511 -0.4828259105933839
2512 -0.4828046125473927
2513 -0.4829087002153119
2514 -0.4828873711447501
2515 -0.4829938956265868
2516 -0.4829711255815902
2517 -0.483078194837904
2518 -0.4830519687670357
2519 -0.4831583359062488
2520 -0.4831304916016295
2521 -0.4832412356953553
2522 -0.4832179308371373
2523 -0.4833124206649062
2524 -0.4832892167416336
2525 -0.4833827827977301
2526 -0.4833622681986785
2527 -0.4834476059667155
2528 -0.4834168041937396
2529 -0.4835004995971742
2530 -0.4834574604724992
2531 -0.4835395377570317
2532 -0.4834846453898772
2533 -0.4835639959998786
2534 -0.4835023134172941
2535 -0.4835845477809779
2536 -0.4835115971765273
2537 -0.483588173867671
2538 -0.4835090505193712
2539 -0.4835791446177609
2540 -0.4834956905412643
2541 -0.4835581827663656
2542 -0.4834752288723937
2543 -0.4835263596545785
2544 -0.4834443561765145
2545 -0.4834964228457137
2546 -0.4834122511510476
2547 -0.4834486917375019
2548 -0.4833663850796659
2549 -0.4834076017832071
2550 -0.4833193090277695
2551 -0.4833654860957303
2552 -0.4832742032303692
2553 -0.4833197646391881
2554 -0.4832332087043899
2555 -0.4832787600269
2556 -0.483193912441063
2557 -0.4832515966650614
2558 -0.4831717425545902
2559 -0.4832265379771227
2560 -0.4831527911551485
2561 -0.4832204515482987
2562 -0.4831523176621761
2563 -0.4832211682875758
2564 -0.4831591231723824
2565 -0.4832362768313621
2566 -0.4831822941520789
2567 -0.4832619005173467
2568 -0.4832173343129785
2569 -0.4832950575533216
2570 -0.4832589993372098
2571 -0.4833396820417287
2572 -0.4833145784303849
2573 -0.4833985521055078
2574 -0.48337756868858
2575 -0.4834678288406219
2576 -0.4834464511110259
2577 -0.483548259870916
2578 -0.483523813982246
2579 -0.483627657045077
2580 -0.4835975441927252
2581 -0.483696801379438
2582 -0.4836728809886287
2583 -0.4837676267412841
2584 -0.4837431178488141
2585 -0.4838352389609589
2586 -0.483811398490439
2587 -0.4839156172547911
2588 -0.4838800304517017
2589 -0.4839723104027961
2590 -0.483931850328097
2591 -0.4840285993676176
2592 -0.4839808320525295
2593 -0.4840713418579791
2594 -0.4840232984502625
2595 -0.4841024665531642
2596 -0.4840548963701869
2597 -0.4841299691516799
2598 -0.4840812516662537
2599 -0.4841562151331816
2600 -0.484096700038089
2601 -0.4841674141104425
2602 -0.4841049877988609
2603 -0.4841745277499913
2604 -0.4841097787763931
2605 -0.4841823846118161
2606 -0.4841139240958027
2607 -0.4841820189255358
2608 -0.4841124208959149
2609 -0.4841762694052899
2610 -0.4841115031271763
2611 -0.4841809135976862
2612 -0.4841087440002936
2613 -0.4841846493956236
2614 -0.4841103054253642
2615 -0.4841929691157571
2616 -0.484126699243243
2617 -0.4842050406553023
2618 -0.4841413636320902
2619 -0.4842275079173257
2620 -0.4841728005940183
2621 -0.4842508767563256
2622 -0.4841997698189349
2623 -0.4842873701540928
2624 -0.4842367149592625
2625 -0.4843255754229582
2626 -0.484279917924398
2627 -0.4843758369173236
2628 -0.4843302941193302
2629 -0.4844299426791865
2630 -0.4843830383737907
2631 -0.4844756546855037
2632 -0.4844320548616766
2633 -0.4845318084102333
2634 -0.4844916440587003
2635 -0.484584952947501
2636 -0.4845403524801411
2637 -0.4846280334934233
2638 -0.4845850385453828
2639 -0.4846710462421603
2640 -0.4846255665599105
2641 -0.4847079819093105
2642 -0.4846572258615743
2643 -0.4847341543975031
2644 -0.4846842118596376
2645 -0.4847497401444898
2646 -0.4846995786066637
2647 -0.4847624926800931
2648 -0.4846991265495376
2649 -0.484763957685734
2650 -0.4846930649137399
2651 -0.4847461530772535
2652 -0.4846746483379588
2653 -0.4847270911329822
2654 -0.4846514842942395
2655 -0.4846941185542326
2656 -0.4846064274708259
2657 -0.4846502270816426
2658 -0.4845614277212734
2659 -0.4846023670059904
2660 -0.4845058182472582
2661 -0.4845471206195315
2662 -0.4844444114335034
2663 -0.4844851767961024
2664 -0.4843745542742606
2665 -0.4844178744688745
2666 -0.4843122028870162
2667 -0.4843494704902015
2668 -0.4842470393782654
2669 -0.4842840673109198
2670 -0.4841896213996912
2671 -0.4842277268504188
2672 -0.4841276883552147
2673 -0.4841673289436818
2674 -0.4840671074588674
2675 -0.4841141800600952
2676 -0.4840161055661734
2677 -0.4840623383869291
2678 -0.4839657948173646
2679 -0.4840099492244717
2680 -0.4839237891888304
2681 -0.4839657512297771
2682 -0.4838829931020293
2683 -0.4839292733364752
2684 -0.4838463085196568
2685 -0.4839002466523118
2686 -0.4838237649038197
2687 -0.4838804882708774
2688 -0.4838034444572961
2689 -0.483861217307989
2690 -0.4837868138121608
2691 -0.4838393520540114
2692 -0.4837649689424485
2693 -0.4838180559780926
2694 -0.4837425189866337
2695 -0.4838005321924612
2696 -0.4837238133615456
2697 -0.4837819370995424
2698 -0.4837043317346213
2699 -0.4837597658304541
2700 -0.4836811358751857
2701 -0.4837293213055461
2702 -0.4836585304721643
2703 -0.483706761047748
2704 -0.4836345183075932
2705 -0.4836772183633191
2706 -0.4836063559574489
2707 -0.4836515721324973
2708 -0.4835814528360835
2709 -0.4836239651361711
2710 -0.4835521408866955
2711 -0.4835959065689149
2712 -0.4835222964265292
2713 -0.4835733393285333
2714 -0.4835026017809211
2715 -0.4835477755051694
2716 -0.4834761592224271
2717 -0.4835276554610372
2718 -0.4834545674172772
2719 -0.4835072229410634
2720 -0.4834327215772183
2721 -0.4834902624853755
2722 -0.4834180886710773
2723 -0.4834761648968461
2724 -0.4834065624923863
2725 -0.4834671901588628
2726 -0.4834062127443027
2727 -0.4834712470874735
2728 -0.4834046169071333
2729 -0.4834799352546577
2730 -0.4834149386704639
2731 -0.4834979042522852
2732 -0.4834314248983086
2733 -0.4835229254800339
2734 -0.4834592509536225
2735 -0.4835481686982557
2736 -0.4834887366348912
2737 -0.4835817302032602
2738 -0.4835330551609633
2739 -0.4836212174521817
2740 -0.4835798180736484
2741 -0.4836657937605451
2742 -0.4836298736325789
2743 -0.4837165515943863
2744 -0.4836809910587008
2745 -0.4837671131776405
2746 -0.483732631017224
2747 -0.4838152810262237
2748 -0.4837836873715268
2749 -0.4838636122698322
2750 -0.4838385490027582
2751 -0.4839141622422632
2752 -0.4838933744910797
2753 -0.4839679089019623
2754 -0.4839404720226754
2755 -0.4840233884881509
2756 -0.4839831658089087
2757 -0.4840686722980758
2758 -0.4840195780179294
2759 -0.4841063489312227
2760 -0.4840531560317675
2761 -0.4841385892694411
2762 -0.4840877160589749
2763 -0.4841593540860638
2764 -0.4841152994172078
2765 -0.4841861793483944
2766 -0.4841354912687157
2767 -0.4842040812748033
2768 -0.4841476773358107
2769 -0.4842117395276936
2770 -0.4841527650380191
2771 -0.4842207965469386
2772 -0.4841547985382589
2773 -0.4842224795986632
2774 -0.4841539472101843
2775 -0.4842176672270092
2776 -0.4841474977385468
2777 -0.4842115636102271
2778 -0.4841342660756224
2779 -0.4841954844453319
2780 -0.484118117096381
2781 -0.4841776647547287
2782 -0.4840937364261263
2783 -0.4841626094903096
2784 -0.4840834291459943
2785 -0.4841510391759434
2786 -0.4840659530726497
2787 -0.4841340605935513
2788 -0.4840546763601372
2789 -0.4841199808518451
2790 -0.4840427740272631
2791 -0.4841009067979866
2792 -0.4840324433835863
2793 -0.4840932526771924
2794 -0.4840258265958512
2795 -0.4840838231722767
2796 -0.4840192198551692
2797 -0.4840796585025644
2798 -0.4840185622030702
2799 -0.4840829009039083
2800 -0.4840225525853922
2801 -0.4840904326085655
2802 -0.4840290868274695
2803 -0.4841044419303468
2804 -0.4840404810776345
2805 -0.4841184025493058
2806 -0.4840529702869042
2807 -0.4841384015385309
2808 -0.4840749137810338
2809 -0.4841658775724734
2810 -0.4841016438916866
2811 -0.4841959702511803
2812 -0.4841401490720249
2813 -0.484236943014017
2814 -0.4841880811900152
2815 -0.4842804959621846
2816 -0.4842307895585189
2817 -0.484324774238466
2818 -0.4842785174376975
2819 -0.4843656092448108
2820 -0.4843256129335308
2821 -0.4844104229036465
2822 -0.4843729243238272
2823 -0.4844574344989034
2824 -0.4844255998089813
2825 -0.4845024850584025
2826 -0.4844651522726894
2827 -0.4845428866984394
2828 -0.4845112886732069
2829 -0.4845876650317186
2830 -0.4845479283423194
2831 -0.4846305229828625
2832 -0.4845867370892915
2833 -0.4846601235469119
2834 -0.4846186188975714
2835 -0.4846881533512925
2836 -0.4846449025977075
2837 -0.4847049459749534
2838 -0.484658031392762
2839 -0.4847179104447414
2840 -0.4846648134736953
2841 -0.4847207903226669
2842 -0.4846586774636463
2843 -0.4847168623422576
2844 -0.4846502007561271
2845 -0.4847038809101597
2846 -0.4846320737653793
2847 -0.4846771370719401
2848 -0.4846067679626355
2849 -0.4846521222385164
2850 -0.4845707662412636
2851 -0.4846161600886533
2852 -0.4845256393543422
2853 -0.4845756912649032
2854 -0.4844735148210952
2855 -0.484521951919676
2856 -0.4844135936305271
2857 -0.4844669862642883
2858 -0.4843546582870486
2859 -0.4843993945239136
2860 -0.4842865023521398
2861 -0.4843281828295098
2862 -0.484213665679983
2863 -0.484254617686781
2864 -0.4841415813107082
2865 -0.4841838536630013
2866 -0.4840711072013324
2867 -0.4841113838727227
2868 -0.4839980368603164
2869 -0.4840355879137934
2870 -0.4839256284702863
2871 -0.4839642632793356
2872 -0.483857843853514
2873 -0.4838949747201374
2874 -0.483793571019159
2875 -0.4838259366078486
2876 -0.4837284669245259
2877 -0.4837588951229299
2878 -0.4836720859988725
2879 -0.4837089599888235
2880 -0.4836264176853927
2881 -0.4836597604801788
2882 -0.4835805409867512
2883 -0.4836138004446021
2884 -0.4835360095550262
2885 -0.483574086492031
2886 -0.4834990084126204
2887 -0.483545829643461
2888 -0.4834674056133414
2889 -0.4835182250713334
2890 -0.4834444345045175
2891 -0.4835025761187234
2892 -0.4834295964675911
2893 -0.4834891961172083
2894 -0.4834151446021033
2895 -0.4834777307595522
2896 -0.4834097566638872
2897 -0.4834691054529258
2898 -0.4834090638122533
2899 -0.4834759497321357
2900 -0.4834094418261851
2901 -0.483479669166173
2902 -0.483417985484616
2903 -0.4834930477590083
2904 -0.4834304060167599
2905 -0.483507448513418
2906 -0.4834519733992891
2907 -0.4835275318423076
2908 -0.4834771224785097
2909 -0.4835543965617504
2910 -0.4835053988755948
2911 -0.4835843428116424
2912 -0.4835370466477799
2913 -0.4836219021371435
2914 -0.4835750207880145
2915 -0.4836590558566262
2916 -0.4836146559424325
2917 -0.483703455342343
2918 -0.48366251176577
2919 -0.483757347257983
2920 -0.4837157639327554
2921 -0.4838148831625815
2922 -0.4837788991812861
2923 -0.4838701456436446
2924 -0.4838424324095431
2925 -0.4839354527906868
2926 -0.4839062886594657
2927 -0.4840055326943287
2928 -0.4839734600892906
2929 -0.4840779096107758
2930 -0.4840439514615352
2931 -0.4841487384078154
2932 -0.4841178703838766
2933 -0.4842213368786975
2934 -0.4841923198929384
2935 -0.4842918362688525
2936 -0.484261390762926
2937 -0.4843658530690401
2938 -0.4843306676270372
2939 -0.4844381210643214
2940 -0.4844079688527428
2941 -0.484517385023598
2942 -0.4844793797968341
2943 -0.4845918926252795
2944 -0.4845522159903208
2945 -0.4846555321768383
2946 -0.4846160786929949
2947 -0.4847191427009371
2948 -0.4846852809804723
2949 -0.4847754856990683
2950 -0.4847443842098585
2951 -0.4848397487100987
2952 -0.4848008817051632
2953 -0.4848902872077916
2954 -0.4848478352584154
2955 -0.4849387252264429
2956 -0.4848879374871039
2957 -0.4849748909295621
2958 -0.4849268344458962
2959 -0.4850095903469891
2960 -0.4849683025626674
2961 -0.4850360347920888
2962 -0.4849909082250483
2963 -0.4850623996126603
2964 -0.4850062120777821
2965 -0.4850811907217378
2966 -0.4850159352321015
2967 -0.4850941619264956
2968 -0.4850344595920698
2969 -0.4851115374077406
2970 -0.4850458691369612
2971 -0.4851181481950406
2972 -0.4850591625132936
2973 -0.48512370513601
2974 -0.4850702852679783
2975 -0.4851345330424409
2976 -0.48508179237389
2977 -0.4851521379802685
2978 -0.4850993680810873
2979 -0.4851713473858731
2980 -0.485116224192099
2981 -0.48519085460249
2982 -0.4851336952002089
2983 -0.4852186338043907
2984 -0.4851633924409522
2985 -0.4852494420311369
2986 -0.4851999536356802
2987 -0.4852862683542344
2988 -0.4852314167912962
2989 -0.4853279505290432
2990 -0.4852751709495189
2991 -0.485376581421276
2992 -0.4853247841784929
2993 -0.4854323516433104
2994 -0.4853837341605622
2995 -0.4854878566139862
2996 -0.4854453419613847
2997 -0.4855541068571247
2998 -0.4855094371134435
2999 -0.4856191668121598
3000 -0.4855785001349754
3001 -0.4856807969730096
3002 -0.4856472770027921
3003 -0.485743380752165
3004 -0.4857072345171581
3005 -0.4858070374696024
3006 -0.4857638747813508
3007 -0.4858643638691832
3008 -0.4858137972671022
3009 -0.4859125002538258
3010 -0.4858591621373941
3011 -0.4859519757889412
3012 -0.4859010112451801
3013 -0.4859820571144063
3014 -0.4859276475486115
3015 -0.4860113752703438
3016 -0.485955882798737
3017 -0.486024016374684
3018 -0.4859641557821008
3019 -0.486035565120173
3020 -0.4859681641393148
3021 -0.4860342933444648
3022 -0.4859667517663144
3023 -0.48602300526254
3024 -0.4859578228427573
3025 -0.486015411947936
3026 -0.4859431104045228
3027 -0.4859985333091295
3028 -0.4859190881891393
3029 -0.4859743830388772
3030 -0.4858919078732429
3031 -0.48594614872487
3032 -0.4858700857653636
3033 -0.4859227025921581
3034 -0.4858433571667993
3035 -0.4859002330330638
3036 -0.4858240996313724
3037 -0.4858763485672249
3038 -0.485797222780359
3039 -0.4858605120035592
3040 -0.485781686516829
3041 -0.4858515323114634
3042 -0.485772594503753
3043 -0.4858428767759815
3044 -0.4857656359155971
3045 -0.4858324328797618
3046 -0.4857671665978944
3047 -0.4858399186520111
3048 -0.4857768624127518
3049 -0.4858526504930697
3050 -0.4857902123775091
3051 -0.4858726641276001
3052 -0.485806537482016
3053 -0.4858919013537727
3054 -0.4858276325461337
3055 -0.4859180798905406
3056 -0.4858637872746631
3057 -0.4859570940594777
3058 -0.4859025534550622
3059 -0.4859885175975831
3060 -0.4859392697698147
3061 -0.4860209555300576
3062 -0.4859736460388294
3063 -0.4860594679485823
3064 -0.4860080809067704
3065 -0.4860880355875579
3066 -0.4860369504887889
3067 -0.486120129956381
3068 -0.4860632678136563
3069 -0.4861376105263656
3070 -0.4860807811229868
3071 -0.4861493631690867
3072 -0.4860874686517359
3073 -0.4861560303340446
3074 -0.4861016514453477
3075 -0.4861581387449084
3076 -0.4861004810701542
3077 -0.486152777788213
3078 -0.4860912969675292
3079 -0.4861459478899779
3080 -0.4860735375003042
3081 -0.4861328065404687
3082 -0.4860552733710425
3083 -0.4861115863712486
3084 -0.486032074960067
3085 -0.4860816199014754
3086 -0.4860084822068689
3087 -0.4860596160771756
3088 -0.4859918290188379
3089 -0.4860389305809501
3090 -0.4859672581988345
3091 -0.4860247854252313
3092 -0.4859506628842383
3093 -0.4860076825619777
3094 -0.4859323211224776
3095 -0.4860054546613761
3096 -0.4859306326419826
3097 -0.4860061207021031
3098 -0.4859376166731516
3099 -0.4860079797304581
3100 -0.4859478275929415
3101 -0.4860230611106434
3102 -0.4859618609214919
3103 -0.4860462936775969
3104 -0.4859858445259124
3105 -0.4860747328319627
3106 -0.486017120538948
3107 -0.4861128032918864
3108 -0.4860539905617415
3109 -0.4861570430700875
3110 -0.4860997473195248
3111 -0.4862053279711787
3112 -0.4861557844647786
3113 -0.4862524960387043
3114 -0.4862008604975255
3115 -0.4862967604357939
3116 -0.4862508820610729
3117 -0.4863405882597872
3118 -0.4862971938080076
3119 -0.4863875580395634
3120 -0.4863465242798499
3121 -0.4864311302669402
3122 -0.4863874646582038
3123 -0.4864754140195108
3124 -0.4864285582823455
3125 -0.4865145315641817
3126 -0.4864623498970916
3127 -0.4865443778972644
3128 -0.4864852457895876
3129 -0.4865643296875271
3130 -0.4865010803324124
3131 -0.4865759891188831
3132 -0.4865009064928311
3133 -0.4865797666347564
3134 -0.4864969911666335
3135 -0.4865761262461974
3136 -0.4864876579609378
3137 -0.486564857782985
3138 -0.4864762911158663
3139 -0.4865426384297071
3140 -0.486456382157196
3141 -0.4865069915701004
3142 -0.4864235330500926
3143 -0.4864755426089559
3144 -0.4863972056925919
3145 -0.4864401544248739
3146 -0.4863652501071149
3147 -0.4864069815692994
3148 -0.4863293210863114
3149 -0.4863739954126506
3150 -0.4862987846501844
3151 -0.4863393430559054
3152 -0.4862662519932813
3153 -0.4863089399938108
3154 -0.4862353951695437
3155 -0.4862837783872418
3156 -0.4862061918757235
3157 -0.4862605090104298
3158 -0.4861830354121487
3159 -0.4862398429982658
3160 -0.4861623914088053
3161 -0.4862222230727307
3162 -0.4861571014848746
3163 -0.4862157126528325
3164 -0.4861478456813107
3165 -0.4862115980094597
3166 -0.4861435946969341
3167 -0.4862150240543646
3168 -0.4861466999702738
3169 -0.4862177989166018
3170 -0.4861538347518728
3171 -0.4862323488584289
3172 -0.4861642201292587
3173 -0.48624462652546
3174 -0.4861821605808235
3175 -0.4862629348548568
3176 -0.4862048008294569
3177 -0.486282332020325
3178 -0.4862299988756069
3179 -0.4863146570026221
3180 -0.4862549229498772
3181 -0.4863445243405024
3182 -0.4862860862405837
3183 -0.4863731511374647
3184 -0.4863153182780213
3185 -0.486401950666438
3186 -0.4863461969294252
3187 -0.4864296233300869
3188 -0.4863804508769684
3189 -0.4864686645245656
3190 -0.4864149953128596
3191 -0.4865008092758175
3192 -0.4864552732069351
3193 -0.4865355851457466
3194 -0.4864868272821128
3195 -0.4865722670788005
3196 -0.4865186482704969
3197 -0.4866020986758075
3198 -0.48654827870242
3199 -0.4866286826382987
3200 -0.4865777379175449
3201 -0.4866560406215703
3202 -0.4866046469267749
3203 -0.4866837463996946
3204 -0.4866289043185595
3205 -0.4867060354237966
3206 -0.4866466018970445
3207 -0.4867339370023466
3208 -0.4866747052233616
3209 -0.4867577835807038
3210 -0.4867012237688582
3211 -0.486784093021553
3212 -0.486725087041442
3213 -0.4868000611223802
3214 -0.4867456856013961
3215 -0.4868226076409136
3216 -0.4867674032989344
3217 -0.4868468510852287
3218 -0.4867882759860307
3219 -0.4868633988271695
3220 -0.4868058816015928
3221 -0.4868838989902406
3222 -0.4868203318408555
3223 -0.4869068605984264
3224 -0.4868450026094306
3225 -0.4869241059815757
3226 -0.486868166587687
3227 -0.4869481289049247
3228 -0.4868959169519214
3229 -0.4869669678141232
3230 -0.486920736157491
3231 -0.4869929397035396
3232 -0.4869428765513512
3233 -0.4870143122772169
3234 -0.4869646751595284
3235 -0.4870356039597447
3236 -0.4869806352836047
3237 -0.4870569072200334
3238 -0.4870009331420749
3239 -0.4870780525118142
3240 -0.4870186175973031
3241 -0.4870886510814528
3242 -0.4870323977951649
3243 -0.4871011163153885
3244 -0.4870445332087444
3245 -0.4871090552088299
3246 -0.4870489223365808
3247 -0.4871159444698354
3248 -0.4870576596527995
3249 -0.4871256308777812
3250 -0.4870639775063654
3251 -0.4871313651988811
3252 -0.4870677175583839
3253 -0.4871365783289698
3254 -0.4870709421833596
3255 -0.4871370974166865
3256 -0.4870726116550061
3257 -0.4871368902628943
3258 -0.48707031965717
3259 -0.4871425718022294
3260 -0.4870738709828776
3261 -0.4871458553640655
3262 -0.4870769971490707
3263 -0.4871620475263073
3264 -0.4870879801285083
3265 -0.4871733711048767
3266 -0.4870969609720842
3267 -0.487186535627019
3268 -0.4871103978237549
3269 -0.4872012441786014
3270 -0.4871353304214392
3271 -0.4872212843528619
3272 -0.4871633588244778
3273 -0.4872469425502822
3274 -0.4871956831892075
3275 -0.4872873182581673
3276 -0.4872389658048698
3277 -0.4873283632943417
3278 -0.4872858633555668
3279 -0.4873786059721933
3280 -0.4873359410761951
3281 -0.4874302588828131
3282 -0.4873941700396156
3283 -0.4874914781637792
3284 -0.487455475228714
3285 -0.4875533244849782
3286 -0.4875143015811007
3287 -0.487619237817317
3288 -0.4875741164426869
3289 -0.4876844606461959
3290 -0.4876411654799526
3291 -0.4877583218477052
3292 -0.4877111061044271
3293 -0.4878201647011269
3294 -0.4877746644760149
3295 -0.4878843960541769
3296 -0.4878462461047578
3297 -0.487951892111591
3298 -0.4879136576863649
3299 -0.4880083231026506
3300 -0.487978406428216
3301 -0.488073617460945
3302 -0.4880372702457508
3303 -0.488135270899332
3304 -0.4880992979842477
3305 -0.4881993270965398
3306 -0.4881522017776895
3307 -0.4882510910741551
3308 -0.488202801145612
3309 -0.4882960200186663
3310 -0.4882517834830774
3311 -0.4883467171532505
3312 -0.4883002267117375
3313 -0.4883889598790901
3314 -0.4883415174447567
3315 -0.4884326568769832
3316 -0.488382745691204
3317 -0.4884708516276988
3318 -0.4884232416273946
3319 -0.4885134412954381
3320 -0.4884633188015027
3321 -0.4885434584938676
3322 -0.4884963309180814
3323 -0.4885784753865403
3324 -0.4885341724453241
3325 -0.4886113085326237
3326 -0.4885674298884704
3327 -0.4886448334378358
3328 -0.4886018704296867
3329 -0.4886819344743297
3330 -0.4886334422214118
3331 -0.4887169058228631
3332 -0.4886648471822397
3333 -0.4887487470168806
3334 -0.4886887071659741
3335 -0.4887809825754558
3336 -0.4887208355184882
3337 -0.4888132200091282
3338 -0.4887541352729644
3339 -0.4888380757968041
3340 -0.4887854609188398
3341 -0.4888684476213297
3342 -0.4888179141711439
3343 -0.4888996082955985
3344 -0.488848929741356
3345 -0.4889284156716777
3346 -0.4888763584202323
3347 -0.4889618638028136
3348 -0.4889068032385552
3349 -0.4889927785939023
3350 -0.488934037499323
3351 -0.4890189802503343
3352 -0.488969479835853
3353 -0.4890471116256431
3354 -0.4889976961025145
3355 -0.489078563553705
3356 -0.4890276781728524
3357 -0.489112796473249
3358 -0.4890637554543051
3359 -0.4891528658901958
3360 -0.4891084647615236
3361 -0.4891901557258141
3362 -0.4891403030511867
3363 -0.4892293571485835
3364 -0.4891736417291472
3365 -0.4892687128792529
3366 -0.4892144256269207
3367 -0.4893045911938904
3368 -0.4892512872527767
3369 -0.4893397868235621
3370 -0.4892909100214475
3371 -0.4893763432606018
3372 -0.4893192668001296
3373 -0.4894054055749443
3374 -0.4893522653025998
3375 -0.4894407383985245
3376 -0.4893836022564235
3377 -0.4894696689590413
3378 -0.4894098230663827
3379 -0.489497351589389
3380 -0.4894377150453504
3381 -0.4895189038572453
3382 -0.4894600857475017
3383 -0.48954518588632
3384 -0.4894813602409434
3385 -0.4895678526585694
3386 -0.4894996725026267
3387 -0.4895915267147979
3388 -0.4895184852423856
3389 -0.4896040390839212
3390 -0.4895334757315296
3391 -0.4896185471593859
3392 -0.4895499569177295
3393 -0.4896234498473503
3394 -0.4895679491462532
3395 -0.4896330080874671
3396 -0.4895764954212983
3397 -0.4896432534686663
3398 -0.4895838583093107
3399 -0.489653645880433
3400 -0.4895920949943023
3401 -0.4896639959203909
3402 -0.4895988594686768
3403 -0.4896701094034142
3404 -0.4895969132047458
3405 -0.4896696313333577
3406 -0.4896112874763212
3407 -0.4896801447897186
3408 -0.4896259015630106
3409 -0.4896955310369986
3410 -0.4896376735818996
3411 -0.4897074756488679
3412 -0.4896483098446158
3413 -0.4897254937474412
3414 -0.4896677130754039
3415 -0.4897402674265032
3416 -0.489684382314255
3417 -0.4897652105275259
3418 -0.4897099710277171
3419 -0.4897903082099706
3420 -0.4897291169203082
3421 -0.4898104958057652
3422 -0.4897565313630505
3423 -0.4898412532798106
3424 -0.4897886415781393
3425 -0.4898652336920369
3426 -0.4898183897309783
3427 -0.4899015125047557
3428 -0.4898528080403808
3429 -0.4899296555224473
3430 -0.4898818843949043
3431 -0.4899683256082405
3432 -0.489915256937093
3433 -0.4900028166506665
3434 -0.4899549006467556
3435 -0.4900348996309351
3436 -0.4899869293659054
3437 -0.4900652761858921
3438 -0.4900117871367954
3439 -0.4900978748884532
3440 -0.4900416556910553
3441 -0.4901267271767984
3442 -0.4900643687713099
3443 -0.4901549097999744
3444 -0.490089368616325
3445 -0.4901802057542755
3446 -0.4901101622138184
3447 -0.4901995545817114
3448 -0.4901303202167598
3449 -0.4902177556057378
3450 -0.4901402419706575
3451 -0.4902277719490004
3452 -0.4901443409752315
3453 -0.4902219308433932
3454 -0.4901464740446334
3455 -0.4902182290299998
3456 -0.4901375600581219
3457 -0.4902080648820084
3458 -0.4901241614935425
3459 -0.4901900980181685
3460 -0.4901028100157153
3461 -0.4901666535692407
3462 -0.4900744166267444
3463 -0.490129535720259
3464 -0.4900311448091061
3465 -0.4900824985638295
3466 -0.4899844338959847
3467 -0.4900280112541398
3468 -0.48992867510679
3469 -0.489962663816058
3470 -0.4898645785059812
3471 -0.4898954854760126
3472 -0.4897955399475352
3473 -0.4898229338070261
3474 -0.4897151036537769
3475 -0.4897370858831907
3476 -0.4896226418282051
3477 -0.4896371863055479
3478 -0.4895186197481736
3479 -0.4895295903702757
3480 -0.4894124164914472
3481 -0.4894166744900291
3482 -0.4892969579069163
3483 -0.4892969655845933
3484 -0.4891701769624705
3485 -0.4891702611227482
3486 -0.489045387866678
3487 -0.4890402588686847
3488 -0.4889090419399635
3489 -0.488904074031506
3490 -0.4887731547353264
3491 -0.4887648425731885
3492 -0.4886337722632885
3493 -0.4886235352881938
3494 -0.4884921729147541
3495 -0.4884800239525189
3496 -0.4883458641717487
3497 -0.4883322756865884
3498 -0.4882002342457151
3499 -0.4881866584831742
3500 -0.488051193535771
3501 -0.4880332439174951
3502 -0.4879035229149582
3503 -0.4878913992802151
3504 -0.4877608526621376
3505 -0.4877544876798628
3506 -0.4876204808002654
3507 -0.487616693631829
3508 -0.4874790831546155
3509 -0.487483841064554
3510 -0.4873478490758666
3511 -0.4873589609747355
3512 -0.4872270585950014
3513 -0.4872416459095984
3514 -0.4871165568012257
3515 -0.4871341320963253
3516 -0.4870188352534648
3517 -0.4870348661402763
3518 -0.4869227793088145
3519 -0.4869470030538629
3520 -0.4868371998586938
3521 -0.4868664831047878
3522 -0.4867564290723855
3523 -0.486788773303904
3524 -0.4866829938274523
3525 -0.4867229512662205
3526 -0.4866227266480531
3527 -0.486674073385617
3528 -0.4865794064090108
3529 -0.4866288862133035
3530 -0.4865415421860798
3531 -0.4865906481666599
3532 -0.4865077428550734
3533 -0.4865653869220042
3534 -0.4864817818602062
3535 -0.4865435727950986
3536 -0.4864647381555214
3537 -0.4865250949542292
3538 -0.4864509368145757
3539 -0.486510468346259
3540 -0.4864302322879588
3541 -0.4864898631429791
3542 -0.4864118703793734
3543 -0.4864667855279315
3544 -0.4863892627929262
3545 -0.4864451389499789
3546 -0.4863648671506471
3547 -0.4864163134705248
3548 -0.4863289097467513
3549 -0.4863846773183811
3550 -0.4862906668344789
3551 -0.4863414332452594
3552 -0.4862467249045543
3553 -0.486286572974357
3554 -0.4861973485851347
3555 -0.486229884388659
3556 -0.4861349771259681
3557 -0.4861642541513861
3558 -0.4860645124281947
3559 -0.486094281128553
3560 -0.4859913617678542
3561 -0.486014154500406
3562 -0.4859100624557386
3563 -0.4859430496287055
3564 -0.4858225582615487
3565 -0.4858547172129888
3566 -0.4857314133798378
3567 -0.4857617468185221
3568 -0.4856371450388958
3569 -0.4856679296106918
3570 -0.4855514038162927
3571 -0.4855699045971784
3572 -0.4854551507212304
3573 -0.4854747031954927
3574 -0.4853682698485486
3575 -0.4853956354968355
3576 -0.4852911781479627
3577 -0.4853238878723762
3578 -0.4852227448773422
3579 -0.4852529775011819
3580 -0.4851618734273944
3581 -0.4851948869745355
3582 -0.4851103108206201
3583 -0.485157648704419
3584 -0.4850779254018608
3585 -0.4851286103337393
3586 -0.4850579487621285
3587 -0.4851158990631956
3588 -0.4850491010825255
3589 -0.4851145562634124
3590 -0.4850491844535794
3591 -0.4851213391543894
3592 -0.4850602074624836
3593 -0.4851336947584556
3594 -0.4850799387188315
3595 -0.485156757473177
3596 -0.4851039743695758
3597 -0.4851832497160914
3598 -0.4851403201328851
3599 -0.4852234695828484
3600 -0.4851728764480171
3601 -0.4852610123405033
3602 -0.4852125245953482
3603 -0.4852950036212197
3604 -0.4852434738749848
3605 -0.4853359087969488
3606 -0.4852820944467019
3607 -0.4853737161945571
3608 -0.4853131332628504
3609 -0.4853964780489927
3610 -0.4853402434070939
3611 -0.485415634081827
3612 -0.4853534657470955
3613 -0.4854298842419926
3614 -0.4853570677823677
3615 -0.4854273046863374
3616 -0.4853482058030367
3617 -0.4854189701835659
3618 -0.4853312669630068
3619 -0.4853987468540197
3620 -0.4853024772358397
3621 -0.4853652704573121
3622 -0.4852727589033366
3623 -0.4853257315433848
3624 -0.485240295408691
3625 -0.485278724509801
3626 -0.4851992375346745
3627 -0.4852320824400392
3628 -0.4851451355443323
3629 -0.4851770081618783
3630 -0.485099662609591
3631 -0.4851296400339818
3632 -0.4850512592479269
3633 -0.4850904579876573
3634 -0.4850085669774223
3635 -0.4850548688454228
3636 -0.4849642842759005
3637 -0.4850169653452278
3638 -0.4849280482774128
3639 -0.4849801512094316
3640 -0.4848933116422383
3641 -0.4849513902894919
3642 -0.4848672609478151
3643 -0.4849340274398264
3644 -0.4848514572221022
3645 -0.4849179814157873
3646 -0.4848360149657235
3647 -0.4849084200569067
3648 -0.4848263078619094
3649 -0.4848877221643704
3650 -0.4848119976568547
3651 -0.4848732816671596
3652 -0.4847988052125464
3653 -0.4848608281999837
3654 -0.4847881409762995
3655 -0.4848488007472803
3656 -0.4847776263202329
3657 -0.4848367048855871
3658 -0.4847615510413612
3659 -0.4848124642843661
3660 -0.4847388824347885
3661 -0.4847850318127294
3662 -0.4847061004627973
3663 -0.484743043372094
3664 -0.4846619864400389
3665 -0.484692853314776
3666 -0.4846113902796102
3667 -0.4846408057819283
3668 -0.4845578755395154
3669 -0.4845827564644673
3670 -0.4845000676737414
3671 -0.4845269511948099
3672 -0.4844375974350171
3673 -0.4844703981980338
3674 -0.4843792748639293
3675 -0.4844088783572568
3676 -0.4843149751907013
3677 -0.4843477615803517
3678 -0.4842594689722695
3679 -0.4842952242534618
3680 -0.4842016278148052
3681 -0.4842394520994434
3682 -0.484145746752236
3683 -0.4842003181636433
3684 -0.4840973848490623
3685 -0.484160581131684
3686 -0.4840690914245061
3687 -0.4841400868458777
3688 -0.4840517449646498
3689 -0.4841357297138783
3690 -0.4840551128354126
3691 -0.4841398091811685
3692 -0.484069995703614
3693 -0.4841646859992857
3694 -0.484115068418312
3695 -0.4842124473894629
3696 -0.484179395453362
3697 -0.484283205453479
3698 -0.484255018534358
3699 -0.4843761375135013
3700 -0.4843601877633417
3701 -0.4844917135095673
3702 -0.4844815190979632
3703 -0.484622246818313
3704 -0.4846216088761858
3705 -0.484767575127395
3706 -0.4847743457200743
3707 -0.4849245764114587
3708 -0.4849373665579023
3709 -0.4850897163860634
3710 -0.4851074530961001
3711 -0.485267754863154
3712 -0.4852904543561711
3713 -0.4854567581045652
3714 -0.4854819650558723
3715 -0.4856435964276592
3716 -0.4856658198863874
3717 -0.4858260350546425
3718 -0.4858403088528265
3719 -0.4860069109900162
3720 -0.4860207768884871
3721 -0.4861780638724983
3722 -0.4861926070534549
3723 -0.4863445634712001
3724 -0.4863518497038773
3725 -0.4864952759193297
3726 -0.4864976452875993
3727 -0.4866352510975196
3728 -0.4866281704106273
3729 -0.486750207245732
3730 -0.4867455735538653
3731 -0.4868572693779097
3732 -0.4868423621545546
3733 -0.4869409902465571
3734 -0.4869196590534772
3735 -0.4870154964078813
3736 -0.4869764754237467
3737 -0.4870633181100295
3738 -0.4870192766383202
3739 -0.4871035328595748
3740 -0.4870465058993462
3741 -0.487127411433125
3742 -0.4870625042195992
3743 -0.4871380825860739
3744 -0.4870647280846055
3745 -0.4871327593538172
3746 -0.487057082044398
3747 -0.4871169827412829
3748 -0.4870405415037318
3749 -0.487091599217338
3750 -0.4870093990865251
3751 -0.4870563713976699
3752 -0.4869766083501559
3753 -0.4870189779885992
3754 -0.4869301275755404
3755 -0.4869692428456653
3756 -0.486879513622945
3757 -0.4869190100978217
3758 -0.4868317794465947
3759 -0.4868736738427127
3760 -0.4867854492177436
3761 -0.4868216043751666
3762 -0.4867318887644382
3763 -0.4867713996302241
3764 -0.4866762487154728
3765 -0.4867168209215941
3766 -0.4866233247323996
3767 -0.486674126418288
3768 -0.4865749031354314
3769 -0.4866238990358169
3770 -0.4865283802419926
3771 -0.4865784504353524
3772 -0.4864842267241523
3773 -0.486543481321348
3774 -0.4864551141427537
3775 -0.4865049402303644
3776 -0.4864167788794031
3777 -0.4864676267046753
3778 -0.4863793709234305
3779 -0.4864334800656551
3780 -0.4863487384806972
3781 -0.4864051133221574
3782 -0.4863236657747417
3783 -0.4863756962555201
3784 -0.4862954956247182
3785 -0.4863449178606343
3786 -0.4862690545220559
3787 -0.4863200384256718
3788 -0.4862467816788223
3789 -0.4862884978993842
3790 -0.48622335956935
3791 -0.4862668746768288
3792 -0.4862026999756125
3793 -0.4862447286821227
3794 -0.4861812491276888
3795 -0.486223763219754
3796 -0.4861554779736666
3797 -0.4862110237711442
3798 -0.4861391008893643
3799 -0.4861992274494327
3800 -0.4861273822182804
3801 -0.4861920455538532
3802 -0.4861240458104298
3803 -0.4861876823951028
3804 -0.4861263722398874
3805 -0.4861908643963876
3806 -0.4861316563921555
3807 -0.4861961761387932
3808 -0.4861305466591718
3809 -0.4862124583785681
3810 -0.486146281413464
3811 -0.486228307067551
3812 -0.4861623905785587
3813 -0.4862479462363359
3814 -0.486187125392034
3815 -0.4862789795688427
3816 -0.486219814497885
3817 -0.486310383850829
3818 -0.4862609624896057
3819 -0.486350347655483
3820 -0.486302811156865
3821 -0.4863928948894466
3822 -0.4863540854027214
3823 -0.48644407916296
3824 -0.4864066220560808
3825 -0.4864965241882519
3826 -0.4864591377522148
3827 -0.4865570698475182
3828 -0.4865182308930991
3829 -0.4866186173832325
3830 -0.4865765950857443
3831 -0.4866715110112561
3832 -0.4866351224815178
3833 -0.4867280593058186
3834 -0.4866939476801052
3835 -0.4867853702589525
3836 -0.4867475694942839
3837 -0.486840966972214
3838 -0.4867944793431578
3839 -0.4868886678568002
3840 -0.4868414777958693
3841 -0.4869389472133995
3842 -0.4868762518939166
3843 -0.4869718752941483
3844 -0.4869069780781555
3845 -0.4869847108251193
3846 -0.4869226993589032
3847 -0.4869943740796508
3848 -0.4869316360142298
3849 -0.4869961850575205
3850 -0.4869273410316838
3851 -0.4869909977190628
3852 -0.4869114392416808
3853 -0.4869734537184562
3854 -0.4868885218277868
3855 -0.4869497567463958
3856 -0.4868594301004873
3857 -0.4869147502795739
3858 -0.4868199351082256
3859 -0.4868573282975544
3860 -0.4867549845014406
3861 -0.4867875352576401
3862 -0.4866780304152368
3863 -0.4867108892389614
3864 -0.4865964943760555
3865 -0.4866276323762068
3866 -0.4865100220105457
3867 -0.4865385001808498
3868 -0.4864186546702045
3869 -0.4864320797160228
3870 -0.486304499624054
3871 -0.4863196868075232
3872 -0.4861967116165251
3873 -0.4861989534497045
3874 -0.4860828749653284
3875 -0.4860820524339125
3876 -0.4859645674751195
3877 -0.4859666232521876
3878 -0.4858445069395542
3879 -0.4858547997032247
3880 -0.4857267267939257
3881 -0.4857400766453979
3882 -0.4856097426647014
3883 -0.4856305516172985
3884 -0.4854937978785654
3885 -0.4855195481220577
3886 -0.4853844499416585
3887 -0.4854127209323201
3888 -0.4852894402507253
3889 -0.4853120739039046
3890 -0.4851970716236318
3891 -0.4852220864616567
3892 -0.4851129899098303
3893 -0.4851428564498238
3894 -0.4850446590722866
3895 -0.485075840274192
3896 -0.4849819077527926
3897 -0.4850160687416871
3898 -0.484931836158259
3899 -0.4849742374893629
3900 -0.4848941178165621
3901 -0.4849361766688747
3902 -0.4848692448641179
3903 -0.4849164073036795
3904 -0.4848511211072443
3905 -0.4849056191933107
3906 -0.4848390091534251
3907 -0.484905585767491
3908 -0.4848341267324856
3909 -0.4849076113948599
3910 -0.484838551113887
3911 -0.4849211171172111
3912 -0.4848568712533525
3913 -0.4849355440998098
3914 -0.4848766080965093
3915 -0.4849561025540968
3916 -0.4848982591623088
3917 -0.4849788940986061
3918 -0.4849222930902277
3919 -0.4850058303504705
3920 -0.4849502068004034
3921 -0.4850281880210924
3922 -0.4849736299182196
3923 -0.4850517118922842
3924 -0.4849974560746889
3925 -0.4850712368682677
3926 -0.4850114611259548
3927 -0.4850853527189736
3928 -0.4850242782858889
3929 -0.4850941241226918
3930 -0.4850308078047649
3931 -0.4850975952186663
3932 -0.4850289622623066
3933 -0.4850975452729021
3934 -0.4850211381090312
3935 -0.4850848845431643
3936 -0.4850079707050919
3937 -0.4850696086812141
3938 -0.4849917771402769
3939 -0.4850481474067716
3940 -0.4849696128552188
3941 -0.4850221698570093
3942 -0.4849441156327669
3943 -0.484990137483711
3944 -0.484913294821562
3945 -0.4849572082168191
3946 -0.4848795036752552
3947 -0.4849188386258128
3948 -0.4848361090786529
3949 -0.4848766353046501
3950 -0.4847927495875434
3951 -0.4848338877570281
3952 -0.4847447530272639
3953 -0.4847844787846891
3954 -0.4846969619116714
3955 -0.4847355913622546
3956 -0.4846404605448608
3957 -0.4846792132218931
3958 -0.4845841854157295
3959 -0.4846255844214091
3960 -0.4845272249833696
3961 -0.4845708068377853
3962 -0.4844753837468802
3963 -0.4845089459444964
3964 -0.4844115451158202
3965 -0.4844468595537147
3966 -0.4843493619974807
3967 -0.484377844735052
3968 -0.4842774727623158
3969 -0.4843089612035668
3970 -0.4842081206437858
3971 -0.4842403955104519
3972 -0.4841333530904112
3973 -0.4841661692128416
3974 -0.4840605381059029
3975 -0.4840907065884166
3976 -0.4839903545208056
3977 -0.4840217432402032
3978 -0.4839235534598327
3979 -0.4839548250611507
3980 -0.4838624598246473
3981 -0.4838932181413576
3982 -0.4838126595747341
3983 -0.4838430425652894
3984 -0.483755433803699
3985 -0.4837937985190033
3986 -0.4837128420995342
3987 -0.4837494132152003
3988 -0.4836693949882442
3989 -0.4837140068963646
3990 -0.4836379236127706
3991 -0.483694668811867
3992 -0.4836214263568097
3993 -0.4836835455861903
3994 -0.4836210925854426
3995 -0.4836912155102104
3996 -0.4836259930371286
3997 -0.4837107037131443
3998 -0.4836473052323652
3999 -0.4837332925194448
4000 -0.4836827083167139
4001 -0.483777361740579
4002 -0.4837366796074915
4003 -0.4838335689340867
4004 -0.4837997113052774
4005 -0.4839030587675675
4006 -0.4838758373304115
4007 -0.4839831440526956
4008 -0.4839643318151386
4009 -0.484071740587237
4010 -0.4840566343471188
4011 -0.4841766069817926
4012 -0.484157473067802
4013 -0.4842866493986993
4014 -0.4842672541645182
4015 -0.4843984638136421
4016 -0.4843828805314018
4017 -0.4845157613674501
4018 -0.4845002428800492
4019 -0.4846287132078774
4020 -0.4846200753784372
4021 -0.4847478391947195
4022 -0.4847357504916097
4023 -0.4848591140548634
4024 -0.4848558145010511
4025 -0.4849786457373911
4026 -0.484968820797433
4027 -0.4850856737360137
4028 -0.4850706883574272
4029 -0.4851812847075203
4030 -0.4851560519733891
4031 -0.4852716858585789
4032 -0.4852506046309932
4033 -0.4853578683920649
4034 -0.4853278193816005
4035 -0.4854337611841817
4036 -0.4853949790721674
4037 -0.4855011553936515
4038 -0.4854589342161876
4039 -0.4855695561967429
4040 -0.4855107875581549
4041 -0.4856196514376326
4042 -0.4855612336087527
4043 -0.4856616595583756
4044 -0.4856052347368452
4045 -0.4857004745512196
4046 -0.4856489912098714
4047 -0.4857415116237216
4048 -0.4856975042634615
4049 -0.4857863874213482
4050 -0.4857405972318438
4051 -0.4858281696365068
4052 -0.4857821061272516
4053 -0.4858754094786434
4054 -0.48582621051424
4055 -0.4859203778358535
4056 -0.48588087218063
4057 -0.4859693037893964
4058 -0.4859316560760029
4059 -0.4860239363147615
4060 -0.485991524634763
4061 -0.4860837131007673
4062 -0.4860576466868377
4063 -0.4861617624919095
4064 -0.4861330929899391
4065 -0.4862422970848288
4066 -0.4862190493707675
4067 -0.4863279293285748
4068 -0.4863073833789067
4069 -0.4864162757458626
4070 -0.4863955516298817
4071 -0.4865049002362692
4072 -0.486484379110984
4073 -0.4865902450390475
4074 -0.4865793081231685
4075 -0.4866821638993602
4076 -0.4866618066585742
4077 -0.4867680386063284
4078 -0.4867464510269234
4079 -0.4868486966721163
4080 -0.4868233210380706
4081 -0.4869307222416489
4082 -0.4868953844798737
4083 -0.4869992606497216
4084 -0.4869571110373551
4085 -0.4870575149372823
4086 -0.4870172057019596
4087 -0.4871081807473883
4088 -0.4870657746717345
4089 -0.4871607595688844
4090 -0.4871076296532714
4091 -0.4871930832652707
4092 -0.4871359464197762
4093 -0.4872154366104823
4094 -0.4871563485546832
4095 -0.4872304685164577
4096 -0.4871690886441322
4097 -0.4872314548360394
4098 -0.4871780835469708
4099 -0.487237160327302
4100 -0.4871760205873822
4101 -0.4872299825447396
4102 -0.4871641508688879
4103 -0.487220719569105
4104 -0.4871485871554144
4105 -0.4872059629528613
4106 -0.4871314783243703
4107 -0.4871942150829274
4108 -0.4871133134782835
4109 -0.487185114380056
4110 -0.4871055831205204
4111 -0.4871797115283863
4112 -0.4870989145740541
4113 -0.4871778390159397
4114 -0.487105460165046
4115 -0.4871836542841135
4116 -0.4871176969701205
4117 -0.487197810945356
4118 -0.4871353067874348
4119 -0.4872240543648868
4120 -0.4871609383260909
4121 -0.4872554392154205
4122 -0.4872019779615875
4123 -0.487298909244863
4124 -0.4872451228604648
4125 -0.4873441169556076
4126 -0.4873005854525126
4127 -0.4874075547415698
4128 -0.4873734490814163
4129 -0.4874735611244329
4130 -0.4874474912474406
4131 -0.4875519988098448
4132 -0.4875216654751923
4133 -0.4876362082121019
4134 -0.4876079876641453
4135 -0.487725604073276
4136 -0.4876972533653137
4137 -0.4878187084099214
4138 -0.4877891698359956
4139 -0.4879086980266955
4140 -0.4878828178587288
4141 -0.4879970235644955
4142 -0.487979326423598
4143 -0.4880896601683947
4144 -0.4880689173866914
4145 -0.488168369216879
4146 -0.4881468240272959
4147 -0.4882486515069289
4148 -0.4882199782382846
4149 -0.4883197299200069
4150 -0.4882867402611831
4151 -0.4883883525172407
4152 -0.4883544050526446
4153 -0.4884475474515772
4154 -0.4884082311955805
4155 -0.4884996167237928
4156 -0.4884583657173282
4157 -0.4885422898626504
4158 -0.4884951659792681
4159 -0.4885848504503646
4160 -0.4885324927065016
4161 -0.4886184798747936
4162 -0.4885656626101262
4163 -0.4886505491075155
4164 -0.4885933260347811
4165 -0.4886747508562012
4166 -0.4886099475219222
4167 -0.4886925045997569
4168 -0.4886356661418959
4169 -0.4887196763183472
4170 -0.4886682597069216
4171 -0.4887423768966847
4172 -0.4886952783272333
4173 -0.4887746421362572
4174 -0.4887229248309694
4175 -0.4888159468096279
4176 -0.4887684233442685
4177 -0.4888650551529537
4178 -0.4888158259577634
4179 -0.4889235795808292
4180 -0.4888733912511209
4181 -0.488983762904996
4182 -0.4889429781650715
4183 -0.4890483909990956
4184 -0.4890137648791281
4185 -0.4891178042752679
4186 -0.489087344088229
4187 -0.4891970461376743
4188 -0.4891630102811349
4189 -0.4892816663199841
4190 -0.4892417223777324
4191 -0.489362289194738
4192 -0.4893207896343746
4193 -0.4894417887447353
4194 -0.4893963121453543
4195 -0.4895150007473288
4196 -0.4894647207558668
4197 -0.4895723664286185
4198 -0.4895293534056272
4199 -0.4896305291828854
4200 -0.4895826718859171
4201 -0.4896820847494517
4202 -0.4896232507807183
4203 -0.4897190856383343
4204 -0.4896522928347139
4205 -0.4897372590282816
4206 -0.4896698866562839
4207 -0.4897509863473106
4208 -0.4896714893258481
4209 -0.4897424607360834
4210 -0.489660703356545
4211 -0.489720327595152
4212 -0.4896326353839849
4213 -0.4896821263993517
4214 -0.4895860531932338
4215 -0.4896419933816209
4216 -0.4895297226760318
4217 -0.4895827335597555
4218 -0.4894719145276616
4219 -0.4895161635684032
4220 -0.4894045810325863
4221 -0.4894419876538076
4222 -0.489335121633351
4223 -0.4893618683056887
4224 -0.4892529423300921
4225 -0.4892844318232705
4226 -0.4891771824902585
4227 -0.4892162769587694
4228 -0.4891009646090146
4229 -0.4891399719586241
4230 -0.4890319046548203
4231 -0.4890748519274257
4232 -0.4889682692708479
4233 -0.4890119469520766
4234 -0.4889106257304787
4235 -0.4889661310991701
4236 -0.4888701705078813
4237 -0.4889290636476622
4238 -0.4888366476663629
4239 -0.4888984372802841
4240 -0.4888130022598406
4241 -0.4888840442537181
4242 -0.4888050870248142
4243 -0.4888762299955195
4244 -0.488795385771861
4245 -0.4888715489466888
4246 -0.488797957169381
4247 -0.4888855716131404
4248 -0.488811118485277
4249 -0.4889038844435331
4250 -0.4888362908562917
4251 -0.4889268449842877
4252 -0.4888623287412214
4253 -0.4889512226141951
4254 -0.488889143653333
4255 -0.488985101952255
4256 -0.4889206546801885
4257 -0.489013676522453
4258 -0.4889496298494698
4259 -0.4890422590024943
4260 -0.4889772137383302
4261 -0.4890731049653231
4262 -0.4890010255124699
4263 -0.4891007566415231
4264 -0.4890266903522918
4265 -0.4891121472794187
4266 -0.4890473982049052
4267 -0.4891259670088883
4268 -0.4890576447532941
4269 -0.4891311050954579
4270 -0.4890616415106794
4271 -0.489140390746285
4272 -0.4890692455093066
4273 -0.4891409163118426
4274 -0.4890669808728716
4275 -0.4891348531796041
4276 -0.489063148330027
4277 -0.4891284992986154
4278 -0.4890511451272458
4279 -0.489122622668871
4280 -0.4890375380359516
4281 -0.4891074041097254
4282 -0.4890219554374194
4283 -0.489101192390169
4284 -0.4890070937808986
4285 -0.4890891902667615
4286 -0.4889954563262282
4287 -0.4890763013190078
4288 -0.4889838988812826
4289 -0.4890628974039647
4290 -0.488980918049385
4291 -0.4890578888942939
4292 -0.4889780916560885
4293 -0.4890496050567523
4294 -0.4889736154217434
4295 -0.4890495799606183
4296 -0.4889763240244449
4297 -0.4890515635662007
4298 -0.4889770996646226
4299 -0.4890531492619544
4300 -0.4889757172699518
4301 -0.4890542450994304
4302 -0.4889818704096019
4303 -0.4890539187255918
4304 -0.4889790297862888
4305 -0.4890508945582284
4306 -0.4889699133025516
4307 -0.4890397671884079
4308 -0.4889620604158571
4309 -0.4890331755037145
4310 -0.4889543056950787
4311 -0.4890168239348535
4312 -0.4889347411479742
4313 -0.4889921021732174
4314 -0.4889043398989128
4315 -0.4889662072412123
4316 -0.4888708910506976
4317 -0.4889210690889188
4318 -0.4888265022127193
4319 -0.4888803336511536
4320 -0.4887674061547582
4321 -0.4888139640232144
4322 -0.4886938706876248
4323 -0.4887343588847646
4324 -0.4886071648662407
4325 -0.4886427686609937
4326 -0.4885212533730856
4327 -0.4885525004512657
4328 -0.488424785601729
4329 -0.4884422897359785
4330 -0.488324970154296
4331 -0.4883376651196993
4332 -0.4882155390883682
4333 -0.4882273181157675
4334 -0.4880972648328248
4335 -0.4881166274873549
4336 -0.4879905844570088
4337 -0.4880071221266153
4338 -0.4878847676193928
4339 -0.4879020695074152
4340 -0.4877852996127485
4341 -0.4878092403655905
4342 -0.4876925032579572
4343 -0.4877182767017295
4344 -0.487606006409117
4345 -0.4876069445339177
4346 -0.4875065647497552
4347 -0.4875361431707818
4348 -0.4874475922265746
4349 -0.4874834156104709
4350 -0.4873994233870041
4351 -0.4874457575570794
4352 -0.4873772101518138
4353 -0.4874370283998458
4354 -0.4873735615949419
4355 -0.487444068928861
4356 -0.4873823319255963
4357 -0.4874662667537081
4358 -0.4874140967923116
4359 -0.487509811853351
4360 -0.4874640331817642
4361 -0.4875773826763884
4362 -0.4875338598221404
4363 -0.4876582520598702
4364 -0.4876202003698287
4365 -0.4877506998774485
4366 -0.4877215875788838
4367 -0.4878606888992693
4368 -0.4878446427109322
4369 -0.4879899959764994
4370 -0.4879726758596323
4371 -0.4881173891344621
4372 -0.4881018420401151
4373 -0.4882437799584613
4374 -0.4882333984026599
4375 -0.4883696514036026
4376 -0.4883566819932591
4377 -0.4884896114595245
4378 -0.4884756434697841
4379 -0.4886034143421295
4380 -0.4885852898386174
4381 -0.4887116004467991
4382 -0.4886859438062763
4383 -0.4887966372293769
4384 -0.4887643155789282
4385 -0.488870029677464
4386 -0.4888257706994612
4387 -0.488918720159064
4388 -0.4888637422333965
4389 -0.4889473682998637
4390 -0.4888663215442103
4391 -0.4889329584798714
4392 -0.4888446750946011
4393 -0.4888996767431464
4394 -0.4887964187396291
4395 -0.4888334328050523
4396 -0.4887188129081397
4397 -0.4887359465710205
4398 -0.4886121281261721
4399 -0.4886129878119457
4400 -0.4884744622897411
4401 -0.488461920331401
4402 -0.4883221271336807
4403 -0.4882916627952353
4404 -0.4881308692377845
4405 -0.488096887359798
4406 -0.4879281554759784
4407 -0.4878934473857213
4408 -0.4877137858132003
4409 -0.4876713621837661
4410 -0.4874833725187035
4411 -0.4874432306179369
4412 -0.4872523073153556
4413 -0.4872109580391424
4414 -0.4870265956761416
4415 -0.4869812477675473
4416 -0.4868025472918292
4417 -0.4867607611997957
4418 -0.4865862915134571
4419 -0.486548468642542
4420 -0.4863869868069768
4421 -0.4863552258576456
4422 -0.486205564661861
4423 -0.4861876040079124
4424 -0.486043780995448
4425 -0.4860332037377365
4426 -0.4859008805135046
4427 -0.4859052816328017
4428 -0.4857814114272688
4429 -0.4858120397338644
4430 -0.4856949697799098
4431 -0.4857490980576432
4432 -0.4856393757603591
4433 -0.4857045360990085
4434 -0.4856103664880396
4435 -0.4856867695529216
4436 -0.4856029560301575
4437 -0.485694759914432
4438 -0.4856264952019438
4439 -0.4857293753712034
4440 -0.4856726278296722
4441 -0.4857816498762636
4442 -0.4857379133099569
4443 -0.4858503641204765
4444 -0.4858079171719324
4445 -0.4859299858672285
4446 -0.4858916507156876
4447 -0.4860174656458539
4448 -0.4859836357906125
4449 -0.4861114044532389
4450 -0.4860823526940212
4451 -0.4862121709867395
4452 -0.4861797902544572
4453 -0.4863038338158567
4454 -0.4862786920883815
4455 -0.4863933315671724
4456 -0.4863650120174968
4457 -0.4864742364921597
4458 -0.4864437045433608
4459 -0.4865517596943685
4460 -0.4865089536068983
4461 -0.4866055014784986
4462 -0.4865636208875198
4463 -0.4866536949514266
4464 -0.4866089805644604
4465 -0.4866880859750897
4466 -0.4866339807328982
4467 -0.4867054705437424
4468 -0.4866414631248669
4469 -0.4867044496154566
4470 -0.4866389430060888
4471 -0.4866965491866675
4472 -0.4866193392795524
4473 -0.4866754572398868
4474 -0.486586452456203
4475 -0.4866384951051359
4476 -0.486541854602698
4477 -0.4865810617579289
4478 -0.4864767370737331
4479 -0.486513756426732
4480 -0.4864046659833241
4481 -0.4864287537062444
4482 -0.4863183444864576
4483 -0.4863416922044037
4484 -0.4862216998225521
4485 -0.4862444105501572
4486 -0.4861152811393137
4487 -0.4861343656885114
4488 -0.4860043884985327
4489 -0.4860183915774325
4490 -0.4858815520657431
4491 -0.4858979651471238
4492 -0.4857650300092504
4493 -0.4857761223125257
4494 -0.4856418538896681
4495 -0.4856578813146558
4496 -0.4855232471926861
4497 -0.485544144936906
4498 -0.4854110548282591
4499 -0.4854366921197525
4500 -0.4853108347440913
4501 -0.4853451970243595
4502 -0.4852190887346369
4503 -0.4852611047155704
4504 -0.485147175737406
4505 -0.4851917195326422
4506 -0.4851003747284666
4507 -0.4851450940180012
4508 -0.4850540647622539
4509 -0.4851061649323037
4510 -0.4850224043771933
4511 -0.4850869992640222
4512 -0.4850128820942318
4513 -0.4850884115379944
4514 -0.4850180362302547
4515 -0.4851085889327461
4516 -0.4850403526218134
4517 -0.4851324984341491
4518 -0.4850740789015614
4519 -0.4851737196481841
4520 -0.4851254551671926
4521 -0.48521411460111
4522 -0.4851731583828953
4523 -0.4852672627175064
4524 -0.4852305049639574
4525 -0.4853287911248831
4526 -0.4852894905874693
4527 -0.4853930845607402
4528 -0.4853504567718293
4529 -0.4854538500581068
4530 -0.4854089228827292
4531 -0.4855115290009018
4532 -0.4854669663492509
4533 -0.4855673719568631
4534 -0.4855173759592248
4535 -0.4856162997044902
4536 -0.4855668917228314
4537 -0.4856560237905196
4538 -0.4856049388943425
4539 -0.4856967941811815
4540 -0.4856364265962611
4541 -0.485729283044592
4542 -0.4856646177844971
4543 -0.4857569292608688
4544 -0.4856851774859066
4545 -0.4857621520961945
4546 -0.485695351496553
4547 -0.4857667139848885
4548 -0.4857038089851476
4549 -0.4857726171302818
4550 -0.4857094563786297
4551 -0.4857860694931078
4552 -0.4857146126697438
4553 -0.4857872839981237
4554 -0.4857129783494439
4555 -0.4857868057077184
4556 -0.4857126025330186
4557 -0.4857878149022666
4558 -0.4857061761795972
4559 -0.4857825532566473
4560 -0.4857071598303068
4561 -0.4857771269058112
4562 -0.485703781863404
4563 -0.4857754592180933
4564 -0.4857009974158193
4565 -0.4857773917221997
4566 -0.4857045863209863
4567 -0.4857854841135789
4568 -0.4857076018088418
4569 -0.4857804490754447
4570 -0.4857108296847418
4571 -0.4857928459847873
4572 -0.4857200749456947
4573 -0.485791947995421
4574 -0.4857353532815621
4575 -0.4858049915325114
4576 -0.4857487051881868
4577 -0.4858187148679894
4578 -0.4857657716881185
4579 -0.4858403533647304
4580 -0.485783420553566
4581 -0.4858551133414648
4582 -0.4858011322611732
4583 -0.4858814467935254
4584 -0.4858255187707619
4585 -0.4859077534498699
4586 -0.4858492756277427
4587 -0.4859316439968953
4588 -0.485868159705499
4589 -0.4859492637368129
4590 -0.4858950993695259
4591 -0.4859769043218082
4592 -0.4859142875855071
4593 -0.4859956809132651
4594 -0.485931522098848
4595 -0.4860258842444448
4596 -0.4859632687890415
4597 -0.4860498441589178
4598 -0.4859827253198372
4599 -0.4860766125640704
4600 -0.4860121562402985
4601 -0.4860943700636602
4602 -0.4860310643441658
4603 -0.4861073908291821
4604 -0.4860471034150785
4605 -0.4861241845341184
4606 -0.4860622368969301
4607 -0.4861498060326134
4608 -0.4860841390180418
4609 -0.4861685174685065
4610 -0.4860934931247863
4611 -0.4861829432880025
4612 -0.4861085180033728
4613 -0.4861973183591408
4614 -0.4861266844799594
4615 -0.486211426423712
4616 -0.4861496936342036
4617 -0.4862322657100694
4618 -0.4861772837794213
4619 -0.4862632185362147
4620 -0.4862129777710548
4621 -0.4863002159491916
4622 -0.4862556568178677
4623 -0.4863488631494533
4624 -0.4863117464267039
4625 -0.4864093404081844
4626 -0.4863776470306808
4627 -0.4864852537041691
4628 -0.4864575455966882
4629 -0.4865704134836454
4630 -0.4865479600426198
4631 -0.4866754419727785
4632 -0.4866479222223393
4633 -0.4867880736522578
4634 -0.4867662817770016
4635 -0.4869133291298098
4636 -0.4868995708136478
4637 -0.4870516977702485
4638 -0.4870478918526496
4639 -0.4871995885990774
4640 -0.4872069140653584
4641 -0.4873535076597285
4642 -0.4873656904299102
4643 -0.4875142471313444
4644 -0.487534886131365
4645 -0.4876784418016372
4646 -0.4877024141474279
4647 -0.4878407762917063
4648 -0.4878668976444323
4649 -0.4880031646098183
4650 -0.4880300901353988
4651 -0.4881600533463797
4652 -0.4881791531018701
4653 -0.4883116206963021
4654 -0.4883147284599131
4655 -0.4884509868288269
4656 -0.4884453824224769
4657 -0.4885760453969314
4658 -0.4885590329581337
4659 -0.4886894461815391
4660 -0.4886673828161481
4661 -0.4887891189237826
4662 -0.4887564795367023
4663 -0.4888734049671916
4664 -0.488835462319337
4665 -0.4889438496476174
4666 -0.4888999250678049
4667 -0.489002089462695
4668 -0.4889558139105282
4669 -0.4890509217352541
4670 -0.4889945289356556
4671 -0.4890865205333167
4672 -0.4890286739506565
4673 -0.4891137908562161
4674 -0.4890471970412015
4675 -0.4891329044544411
4676 -0.4890677179169609
4677 -0.489148349261239
4678 -0.4890816957608575
4679 -0.4891667804210991
4680 -0.4890969396196899
4681 -0.489186538612663
4682 -0.4891214407547648
4683 -0.4892128248802253
4684 -0.4891400132735839
4685 -0.4892313285554174
4686 -0.4891640393239294
4687 -0.4892563636155934
4688 -0.4891906953346505
4689 -0.4892838912803322
4690 -0.489225752140268
4691 -0.4893113063887227
4692 -0.4892559502159819
4693 -0.4893392237314161
4694 -0.4892887055303337
4695 -0.4893620271456509
4696 -0.4893140492234127
4697 -0.4893861630993297
4698 -0.4893358680945279
4699 -0.4894063293737944
4700 -0.489348604181269
4701 -0.4894137839943535
4702 -0.4893546417449871
4703 -0.4894204581389058
4704 -0.4893534419270177
4705 -0.4894071598331085
4706 -0.4893347424091627
4707 -0.4893834648988823
4708 -0.4892998608900038
4709 -0.4893394552299779
4710 -0.4892490757544735
4711 -0.4892864577085987
4712 -0.4891769305455991
4713 -0.4892067002040885
4714 -0.4890907590398513
4715 -0.4891163358182527
4716 -0.4889883495886743
4717 -0.4890088045176646
4718 -0.4888691033732387
4719 -0.4888810627452307
4720 -0.4887313388220363
4721 -0.4887384109868592
4722 -0.4885883261835536
4723 -0.4885858023202774
4724 -0.4884349185614997
4725 -0.4884298520137381
4726 -0.4882795607168194
4727 -0.4882722638511585
4728 -0.4881240732651357
4729 -0.4881091430740155
4730 -0.4879626949709334
4731 -0.4879542403757445
4732 -0.4878093729059282
4733 -0.4878108515656431
4734 -0.487672803002536
4735 -0.4876747785417062
4736 -0.4875455235039377
4737 -0.4875522735050979
4738 -0.4874345714699048
4739 -0.4874577591682551
4740 -0.4873369111004335
4741 -0.487372141605693
4742 -0.4872636544222148
4743 -0.4873078892904825
4744 -0.4872161460927379
4745 -0.4872673234722831
4746 -0.4871937431671363
4747 -0.4872531475001692
4748 -0.4871889148585866
4749 -0.4872541512084685
4750 -0.4872023526328235
4751 -0.4872847179589109
4752 -0.4872362595250196
4753 -0.4873308212348837
4754 -0.4872835798679752
4755 -0.4873857181503824
4756 -0.4873453545839382
4757 -0.4874564543412874
4758 -0.4874225040681509
4759 -0.4875343886176648
4760 -0.4875039647618022
4761 -0.487615690020701
4762 -0.4875850302378544
4763 -0.4876983109159328
4764 -0.4876613363401133
4765 -0.4877717617084535
4766 -0.4877296782039562
4767 -0.4878479209794737
4768 -0.4877970341580746
4769 -0.4879077233499474
4770 -0.4878567565481559
4771 -0.4879645054206156
4772 -0.487909627086957
4773 -0.4880083571811853
4774 -0.487955576502678
4775 -0.4880437154059883
4776 -0.4879908459440512
4777 -0.4880683473743221
4778 -0.4880137568317999
4779 -0.4880854096737483
4780 -0.4880195466345578
4781 -0.4880844951330613
4782 -0.4880147204765856
4783 -0.4880723494030615
4784 -0.487996039073107
4785 -0.4880564159133598
4786 -0.4879775838904257
4787 -0.488035933458574
4788 -0.48795673252061
4789 -0.488017822665302
4790 -0.4879315123778382
4791 -0.4879951464103917
4792 -0.4879080630277484
4793 -0.4879718463711896
4794 -0.4878841163252369
4795 -0.4879571720422444
4796 -0.4878661507962528
4797 -0.4879340952148934
4798 -0.487855070790853
4799 -0.4879283126396326
4800 -0.4878497465566175
4801 -0.4879185094588269
4802 -0.4878505224086152
4803 -0.4879242432092948
4804 -0.4878586780527164
4805 -0.4879410607325889
4806 -0.4878814482954411
4807 -0.4879730731787835
4808 -0.4879080970136814
4809 -0.4880112979597629
4810 -0.4879529368465046
4811 -0.4880591232123576
4812 -0.4880088310805484
4813 -0.4881140082555845
4814 -0.4880742059936869
4815 -0.4881772532695376
4816 -0.4881455791464746
4817 -0.4882372250518254
4818 -0.4882187956890298
4819 -0.4883242952374919
4820 -0.4882960410138358
4821 -0.4884067177246582
4822 -0.4883791215748213
4823 -0.488487529491646
4824 -0.4884557709534204
4825 -0.48855995450281
4826 -0.4885279445369066
4827 -0.4886272192019374
4828 -0.4885974828240104
4829 -0.4886938230854846
4830 -0.4886608713973922
4831 -0.4887457945215378
4832 -0.4887026474900761
4833 -0.488776926575176
4834 -0.4887257111702665
4835 -0.4888017952059134
4836 -0.4887465654295286
4837 -0.4888205761138256
4838 -0.4887511915790981
4839 -0.4888137636221679
4840 -0.4887344261145309
4841 -0.4887906302126295
4842 -0.4887022551503359
4843 -0.4887573336560215
4844 -0.4886719073408976
4845 -0.4887256792419893
4846 -0.488638266325162
4847 -0.4886932413571171
4848 -0.4885982483588859
4849 -0.4886422682877075
4850 -0.4885448669241068
4851 -0.4885990284761027
4852 -0.4884943000107737
4853 -0.4885557875842965
4854 -0.4884562348158253
4855 -0.4885195646244404
4856 -0.4884366536457536
4857 -0.4884989086986969
4858 -0.4884165517036019
4859 -0.4884967684213524
4860 -0.488426392739176
4861 -0.4885216605283433
4862 -0.4884682183730855
4863 -0.4885930110273813
