"mx-rfile"
"Iteration" "mx"
("Iteration" "mx")
5839 -5142.855802526684
5840 -5244.126706432829
5841 -5352.172968584404
5842 -5604.476863935797
5843 -5861.828565781361
5844 -6095.159678737512
5845 -6324.890741529774
5846 -6552.146331028757
5847 -6777.479223525435
5848 -6993.859850231595
5849 -7164.349905211085
5850 -7348.428472245165
5851 -7524.198377184772
5852 -7670.184262915194
5853 -7765.885385588002
5854 -7825.178314308061
5855 -7855.345825095655
5856 -7868.390449506535
5857 -7874.658374598072
5858 -7886.695275324852
5859 -7907.103117584893
5860 -7956.419413509633
5861 -8012.456805016336
5862 -8088.518588260038
5863 -8176.532234365708
5864 -8281.735601232453
5865 -8383.637537761953
5866 -8507.019729836144
5867 -8645.073224771804
5868 -8795.874709414626
5869 -8958.943120133357
5870 -9129.372530615432
5871 -9300.529467801973
5872 -9468.656797411017
5873 -9594.565939153365
5874 -9724.429516221799
5875 -9853.439793714862
5876 -9982.60442833361
5877 -10107.58332896522
5878 -10189.75682387824
5879 -10312.72759772041
5880 -10392.50718460215
5881 -10508.13027435624
5882 -10579.22606631232
5883 -10680.8525905789
5884 -10771.51651677529
5885 -10851.71928879088
5886 -10921.18771794235
5887 -10981.06892895429
5888 -11032.82798642808
5889 -11078.46966924196
5890 -11117.78939542363
5891 -11142.29001411129
5892 -11177.14062284039
5893 -11200.21613402895
5894 -11234.99704716156
5895 -11258.54555887273
5896 -11294.87153771135
5897 -11320.4374759459
5898 -11348.65394202836
5899 -11379.26499038109
5900 -11412.54536722907
5901 -11448.56585882366
5902 -11502.93128978094
5903 -11538.91055611044
5904 -11575.64103447825
5905 -11630.0356308304
5906 -11663.95956117866
5907 -11713.04095209317
5908 -11742.63675849212
5909 -11783.27877564743
5910 -11817.54470845044
5911 -11844.98211859013
5912 -11865.3111581002
5913 -11879.65998366615
5914 -11887.85059667189
5915 -11890.79164773278
5916 -11887.83763205376
5917 -11881.06645562709
5918 -11869.83600983735
5919 -11856.25681572523
5920 -11838.10359471816
5921 -11817.83018182299
5922 -11794.87645166771
5923 -11771.58607243096
5924 -11746.06458106435
5925 -11729.51373230343
5926 -11703.00329717455
5927 -11685.60260790008
5928 -11658.4611321109
5929 -11640.6067105567
5930 -11622.01202507429
5931 -11604.05000068588
5932 -11585.48326843006
5933 -11567.70823105254
5934 -11549.58730123027
5935 -11532.66663390966
5936 -11515.42402170208
5937 -11499.37761349759
5938 -11483.60060066034
5939 -11468.94787146925
5940 -11454.8722874229
5941 -11442.66630089211
5942 -11430.78030747566
5943 -11420.55713887837
5944 -11410.71080132651
5945 -11402.66706130675
5946 -11395.05556765247
5947 -11389.3501902207
5948 -11384.00728471954
5949 -11380.28402526912
5950 -11376.80673053374
5951 -11374.69019002035
5952 -11372.48367251554
5953 -11371.50163407538
5954 -11370.18886935094
5955 -11370.15439303007
5956 -11369.80844537829
5957 -11370.18057987795
5958 -11370.11983820094
5959 -11370.76013727182
5960 -11370.98901208783
5961 -11371.47707960053
5962 -11371.14022428463
5963 -11371.39545182614
5964 -11371.0180729964
5965 -11370.94823054267
5966 -11370.24112980254
5967 -11369.89847881414
5968 -11368.69278840304
5969 -11367.72726770935
5970 -11366.2415460357
5971 -11365.18643597851
5972 -11363.56650131004
5973 -11362.02309883319
5974 -11360.155390132
5975 -11358.48625766981
5976 -11356.41921464468
5977 -11354.6515045734
5978 -11352.7058259984
5979 -11351.24400136103
5980 -11349.18783502564
5981 -11347.77083916989
5982 -11345.92179734183
5983 -11344.69870884715
5984 -11343.15183125751
5985 -11342.22424701783
5986 -11340.81219475805
5987 -11340.19109553896
5988 -11339.16868308221
5989 -11338.94996359224
5990 -11338.32290952953
5991 -11338.36490260128
5992 -11338.06729937718
5993 -11338.77720522274
5994 -11338.98098265499
5995 -11340.03127476053
5996 -11340.79228367716
5997 -11342.26233599422
5998 -11343.23541615622
5999 -11345.03014219955
6000 -11346.45630303264
6001 -11348.78024630309
6002 -11350.5795522097
6003 -11353.37952866647
6004 -11355.48795965959
6005 -11358.56407062113
6006 -11360.93716909066
6007 -11364.24354823589
6008 -11367.13610222745
6009 -11371.00241380005
6010 -11374.53922053253
6011 -11378.59253268246
6012 -11382.16679903065
6013 -11386.45291705913
6014 -11390.41001116625
6015 -11395.23402652072
6016 -11399.52185827456
6017 -11404.17936624799
6018 -11408.69428199634
6019 -11413.85471321297
6020 -11418.66935317545
6021 -11424.14715504114
6022 -11429.12563675868
6023 -11435.02734303077
6024 -11442.80317048328
6025 -11448.44482494833
6026 -11453.69156025913
6027 -11462.42753516544
6028 -11467.64200776505
6029 -11473.47551963974
6030 -11481.73495676234
6031 -11487.78719199794
6032 -11495.95015861742
6033 -11501.77688085249
6034 -11509.35419320936
6035 -11514.81193638179
6036 -11522.76707286141
6037 -11528.18275311858
6038 -11536.10999296994
6039 -11544.21397495426
6040 -11549.17910422548
6041 -11557.10270938736
6042 -11564.50378181495
6043 -11572.23896211914
6044 -11579.28741613969
6045 -11586.26714772113
6046 -11592.65187312138
6047 -11599.45157869388
6048 -11605.45210572229
6049 -11611.66613584247
6050 -11617.21639374714
6051 -11623.49563956324
6052 -11628.84588108711
6053 -11634.17470539788
6054 -11639.20028409393
6055 -11645.14807061286
6056 -11649.74261519067
6057 -11654.99688495502
6058 -11659.72245421042
6059 -11664.9230565418
6060 -11669.65037698181
6061 -11674.77772316392
6062 -11679.46989649188
6063 -11684.53497285253
6064 -11688.84166077133
6065 -11693.54918435573
6066 -11697.7133366852
6067 -11702.67727346227
6068 -11707.11682733395
6069 -11711.57778338956
6070 -11715.65569426774
6071 -11720.17006776381
6072 -11724.59191764129
6073 -11729.16806669734
6074 -11733.18702104178
6075 -11737.5259526236
6076 -11741.10118490761
6077 -11745.49571390372
6078 -11748.91396499993
6079 -11753.10718117583
6080 -11757.078854494
6081 -11761.26676597301
6082 -11764.77642577431
6083 -11769.16159169772
6084 -11772.44882004748
6085 -11776.84656572201
6086 -11780.49521403216
6087 -11784.56045171056
6088 -11787.33089724965
6089 -11791.58648436977
6090 -11794.87564598241
6091 -11798.61113427471
6092 -11802.37000485563
6093 -11806.42482205967
6094 -11809.84667066057
6095 -11813.85203268302
6096 -11817.63583850363
6097 -11821.93869541588
6098 -11825.75956697391
6099 -11830.34108886237
6100 -11834.32500805346
6101 -11838.68512018791
6102 -11842.331734405
6103 -11847.71589022526
6104 -11851.45714007788
6105 -11856.7994091345
6106 -11861.11115624338
6107 -11865.55924786976
6108 -11870.72388524724
6109 -11875.38734958678
6110 -11879.46211337459
6111 -11884.31769850583
6112 -11889.08763230582
6113 -11895.73740364803
6114 -11900.80188781434
6115 -11905.93992987017
6116 -11909.6023915204
6117 -11914.32319396105
6118 -11919.94121802217
6119 -11924.29528239088
6120 -11927.80151961271
6121 -11931.43231353859
6122 -11934.19328103751
6123 -11937.25265502234
6124 -11938.73241827563
6125 -11940.85088706008
6126 -11941.2846731517
6127 -11942.51469105661
6128 -11942.23607676872
6129 -11941.65704491925
6130 -11940.59030385107
6131 -11938.88856501419
6132 -11936.28924976661
6133 -11933.34730030501
6134 -11929.2184735567
6135 -11925.18219528244
6136 -11918.83540601537
6137 -11912.63922284071
6138 -11905.18479641459
6139 -11897.15314873886
6140 -11887.84254645878
6141 -11878.15646911389
6142 -11867.13978479603
6143 -11856.06154940406
6144 -11843.48670027107
6145 -11831.04743031638
6146 -11816.86623997723
6147 -11802.70961096416
6148 -11787.32806449778
6149 -11771.93666484116
6150 -11754.75835205167
6151 -11738.14391177619
6152 -11720.21337980629
6153 -11702.00586114546
6154 -11682.40356077154
6155 -11663.64131933763
6156 -11642.58620211064
6157 -11622.47448622592
6158 -11600.93662521931
6159 -11579.57899271893
6160 -11557.02910957958
6161 -11534.67411589533
6162 -11510.76307700662
6163 -11487.87804747576
6164 -11463.61060402091
6165 -11439.98594211916
6166 -11415.31360870698
6167 -11391.04115402455
6168 -11366.06381903942
6169 -11341.35470204762
6170 -11316.21769909324
6171 -11291.25910496993
6172 -11265.44408831038
6173 -11240.93544102809
6174 -11215.30508510286
6175 -11190.14270900122
6176 -11164.5640273518
6177 -11139.40263945286
6178 -11113.43763339598
6179 -11088.2588659538
6180 -11062.51966530558
6181 -11037.55219898139
6182 -11011.42806968065
6183 -10986.77689665919
6184 -10961.45787054938
6185 -10936.97983905413
6186 -10911.7819900439
6187 -10887.9407389106
6188 -10863.06477290317
6189 -10839.62124241768
6190 -10815.9695849681
6191 -10793.3805189831
6192 -10770.1156375186
6193 -10747.63272176175
6194 -10725.01363934266
6195 -10703.1784151801
6196 -10680.85145904981
6197 -10660.03372372686
6198 -10638.39783844454
6199 -10617.9738862652
6200 -10596.85297876895
6201 -10583.42415013425
6202 -10561.56442703025
6203 -10541.21957834363
6204 -10526.89388289282
6205 -10505.81762191316
6206 -10484.09100061206
6207 -10470.33906131747
6208 -10447.74845306571
6209 -10433.61577039307
6210 -10411.03412466364
6211 -10396.93235303401
6212 -10374.3199551227
6213 -10359.95387730645
6214 -10337.54673235047
6215 -10323.24425617247
6216 -10300.71372605295
6217 -10286.63573938055
6218 -10271.23980908097
6219 -10249.24659029229
6220 -10234.27922374234
6221 -10219.683661524
6222 -10197.15112946606
6223 -10182.62673064339
6224 -10167.2630276638
6225 -10145.15552486565
6226 -10130.36349787551
6227 -10116.25459674929
6228 -10101.26358882441
6229 -10086.13589341021
6230 -10063.36071628454
6231 -10048.97811999338
6232 -10033.84607587962
6233 -10019.050963544
6234 -10003.69852234805
6235 -9988.273760189002
6236 -9965.202164708779
6237 -9950.654583508205
6238 -9935.594156852043
6239 -9920.662000750435
6240 -9905.160844495651
6241 -9882.547347650434
6242 -9867.786621590958
6243 -9853.127274296558
6244 -9838.011943905982
6245 -9816.372318182221
6246 -9801.844953292335
6247 -9787.843506835361
6248 -9773.321885108229
6249 -9752.204042879377
6250 -9737.856813078959
6251 -9724.062535609643
6252 -9709.651420377804
6253 -9689.021448127052
6254 -9675.249637265069
6255 -9661.534686683135
6256 -9640.649221232265
6257 -9627.27309103376
6258 -9613.186602048736
6259 -9592.42740282558
6260 -9578.557058572149
6261 -9565.038069524098
6262 -9544.216442705183
6263 -9530.795492961033
6264 -9516.933978538722
6265 -9496.432261331252
6266 -9482.829144255875
6267 -9468.92016655479
6268 -9447.885643903668
6269 -9434.49768509137
6270 -9420.274316061379
6271 -9399.642595723324
6272 -9385.631303256947
6273 -9371.667259289243
6274 -9350.300396783599
6275 -9336.48345506304
6276 -9321.874819465649
6277 -9300.726754478048
6278 -9286.394083427394
6279 -9265.800454509248
6280 -9252.185124993272
6281 -9238.508140230757
6282 -9217.887143102822
6283 -9205.025705885941
6284 -9184.827650274601
6285 -9172.248947838727
6286 -9152.849911390604
6287 -9140.384288499221
6288 -9121.128320937558
6289 -9108.774830868744
6290 -9089.647729609951
6291 -9077.776017858961
6292 -9065.181179254148
6293 -9046.365328807316
6294 -9033.832538874281
6295 -9015.86572832152
6296 -9003.471284945521
6297 -8985.421845439814
6298 -8973.187525475143
6299 -8961.240332470252
6300 -8942.639631170865
6301 -8930.643911336858
6302 -8917.788774240245
6303 -8899.245509502896
6304 -8886.933753054484
6305 -8874.219914556514
6306 -8855.373323897551
6307 -8843.396940260009
6308 -8830.610945232756
6309 -8812.274572322225
6310 -8799.77934597565
6311 -8787.819888129725
6312 -8769.469322686684
6313 -8757.924767356992
6314 -8745.859274924664
6315 -8734.371409886893
6316 -8716.797172628352
6317 -8706.079473437576
6318 -8694.545461681237
6319 -8683.646544868941
6320 -8672.227415957228
6321 -8655.909328183046
6322 -8645.029349910932
6323 -8634.757527386108
6324 -8623.854945001731
6325 -8613.600569516089
6326 -8602.763440747965
6327 -8587.767525813384
6328 -8577.801671968373
6329 -8568.414175469583
6330 -8558.282815125973
6331 -8549.001570812103
6332 -8539.146361343026
6333 -8530.057740696833
6334 -8520.367748439909
6335 -8511.309361162874
6336 -8501.598827539508
6337 -8492.578461195057
6338 -8482.954163623026
6339 -8474.119570576586
6340 -8464.449819102188
6341 -8455.388486496246
6342 -8445.742835044277
6343 -8436.989802725111
6344 -8427.351089453328
6345 -8418.409911101266
6346 -8408.777432338484
6347 -8399.855071728643
6348 -8390.337281601031
6349 -8381.328386501957
6350 -8371.750963325625
6351 -8363.059839372188
6352 -8353.607182497879
6353 -8344.952572694119
6354 -8335.702177117359
6355 -8327.175571719439
6356 -8317.87618443656
6357 -8309.480568163053
6358 -8300.411124030517
6359 -8292.115804509202
6360 -8283.168841463466
6361 -8275.019675393596
6362 -8266.290449486371
6363 -8258.369554342147
6364 -8249.903300929871
6365 -8242.175939309973
6366 -8233.811507866227
6367 -8226.435147684278
6368 -8218.29204997023
6369 -8210.922314292604
6370 -8203.10064752839
6371 -8196.079361649059
6372 -8188.593397544343
6373 -8181.80742871684
6374 -8174.642973147962
6375 -8168.161649485485
6376 -8161.136323823263
6377 -8154.975947629277
6378 -8148.245912251006
6379 -8142.366559398668
6380 -8135.83186690733
6381 -8130.030417624767
6382 -8123.688575874558
6383 -8118.171389019651
6384 -8111.768076989211
6385 -8106.129550460348
6386 -8099.903529658899
6387 -8094.238075903048
6388 -8087.93892799563
6389 -8082.312325871324
6390 -8076.160377534853
6391 -8070.397932976426
6392 -8063.936613130412
6393 -8058.310886059578
6394 -8052.021879012013
6395 -8046.244788779895
6396 -8039.908288491095
6397 -8034.334409468564
6398 -8027.918080480909
6399 -8022.329272450206
6400 -8016.117332971357
6401 -8010.59858583372
6402 -8004.524016216997
6403 -7999.145964465334
6404 -7993.162206495505
6405 -7987.860222306892
6406 -7982.152560165229
6407 -7977.219957397009
6408 -7971.852351230299
6409 -7967.016740594525
6410 -7962.01427521422
6411 -7957.44796974483
6412 -7952.784681870232
6413 -7948.675032652034
6414 -7944.478386729789
6415 -7940.893683236637
6416 -7937.185365053286
6417 -7934.167418517284
6418 -7930.910682483334
6419 -7928.288661672495
6420 -7925.373601382383
6421 -7923.425393399963
6422 -7921.115682592046
6423 -7919.655153356328
6424 -7917.881935552029
6425 -7916.980195152469
6426 -7915.484913681415
6427 -7915.066346367759
6428 -7914.03931286667
6429 -7913.906248815794
6430 -7913.304507932779
6431 -7913.584877717967
6432 -7913.448636098577
6433 -7914.093131187226
6434 -7914.44620871097
6435 -7915.386546821651
6436 -7915.880324447
6437 -7917.025482277469
6438 -7917.487012699423
6439 -7918.683808832486
6440 -7919.450020428569
6441 -7920.639433400075
6442 -7921.442385868875
6443 -7922.771950915157
6444 -7923.518829788325
6445 -7924.768152327025
6446 -7925.268608739978
6447 -7926.330949137611
6448 -7926.885936719737
6449 -7927.793063034947
6450 -7928.014649874081
6451 -7928.741510428098
6452 -7928.811160252638
6453 -7929.246433850863
6454 -7928.917569791688
6455 -7928.99451171031
6456 -7928.328728500172
6457 -7928.163182521286
6458 -7927.275548644526
6459 -7926.712963914302
6460 -7925.604133033426
6461 -7925.164986575314
6462 -7923.786421550783
6463 -7922.638828181635
6464 -7921.151422167995
6465 -7920.051330387759
6466 -7918.376584055434
6467 -7917.418823086014
6468 -7915.844130141246
6469 -7915.013204911793
6470 -7913.823689837598
6471 -7913.217442314425
6472 -7912.252040779102
6473 -7912.036537214592
6474 -7911.530380036657
6475 -7911.632501352786
6476 -7911.497082705996
6477 -7912.237441549585
6478 -7912.849994077255
6479 -7914.231628646099
6480 -7915.304482958771
6481 -7917.179576293641
6482 -7918.996401646476
6483 -7921.512538291007
6484 -7924.127517906528
6485 -7927.498713489754
6486 -7930.743311507969
6487 -7934.675497516613
6488 -7938.311265334265
6489 -7942.914790575428
6490 -7947.135114625604
6491 -7952.169909986958
6492 -7956.75719134497
6493 -7961.98401493011
6494 -7967.090181207847
6495 -7972.584378524683
6496 -7977.500172275808
6497 -7985.565098569433
6498 -7990.480665816937
6499 -7995.504036828473
6500 -8002.880111346384
6501 -8007.686291114248
6502 -8012.011803185832
6503 -8018.460925740532
6504 -8022.336971101387
6505 -8026.187865940544
6506 -8030.709590732798
6507 -8033.790083696634
6508 -8037.495713851964
6509 -8039.754340129502
6510 -8041.45485231331
6511 -8044.090800811725
6512 -8044.941996358155
6513 -8046.063345447068
6514 -8046.620228074293
6515 -8047.072915048597
6516 -8046.667288440647
6517 -8046.840173681326
6518 -8045.911960532737
6519 -8045.422194076705
6520 -8044.181632086897
6521 -8043.342490625295
6522 -8042.016594330733
6523 -8041.442509751307
6524 -8040.326059553646
6525 -8039.836908570161
6526 -8038.763862732361
6527 -8038.637910565792
6528 -8038.19484173348
6529 -8038.505979625021
6530 -8038.528306412377
6531 -8039.351657509285
6532 -8040.0125103751
6533 -8041.69503829808
6534 -8042.948465668795
6535 -8045.23704707429
6536 -8047.420591456215
6537 -8050.515125924035
6538 -8053.772011618626
6539 -8058.100974562911
6540 -8062.071913476584
6541 -8067.521778165226
6542 -8072.586511716389
6543 -8078.442072134145
6544 -8084.268609236772
6545 -8090.706652297637
6546 -8097.288139403567
6547 -8104.535667903694
6548 -8111.506049360268
6549 -8119.200768204556
6550 -8126.726937496365
6551 -8139.087255203708
6552 -8147.032330771174
6553 -8155.479786705195
6554 -8167.80512071781
6555 -8176.371468089728
6556 -8188.066842604778
6557 -8195.940007270152
6558 -8203.44502603161
6559 -8214.797401076426
6560 -8221.704851223793
6561 -8231.997819292768
6562 -8237.737936393458
6563 -8247.023381557772
6564 -8252.478681673329
6565 -8260.310457968513
6566 -8264.889204214525
6567 -8271.056476485868
6568 -8274.397427721713
6569 -8279.394116435715
6570 -8281.712206630347
6571 -8284.878612051594
6572 -8286.550481060902
6573 -8287.630712820916
6574 -8288.528700509885
6575 -8288.625069891214
6576 -8287.489257015721
6577 -8286.592165525104
6578 -8283.774432512017
6579 -8282.017316517722
6580 -8278.452827905727
6581 -8276.315245132118
6582 -8271.941822448629
6583 -8269.331967699683
6584 -8265.952304148741
6585 -8261.356896405128
6586 -8257.61696041568
6587 -8254.144093164576
6588 -8248.72303306291
6589 -8245.575926365567
6590 -8242.07835939285
6591 -8237.324663077268
6592 -8234.154986680254
6593 -8231.508779867805
6594 -8227.172276714724
6595 -8225.006440219753
6596 -8222.651629795966
6597 -8220.151460217836
6598 -8218.626926648507
6599 -8216.812482829511
6600 -8215.667069973768
6601 -8215.071945229556
6602 -8214.721792885353
6603 -8215.534843285925
6604 -8215.676656426123
6605 -8216.708927894073
6606 -8217.199671463921
6607 -8219.003274994111
6608 -8219.798885372145
6609 -8221.575556761929
6610 -8222.7944222564
6611 -8225.207879262418
6612 -8226.670745356239
6613 -8229.491035369841
6614 -8230.824659196091
6615 -8232.829227676377
6616 -8234.001642963671
6617 -8235.827203046307
6618 -8236.490511883734
6619 -8237.669419360909
6620 -8237.935474122783
6621 -8238.130737210586
6622 -8237.80398549494
6623 -8237.347781686485
6624 -8236.474301735148
6625 -8235.558629644207
6626 -8234.467031141903
6627 -8232.672590081505
6628 -8230.929409642746
6629 -8228.774359952156
6630 -8226.855416525023
6631 -8224.586645686237
6632 -8222.834934995868
6633 -8220.610890534792
6634 -8218.063738360062
6635 -8216.833936369492
6636 -8215.005661791589
6637 -8213.609157540059
6638 -8211.633361918786
6639 -8210.602112543353
6640 -8209.733449472698
6641 -8209.571449593415
6642 -8209.781021013205
6643 -8210.614915261336
6644 -8211.570386791585
6645 -8213.567862261123
6646 -8215.519489185273
6647 -8219.173302626285
6648 -8222.668962099046
6649 -8226.911957791024
6650 -8230.992123464755
6651 -8237.011763680488
6652 -8242.387020994076
6653 -8248.658265459631
6654 -8254.932274618075
6655 -8261.575440980017
6656 -8268.21370027434
6657 -8275.685282065622
6658 -8282.136615406262
6659 -8289.247264527436
6660 -8296.061775435392
6661 -8303.276862005971
6662 -8309.350692179449
6663 -8314.85241160318
6664 -8319.531415200727
6665 -8324.073601684688
6666 -8327.37562290841
6667 -8330.965702637126
6668 -8333.484164941397
6669 -8335.646531754392
6670 -8336.354299259983
6671 -8336.138001966019
6672 -8335.985792956886
6673 -8335.736904363614
6674 -8334.181988948509
6675 -8333.095691967512
6676 -8329.862407472603
6677 -8328.315094728605
6678 -8323.99772414198
6679 -8321.920638192287
6680 -8317.636253349496
6681 -8315.314113855808
6682 -8311.006370585405
6683 -8308.413584004693
6684 -8304.183915091278
6685 -8300.284678685201
6686 -8297.512952709152
6687 -8294.004890893344
6688 -8291.003365204033
6689 -8288.445749594528
6690 -8286.941222802516
6691 -8285.40318262982
6692 -8284.657634191297
6693 -8285.348673880135
6694 -8286.008826390684
6695 -8287.999509309717
6696 -8289.822695466719
6697 -8292.669009751464
6698 -8296.037916479758
6699 -8301.193586572525
6700 -8304.867158694658
6701 -8312.221441167278
6702 -8318.890829274176
6703 -8323.862021278148
6704 -8330.756361285263
6705 -8338.921069088517
6706 -8347.179007782648
6707 -8357.077233152608
6708 -8366.003017903266
6709 -8375.391943311488
6710 -8384.597276544724
6711 -8394.668445922509
6712 -8402.88780336223
6713 -8411.160995927843
6714 -8418.156653751674
6715 -8424.876782491901
6716 -8430.888524903137
6717 -8436.243984188974
6718 -8439.602564280327
6719 -8442.514013770862
6720 -8444.433917917928
6721 -8445.976715815195
6722 -8445.645329862362
6723 -8444.535979292896
6724 -8441.787781868783
6725 -8437.982655199527
6726 -8432.288644868824
6727 -8428.285892570986
6728 -8419.618164264733
6729 -8410.42041501821
6730 -8399.548974002333
6731 -8392.02927763411
6732 -8378.176106220271
6733 -8363.643369225414
6734 -8348.59874779964
6735 -8333.109840166637
6736 -8316.569398087571
6737 -8300.041793654404
6738 -8282.427169280816
6739 -8265.687533503906
6740 -8247.751538547851
6741 -8230.494434916733
6742 -8213.472744760562
6743 -8196.793518520146
6744 -8180.160205520348
6745 -8164.46587536383
6746 -8149.203561482947
6747 -8135.269696281495
6748 -8121.286772463245
6749 -8108.836359711579
6750 -8096.970265023175
6751 -8086.77785757547
6752 -8077.261281481231
6753 -8069.470070240879
6754 -8062.384849274222
6755 -8056.880273944646
6756 -8051.658348950408
6757 -8048.22495145674
6758 -8045.775733140924
6759 -8044.58604005518
6760 -8043.838021242638
6761 -8044.442852829792
6762 -8045.518431764353
6763 -8047.400486407943
6764 -8050.291072942443
6765 -8054.453757267132
6766 -8057.345048783927
6767 -8062.717161082708
6768 -8066.382574312678
6769 -8072.956043165476
6770 -8077.188045699392
6771 -8084.012607202939
6772 -8088.586250635601
6773 -8096.257725007012
6774 -8101.160850253981
6775 -8108.691385366864
6776 -8113.713721725841
6777 -8121.068200788678
6778 -8125.437326276344
6779 -8132.305090619541
6780 -8136.323324960061
6781 -8140.371006448887
6782 -8145.466600295561
6783 -8148.752696676222
6784 -8152.423030612441
6785 -8154.700061654252
6786 -8156.490013944686
6787 -8157.922195784931
6788 -8157.939485614084
6789 -8157.874489322588
6790 -8156.112117227455
6791 -8154.915248262438
6792 -8151.356670893007
6793 -8148.845389773011
6794 -8143.456345235938
6795 -8137.634913453807
6796 -8132.941691324436
6797 -8125.669657494236
6798 -8120.161940849475
6799 -8112.008806859301
6800 -8103.348636815518
6801 -8097.356523056813
6802 -8087.783572390079
6803 -8079.340270065969
6804 -8073.302187456381
6805 -8064.915461110775
6806 -8058.948332698178
6807 -8050.937102710165
6808 -8045.649010520387
6809 -8038.618553974033
6810 -8033.695899060056
6811 -8027.59101032236
6812 -8023.514510111986
6813 -8019.016381234228
6814 -8016.199838528882
6815 -8013.324532842326
6816 -8011.679793698943
6817 -8010.843139289697
6818 -8010.443258383542
6819 -8011.461731913005
6820 -8012.624874555957
6821 -8015.837736610229
6822 -8018.409809939261
6823 -8023.643815471339
6824 -8027.618165159137
6825 -8034.575559475591
6826 -8039.4436477273
6827 -8047.893592023141
6828 -8054.202184227538
6829 -8064.522081557454
6830 -8071.556864552054
6831 -8082.404669859405
6832 -8089.761276178488
6833 -8102.204593286256
6834 -8114.220688469245
6835 -8122.490018434095
6836 -8133.95522316541
6837 -8142.12050273213
6838 -8153.593370163631
6839 -8161.276170007058
6840 -8172.303171987744
6841 -8179.614793874552
6842 -8189.301628067519
6843 -8195.627217808831
6844 -8203.97225802402
6845 -8209.831926297047
6846 -8217.208309061383
6847 -8221.753974046576
6848 -8226.757719051049
6849 -8230.176997061333
6850 -8233.881574887091
6851 -8235.887094672213
6852 -8237.391943379516
6853 -8238.111857091812
6854 -8237.146837258017
6855 -8236.182945715478
6856 -8233.052253683514
6857 -8230.845039671112
6858 -8225.68107961687
6859 -8222.145564400058
6860 -8217.521366769532
6861 -8210.043756701334
6862 -8203.719972125604
6863 -8197.814359153143
6864 -8187.614332229282
6865 -8180.549921602774
6866 -8172.652660544743
6867 -8160.894212251236
6868 -8152.15963624597
6869 -8143.869677410216
6870 -8131.04703056138
6871 -8122.628489408808
6872 -8113.712081325914
6873 -8100.850261119963
6874 -8092.254457251734
6875 -8084.315226105369
6876 -8071.886403192028
6877 -8064.484606804897
6878 -8056.836612103606
6879 -8046.69477226306
6880 -8039.881688209613
6881 -8031.181819318793
6882 -8025.56998918872
6883 -8018.408012139345
6884 -8014.054861518475
6885 -8008.702222989538
6886 -8005.721461411023
6887 -8002.631576422184
6888 -8000.519805119062
6889 -7998.788039173792
6890 -7997.702103392932
6891 -7997.793672239883
6892 -7997.937883403222
6893 -7999.759683794124
6894 -8000.916265553669
6895 -8003.749774322057
6896 -8005.412021911865
6897 -8009.189469893475
6898 -8011.604479105411
6899 -8015.990376695486
6900 -8018.713011362243
6901 -8022.376469800194
6902 -8026.465116239287
6903 -8029.862826542147
6904 -8032.857937378834
6905 -8036.44043208225
6906 -8041.018162452211
6907 -8044.225636629185
6908 -8046.668048870517
6909 -8049.643894553361
6910 -8051.957973339464
6911 -8054.507608992351
6912 -8056.36660846518
6913 -8059.67796284843
6914 -8061.089789802882
6915 -8062.515595544673
6916 -8063.403625146258
6917 -8064.402444952018
6918 -8064.848565142366
6919 -8065.486045755653
6920 -8065.709158427938
6921 -8065.864683566069
6922 -8065.514550132149
6923 -8065.531201216058
6924 -8064.812445136115
6925 -8064.558008022975
6926 -8063.865790471891
6927 -8063.411766253907
6928 -8062.716932835307
6929 -8062.697080559818
6930 -8062.178914734402
6931 -8062.770569682533
6932 -8062.9425882446
6933 -8063.891355979163
6934 -8064.42217855032
6935 -8065.692751307264
6936 -8066.483321540547
6937 -8068.380664658066
6938 -8070.006850392761
6939 -8072.004929539444
6940 -8074.138533735895
6941 -8076.793556491493
6942 -8079.698381613555
6943 -8082.890531007637
6944 -8087.571910884784
6945 -8091.259052117552
6946 -8094.792157771562
6947 -8098.768967697533
6948 -8105.241436330037
6949 -8109.742776048791
6950 -8113.831669360134
6951 -8120.860003963232
6952 -8125.220749707023
6953 -8131.888328800285
6954 -8135.932218584574
6955 -8142.232947777111
6956 -8145.919460318192
6957 -8151.564215138903
6958 -8154.494970743364
6959 -8159.254729470671
6960 -8161.65536542615
6961 -8165.251794101974
6962 -8166.734186565262
6963 -8168.412100027404
6964 -8169.286237424245
6965 -8169.694688002906
6966 -8168.962515664176
6967 -8168.300173063682
6968 -8166.53287715055
6969 -8163.838818331184
6970 -8160.875424832228
6971 -8157.776172713588
6972 -8151.651362070134
6973 -8147.415806611653
6974 -8142.032817280703
6975 -8137.129124866417
6976 -8128.607123907077
6977 -8122.579015252283
6978 -8116.005859397703
6979 -8106.167106106484
6980 -8099.025416148746
6981 -8088.32655053193
6982 -8081.043202336547
6983 -8070.477046732085
6984 -8063.243604693053
6985 -8052.898424471848
6986 -8045.536411573071
6987 -8035.365560369071
6988 -8028.562301675736
6989 -8019.493573981728
6990 -8013.017084302786
6991 -8004.379374841667
6992 -7998.823278966565
6993 -7991.523732350645
6994 -7984.496932289933
6995 -7980.676526453934
6996 -7974.769685161122
6997 -7970.159821336
6998 -7967.115988451696
6999 -7963.730736364025
7000 -7960.497628464722
7001 -7959.235306700354
7002 -7957.195888238864
7003 -7956.376883097108
7004 -7955.201489497333
7005 -7954.818172280251
7006 -7953.918300523393
7007 -7954.195665409905
7008 -7954.462006280793
7009 -7955.080434445351
7010 -7955.104772700445
7011 -7955.829302075909
7012 -7956.024973947291
7013 -7956.807076554983
7014 -7957.025651248015
7015 -7957.621516342351
7016 -7957.793630575121
7017 -7958.469320858771
7018 -7958.660492165424
7019 -7959.011262989676
7020 -7958.9707537494
7021 -7958.837658996623
7022 -7958.337289407408
7023 -7957.925871526228
7024 -7957.07148403802
7025 -7956.484195158079
7026 -7955.398045593975
7027 -7954.508070961424
7028 -7953.027874138664
7029 -7951.973716925771
7030 -7950.419363250399
7031 -7948.957698494071
7032 -7947.233516835862
7033 -7945.948325438534
7034 -7944.246750050193
7035 -7943.105705244223
7036 -7941.46486832997
7037 -7940.364640642457
7038 -7939.043007754222
7039 -7938.377838343094
7040 -7937.389023576366
7041 -7937.175055699757
7042 -7936.764255824547
7043 -7937.016276502414
7044 -7937.105850565375
7045 -7937.838403173198
7046 -7938.497439146518
7047 -7939.873251824671
7048 -7941.122517680879
7049 -7943.152718495316
7050 -7944.838145441034
7051 -7947.213773396635
7052 -7949.528587727325
7053 -7952.538812780973
7054 -7955.07967138967
7055 -7958.192555358029
7056 -7960.950823805959
7057 -7964.350147813084
7058 -7967.089782268356
7059 -7970.352869704285
7060 -7972.931734346917
7061 -7976.228811786649
7062 -7978.795831482862
7063 -7981.46963891329
7064 -7983.511603499252
7065 -7986.100220283388
7066 -7987.702436565931
7067 -7989.555328078167
7068 -7990.415840102953
7069 -7991.397866734501
7070 -7991.83364366735
7071 -7992.046336989247
7072 -7991.42865562011
7073 -7991.233347911725
7074 -7990.233759462484
7075 -7989.44428111913
7076 -7987.69745491849
7077 -7986.372083182182
7078 -7983.018605392587
7079 -7981.083051527951
7080 -7978.72079160977
7081 -7975.984757028107
7082 -7973.753901369417
7083 -7971.016903489718
7084 -7969.185940245329
7085 -7967.086333035394
7086 -7965.635753492606
7087 -7965.08697322535
7088 -7964.098504451546
7089 -7964.096155449062
7090 -7964.335092505595
7091 -7965.160995306645
7092 -7966.3237586906
7093 -7969.431783716385
7094 -7971.63981621961
7095 -7974.433833738276
7096 -7977.406884559442
7097 -7982.816906985088
7098 -7986.679843143485
7099 -7991.46809189387
7100 -7998.862785920839
7101 -8004.313839518463
7102 -8012.014376099265
7103 -8017.928120460509
7104 -8026.285759449069
7105 -8032.680528460373
7106 -8041.000245848938
7107 -8050.192809899025
7108 -8056.048959785354
7109 -8064.829618751704
7110 -8072.808781875624
7111 -8078.466353425671
7112 -8085.439532259191
7113 -8092.622840214077
7114 -8096.781643502147
7115 -8102.994256815489
7116 -8106.408054778808
7117 -8111.20544523111
7118 -8113.697779704449
7119 -8117.155538719831
7120 -8118.493341318012
7121 -8119.865294978478
7122 -8120.865167458591
7123 -8121.197312777563
7124 -8120.741326446805
7125 -8120.266924736883
7126 -8118.771816189706
7127 -8116.427941095921
7128 -8114.168712260438
7129 -8111.772885824503
7130 -8108.688106769332
7131 -8105.42948196931
7132 -8099.482669316799
7133 -8096.028522625593
7134 -8091.956079865441
7135 -8088.164797538876
7136 -8082.23464181644
7137 -8078.448493664277
7138 -8074.045957681199
7139 -8070.135163136059
7140 -8063.942983519466
7141 -8060.375460593394
7142 -8056.760615915458
7143 -8053.502829532738
7144 -8050.227106455905
7145 -8046.24188354316
7146 -8043.581289673982
7147 -8041.572085448824
7148 -8039.567353567641
7149 -8037.756817351993
7150 -8036.602998843523
7151 -8036.214393508896
7152 -8035.773815862298
7153 -8036.324345219055
7154 -8036.806419081491
7155 -8037.899573314756
7156 -8039.216509643106
7157 -8041.196499241009
7158 -8044.01693109697
7159 -8046.451965099932
7160 -8048.886706726515
7161 -8052.014167826522
7162 -8054.877799961322
7163 -8058.404071920241
7164 -8061.701117008641
7165 -8065.518217938299
7166 -8069.097633898061
7167 -8073.08928754651
7168 -8076.428794081475
7169 -8080.220764283275
7170 -8083.402143986918
7171 -8086.851012370826
7172 -8089.559155680259
7173 -8092.506808558223
7174 -8094.742556823518
7175 -8096.957764148243
7176 -8098.345200676931
7177 -8099.81923146165
7178 -8100.53126286536
7179 -8101.209660247512
7180 -8100.912292675228
7181 -8100.543087778186
7182 -8099.117714085814
7183 -8097.820901269282
7184 -8095.526428158942
7185 -8093.333958375812
7186 -8088.724140570996
7187 -8086.005322094759
7188 -8082.235049650389
7189 -8076.84397970702
7190 -8072.657209625581
7191 -8066.360420412944
7192 -8061.667698355652
7193 -8055.474757724125
7194 -8048.977871473121
7195 -8045.045199796639
7196 -8038.607830875667
7197 -8033.101263152183
7198 -8029.284548164116
7199 -8024.660629703721
7200 -8019.941815237442
7201 -8017.723296204456
7202 -8014.279980374579
7203 -8012.983126507547
7204 -8010.72479274685
7205 -8009.850383504489
7206 -8009.233580336404
7207 -8009.399958938698
7208 -8009.502547476629
7209 -8011.081999466619
7210 -8012.241702576246
7211 -8014.964232979381
7212 -8016.744131314572
7213 -8020.659505082705
7214 -8023.289544169008
7215 -8027.937236482147
7216 -8031.118252255083
7217 -8036.748851992073
7218 -8040.347209212901
7219 -8046.434623650179
7220 -8050.23430975056
7221 -8056.202300318238
7222 -8061.717384390874
7223 -8065.548565763179
7224 -8070.615056460898
7225 -8075.77712337682
7226 -8078.592440172542
7227 -8083.024212214832
7228 -8085.338797797152
7229 -8088.775664411725
7230 -8091.106479169483
7231 -8092.851871826439
7232 -8093.909912665131
7233 -8094.933388197993
7234 -8095.307977013855
7235 -8095.428474226078
7236 -8094.374855120273
7237 -8093.600851771283
7238 -8091.176735240476
7239 -8088.710060516632
7240 -8086.069736387272
7241 -8082.465803157211
7242 -8078.837373216496
7243 -8073.611376238707
7244 -8067.132325693125
7245 -8062.94321742477
7246 -8055.612009780904
7247 -8048.186459263271
7248 -8039.770022029424
7249 -8031.758807760289
7250 -8022.970396055211
7251 -8014.828884177286
7252 -8006.612819507678
7253 -7998.254278848159
7254 -7989.840433667844
7255 -7982.00995248928
7256 -7974.398467787153
7257 -7967.624236179132
7258 -7960.304714052932
7259 -7954.12584279003
7260 -7947.954441604059
7261 -7943.152176832517
7262 -7938.410147692389
7263 -7935.010253110502
7264 -7931.954006648208
7265 -7930.085443839995
7266 -7928.302245324873
7267 -7928.16900996154
7268 -7928.598035657059
7269 -7930.067947029021
7270 -7931.423921792887
7271 -7934.498607618678
7272 -7937.537941147275
7273 -7941.990674145673
7274 -7946.265432638446
7275 -7950.227811532723
7276 -7956.074549277548
7277 -7963.405752865509
7278 -7968.171372684609
7279 -7976.981456842858
7280 -7985.619657542563
7281 -7991.908954649559
7282 -8001.229252630102
7283 -8011.542369443681
7284 -8017.698604523953
7285 -8028.407534017853
7286 -8038.450707925054
7287 -8045.68224300841
7288 -8055.408762685243
7289 -8062.272157177772
7290 -8071.42260048264
7291 -8080.528678707709
7292 -8085.780417640402
7293 -8094.012027423947
7294 -8098.235479963443
7295 -8104.932252268633
7296 -8108.26022158089
7297 -8113.287771290772
7298 -8115.465822170419
7299 -8118.92529969449
7300 -8120.15751451759
7301 -8121.680725344474
7302 -8121.717202697215
7303 -8121.518717872223
7304 -8120.266824525903
7305 -8118.225257669839
7306 -8115.754525660831
7307 -8112.105373710392
7308 -8108.511287059491
7309 -8103.390815795146
7310 -8098.986069446044
7311 -8095.013694827192
7312 -8087.8196166534
7313 -8083.381835099649
7314 -8075.182654413921
7315 -8070.106744597811
7316 -8061.535344654801
7317 -8056.505103757935
7318 -8050.615904535904
7319 -8042.799909136291
7320 -8037.029823223467
7321 -8031.97545317718
7322 -8024.029081900775
7323 -8019.646779806821
7324 -8014.71096065132
7325 -8008.271026089573
7326 -8003.869246065344
7327 -8000.569364458383
7328 -7995.401774700378
7329 -7993.203011122521
7330 -7990.458763214378
7331 -7988.104017937705
7332 -7986.299308726474
7333 -7985.936708673107
7334 -7985.075775513063
7335 -7985.735851040458
7336 -7986.232516791229
7337 -7987.844981834854
7338 -7990.090459646408
7339 -7992.702713839197
7340 -7996.071046006641
7341 -7999.236523305745
7342 -8003.572225897483
7343 -8007.250354149671
7344 -8012.059258001964
7345 -8016.082597295375
7346 -8021.265977603933
7347 -8025.450184080009
7348 -8028.968090424846
7349 -8035.014427805444
7350 -8038.310712513545
7351 -8042.161973826423
7352 -8045.296322786848
7353 -8048.694887579093
7354 -8051.3821292501
7355 -8054.326205164447
7356 -8056.287472110103
7357 -8058.738800230404
7358 -8060.052117812714
7359 -8061.413585007563
7360 -8061.757535358995
7361 -8062.304463425286
7362 -8061.721746918904
7363 -8061.422754663779
7364 -8059.961370177656
7365 -8058.821442664746
7366 -8056.447912328228
7367 -8054.496479097775
7368 -8051.488937889972
7369 -8048.841367440377
7370 -8045.131605719514
7371 -8041.877998899203
7372 -8037.818286986523
7373 -8032.127611760859
7374 -8027.884215435503
7375 -8024.242656188427
7376 -8019.84947407804
7377 -8014.182337281322
7378 -8009.911727900949
7379 -8006.475631643628
7380 -8002.70496258183
7381 -7999.741763631046
7382 -7995.05493548405
7383 -7992.842229815003
7384 -7990.451460845089
7385 -7988.955863231878
7386 -7987.398478284576
7387 -7986.86768387958
7388 -7986.005267467982
7389 -7986.13809202564
7390 -7985.92914386585
7391 -7986.726395597941
7392 -7987.619731210574
7393 -7989.500640185107
7394 -7991.231905126806
7395 -7993.950266465637
7396 -7997.57015686008
7397 -8000.96947247726
7398 -8003.959841279974
7399 -8009.651943178063
7400 -8013.133244691391
7401 -8017.312131958109
7402 -8023.149059822413
7403 -8027.50508101961
7404 -8033.41881533796
7405 -8037.806642648939
7406 -8043.448483603866
7407 -8047.799021839925
7408 -8052.911408544431
7409 -8056.767850699154
7410 -8059.654838135633
7411 -8064.174626256863
7412 -8066.169561431316
7413 -8068.429041566765
7414 -8070.402762327752
7415 -8071.897015427159
7416 -8072.17245080418
7417 -8073.07850266687
7418 -8072.599862957753
7419 -8072.255458899614
7420 -8070.102495999241
7421 -8068.860826140772
7422 -8066.493449558256
7423 -8062.973378210986
7424 -8059.670534530316
7425 -8054.968143769494
7426 -8051.187263167821
7427 -8045.598291765467
7428 -8041.005377719204
7429 -8034.452922782068
7430 -8029.361836578047
7431 -8022.099430590963
7432 -8016.480032507532
7433 -8008.89755117687
7434 -8000.849095271866
7435 -7996.000522734451
7436 -7987.9336872464
7437 -7983.302340978541
7438 -7975.59415105481
7439 -7971.02074270107
7440 -7963.680170289047
7441 -7959.769533516908
7442 -7953.117246516376
7443 -7949.719907188446
7444 -7944.090170264499
7445 -7941.196063636693
7446 -7936.774633062189
7447 -7934.763552323424
7448 -7931.304967384467
7449 -7929.881992206508
7450 -7927.733570674668
7451 -7927.264782244741
7452 -7926.133897251263
7453 -7926.29377434164
7454 -7926.46327850319
7455 -7927.33935300783
7456 -7928.440066573149
7457 -7930.08292180932
7458 -7932.100138960421
7459 -7934.269977108246
7460 -7936.184949775472
7461 -7940.26126390733
7462 -7942.638147455953
7463 -7947.179119099592
7464 -7949.923133734994
7465 -7953.467003119178
7466 -7958.030788940167
7467 -7961.799113209723
7468 -7964.805858555111
7469 -7970.299450111442
7470 -7973.211556946433
7471 -7976.706221225683
7472 -7979.671481255711
7473 -7984.548994194611
7474 -7987.117767005579
7475 -7989.844568419683
7476 -7991.910121662577
7477 -7994.119247795164
7478 -7996.321197644951
7479 -7997.933548278325
7480 -7998.68976268484
7481 -7999.59705711164
7482 -7999.669674135263
7483 -8000.010336545854
7484 -7999.274108479409
7485 -7998.252424481121
7486 -7996.673849182393
7487 -7995.373828674096
7488 -7992.268453115864
7489 -7990.181434707685
7490 -7987.369024428496
7491 -7983.107761918141
7492 -7979.520985873486
7493 -7975.992296013579
7494 -7969.882324236142
7495 -7966.164715419769
7496 -7960.027196231706
7497 -7956.097332890202
7498 -7951.547473065572
7499 -7945.32569539609
7500 -7940.678597460664
7501 -7936.335530500908
7502 -7929.403536207112
7503 -7925.438158557816
7504 -7920.588784653852
7505 -7914.767882721307
7506 -7910.624713855741
7507 -7907.159288403328
7508 -7903.277117881144
7509 -7898.820367654245
7510 -7895.455333126889
7511 -7893.176181689923
7512 -7889.352520982286
7513 -7887.753370661103
7514 -7885.765638837161
7515 -7884.342267671789
7516 -7883.225640478768
7517 -7883.213353655742
7518 -7882.908653869154
7519 -7883.844426799955
7520 -7884.390161839437
7521 -7886.338627556655
7522 -7888.590432870191
7523 -7891.007129013716
7524 -7893.104263874757
7525 -7896.068257914183
7526 -7898.763356028428
7527 -7904.306552265405
7528 -7907.650729743805
7529 -7911.75744649418
7530 -7917.356791962405
7531 -7921.782543111141
7532 -7925.766953296315
7533 -7932.703234743169
7534 -7936.597443884162
7535 -7941.040408530295
7536 -7946.796761379207
7537 -7951.063624328533
7538 -7954.692376194822
7539 -7960.403352231551
7540 -7963.385173361384
7541 -7966.822049247904
7542 -7970.899344488745
7543 -7973.860209104763
7544 -7976.089093759565
7545 -7979.573631703695
7546 -7981.156453172557
7547 -7982.783479421393
7548 -7984.506156221867
7549 -7985.553475041236
7550 -7986.040414228589
7551 -7986.592937445359
7552 -7986.238061652658
7553 -7986.5427399118
7554 -7985.611965470957
7555 -7985.338880171064
7556 -7983.828138222147
7557 -7983.157187264266
7558 -7981.24956624295
7559 -7980.448925885279
7560 -7978.894994462117
7561 -7977.251946150371
7562 -7975.699046746209
7563 -7974.799573312993
7564 -7972.931148262819
7565 -7972.098498513324
7566 -7971.00022895676
7567 -7970.515504150597
7568 -7969.49075939411
7569 -7969.294614320946
7570 -7968.659965980197
7571 -7968.725102365042
7572 -7968.567127805371
7573 -7968.566658968612
7574 -7968.33715187522
7575 -7969.028169675183
7576 -7969.111923610675
7577 -7969.840354958553
7578 -7970.597187760522
7579 -7971.988501137844
7580 -7972.867550080366
7581 -7974.456815215651
7582 -7975.875382996773
7583 -7978.090878164008
7584 -7979.601871777914
7585 -7981.996483153222
7586 -7983.780623934825
7587 -7986.678596820413
7588 -7990.009773151584
7589 -7993.336337634609
7590 -7995.948020030336
7591 -7999.266175321016
7592 -8002.227954242117
7593 -8005.543054289617
7594 -8010.202656694196
7595 -8013.69326269918
7596 -8016.298178816908
7597 -8019.376994367267
7598 -8021.806600129796
7599 -8024.619152663932
7600 -8026.893349507937
7601 -8029.361311355725
7602 -8031.006138669085
7603 -8033.455842177502
7604 -8034.714794148498
7605 -8036.298096000767
7606 -8037.199409131767
7607 -8038.459625606
7608 -8038.78957964381
7609 -8039.434706958003
7610 -8039.284796365564
7611 -8039.387174418347
7612 -8038.623064648224
7613 -8038.169983030049
7614 -8037.166728913957
7615 -8036.405643227891
7616 -8034.796274981059
7617 -8033.747741708453
7618 -8031.622265851387
7619 -8030.440785415557
7620 -8028.210121188147
7621 -8026.695024405355
7622 -8024.653249818326
7623 -8023.411314686718
7624 -8021.498745859399
7625 -8020.261115941804
7626 -8018.650225355895
7627 -8018.02443726412
7628 -8017.044404508686
7629 -8016.974372134538
7630 -8016.499085437707
7631 -8016.764752492587
7632 -8016.626291557504
7633 -8017.519175713147
7634 -8018.273115265694
7635 -8019.727424449278
7636 -8021.166316979746
7637 -8023.58880578667
7638 -8025.528958789536
7639 -8028.496796401878
7640 -8031.082539078336
7641 -8034.559873866296
7642 -8037.539836258979
7643 -8041.671269929204
7644 -8045.177059463093
7645 -8049.359156199676
7646 -8052.820396208492
7647 -8057.185503684912
7648 -8060.893043228858
7649 -8065.331159492261
7650 -8069.259690666957
7651 -8073.815479757078
7652 -8077.621827695613
7653 -8081.940398179594
7654 -8085.373110939613
7655 -8089.359015310329
7656 -8092.624188741208
7657 -8096.198224508497
7658 -8098.896385411036
7659 -8101.704388522909
7660 -8103.719112004932
7661 -8105.750288794844
7662 -8107.053410594674
7663 -8108.465074524482
7664 -8108.784313339434
7665 -8109.413300993378
7666 -8108.937526332882
7667 -8108.636734659714
7668 -8107.266332266094
7669 -8106.121437133844
7670 -8103.784834145629
7671 -8101.800918268086
7672 -8098.631750622258
7673 -8095.510719923401
7674 -8091.488419789551
7675 -8087.772358297464
7676 -8082.938622788833
7677 -8078.352306652044
7678 -8072.864819414424
7679 -8067.740698147403
7680 -8061.794957710398
7681 -8056.05321724881
7682 -8049.756138261449
7683 -8044.047784475925
7684 -8034.68907835289
7685 -8028.938881178903
7686 -8022.633953477335
7687 -8017.055477100605
7688 -8008.247553119289
7689 -8003.218825194494
7690 -7997.854483653447
7691 -7990.928981504231
7692 -7986.184514148516
7693 -7982.25430947094
7694 -7976.215575417703
7695 -7973.125613603973
7696 -7968.196501102732
7697 -7965.779770398594
7698 -7962.279363830709
7699 -7960.864404829415
7700 -7958.451168943144
7701 -7957.855987028385
7702 -7956.704911188262
7703 -7956.81970502934
7704 -7956.784363323955
7705 -7957.573287557169
7706 -7958.172516448542
7707 -7959.469755613703
7708 -7961.491542438997
7709 -7963.200650221806
7710 -7964.776521735536
7711 -7967.155094809591
7712 -7969.394125737508
7713 -7972.0327421387
7714 -7974.515929875497
7715 -7977.591789867185
7716 -7980.293598016251
7717 -7983.311923430888
7718 -7986.182244318532
7719 -7989.601365742674
7720 -7992.431545237895
7721 -7995.887502771648
7722 -7998.901817209207
7723 -8002.421047456042
7724 -8005.289259493245
7725 -8008.528633262492
7726 -8011.223331817914
7727 -8014.280756305972
7728 -8016.729203744368
7729 -8019.555116904756
7730 -8021.752425305387
7731 -8024.32555429762
7732 -8026.209527316148
7733 -8028.246892332584
7734 -8029.694725773871
7735 -8031.420287112882
7736 -8032.599960308176
7737 -8034.012721276412
7738 -8034.575346488268
7739 -8035.808615379606
7740 -8036.294820244213
7741 -8037.020116046072
7742 -8037.265917228837
7743 -8037.623329252129
7744 -8037.3406383237
7745 -8037.46276872378
7746 -8037.14463573515
7747 -8036.86429703545
7748 -8036.137416490012
7749 -8035.854475295147
7750 -8035.309066626372
7751 -8034.981744666613
7752 -8034.229516213797
7753 -8033.960522212782
7754 -8033.458588697148
7755 -8033.475262447079
7756 -8032.92525195149
7757 -8032.847446331281
7758 -8032.369853011091
7759 -8032.472352022833
7760 -8032.003705932671
7761 -8032.414054248453
7762 -8032.332677194321
7763 -8033.218533672761
7764 -8033.44835801321
7765 -8034.52605505698
7766 -8034.97725012862
7767 -8036.074318649549
7768 -8036.682135282916
7769 -8037.973312459094
7770 -8038.706730159396
7771 -8040.163074879208
7772 -8040.959935171562
7773 -8042.299412435043
7774 -8043.142006170822
7775 -8044.320898380471
7776 -8044.641443724522
7777 -8045.624564954707
7778 -8045.903298926944
7779 -8046.47588806212
7780 -8046.599203555435
7781 -8046.833861373639
7782 -8046.570219498627
7783 -8046.466488173884
7784 -8045.572594845948
7785 -8044.972641831764
7786 -8043.808983538355
7787 -8042.970548343602
7788 -8041.406177274805
7789 -8040.036127665099
7790 -8037.99884669782
7791 -8036.130014093594
7792 -8033.684395769176
7793 -8031.435042617977
7794 -8028.461057045636
7795 -8026.043411495346
7796 -8022.592213391578
7797 -8019.688478570986
7798 -8016.183665269717
7799 -8013.175072332703
7800 -8009.520391949883
7801 -8006.36593717606
7802 -8002.636538299306
7803 -7999.554473784184
7804 -7996.001251014716
7805 -7993.235930968614
7806 -7989.930972650942
7807 -7987.39540507048
7808 -7984.443850317981
7809 -7982.382163180454
7810 -7980.149794034821
7811 -7978.678297412218
7812 -7976.856035166357
7813 -7975.965983073256
7814 -7975.051126590575
7815 -7974.8677543568
7816 -7974.384088941145
7817 -7974.579443528312
7818 -7974.940338280075
7819 -7976.096878911613
7820 -7976.83676960628
7821 -7978.319174056613
7822 -7979.800775335042
7823 -7981.83382400091
7824 -7983.570256770685
7825 -7985.86709281801
7826 -7988.037353186975
7827 -7990.770293265088
7828 -7993.122200282759
7829 -7996.354977758499
7830 -7998.897114047119
7831 -8002.073031102269
7832 -8004.732750189764
7833 -8007.425261401562
7834 -8011.008069143467
7835 -8013.651420890261
7836 -8015.424779966878
7837 -8017.607104992788
7838 -8019.080716353914
7839 -8021.35133974037
7840 -8022.275129724883
7841 -8023.510758712136
7842 -8023.696467401931
7843 -8024.015314709462
7844 -8023.861981073923
7845 -8023.818905188641
7846 -8022.724408513212
7847 -8021.638425966036
7848 -8019.685015658559
7849 -8016.873821728459
7850 -8014.571291870789
7851 -8012.370066020485
7852 -8009.410482251873
7853 -8006.716603485048
7854 -8001.936311340994
7855 -7998.822431243758
7856 -7995.034706100855
7857 -7991.498831062039
7858 -7987.58134164792
7859 -7982.037411479499
7860 -7978.052439884105
7861 -7974.424327134728
7862 -7970.737231812492
7863 -7965.649564601023
7864 -7962.130058032602
7865 -7959.205034066803
7866 -7955.87307416763
7867 -7951.66345689951
7868 -7948.787121374538
7869 -7946.581972101717
7870 -7943.325632692462
7871 -7942.020742400895
7872 -7940.357086285843
7873 -7938.765442665354
7874 -7937.97757402978
7875 -7937.468333532537
7876 -7937.1187708699
7877 -7937.645847522494
7878 -7938.212715292567
7879 -7939.351016705132
7880 -7940.986027479145
7881 -7942.780269802822
7882 -7944.997391287227
7883 -7947.514153350316
7884 -7949.638025835753
7885 -7953.543691929965
7886 -7955.78550688219
7887 -7958.962356202379
7888 -7962.608364542076
7889 -7965.524891848061
7890 -7968.039148803148
7891 -7971.216008266891
7892 -7974.075281645291
7893 -7977.39574732899
7894 -7980.001488256893
7895 -7983.295079699154
7896 -7985.488869140773
7897 -7987.959547655259
7898 -7990.135675612553
7899 -7992.77144498865
7900 -7994.305934104268
7901 -7996.203199872345
7902 -7997.596197960507
7903 -7999.315860156359
7904 -8000.079539525866
7905 -8001.589457777473
7906 -8001.989623252676
7907 -8002.630707738334
7908 -8002.347909855361
7909 -8002.267985333818
7910 -8001.230153747312
7911 -8000.769647677511
7912 -7999.278173745324
7913 -7997.998389895457
7914 -7996.077334473485
7915 -7994.306741020034
7916 -7991.826797751327
7917 -7989.688785348932
7918 -7986.782327473353
7919 -7984.303877364488
7920 -7981.252530108551
7921 -7978.387657020878
7922 -7975.009972150766
7923 -7972.260225269965
7924 -7968.815464355881
7925 -7965.855081225386
7926 -7962.873176043087
7927 -7960.053149389931
7928 -7957.238681422182
7929 -7954.735007025619
7930 -7952.008458866783
7931 -7949.962827913188
7932 -7947.823904065765
7933 -7945.88606239001
7934 -7943.593002183983
7935 -7942.181210603859
7936 -7940.858719065413
7937 -7939.980104852294
7938 -7938.870622299546
7939 -7938.413195727719
7940 -7937.752799799866
7941 -7937.825630983567
7942 -7937.808279075251
7943 -7938.210677055948
7944 -7938.670049366479
7945 -7939.477516202599
7946 -7940.197211648537
7947 -7941.363156061229
7948 -7942.29883025066
7949 -7943.705958123981
7950 -7944.60816776597
7951 -7946.205607801267
7952 -7946.844484231424
7953 -7948.050940337701
7954 -7948.630018155208
7955 -7949.490064989301
7956 -7950.4142598879
7957 -7950.597918381934
7958 -7950.298354882486
7959 -7950.107288801101
7960 -7949.438663842116
7961 -7948.674118527751
7962 -7947.012948901438
7963 -7944.630971133607
7964 -7942.490717181454
7965 -7940.339686271523
7966 -7937.643013191423
7967 -7933.460153828868
7968 -7930.234065476077
7969 -7926.432272702345
7970 -7920.111598425118
7971 -7915.883588771912
7972 -7911.04165743357
7973 -7903.662781155918
7974 -7898.526430452526
7975 -7890.960281945519
7976 -7885.468474842312
7977 -7877.512881166234
7978 -7871.842649625994
7979 -7863.943387989502
7980 -7858.595248648871
7981 -7851.162103591204
7982 -7845.811502443739
7983 -7838.561346145234
7984 -7833.723180728621
7985 -7827.574976649492
7986 -7823.338580141058
7987 -7818.446192728292
7988 -7814.877810170445
7989 -7810.747892070822
7990 -7808.330658719241
7991 -7805.503980185968
7992 -7804.123007516827
7993 -7803.369637033116
7994 -7802.875284108709
7995 -7802.989718008243
7996 -7803.537552706565
7997 -7805.25237592513
7998 -7806.689275443646
7999 -7810.277638069047
8000 -7812.720794170814
8001 -7818.304579974539
8002 -7821.570167864752
8003 -7825.800301953649
8004 -7832.136102357667
8005 -7837.086306254843
8006 -7842.193818863968
8007 -7850.187358879344
8008 -7855.644074558837
8009 -7861.543104788085
8010 -7870.983741899119
8011 -7877.386248561442
8012 -7886.824160151822
8013 -7893.253737004522
8014 -7899.380051048454
8015 -7908.939935009953
8016 -7915.527686616898
8017 -7925.501057680794
8018 -7931.759905005486
8019 -7940.964868635695
8020 -7946.944125892827
8021 -7955.433076554716
8022 -7960.523263473142
8023 -7968.134516549814
8024 -7972.429415921541
8025 -7979.132479802952
8026 -7982.697814050112
8027 -7988.33692758763
8028 -7991.143371774024
8029 -7994.978860454522
8030 -7996.75526839886
8031 -7999.10855309484
8032 -8000.00511005009
8033 -8000.799621275575
8034 -8001.017893911738
8035 -8000.941858567105
8036 -8000.216444060829
8037 -7999.252879133459
8038 -7996.395495466365
8039 -7994.651676558592
8040 -7992.138318980275
8041 -7989.71744736106
8042 -7986.654027377376
8043 -7983.702938232689
8044 -7979.990791773564
8045 -7976.278724902545
8046 -7972.262800398385
8047 -7968.257501293131
8048 -7963.40795228445
8049 -7958.720078282025
8050 -7953.656724622881
8051 -7948.604476674313
8052 -7942.822176287916
8053 -7934.987861912282
8054 -7929.477610686873
8055 -7924.466803451529
8056 -7916.316282428821
8057 -7911.651786226108
8058 -7903.887095470737
8059 -7899.423432170007
8060 -7892.785452962483
8061 -7888.827458279987
8062 -7882.483190670278
8063 -7877.651812230349
8064 -7872.933469527296
8065 -7868.933936587069
8066 -7865.470359905602
8067 -7862.596751893449
8068 -7860.079019268136
8069 -7858.397259966055
8070 -7856.545506620989
8071 -7855.792006630618
8072 -7855.298260299395
8073 -7856.461452696176
8074 -7856.82313523156
8075 -7858.669276005307
8076 -7860.087268336459
8077 -7863.081042990847
8078 -7865.175401795226
8079 -7868.365358883681
8080 -7870.838881006513
8081 -7874.896650958628
8082 -7877.899573602585
8083 -7882.808495870356
8084 -7886.052366258728
8085 -7891.097412628033
8086 -7894.430622758697
8087 -7899.296737949186
8088 -7903.718058384465
8089 -7908.863627304882
8090 -7914.258515843854
8091 -7919.870045113069
8092 -7923.644429059296
8093 -7927.589482836918
8094 -7931.097968478489
8095 -7934.668170742724
8096 -7938.433603645214
8097 -7942.225244008205
8098 -7945.037477727274
8099 -7947.55665951297
8100 -7948.424826576309
8101 -7949.709225171258
8102 -7950.196929548506
8103 -7950.45863135157
8104 -7948.223150182863
8105 -7946.090279049717
8106 -7943.110022011602
8107 -7939.660774110065
8108 -7935.644035603737
8109 -7930.645329074326
8110 -7925.27385897672
8111 -7920.000729165755
8112 -7911.987518063137
8113 -7904.15878894268
8114 -7894.65539823164
8115 -7886.137708655754
8116 -7877.04237637485
8117 -7868.207405738296
8118 -7858.243170832387
8119 -7849.146022908464
8120 -7838.704385891293
8121 -7829.980131200386
8122 -7821.640657497173
8123 -7813.624460602728
8124 -7806.025593222343
8125 -7799.974627766314
8126 -7794.471273624457
8127 -7790.862937355877
8128 -7787.734109736079
8129 -7786.932704914168
8130 -7786.129544328616
8131 -7787.154129615698
8132 -7789.974104382213
8133 -7793.638621947566
8134 -7798.515598904809
8135 -7804.978844742096
8136 -7812.941194985819
8137 -7821.194636710846
8138 -7830.612509469934
8139 -7841.551793420176
8140 -7853.22671168129
8141 -7866.260205780323
8142 -7879.814613459132
8143 -7894.116632901528
8144 -7908.830685184611
8145 -7925.270182664351
8146 -7941.57999541254
8147 -7958.980545258622
8148 -7975.29007812595
8149 -7992.041177211997
8150 -8007.669975934426
8151 -8024.241544400534
8152 -8039.416173085829
8153 -8054.723118893281
8154 -8069.098904082784
8155 -8081.961154283626
8156 -8094.484761079653
8157 -8105.954823165325
8158 -8116.680861593588
8159 -8125.843063126084
8160 -8133.742105323186
8161 -8140.720247367041
8162 -8146.11605799088
8163 -8150.760467245243
8164 -8152.928104197096
8165 -8153.706289714428
8166 -8152.094538660705
8167 -8149.271070478461
8168 -8143.976464255324
8169 -8137.261940240675
8170 -8128.975363819408
8171 -8118.662971695536
8172 -8106.520664740533
8173 -8094.096000983795
8174 -8079.55676334781
8175 -8064.875753101303
8176 -8049.028924353205
8177 -8032.614998063039
8178 -8014.362139130065
8179 -7996.58318821444
8180 -7978.276467284478
8181 -7960.138953340822
8182 -7941.752748700546
8183 -7923.940137851876
8184 -7905.180646790272
8185 -7888.252599030356
8186 -7871.37985885827
8187 -7855.965200206027
8188 -7840.800097433387
8189 -7827.505132426299
8190 -7814.715231472881
8191 -7803.658237116649
8192 -7794.139390814717
8193 -7786.368042820679
8194 -7779.635777767864
8195 -7775.30349316178
8196 -7771.779396820955
8197 -7770.550449912303
8198 -7770.488214097611
8199 -7772.126915390094
8200 -7775.083851999083
8201 -7779.654855385061
8202 -7785.797654200614
8203 -7793.340215155219
8204 -7802.36914566723
8205 -7812.981417847354
8206 -7824.188681364544
8207 -7836.417064786861
8208 -7848.845104867914
8209 -7862.940595585217
8210 -7876.918759807605
8211 -7891.860296711082
8212 -7906.036976812811
8213 -7921.766689416118
8214 -7936.024557287903
8215 -7950.555812040629
8216 -7963.700723549062
8217 -7977.024589134397
8218 -7985.343282816
8219 -7997.11444316935
8220 -8007.731505721667
8221 -8017.323464119443
8222 -8025.219911002851
8223 -8031.952071766861
8224 -8036.878387860751
8225 -8040.895813816429
8226 -8042.731041074917
8227 -8043.318004560919
8228 -8042.126382525857
8229 -8040.296281525558
8230 -8036.477361076331
8231 -8031.672418663091
8232 -8025.882910180135
8233 -8019.252814379609
8234 -8011.731714744199
8235 -8004.322262754044
8236 -7995.578914716898
8237 -7987.375173655783
8238 -7978.267094329129
8239 -7969.720629461196
8240 -7961.138993598037
8241 -7953.492632265411
8242 -7945.660930698387
8243 -7938.971838128447
8244 -7932.019321063427
8245 -7926.5705342232
8246 -7921.017575629534
8247 -7918.384233589124
8248 -7915.284806730317
8249 -7913.481969587861
8250 -7912.709069120572
8251 -7913.009269673429
8252 -7913.93782865226
8253 -7915.718344795117
8254 -7919.893303730979
8255 -7925.147802595394
8256 -7928.796469825616
8257 -7936.096562367865
8258 -7940.77995539334
8259 -7949.253867455242
8260 -7957.437891128001
8261 -7967.018371324294
8262 -7976.384481049252
8263 -7987.008341951341
8264 -7997.399248961358
8265 -8009.109809440053
8266 -8020.157109393956
8267 -8031.249496254436
8268 -8042.417025805014
8269 -8053.316968074627
8270 -8063.491981421248
8271 -8073.341303125933
8272 -8082.03896494221
8273 -8090.286068600416
8274 -8097.3352824131
8275 -8103.220669142703
8276 -8107.315417229263
8277 -8110.915942846365
8278 -8112.163158278606
8279 -8113.174519880269
8280 -8112.335094773458
8281 -8111.01109046586
8282 -8106.832869266302
8283 -8102.806416199535
8284 -8096.871730089032
8285 -8089.987138466433
8286 -8084.157691868305
8287 -8075.393394083983
8288 -8065.512526651378
8289 -8055.062595208806
8290 -8043.879599447989
8291 -8032.588515979732
8292 -8020.276341541972
8293 -8008.80269103065
8294 -7996.353156366359
8295 -7984.680019115452
8296 -7973.055392337208
8297 -7961.98408772041
8298 -7950.753773719955
8299 -7940.568661730601
8300 -7930.693741407909
8301 -7921.795641316118
8302 -7913.083388321335
8303 -7908.023538174218
8304 -7900.653605558206
8305 -7894.446167211129
8306 -7888.612544526894
8307 -7885.922700197714
8308 -7881.439750699858
8309 -7878.819228201308
8310 -7876.598412354606
8311 -7876.169570065574
8312 -7875.568357936195
8313 -7875.931204228164
8314 -7876.406934619724
8315 -7878.096921915072
8316 -7881.394619948276
8317 -7884.941640577843
8318 -7888.609931119008
8319 -7892.10869777806
8320 -7897.007664000332
8321 -7902.50033921229
8322 -7906.323559766139
8323 -7912.492440212537
8324 -7918.210507663777
8325 -7922.644067723723
8326 -7927.831181929181
8327 -7932.002057166984
8328 -7937.645359911246
8329 -7941.596763933123
8330 -7946.544487775372
8331 -7950.282141397693
8332 -7954.190756919206
8333 -7956.536099981521
8334 -7958.585337295286
8335 -7960.375692360044
8336 -7961.758633970124
8337 -7962.863778645207
8338 -7963.202078672611
8339 -7963.418993507789
8340 -7962.385409916897
8341 -7961.508953545468
8342 -7958.430140539834
8343 -7956.726814101202
8344 -7953.105801322382
8345 -7949.02969439225
8346 -7945.327786899055
8347 -7940.034671196277
8348 -7934.011690116358
8349 -7928.469653625149
8350 -7923.796091237998
8351 -7917.267928006063
8352 -7910.771538878951
8353 -7906.308890210997
8354 -7898.913858167311
8355 -7892.75623421569
8356 -7888.067943251274
8357 -7881.687536051295
8358 -7877.73738776652
8359 -7872.587700981612
8360 -7869.039940412404
8361 -7864.274165493628
8362 -7861.967303292856
8363 -7859.401661008279
8364 -7857.987496166797
8365 -7856.837993772237
8366 -7856.621073807714
8367 -7857.365446970988
8368 -7858.744614942276
8369 -7861.185240908004
8370 -7863.391235287768
8371 -7868.528961078401
8372 -7872.418797105123
8373 -7878.527219303152
8374 -7885.483305065553
8375 -7893.923343511053
8376 -7902.856528833206
8377 -7912.371577638303
8378 -7921.924586354639
8379 -7931.831682394299
8380 -7942.523751435637
8381 -7953.243352087122
8382 -7963.67832545793
8383 -7974.77498538172
8384 -7984.51542935964
8385 -7995.046299914561
8386 -8004.345415416711
8387 -8013.528860511301
8388 -8021.250102194835
8389 -8027.652172854837
8390 -8032.665662921447
8391 -8036.847082764742
8392 -8038.350260208024
8393 -8039.261450635739
8394 -8038.792094616008
8395 -8036.142667399504
8396 -8032.116274096262
8397 -8027.020129042381
8398 -8018.948770449631
8399 -8009.246252067233
8400 -7998.106267913088
8401 -7985.063291411386
8402 -7970.41749753268
8403 -7953.919739828856
8404 -7935.793896307012
8405 -7917.751436545911
8406 -7897.806403661683
8407 -7876.962904349845
8408 -7855.640696230329
8409 -7834.308854198459
8410 -7812.302150261857
8411 -7791.732078888764
8412 -7771.487006146121
8413 -7752.384477835152
8414 -7733.232031360918
8415 -7715.41386925252
8416 -7698.819717710071
8417 -7683.827795202274
8418 -7670.906449135848
8419 -7659.674045422145
8420 -7650.452703762187
8421 -7643.667295869022
8422 -7638.498650312659
8423 -7635.622472107648
8424 -7634.992789225857
8425 -7637.285603756347
8426 -7640.733969187142
8427 -7647.617431125868
8428 -7655.900151597027
8429 -7667.611129195679
8430 -7680.823701443496
8431 -7695.876950173371
8432 -7712.495513575406
8433 -7730.678801852574
8434 -7751.055045713229
8435 -7773.117325081621
8436 -7795.02986332483
8437 -7819.141126021368
8438 -7843.590435241728
8439 -7869.255692448369
8440 -7894.789322429408
8441 -7920.606811839516
8442 -7946.719892983207
8443 -7973.026184924211
8444 -7997.435546278381
8445 -8021.954293929326
8446 -8045.375038750037
8447 -8068.422828799223
8448 -8089.513349977464
8449 -8109.677690220671
8450 -8127.352022696753
8451 -8144.55279532362
8452 -8159.434731149014
8453 -8173.321182707195
8454 -8184.881503863378
8455 -8195.517708573905
8456 -8203.67516841926
8457 -8211.067793676115
8458 -8216.029378097459
8459 -8219.473155684367
8460 -8221.310867882081
8461 -8221.853990387555
8462 -8220.186922836727
8463 -8218.173408796794
8464 -8213.732870544973
8465 -8210.493916109628
8466 -8203.154269888289
8467 -8198.175857117725
8468 -8188.910258043393
8469 -8182.519796605276
8470 -8171.958596877364
8471 -8164.741992586463
8472 -8152.286760304547
8473 -8144.203837116106
8474 -8130.860470156134
8475 -8122.122245797137
8476 -8108.123312275282
8477 -8099.160273493821
8478 -8085.148846102446
8479 -8076.505608559789
8480 -8062.676145043702
8481 -8054.017193518062
8482 -8041.065069422692
8483 -8033.143012784702
8484 -8020.833723739756
8485 -8013.628367902185
8486 -8002.848064896139
8487 -7996.006368128214
8488 -7986.473643622661
8489 -7978.508912085653
8490 -7970.960805478725
8491 -7964.930330255577
8492 -7959.549641482775
8493 -7955.718082090239
8494 -7952.09625032658
8495 -7950.072426694111
8496 -7948.426047305992
8497 -7948.149414467543
8498 -7948.211237474025
8499 -7949.085018515826
8500 -7949.911584574034
8501 -7951.595616841761
8502 -7953.730469075266
8503 -7955.980209742713
8504 -7958.775084514904
8505 -7961.589503967589
8506 -7965.212694990525
8507 -7967.762287125155
8508 -7970.116778403517
8509 -7974.418627339658
8510 -7976.787002194817
8511 -7979.791630081783
8512 -7982.279090328064
8513 -7984.961081015098
8514 -7986.946271899169
8515 -7989.233610357479
8516 -7991.066233852672
8517 -7993.181515703733
8518 -7994.408778988818
8519 -7996.178183535203
8520 -7996.827814821759
8521 -7997.786655942833
8522 -7998.106797447766
8523 -7998.578450353979
8524 -7998.309327905228
8525 -7998.177005384868
8526 -7997.072265438574
8527 -7996.463050125497
8528 -7994.846886743943
8529 -7992.460438555007
8530 -7989.970219410952
8531 -7987.414718418976
8532 -7982.699827451242
8533 -7979.501282795311
8534 -7974.116444991704
8535 -7970.618410776618
8536 -7964.314354158956
8537 -7960.212268324912
8538 -7953.115599090394
8539 -7948.441224786898
8540 -7940.483749447937
8541 -7935.6854963147
8542 -7927.599249700965
8543 -7922.643569511355
8544 -7914.426777360508
8545 -7909.321156216881
8546 -7901.343927407716
8547 -7896.451883431058
8548 -7891.10182975263
8549 -7884.399288586294
8550 -7879.170922571579
8551 -7872.39848906301
8552 -7867.57662627634
8553 -7863.652753390051
8554 -7857.558839006969
8555 -7854.180970739381
8556 -7848.530555058605
8557 -7845.836031087026
8558 -7841.455378265924
8559 -7839.222675006843
8560 -7835.512580129493
8561 -7834.146842461758
8562 -7831.95977048542
8563 -7831.2909528395
8564 -7830.361999767618
8565 -7830.310597384057
8566 -7830.045486644458
8567 -7830.656582514267
8568 -7831.7474261635
8569 -7833.307215586379
8570 -7835.282084878557
8571 -7837.33428436698
8572 -7839.941106843344
8573 -7842.418599711027
8574 -7846.055990631255
8575 -7848.859089649729
8576 -7851.312257227301
8577 -7856.214818261862
8578 -7858.9447303589
8579 -7863.830973756651
8580 -7867.186324287007
8581 -7872.500478245262
8582 -7875.651972220119
8583 -7881.002737530234
8584 -7884.194033417974
8585 -7889.145009648452
8586 -7892.016374312704
8587 -7896.990873726328
8588 -7899.297425563976
8589 -7903.352221389727
8590 -7905.425885964034
8591 -7908.543150481519
8592 -7910.056115492248
8593 -7912.404652596032
8594 -7913.750217667574
8595 -7914.630579597764
8596 -7914.807725243673
8597 -7915.079957084347
8598 -7914.348039255253
8599 -7914.260974684616
8600 -7912.320981400836
8601 -7911.218054291195
8602 -7908.557874264671
8603 -7906.994185287464
8604 -7903.24428890265
8605 -7900.987537116614
8606 -7896.415180282375
8607 -7893.974615183903
8608 -7889.119088685415
8609 -7886.413355848392
8610 -7882.879782647405
8611 -7878.509880638711
8612 -7874.80312199147
8613 -7869.894548648568
8614 -7866.397684969686
8615 -7863.404454100822
8616 -7858.115600240842
8617 -7855.292430314605
8618 -7850.549223585688
8619 -7847.850729962936
8620 -7844.798081177342
8621 -7841.1978384769
8622 -7838.555868944027
8623 -7836.822412108057
8624 -7834.001404614281
8625 -7832.861394010473
8626 -7831.439495596376
8627 -7829.756978424255
8628 -7828.947970346256
8629 -7829.008963223026
8630 -7828.661431557003
8631 -7828.816600682339
8632 -7828.993194602759
8633 -7830.285179388654
8634 -7831.397852759244
8635 -7832.750851190083
8636 -7834.116155142246
8637 -7836.197035299281
8638 -7837.800705424006
8639 -7840.388166583231
8640 -7842.616067023346
8641 -7845.312173375254
8642 -7847.581774006475
8643 -7850.048592568434
8644 -7852.350223407089
8645 -7855.105184695031
8646 -7857.308994339345
8647 -7860.130535536916
8648 -7862.107178283765
8649 -7865.80028215758
8650 -7867.502619711045
8651 -7869.49374884594
8652 -7870.69474184565
8653 -7872.442294197304
8654 -7873.63544411113
8655 -7874.767372756131
8656 -7875.158833319198
8657 -7875.536916404286
8658 -7875.494047064884
8659 -7875.29141115406
8660 -7874.443695666341
8661 -7873.915764780543
8662 -7871.547502992529
8663 -7870.165959970656
8664 -7867.6623140496
8665 -7864.35609624461
8666 -7861.741064096703
8667 -7859.174916795895
8668 -7855.84327294171
8669 -7851.569320126625
8670 -7847.838870576927
8671 -7844.468672726524
8672 -7838.179865764473
8673 -7834.47458351054
8674 -7830.019924444417
8675 -7822.982593355447
8676 -7818.671556726476
8677 -7814.225769196551
8678 -7806.586075335671
8679 -7801.910858098314
8680 -7794.14517487688
8681 -7789.16811390494
8682 -7780.599679605271
8683 -7775.789345452783
8684 -7767.615187151474
8685 -7762.242631546682
8686 -7753.444368527769
8687 -7748.015292655224
8688 -7739.036154525847
8689 -7731.767358355526
8690 -7726.228245135096
8691 -7719.119297442494
8692 -7711.034414121359
8693 -7703.341870235166
8694 -7697.483851542258
8695 -7689.893303855706
8696 -7682.10063546496
8697 -7674.93669910128
8698 -7667.706066764992
8699 -7661.358704889794
8700 -7654.286464618942
8701 -7648.409628610136
8702 -7642.211127024088
8703 -7636.925990705958
8704 -7632.135326302087
8705 -7628.496737622934
8706 -7625.031386463251
8707 -7622.139468016664
8708 -7619.385354596577
8709 -7617.443701625429
8710 -7616.700634769849
8711 -7616.874477848863
8712 -7617.543683180148
8713 -7620.209072951344
8714 -7622.703443451397
8715 -7625.542907418997
8716 -7629.789689465587
8717 -7633.87851030513
8718 -7639.849537431268
8719 -7645.390889180393
8720 -7653.110950264489
8721 -7659.631717917338
8722 -7668.849316402076
8723 -7677.050126317708
8724 -7688.808001594766
8725 -7697.259863156766
8726 -7710.544024248321
8727 -7720.556754622043
8728 -7735.306572105336
8729 -7750.289366294866
8730 -7764.850704640449
8731 -7781.717236317904
8732 -7796.542669930294
8733 -7811.771088835711
8734 -7825.689259375288
8735 -7840.61747023953
8736 -7853.061097910295
8737 -7866.002073995731
8738 -7877.911011284941
8739 -7889.387116216825
8740 -7899.278231947541
8741 -7909.214081853281
8742 -7917.842749021318
8743 -7925.673243501828
8744 -7931.704896847136
8745 -7937.207526497559
8746 -7941.250541906398
8747 -7944.285510564194
8748 -7946.185020532283
8749 -7947.046032976397
8750 -7946.282614985385
8751 -7945.26692024876
8752 -7943.452092650129
8753 -7939.6149222312
8754 -7935.092922143967
8755 -7931.336990520064
8756 -7924.563636269643
8757 -7920.24916567848
8758 -7911.540017414239
8759 -7906.160439542019
8760 -7897.185144589327
8761 -7890.873967348228
8762 -7880.663216533696
8763 -7873.944699209441
8764 -7863.078308227842
8765 -7856.402748066834
8766 -7846.092612659397
8767 -7839.616993196438
8768 -7830.037886334432
8769 -7824.483374765132
8770 -7815.923193960668
8771 -7811.056462346868
8772 -7803.950346344098
8773 -7799.867288682161
8774 -7794.026703021495
8775 -7791.395323059715
8776 -7787.92508535094
8777 -7786.824576847861
8778 -7785.546791523563
8779 -7785.70772370598
8780 -7786.469488335598
8781 -7788.25558903288
8782 -7791.449915187643
8783 -7794.221131909547
8784 -7799.483084895317
8785 -7804.141564066296
8786 -7811.618243901667
8787 -7817.397093209927
8788 -7826.302507808952
8789 -7833.157890055089
8790 -7843.773512346716
8791 -7851.106429675419
8792 -7862.302518804836
8793 -7873.972995445147
8794 -7881.922282965273
8795 -7893.743272044448
8796 -7905.059000413423
8797 -7912.982689225592
8798 -7923.336439894658
8799 -7933.923367558397
8800 -7940.272848727012
8801 -7949.822508443024
8802 -7958.35946623903
8803 -7963.629835222454
8804 -7970.310073679897
8805 -7976.051386012015
8806 -7978.911589759286
8807 -7982.998780669554
8808 -7985.356096081928
8809 -7986.50734335063
8810 -7986.824290877476
8811 -7986.702519146224
8812 -7984.631774957325
8813 -7983.044315656382
8814 -7978.390283050624
8815 -7973.458858007887
8816 -7966.98712126363
8817 -7960.11028392598
8818 -7954.299859005505
8819 -7945.778181370762
8820 -7935.836184030974
8821 -7926.062090413191
8822 -7915.695782023521
8823 -7904.912790383365
8824 -7894.134949623879
8825 -7882.985028374338
8826 -7871.512463137725
8827 -7860.593195333669
8828 -7849.563384562643
8829 -7839.853563775793
8830 -7829.771488810603
8831 -7820.236035546281
8832 -7811.039544684236
8833 -7802.863545550478
8834 -7795.091037936838
8835 -7789.113074565237
8836 -7783.544377480232
8837 -7779.156372116349
8838 -7775.393648359297
8839 -7773.263326980919
8840 -7771.158286081903
8841 -7771.074251019965
8842 -7771.488460998462
8843 -7773.869313402271
8844 -7777.12572915535
8845 -7780.913962567427
8846 -7785.422520509406
8847 -7791.684963431956
8848 -7798.404803391746
8849 -7806.724678382346
8850 -7812.522413418947
8851 -7822.675844222253
8852 -7830.063873062551
8853 -7842.426795495023
8854 -7850.936734453165
8855 -7864.792024686045
8856 -7874.299768992503
8857 -7889.38075394804
8858 -7903.955853045426
8859 -7914.657365477152
8860 -7930.572972471244
8861 -7947.330472638449
8862 -7957.826833741095
8863 -7974.760799807833
8864 -7990.181149817431
8865 -8005.89342051361
8866 -8015.451196236787
8867 -8030.627506052831
8868 -8043.692268757919
8869 -8056.775086526004
8870 -8068.134345785343
8871 -8078.897977366163
8872 -8088.090740154507
8873 -8096.427938214516
8874 -8103.188047928059
8875 -8109.284632103895
8876 -8113.723848703626
8877 -8117.256217470031
8878 -8118.74469977988
8879 -8119.319590611638
8880 -8118.029965650106
8881 -8116.001827919514
8882 -8113.089615139981
8883 -8108.183993358272
8884 -8102.024542005346
8885 -8097.368981919766
8886 -8088.721239927324
8887 -8082.61587889052
8888 -8071.63342869894
8889 -8064.210440288273
8890 -8050.937675687406
8891 -8042.457961119047
8892 -8027.596329497727
8893 -8018.191233517421
8894 -8002.602280443774
8895 -7992.399347732802
8896 -7976.239684319928
8897 -7965.315139208154
8898 -7948.801408691549
8899 -7938.22364987655
8900 -7922.015503744529
8901 -7912.203119850235
8902 -7896.866176147099
8903 -7887.623555208318
8904 -7873.543342349403
8905 -7860.931226255309
8906 -7852.764044016523
8907 -7842.00932150246
8908 -7831.477203841507
8909 -7823.097892371345
8910 -7815.085246944166
8911 -7809.046134539083
8912 -7803.742306195363
8913 -7800.244109748795
8914 -7797.676392488272
8915 -7796.687017771215
8916 -7796.521957482099
8917 -7797.562800875672
8918 -7799.787736214206
8919 -7803.05655598325
8920 -7806.682499780797
8921 -7809.789080111169
8922 -7815.460115671144
8923 -7820.097036544885
8924 -7827.042972183856
8925 -7832.213369653089
8926 -7839.36738341625
8927 -7844.984792159127
8928 -7853.254691784306
8929 -7859.199924814967
8930 -7867.975887239908
8931 -7874.003334050331
8932 -7882.748400182658
8933 -7888.852324651622
8934 -7896.972000655907
8935 -7902.513660586538
8936 -7909.826664920468
8937 -7914.848425789247
8938 -7921.873184541088
8939 -7926.24681945656
8940 -7931.382683644077
8941 -7936.494058182559
8942 -7938.561910737412
8943 -7941.13201864589
8944 -7942.519950602894
8945 -7943.037679177584
8946 -7942.285252573791
8947 -7941.126815849063
8948 -7937.960671386742
8949 -7934.247118343426
8950 -7928.227904023498
8951 -7922.21907344059
8952 -7914.782955598086
8953 -7906.28414097717
8954 -7896.661979602361
8955 -7886.618288266266
8956 -7875.844342896106
8957 -7864.679455784149
8958 -7852.8941801951
8959 -7841.022626339904
8960 -7828.556349498033
8961 -7816.421042991396
8962 -7804.276153802217
8963 -7793.148542054251
8964 -7781.996549326815
8965 -7772.509745819452
8966 -7762.579622580655
8967 -7754.22493491658
8968 -7746.590228974562
8969 -7740.251481080744
8970 -7734.852972284151
8971 -7730.797618949291
8972 -7727.728603494567
8973 -7726.539789815198
8974 -7725.470276199448
8975 -7726.455993594343
8976 -7728.584740636826
8977 -7731.742889038247
8978 -7736.106784472705
8979 -7741.251361965852
8980 -7747.162599036489
8981 -7754.955633298937
8982 -7762.503632603793
8983 -7771.581382613714
8984 -7781.456284995501
8985 -7791.427384196392
8986 -7801.464942225311
8987 -7808.954539265647
8988 -7819.695081446483
8989 -7831.193474815041
8990 -7842.240468584583
8991 -7853.190886677298
8992 -7863.61725804498
8993 -7870.651661088491
8994 -7880.146711363826
8995 -7889.097443416456
8996 -7896.334505481121
8997 -7900.891683130976
8998 -7906.498291086976
8999 -7911.656586970605
9000 -7913.973740282958
9001 -7916.514623397933
9002 -7918.338394676819
9003 -7918.891156674053
9004 -7917.833466642815
9005 -7916.499992120185
9006 -7913.740697188229
9007 -7911.884359606328
9008 -7907.648785745241
9009 -7905.123215178026
9010 -7899.726285181727
9011 -7896.144667520064
9012 -7889.837075206302
9013 -7886.335375095182
9014 -7880.137798707967
9015 -7876.226257221255
9016 -7870.096844119455
9017 -7866.199954300064
9018 -7860.145168559276
9019 -7856.163998601055
9020 -7850.127744567314
9021 -7846.7861757772
9022 -7841.455189718848
9023 -7838.962874243804
9024 -7834.675117750335
9025 -7832.374009834215
9026 -7828.472001999614
9027 -7826.775754118778
9028 -7824.372584521899
9029 -7823.599055859508
9030 -7821.649090027936
9031 -7821.708777097837
9032 -7821.992794353527
9033 -7822.618519527287
9034 -7824.388290199435
9035 -7825.691539400633
9036 -7828.181522495719
9037 -7830.533284479672
9038 -7834.394673222137
9039 -7837.363378708937
9040 -7842.257769145228
9041 -7845.913247783833
9042 -7852.005161677984
9043 -7856.088605449676
9044 -7861.802416983026
9045 -7866.100376284557
9046 -7872.332908163118
9047 -7877.185862211524
9048 -7883.592111047086
9049 -7887.975301179965
9050 -7893.154044258819
9051 -7896.506347789938
9052 -7899.377485509774
9053 -7904.431707369438
9054 -7906.999920261917
9055 -7909.359922182101
9056 -7911.417960593627
9057 -7912.868001907114
9058 -7913.420408265031
9059 -7914.373485787506
9060 -7913.658106560295
9061 -7912.491940435561
9062 -7910.596680905277
9063 -7906.934102526016
9064 -7903.740760793165
9065 -7898.100893194355
9066 -7893.774223889754
9067 -7887.085653612882
9068 -7882.124024867644
9069 -7874.335498909562
9070 -7868.77076248532
9071 -7860.544889850752
9072 -7854.920162638043
9073 -7846.791391602218
9074 -7840.982605719455
9075 -7833.431100041523
9076 -7828.328889526223
9077 -7821.437978027465
9078 -7817.022756176386
9079 -7813.196714088059
9080 -7807.793554697462
9081 -7805.290396122832
9082 -7802.82238997574
9083 -7801.175542983112
9084 -7800.01630480912
9085 -7799.776894582004
9086 -7800.021495506209
9087 -7801.207019092988
9088 -7803.725040987746
9089 -7806.550040406633
9090 -7810.597900391957
9091 -7814.491403609633
9092 -7820.267901782616
9093 -7825.231345732042
9094 -7832.617941022282
9095 -7840.906043997196
9096 -7849.659098937183
9097 -7858.631739716545
9098 -7867.729071248009
9099 -7877.393729893868
9100 -7886.526034850314
9101 -7895.699080457792
9102 -7901.6940313496
9103 -7910.732145933611
9104 -7919.388945984563
9105 -7925.028342276904
9106 -7932.534670145154
9107 -7940.213508082119
9108 -7944.853598382087
9109 -7951.612005685693
9110 -7955.414373105426
9111 -7960.624653182051
9112 -7963.361316725718
9113 -7967.562437152338
9114 -7969.0076231337
9115 -7971.401579671294
9116 -7971.951766412824
9117 -7972.936507721788
9118 -7972.585658571497
9119 -7971.590307840688
9120 -7969.851191231015
9121 -7967.307394151619
9122 -7963.414098636651
9123 -7960.725390794923
9124 -7955.315022362252
9125 -7949.585543209161
9126 -7943.05062579986
9127 -7936.532552944953
9128 -7928.917146608682
9129 -7921.555551759237
9130 -7913.342765432339
9131 -7905.502096087765
9132 -7896.978137474582
9133 -7891.727456772379
9134 -7882.985584302289
9135 -7874.990823373522
9136 -7869.52568525874
9137 -7862.005270896252
9138 -7854.634530121716
9139 -7850.32389890049
9140 -7843.537342268096
9141 -7840.112986275494
9142 -7835.040953605713
9143 -7832.523702157896
9144 -7828.932456658988
9145 -7827.479159378196
9146 -7824.97332838897
9147 -7824.094082685953
9148 -7823.56370969012
9149 -7824.403043211481
9150 -7825.413182811558
9151 -7827.913507602329
9152 -7829.691080529168
9153 -7833.490547635291
9154 -7837.412105549935
9155 -7842.419219085941
9156 -7846.99895243432
9157 -7852.79599910965
9158 -7858.03039692979
9159 -7864.083740314985
9160 -7869.659175765936
9161 -7875.756251029881
9162 -7881.505448463506
9163 -7887.034394983554
9164 -7891.974759736054
9165 -7896.785814900683
9166 -7899.299620014506
9167 -7902.822167957495
9168 -7905.377965632266
9169 -7907.840355157138
9170 -7908.688479872125
9171 -7909.469148691642
9172 -7909.240838163279
9173 -7908.796579990203
9174 -7906.574652206596
9175 -7904.72926354672
9176 -7900.544536739339
9177 -7897.544315095694
9178 -7891.344419149364
9179 -7887.196783646078
9180 -7879.045517713486
9181 -7873.851461758229
9182 -7863.929550232205
9183 -7853.975148980157
9184 -7846.194899757356
9185 -7835.623361008781
9186 -7823.772240689324
9187 -7812.675013320508
9188 -7801.181112062348
9189 -7790.108680938796
9190 -7778.668680951443
9191 -7768.294244238868
9192 -7757.570639697169
9193 -7748.192197392385
9194 -7739.084696503581
9195 -7731.027366483671
9196 -7723.788196955558
9197 -7717.566142502736
9198 -7711.689634407066
9199 -7707.258990450538
9200 -7703.549517361908
9201 -7702.477147391522
9202 -7700.701620221263
9203 -7701.013573961422
9204 -7701.531032725783
9205 -7704.057295162705
9206 -7707.310983746916
9207 -7710.668214503161
9208 -7715.916068885906
9209 -7723.099187364762
9210 -7728.125855454902
9211 -7736.874923047409
9212 -7746.135150331006
9213 -7756.539035156625
9214 -7767.134468850552
9215 -7778.75364455719
9216 -7789.24379988805
9217 -7801.677660001623
9218 -7813.477201155732
9219 -7826.025270715442
9220 -7837.510587898724
9221 -7848.788976485704
9222 -7859.112114191966
9223 -7869.610973668758
9224 -7878.899223595753
9225 -7886.778134832725
9226 -7893.529493584459
9227 -7899.49856348645
9228 -7903.380012689795
9229 -7906.872100694819
9230 -7908.613149608657
9231 -7909.077729246374
9232 -7907.521231612216
9233 -7905.3301658582
9234 -7899.939941049261
9235 -7893.310887280332
9236 -7884.907277485298
9237 -7874.666994180189
9238 -7862.720557624512
9239 -7849.980578029585
9240 -7835.644402986787
9241 -7820.296137287817
9242 -7803.32507271468
9243 -7785.512124294464
9244 -7766.528499239257
9245 -7747.757191890476
9246 -7727.915806064507
9247 -7708.724628437765
9248 -7689.281643997058
9249 -7670.618652046011
9250 -7651.773604258855
9251 -7633.829652484679
9252 -7616.346083541112
9253 -7600.716894851293
9254 -7585.389648096082
9255 -7571.674424861276
9256 -7558.911345975324
9257 -7548.041004938109
9258 -7538.693985957214
9259 -7531.005042319997
9260 -7524.539864405947
9261 -7519.85473027478
9262 -7516.760967957164
9263 -7516.793253266776
9264 -7518.023763243627
9265 -7521.063206711253
9266 -7525.664165872238
9267 -7533.171296850128
9268 -7541.81553571848
9269 -7552.312807424948
9270 -7564.256856865341
9271 -7578.413214590062
9272 -7593.566356333632
9273 -7610.290211465074
9274 -7626.712085346835
9275 -7645.530164394825
9276 -7664.234499597651
9277 -7685.358012200093
9278 -7706.128537775761
9279 -7727.373048506215
9280 -7747.772114085496
9281 -7769.13001465592
9282 -7789.18513064326
9283 -7810.193070806269
9284 -7829.401106764287
9285 -7848.523893154285
9286 -7866.175821405332
9287 -7883.990226515854
9288 -7899.831252236886
9289 -7915.201320817172
9290 -7928.33882318606
9291 -7940.672922801009
9292 -7950.591675251918
9293 -7959.314734895458
9294 -7965.064480105329
9295 -7969.969219544963
9296 -7971.733682281123
9297 -7972.424994084082
9298 -7970.319029778459
9299 -7967.56894328486
9300 -7961.745426244545
9301 -7955.25388331434
9302 -7946.702872135184
9303 -7938.023505936128
9304 -7926.733725277458
9305 -7915.000996448953
9306 -7901.012535269876
9307 -7887.737772462497
9308 -7873.736486911186
9309 -7864.252010383016
9310 -7848.440785683098
9311 -7833.078848861875
9312 -7817.723777422469
9313 -7803.471783069158
9314 -7789.452609890327
9315 -7776.2785024083
9316 -7764.283511196301
9317 -7757.608324195611
9318 -7747.167021682323
9319 -7739.125431736204
9320 -7731.964334485656
9321 -7726.953726855659
9322 -7723.30428957694
9323 -7722.222632307092
9324 -7722.333115356824
9325 -7724.773116417005
9326 -7728.905449252836
9327 -7734.695175820647
9328 -7742.096125295139
9329 -7751.612746858487
9330 -7761.903146023578
9331 -7774.424623217375
9332 -7787.614280214496
9333 -7802.61649305316
9334 -7817.707551895224
9335 -7835.053753209719
9336 -7852.328326796611
9337 -7871.386260879272
9338 -7891.074403142816
9339 -7909.660150394698
9340 -7927.939536422447
9341 -7947.007739014591
9342 -7965.541161917869
9343 -7983.584968778247
9344 -8000.572268675696
9345 -8017.250573600745
9346 -8032.613814510767
9347 -8047.542575718147
9348 -8060.429112585816
9349 -8072.863844429246
9350 -8083.424966413018
9351 -8093.005583177811
9352 -8101.20650115165
9353 -8108.138920052947
9354 -8113.335216769877
9355 -8116.79944303417
9356 -8118.724107740679
9357 -8119.75591332849
9358 -8118.593939966876
9359 -8117.773769810099
9360 -8114.900083343538
9361 -8111.251994866764
9362 -8105.765984655615
9363 -8102.198610351204
9364 -8095.119437776591
9365 -8088.433035708355
9366 -8082.373204909778
9367 -8073.750006189996
9368 -8064.726734372306
9369 -8058.021068621824
9370 -8047.275669920367
9371 -8040.507310045448
9372 -8028.790352149657
9373 -8021.309785662943
9374 -8008.770832298821
9375 -8001.121131368462
9376 -7989.115435701096
9377 -7981.263815452212
9378 -7969.643520798939
9379 -7961.8124027469
9380 -7949.333827416677
9381 -7941.72522512441
9382 -7929.305643510726
9383 -7922.156393224405
9384 -7911.080656882724
9385 -7900.623713562858
9386 -7893.802187965372
9387 -7884.337775208393
9388 -7874.807140117229
9389 -7866.931039347447
9390 -7859.327008185654
9391 -7852.795248661109
9392 -7846.440156353622
9393 -7841.503422758883
9394 -7836.616559494697
9395 -7832.729232676294
9396 -7828.662987617535
9397 -7825.206908868701
9398 -7822.579571291691
9399 -7820.898197174787
9400 -7818.843863733681
9401 -7817.676026513858
9402 -7815.897868560086
9403 -7814.705863099119
9404 -7813.541954644049
9405 -7812.680685381389
9406 -7810.995957293744
9407 -7809.405182099338
9408 -7807.997212522399
9409 -7806.487528588756
9410 -7805.093593946461
9411 -7803.565675317528
9412 -7802.003460090132
9413 -7800.809854463027
9414 -7799.504710129521
9415 -7797.835720944935
9416 -7797.121108287076
9417 -7796.932132388109
9418 -7796.731282593551
9419 -7797.274191781231
9420 -7797.823534239307
9421 -7799.280117838299
9422 -7802.159065261931
9423 -7804.976616825364
9424 -7808.436176041464
9425 -7812.426468974946
9426 -7820.253427423107
9427 -7826.204857338998
9428 -7832.374276272241
9429 -7839.672380467601
9430 -7851.254852302853
9431 -7860.293722238102
9432 -7874.173784504576
9433 -7884.408392243494
9434 -7901.468481278843
9435 -7912.873814718292
9436 -7930.536761841162
9437 -7948.031160371382
9438 -7965.339114953104
9439 -7983.197260060428
9440 -7999.26804047321
9441 -8014.897239433815
9442 -8030.039073780596
9443 -8043.965918081565
9444 -8055.628085493774
9445 -8066.707037607912
9446 -8076.289990475532
9447 -8084.686632990234
9448 -8091.176457917815
9449 -8095.466766495198
9450 -8097.76760510129
9451 -8098.959442599392
9452 -8096.870816725982
9453 -8093.987145579292
9454 -8088.840983825497
9455 -8082.509131239662
9456 -8072.462015519753
9457 -8062.054685541795
9458 -8048.744956511721
9459 -8034.27774675932
9460 -8018.20160395373
9461 -8001.205524840379
9462 -7982.821366775926
9463 -7963.485764988332
9464 -7943.626871775115
9465 -7924.513532444242
9466 -7904.405226577019
9467 -7885.004088080414
9468 -7865.883024031421
9469 -7848.447633730906
9470 -7830.680642264758
9471 -7814.312224359927
9472 -7799.074323029819
9473 -7785.864482951888
9474 -7773.539287698274
9475 -7764.213312818178
9476 -7755.516929944075
9477 -7750.243510085547
9478 -7746.628505784945
9479 -7745.111880980856
9480 -7746.06585830716
9481 -7749.667313221357
9482 -7754.86034448936
9483 -7762.863411939948
9484 -7772.423091810402
9485 -7785.336173238223
9486 -7800.160984656139
9487 -7816.887957791017
9488 -7833.527153483034
9489 -7852.915001795649
9490 -7873.962332428829
9491 -7897.295112981097
9492 -7921.494724809755
9493 -7946.774673133759
9494 -7971.78959074984
9495 -7998.9387778311
9496 -8025.183676746844
9497 -8052.117334794112
9498 -8076.594220235693
9499 -8102.081344279125
9500 -8126.339609790205
9501 -8149.781834949414
9502 -8170.997188752696
9503 -8191.583118099938
9504 -8210.764487961425
9505 -8228.437496615883
9506 -8243.729561605947
9507 -8257.378221197825
9508 -8268.893325154027
9509 -8276.674364762735
9510 -8282.405002342965
9511 -8286.967057565502
9512 -8286.73055549064
9513 -8285.910359798516
9514 -8281.492632517449
9515 -8273.892797520979
9516 -8263.481575512571
9517 -8250.805087434992
9518 -8234.831438268746
9519 -8216.790914097062
9520 -8195.740251474219
9521 -8173.410975357592
9522 -8149.704903024694
9523 -8123.898166446764
9524 -8095.971801285174
9525 -8066.728953784507
9526 -8037.142227091626
9527 -8005.653180659127
9528 -7973.494865857435
9529 -7943.482003310392
9530 -7912.32072241195
9531 -7882.081390071381
9532 -7852.177998419169
9533 -7823.38471445269
9534 -7795.836352753941
9535 -7770.410751847094
9536 -7745.89311465631
9537 -7724.322966485923
9538 -7704.810174857439
9539 -7687.752280830783
9540 -7673.029618594889
9541 -7661.380228943652
9542 -7652.206546495518
9543 -7646.159855491445
9544 -7641.961864145613
9545 -7642.806010516479
9546 -7644.256161401137
9547 -7649.799866499025
9548 -7657.888166316323
9549 -7668.551432331476
9550 -7681.650427088989
9551 -7697.673026659148
9552 -7715.80428328125
9553 -7735.934146668073
9554 -7757.101537000976
9555 -7780.421246294079
9556 -7804.733652801789
9557 -7831.326288606898
9558 -7858.208752258929
9559 -7885.205599219546
9560 -7911.914624929391
9561 -7939.978589005805
9562 -7966.632675688385
9563 -7992.847146992055
9564 -8018.389829980633
9565 -8044.003616060158
9566 -8066.565905034618
9567 -8088.978406039075
9568 -8108.353398500195
9569 -8127.145816650806
9570 -8143.803473038328
9571 -8157.934466378776
9572 -8168.814224706241
9573 -8178.611405616301
9574 -8184.974038464673
9575 -8190.143365752018
9576 -8192.670354499098
9577 -8192.405634194691
9578 -8189.227763377065
9579 -8185.148944209253
9580 -8177.135995366924
9581 -8167.928789330644
9582 -8155.602346456288
9583 -8142.053838456142
9584 -8126.012704012452
9585 -8108.261976839526
9586 -8088.701311470832
9587 -8069.533030359333
9588 -8048.874064312728
9589 -8028.424082331878
9590 -8006.743596986738
9591 -7984.745170366103
9592 -7962.414995000287
9593 -7941.670393640864
9594 -7920.570051644921
9595 -7900.499480714982
9596 -7881.018796229328
9597 -7863.252635654914
9598 -7846.386619625308
9599 -7830.659628406336
9600 -7815.816580070989
9601 -7803.613696615102
9602 -7792.140595797454
9603 -7782.925037326617
9604 -7776.137049151771
9605 -7771.815671865611
9606 -7768.636618161067
9607 -7769.554781429786
9608 -7771.335142204169
9609 -7776.53994315895
9610 -7782.362196542907
9611 -7791.205384570859
9612 -7800.646472391069
9613 -7813.744642167005
9614 -7826.772667908291
9615 -7841.975999437554
9616 -7857.989862554631
9617 -7875.114413869803
9618 -7892.16536677555
9619 -7910.325969276309
9620 -7927.965264474662
9621 -7946.269884473781
9622 -7963.335693760017
9623 -7981.321710344367
9624 -7997.581021076144
9625 -8012.327383406699
9626 -8025.755146008015
9627 -8039.175828302125
9628 -8049.766606801019
9629 -8059.788189343295
9630 -8067.466394787248
9631 -8074.207883667235
9632 -8079.171780319427
9633 -8082.011140783137
9634 -8083.039823949638
9635 -8082.644211894089
9636 -8079.903614736771
9637 -8075.828258251829
9638 -8070.464785787493
9639 -8063.664163117793
9640 -8055.611411570462
9641 -8047.721448896203
9642 -8038.17161797661
9643 -8028.952560825906
9644 -8018.582044289822
9645 -8008.922259689162
9646 -7997.395028617946
9647 -7986.265325526944
9648 -7973.762016427509
9649 -7962.792915171918
9650 -7951.655365230192
9651 -7941.02688025797
9652 -7930.017973720005
9653 -7920.091228119191
9654 -7910.076746206804
9655 -7901.526710137788
9656 -7893.21099782498
9657 -7886.300695404966
9658 -7879.124776226314
9659 -7874.131047528085
9660 -7869.363752374376
9661 -7867.604197499956
9662 -7864.538791746912
9663 -7862.069227531246
9664 -7860.97015610591
9665 -7860.740574713969
9666 -7861.195174433715
9667 -7862.499456191122
9668 -7865.541414000665
9669 -7869.481106273182
9670 -7873.847464966697
9671 -7879.279364424845
9672 -7885.657071582692
9673 -7892.839705192137
9674 -7900.488291830766
9675 -7908.616554339481
9676 -7916.755764311328
9677 -7922.923432618387
9678 -7931.225857119156
9679 -7939.984973406619
9680 -7945.439507563515
9681 -7954.048408677685
9682 -7960.907015423591
9683 -7966.101792323328
9684 -7972.331643038136
9685 -7976.733544801482
9686 -7981.775238193842
9687 -7985.54150146993
9688 -7989.230945972026
9689 -7991.798014481511
9690 -7994.222815051707
9691 -7996.136981300961
9692 -7997.422653123963
9693 -7998.824320176632
9694 -7999.10828279663
9695 -7999.54913045319
9696 -7999.04715840376
9697 -7999.215903322907
9698 -7998.213352580226
9699 -7998.077385925912
9700 -7996.807920725392
9701 -7996.692050699936
9702 -7995.467861212879
9703 -7995.452700328772
9704 -7994.059507716525
9705 -7994.464485094786
9706 -7994.670464778189
9707 -7995.542931045822
9708 -7996.32427019995
9709 -7998.106897611395
9710 -8000.500911063462
9711 -8003.06924951595
9712 -8007.187637470483
9713 -8010.582595563052
9714 -8015.145187414912
9715 -8019.304748604821
9716 -8025.482680846958
9717 -8032.480279672362
9718 -8037.084445250204
9719 -8044.870424064709
9720 -8052.233184814716
9721 -8060.686705174019
9722 -8065.792734066615
9723 -8074.398024343801
9724 -8081.867522021093
9725 -8089.564540415603
9726 -8094.514917814976
9727 -8101.431804786898
9728 -8107.854556109466
9729 -8112.501031274368
9730 -8118.225057492258
9731 -8122.167318706141
9732 -8126.533306411507
9733 -8130.024257806181
9734 -8133.442175384232
9735 -8136.384650574656
9736 -8138.744708173454
9737 -8140.288566097097
9738 -8141.392654977741
9739 -8141.977271797567
9740 -8141.72353502344
9741 -8141.644694960904
9742 -8139.718020966634
9743 -8138.446630177717
9744 -8134.520514085329
9745 -8132.152234718853
9746 -8127.438372356703
9747 -8123.559482428682
9748 -8116.781531710989
9749 -8109.679178522845
9750 -8103.845550445547
9751 -8095.0808168768
9752 -8085.274669250644
9753 -8078.809418854433
9754 -8067.859553179661
9755 -8057.188939384359
9756 -8049.159310818332
9757 -8037.916669460777
9758 -8026.497313690148
9759 -8019.614813337455
9760 -8008.845945950196
9761 -7997.694284443681
9762 -7989.98574688667
9763 -7980.190793799236
9764 -7970.594012490062
9765 -7964.974370260331
9766 -7957.128328259066
9767 -7951.006812084027
9768 -7946.824938591799
9769 -7941.77145218036
9770 -7937.509521358904
9771 -7935.889560106636
9772 -7933.547031027621
9773 -7932.800908768963
9774 -7933.448750564768
9775 -7935.080932250091
9776 -7937.834480463775
9777 -7941.857308721963
9778 -7946.054470787526
9779 -7952.815845651929
9780 -7959.452826583801
9781 -7967.764430548955
9782 -7975.700097429373
9783 -7984.983663004333
9784 -7994.102378340324
9785 -8004.226380999998
9786 -8013.742121522045
9787 -8023.92498184853
9788 -8033.528684119783
9789 -8043.743058693716
9790 -8052.924465164169
9791 -8062.468837639024
9792 -8070.434907011601
9793 -8079.043129304273
9794 -8085.995964755585
9795 -8090.527421599966
9796 -8096.310131601018
9797 -8101.795676126045
9798 -8106.367551879766
9799 -8108.93112640619
9800 -8110.806123992797
9801 -8112.689795172679
9802 -8112.860952423928
9803 -8113.014170830935
9804 -8111.224014530437
9805 -8110.13540372135
9806 -8106.745204308524
9807 -8103.539533081439
9808 -8098.661460456241
9809 -8095.833289184231
9810 -8089.592645667027
9811 -8083.874488678181
9812 -8076.86341743319
9813 -8070.230690476097
9814 -8065.36308351521
9815 -8058.507940957164
9816 -8051.341142301721
9817 -8044.86471775049
9818 -8038.003161596204
9819 -8033.562491303443
9820 -8027.667817664577
9821 -8023.090443409277
9822 -8019.809476027741
9823 -8016.327518354602
9824 -8014.068915624882
9825 -8012.029372699885
9826 -8010.920840638893
9827 -8010.15185013693
9828 -8009.7724867896
9829 -8010.866043929774
9830 -8011.691661394469
9831 -8014.512504343149
9832 -8016.089143745906
9833 -8020.556987837625
9834 -8023.80442670542
9835 -8029.529398953611
9836 -8033.213957788704
9837 -8040.636969316888
9838 -8044.563163946457
9839 -8052.613655708175
9840 -8059.996544644529
9841 -8068.500513730843
9842 -8076.217192409073
9843 -8084.627991283521
9844 -8091.762912742381
9845 -8099.417945937113
9846 -8106.075600955692
9847 -8112.88448340608
9848 -8118.575259835287
9849 -8124.396396472882
9850 -8128.349274837182
9851 -8132.037499344886
9852 -8134.605385727806
9853 -8136.419136762222
9854 -8136.89175870874
9855 -8135.711414661717
9856 -8131.935587286972
9857 -8128.014389692666
9858 -8121.638351573588
9859 -8115.006219040722
9860 -8106.061526032534
9861 -8096.901845201421
9862 -8085.487548937895
9863 -8073.915515314678
9864 -8061.360531408134
9865 -8047.401842432983
9866 -8032.929895390324
9867 -8019.296024625687
9868 -8004.26560566908
9869 -7989.844161027736
9870 -7975.838326569722
9871 -7962.252781533723
9872 -7948.937122715144
9873 -7935.83514216116
9874 -7923.549771583973
9875 -7912.575033434739
9876 -7901.580991341621
9877 -7892.600761579347
9878 -7884.343361039045
9879 -7877.71649377144
9880 -7872.486039271004
9881 -7869.676130361728
9882 -7867.794777682874
9883 -7868.405004559762
9884 -7869.301063073698
9885 -7872.671988615541
9886 -7877.197512604896
9887 -7883.470388766216
9888 -7891.064778589805
9889 -7897.312953859177
9890 -7907.041193795395
9891 -7915.340120744919
9892 -7928.078048910524
9893 -7937.789360332832
9894 -7952.360666042609
9895 -7962.89312741305
9896 -7979.26519548835
9897 -7990.4903860888
9898 -8006.224592244741
9899 -8022.540263326939
9900 -8032.441927449984
9901 -8047.791412952658
9902 -8057.327147923964
9903 -8071.948030300097
9904 -8080.674292500959
9905 -8093.178558845568
9906 -8100.095182886016
9907 -8110.035600695644
9908 -8115.252151881955
9909 -8122.270971375958
9910 -8125.867921806415
9911 -8130.585644955358
9912 -8131.991162491823
9913 -8134.243549926958
9914 -8134.295922572612
9915 -8133.337001894193
9916 -8131.118211641697
9917 -8127.599152061184
9918 -8124.54345942996
9919 -8119.826397606616
9920 -8115.784035648719
9921 -8110.018226929457
9922 -8105.678222200672
9923 -8101.027626581433
9924 -8093.694906203299
9925 -8089.927522733665
9926 -8082.451893336704
9927 -8078.656317351047
9928 -8072.14310146983
9929 -8068.14402708586
9930 -8061.525203643497
9931 -8057.676539784998
9932 -8051.840127571717
9933 -8048.279112417536
9934 -8042.591159157703
9935 -8039.611816682306
9936 -8034.473137137009
9937 -8031.966714967592
9938 -8029.301509588629
9939 -8026.154874543685
9940 -8023.944399281324
9941 -8022.522643936313
9942 -8019.890140763227
9943 -8019.127643917015
9944 -8017.750816230958
9945 -8017.548593822823
9946 -8017.100691284398
9947 -8017.99686530944
9948 -8017.784442153772
9949 -8018.672610241239
9950 -8020.058753343453
9951 -8021.803487875287
9952 -8023.957583865023
9953 -8026.443554726309
9954 -8029.559043439294
9955 -8032.099101729605
9956 -8033.888655207792
9957 -8037.900242990732
9958 -8039.911266006978
9959 -8042.383795290618
9960 -8045.353183202348
9961 -8047.595590096118
9962 -8048.629686128644
9963 -8050.26824514004
9964 -8051.873216034899
9965 -8053.279487682531
9966 -8053.684921407223
9967 -8054.283815974804
9968 -8054.240797709792
9969 -8054.132672682732
9970 -8052.67292415638
9971 -8051.602585468749
9972 -8049.616488383706
9973 -8047.136754805714
9974 -8044.673899069702
9975 -8041.675736434054
9976 -8038.719988506627
9977 -8034.301534108819
9978 -8030.352963981725
9979 -8025.351384235664
9980 -8021.266773172702
9981 -8015.577692007715
9982 -8011.345851345038
9983 -8006.660043283279
9984 -8003.053543901046
9985 -7997.710227376974
9986 -7993.882772575286
9987 -7989.733808768287
9988 -7986.569365001401
9989 -7983.393579386664
9990 -7980.675350803755
9991 -7977.656462981328
9992 -7975.707799390429
9993 -7973.695201478396
9994 -7972.118814244764
9995 -7970.25719202142
9996 -7968.816518692298
9997 -7967.682940731775
9998 -7966.4671166367
9999 -7965.991348920151
10000 -7964.73500832463
10001 -7963.059262476972
10002 -7961.958342527008
10003 -7961.32710745996
10004 -7959.950711883381
10005 -7959.744150712106
10006 -7958.966154400803
10007 -7959.216259518703
10008 -7958.709331425682
10009 -7958.773213171889
10010 -7957.726528676655
10011 -7957.807069423214
10012 -7957.086542363686
10013 -7956.978355819965
10014 -7956.25437045849
10015 -7956.68059461411
10016 -7954.932781286963
10017 -7954.857176902172
10018 -7952.888878201309
10019 -7952.911464447876
10020 -7950.867255171603
10021 -7950.177398039258
10022 -7947.779136242654
10023 -7946.512107546375
10024 -7942.900045527392
10025 -7941.215068313414
10026 -7937.482224913044
10027 -7935.077206271616
10028 -7930.422956790684
10029 -7927.738265167269
10030 -7921.681456958545
10031 -7918.36405572851
10032 -7912.452821763564
10033 -7908.994119761693
10034 -7902.579926684893
10035 -7898.427247910011
10036 -7891.433100261815
10037 -7887.484417527826
10038 -7881.313483980418
10039 -7875.225221639405
10040 -7870.589962415583
10041 -7864.28535923959
10042 -7857.41798289733
10043 -7853.937942469059
10044 -7848.107311362877
10045 -7843.623413118952
10046 -7840.40494764989
10047 -7837.386974778518
10048 -7835.212909172775
10049 -7833.506174791763
10050 -7831.772004527927
10051 -7831.450463216105
10052 -7830.903217847042
10053 -7832.069806442252
10054 -7833.55453756028
10055 -7836.110354500901
10056 -7838.089656944961
10057 -7842.053980173045
10058 -7845.760982260388
10059 -7848.836011646431
10060 -7853.949509078354
10061 -7859.463355094077
10062 -7864.925949725975
10063 -7869.190546598548
10064 -7875.597803307634
10065 -7882.302295458781
10066 -7888.476514471829
10067 -7894.230194675124
10068 -7900.007760863957
10069 -7903.935293762369
10070 -7909.174808801269
10071 -7914.491171547756
10072 -7918.741190524613
10073 -7923.123827814979
10074 -7926.155522483594
10075 -7927.928898684548
10076 -7929.617703983035
10077 -7930.284340015404
10078 -7929.430722072158
10079 -7928.417813713274
10080 -7926.157499927049
10081 -7923.228126716829
10082 -7920.211815967696
10083 -7914.827217495765
10084 -7908.73682289347
10085 -7904.298845474782
10086 -7896.941726275709
10087 -7891.005923214845
10088 -7880.798632162145
10089 -7874.00384537775
10090 -7863.055665962487
10091 -7855.692409990423
10092 -7843.335211302916
10093 -7831.338363890065
10094 -7822.672120432393
10095 -7810.494684800136
10096 -7797.561358564093
10097 -7784.791039949546
10098 -7776.068925639358
10099 -7764.001284225342
10100 -7751.062128711508
10101 -7739.473274028259
10102 -7728.195087272437
10103 -7717.69914606979
10104 -7711.038211511963
10105 -7702.496886973228
10106 -7694.486539725537
10107 -7688.2094201522
10108 -7682.087433350421
10109 -7679.395278307754
10110 -7675.344672518032
10111 -7672.737403719754
10112 -7671.2026445195
10113 -7671.594546766097
10114 -7672.997435832984
10115 -7676.130009455398
10116 -7680.537632500825
10117 -7686.652724989805
10118 -7691.819428593419
10119 -7701.244048281749
10120 -7711.498076020267
10121 -7723.283757905037
10122 -7735.328591743254
10123 -7749.762744591112
10124 -7765.061425882006
10125 -7780.696755361066
10126 -7797.272915062924
10127 -7815.643529855048
10128 -7834.456869606438
10129 -7854.076812435091
10130 -7873.049870898612
10131 -7893.039069018228
10132 -7912.771148699448
10133 -7932.346739511317
10134 -7951.100362217027
10135 -7969.685876752852
10136 -7988.988946704648
10137 -8007.331308372924
10138 -8024.197135190698
10139 -8042.103431216444
10140 -8058.187491988318
10141 -8075.004586108993
10142 -8088.997689185485
10143 -8101.323690148223
10144 -8112.650319867154
10145 -8122.182121887172
10146 -8130.321611245169
10147 -8138.005334482569
10148 -8141.568029728158
10149 -8143.851835683217
10150 -8143.695259882725
10151 -8144.998685660793
10152 -8141.992244443031
10153 -8137.785873413396
10154 -8132.053158349844
10155 -8123.873820881236
10156 -8114.599054139126
10157 -8103.583783488644
10158 -8090.711597063201
10159 -8077.899332756654
10160 -8063.365839834708
10161 -8048.407014521077
10162 -8032.004084631966
10163 -8016.044212720513
10164 -7999.320150967841
10165 -7982.958604274475
10166 -7966.633641572012
10167 -7951.141327805622
10168 -7935.910608959446
10169 -7921.557386116708
10170 -7909.217633291933
10171 -7897.781836903258
10172 -7888.143364069586
10173 -7880.200633720723
10174 -7874.273027874081
10175 -7871.281485099078
10176 -7870.018444612385
10177 -7871.679698138807
10178 -7875.488843889214
10179 -7882.706224788138
10180 -7891.919832414102
10181 -7903.656961939615
10182 -7916.571787418691
10183 -7931.948456178462
10184 -7949.020366092614
10185 -7968.223053472972
10186 -7988.262365041565
10187 -8012.066508672942
10188 -8034.952884726723
10189 -8060.392510981257
10190 -8084.822503154724
10191 -8110.915842585287
10192 -8136.543967912599
10193 -8161.979348010532
10194 -8186.475348155353
10195 -8211.234235914661
10196 -8234.939289741675
10197 -8258.969352067843
10198 -8281.307161354896
10199 -8301.738097236079
10200 -8319.591604895641
10201 -8336.625300224479
10202 -8351.306039354202
10203 -8365.601125253101
10204 -8376.538149488402
10205 -8386.165958320806
10206 -8392.729363250597
10207 -8397.462163285161
10208 -8399.599693436128
10209 -8400.128070592844
10210 -8397.097234064271
10211 -8393.144378595774
10212 -8386.244666957298
10213 -8377.39354774296
10214 -8366.30184073756
10215 -8354.360809753627
10216 -8339.877115860927
10217 -8324.623256743411
10218 -8306.684140242172
10219 -8287.947668716986
10220 -8267.91588333765
10221 -8246.955990243603
10222 -8224.85699821313
10223 -8202.891798431383
10224 -8179.512543594728
10225 -8157.577078768201
10226 -8134.840618937897
10227 -8112.115538731419
10228 -8089.924880299026
10229 -8069.321871995437
10230 -8048.6572516961
10231 -8029.55854510335
10232 -8011.443901821389
10233 -7994.616439445493
10234 -7978.587862899094
10235 -7964.902309638348
10236 -7952.274449469129
10237 -7941.040535952161
10238 -7931.673853136823
10239 -7924.109913252301
10240 -7917.838982070522
10241 -7913.667640273744
10242 -7910.968036911193
10243 -7910.52844009029
10244 -7911.206283473063
10245 -7914.380482689182
10246 -7918.405422992396
10247 -7924.898766440082
10248 -7931.935581804152
10249 -7941.748681373732
10250 -7951.15882045627
10251 -7962.725470991141
10252 -7971.311365901013
10253 -7985.329680209237
10254 -7999.70976529799
10255 -8010.909655777998
10256 -8028.177417036354
10257 -8046.443710693109
10258 -8063.879416232076
10259 -8082.424459740749
10260 -8100.534210455176
10261 -8119.545001259015
10262 -8136.990870760521
10263 -8155.526829373939
10264 -8172.029476681762
10265 -8188.490849969969
10266 -8203.150039248652
10267 -8217.354203168888
10268 -8229.893779773713
10269 -8242.235174703512
10270 -8251.953328888654
10271 -8261.593481005944
10272 -8269.273073547547
10273 -8275.542450121851
10274 -8279.15769925532
10275 -8281.630261401762
10276 -8281.342024876147
10277 -8280.324007732383
10278 -8276.284724141165
10279 -8271.849761486319
10280 -8265.230197177962
10281 -8256.645063144349
10282 -8246.969203632792
10283 -8235.836831448927
10284 -8223.327700841874
10285 -8209.327795172603
10286 -8193.946452409349
10287 -8178.119866649021
10288 -8160.364285915191
10289 -8143.058441140632
10290 -8124.205078523487
10291 -8105.653896905656
10292 -8085.836159036023
10293 -8066.199610924321
10294 -8046.337572409678
10295 -8027.218031468416
10296 -8007.896252057202
10297 -7989.829281064837
10298 -7972.599969612204
10299 -7956.465568291272
10300 -7940.78646243306
10301 -7927.146551462276
10302 -7914.316670010785
10303 -7902.77484404199
10304 -7892.874507050193
10305 -7885.584700750913
10306 -7878.882137353026
10307 -7873.842657441964
10308 -7870.333263580661
10309 -7869.337999842545
10310 -7869.069816101899
10311 -7870.779902828418
10312 -7873.326765071259
10313 -7877.790697697362
10314 -7882.818201228814
10315 -7889.855251157895
10316 -7898.026025597772
10317 -7906.853097719971
10318 -7916.057944183653
10319 -7926.002329942364
10320 -7935.746597592288
10321 -7946.321634145675
10322 -7953.526117965014
10323 -7964.57504740795
10324 -7975.893326929257
10325 -7983.994653704149
10326 -7995.228860870939
10327 -8007.058177776861
10328 -8014.530332326288
10329 -8025.703124492636
10330 -8036.054385760168
10331 -8042.93800753567
10332 -8051.736686190773
10333 -8060.734133420377
10334 -8068.612361411221
10335 -8073.735320350315
10336 -8079.799415610212
10337 -8085.341040256754
10338 -8089.527083468331
10339 -8093.35445550371
10340 -8095.154270443249
10341 -8096.290913379906
10342 -8095.672257561303
10343 -8094.384369372724
10344 -8091.325081950668
10345 -8087.648631849797
10346 -8082.501675586142
10347 -8076.253082035068
10348 -8068.405104063853
10349 -8059.911085888863
10350 -8050.191283930366
10351 -8040.318523189179
10352 -8029.187178726217
10353 -8018.004874390605
10354 -8006.346924502317
10355 -7995.48497740954
10356 -7984.051960426852
10357 -7973.160796382069
10358 -7962.332445485818
10359 -7951.759316696831
10360 -7941.976977577291
10361 -7932.576002293384
10362 -7923.851533728208
10363 -7917.244420967933
10364 -7911.442962270709
10365 -7907.134047312536
10366 -7903.838905345801
10367 -7902.483541001285
10368 -7902.036986427763
10369 -7903.931429470492
10370 -7906.510403599419
10371 -7911.71122474206
10372 -7916.458118912455
10373 -7923.993940320793
10374 -7932.884934715569
10375 -7942.836629194532
10376 -7953.159921061907
10377 -7966.1304350853
10378 -7979.509074541399
10379 -7993.903212230388
10380 -8006.565175675834
10381 -8020.704456545323
10382 -8035.598598256248
10383 -8049.74079671755
10384 -8063.563743142076
10385 -8077.618992977326
10386 -8090.43846669198
10387 -8104.234589056665
10388 -8116.859743812746
10389 -8128.545634094586
10390 -8139.27036029046
10391 -8148.663111081281
10392 -8156.792283900311
10393 -8164.014793394525
10394 -8169.729588853212
10395 -8174.122963612521
10396 -8176.764505078926
10397 -8178.858447454591
10398 -8178.424002584942
10399 -8178.091049211781
10400 -8176.068611110572
10401 -8174.227779989046
10402 -8169.564258818868
10403 -8165.904320228752
10404 -8162.390657688612
10405 -8156.950528829562
10406 -8150.910048437135
10407 -8147.872656982142
10408 -8141.656896904457
10409 -8137.60122259916
10410 -8131.242934800899
10411 -8125.275408377453
10412 -8120.552629242011
10413 -8114.315306243988
10414 -8108.119642129781
10415 -8104.20568251643
10416 -8097.772349959389
10417 -8092.688627424781
10418 -8088.946500551197
10419 -8084.054395924563
10420 -8078.040458351064
10421 -8074.742729842784
10422 -8069.125648022266
10423 -8064.191517378736
10424 -8060.584134894881
10425 -8055.285081149933
10426 -8051.409770925646
10427 -8046.346114486499
10428 -8042.919980959747
10429 -8037.476616901956
10430 -8033.948609046382
10431 -8028.871225145529
10432 -8025.167932828809
10433 -8020.346230718395
10434 -8017.093146343202
10435 -8013.113519989638
10436 -8009.944584315969
10437 -8006.498958269121
10438 -8004.691208258052
10439 -8002.251347894888
10440 -7999.514628101271
10441 -7998.245073748677
10442 -7995.272467251302
10443 -7993.877399044308
10444 -7993.218670950145
10445 -7993.205746592314
10446 -7992.910564043843
10447 -7993.703820962856
10448 -7994.5705662406
10449 -7996.089951289338
10450 -7998.138553260822
10451 -8000.293973049729
10452 -8002.174594131986
10453 -8005.510539624328
10454 -8008.3877819846
10455 -8010.833323418081
10456 -8012.523283973816
10457 -8015.413327481196
10458 -8018.87289597943
10459 -8020.971743348669
10460 -8023.070060924191
10461 -8026.946922973096
10462 -8030.039572916085
10463 -8033.454326915155
10464 -8035.421309814406
10465 -8038.124322975439
10466 -8040.73598250079
10467 -8043.515061630796
10468 -8044.540985848148
10469 -8046.062601376563
10470 -8045.719911464252
10471 -8045.771066766415
10472 -8044.119018712487
10473 -8042.338448309666
10474 -8039.899562020373
10475 -8037.020193442208
10476 -8033.45368467891
10477 -8029.196805919913
10478 -8022.780962452127
10479 -8017.546319781948
10480 -8011.56809674857
10481 -8005.289941884453
10482 -7997.578398380967
10483 -7991.68508282689
10484 -7984.390911492216
10485 -7977.710762579371
10486 -7970.688756687416
10487 -7964.053833269339
10488 -7957.432603839706
10489 -7950.614692614653
10490 -7944.373204555471
10491 -7938.47043377547
10492 -7932.292494279401
10493 -7927.51982924081
10494 -7923.08624920954
10495 -7919.624446654678
10496 -7916.783033745598
10497 -7914.878354913038
10498 -7913.462540546175
10499 -7913.703125934314
10500 -7914.420398778396
10501 -7917.282310414663
10502 -7919.711018901356
10503 -7924.807863687949
10504 -7930.95908067212
10505 -7938.334693112335
10506 -7945.826393578892
10507 -7955.636965844299
10508 -7962.458873738731
10509 -7974.316628496569
10510 -7986.166887718855
10511 -8000.75906010793
10512 -8011.174814605999
10513 -8028.67935562713
10514 -8045.64542689775
10515 -8063.872206793833
10516 -8076.169797354543
10517 -8095.81128297331
10518 -8114.498495312543
10519 -8134.012526015153
10520 -8153.593749399879
10521 -8172.76751968224
10522 -8190.936168301917
10523 -8202.852522128767
10524 -8220.207854043254
10525 -8236.447733556499
10526 -8251.848631601808
10527 -8266.413429819153
10528 -8279.890773834532
10529 -8292.416359391904
10530 -8303.708673808947
10531 -8314.587059006475
10532 -8323.15098481824
10533 -8331.757100463257
10534 -8338.57372511613
10535 -8342.738116353825
10536 -8347.822827657837
10537 -8352.479995127818
10538 -8354.405476205084
10539 -8357.383297191791
10540 -8358.832755816782
10541 -8360.517371333119
10542 -8360.890500253126
10543 -8361.653139642962
10544 -8361.488103600273
10545 -8360.801657451022
10546 -8360.188151007642
10547 -8359.570294391284
10548 -8358.130788514269
10549 -8357.565378489473
10550 -8356.423356016361
10551 -8354.365804585896
10552 -8352.779883627598
10553 -8351.617440990229
10554 -8348.663644267412
10555 -8346.914585777286
10556 -8344.509591219958
10557 -8341.503979654854
10558 -8338.809355116162
10559 -8336.301205935371
10560 -8330.995558418981
10561 -8328.346709015839
10562 -8324.161294702353
10563 -8318.422030130889
10564 -8313.973862412324
10565 -8307.226605118896
10566 -8301.880831545721
10567 -8297.021885832723
10568 -8288.145310668589
10569 -8282.68755089112
10570 -8272.971011568139
10571 -8265.950672548986
10572 -8254.681423014306
10573 -8247.66758255738
10574 -8235.731680674955
10575 -8227.912730654778
10576 -8215.465444500831
10577 -8207.641803937724
10578 -8195.059129386995
10579 -8187.478799563662
10580 -8175.049689773871
10581 -8167.346568070972
10582 -8155.525776319801
10583 -8148.327120826446
10584 -8136.89365792729
10585 -8130.161004859776
10586 -8119.690532783669
10587 -8113.491598945537
10588 -8104.205643691012
10589 -8098.990503542887
10590 -8091.056415572245
10591 -8086.599131622107
10592 -8080.801204665777
10593 -8078.187316281323
10594 -8073.633014883691
10595 -8071.801358362332
10596 -8069.192149470411
10597 -8068.501881910807
10598 -8067.974668297685
10599 -8068.47225577164
10600 -8069.121163144495
10601 -8071.571401051781
10602 -8073.008644485048
10603 -8077.18516789593
10604 -8080.001245921933
10605 -8085.549984918481
10606 -8089.321711491147
10607 -8095.668427748552
10608 -8099.959457648715
10609 -8107.051920190944
10610 -8111.687804884692
10611 -8119.31416701094
10612 -8124.175104644001
10613 -8131.847817181172
10614 -8136.405255436898
10615 -8144.610086195205
10616 -8149.346411859952
10617 -8157.351059221958
10618 -8161.458116305935
10619 -8168.312350072219
10620 -8171.796563060865
10621 -8177.665434321334
10622 -8180.798805938742
10623 -8184.677800542331
10624 -8187.654628510687
10625 -8189.456604669499
10626 -8190.850160709111
10627 -8191.380327731498
10628 -8190.990937547013
10629 -8189.537961027604
10630 -8186.238675117391
10631 -8182.536595439964
10632 -8177.51540608094
10633 -8173.525495050441
10634 -8165.649514032328
10635 -8157.599075201064
10636 -8147.926066148853
10637 -8138.138683689478
10638 -8127.29093829994
10639 -8115.833094262707
10640 -8107.188615154731
10641 -8093.90585212989
10642 -8079.558346958466
10643 -8065.349454734104
10644 -8049.772869163472
10645 -8034.682323994555
10646 -8019.36391004916
10647 -8004.240908012041
10648 -7989.19038605946
10649 -7974.640906683255
10650 -7959.154768417686
10651 -7945.1287475697
10652 -7930.671896682616
10653 -7918.130253568514
10654 -7905.026058467565
10655 -7893.545525287064
10656 -7882.344438913358
10657 -7872.546176161803
10658 -7863.277326617944
10659 -7855.272400514607
10660 -7847.95573580144
10661 -7842.880774129277
10662 -7838.197658653726
10663 -7835.430723743113
10664 -7833.692789558532
10665 -7833.96482824032
10666 -7835.039451635293
10667 -7838.024594054978
10668 -7842.210041169134
10669 -7846.499796764416
10670 -7854.547939857986
10671 -7863.319295090754
10672 -7869.460440548486
10673 -7881.258260367302
10674 -7893.066677063305
10675 -7902.415968760934
10676 -7916.474324608579
10677 -7931.898336270127
10678 -7947.198253153016
10679 -7963.183682892861
10680 -7978.366798274606
10681 -7994.176948536995
10682 -8009.001513618159
10683 -8024.227592255336
10684 -8038.618252875704
10685 -8053.061900510044
10686 -8065.841766539235
10687 -8077.849938495528
10688 -8089.018037577894
10689 -8099.192741602195
10690 -8107.60868344603
10691 -8115.023730140796
10692 -8120.336125489455
10693 -8124.424956587561
10694 -8127.034231280609
10695 -8128.139146788055
10696 -8127.287120092402
10697 -8125.116391909024
10698 -8120.712360587035
10699 -8114.914062461704
10700 -8107.429206857489
10701 -8099.232100594289
10702 -8089.144684907219
10703 -8078.570212325958
10704 -8066.255643712549
10705 -8053.628806318591
10706 -8039.834793563034
10707 -8025.975344294983
10708 -8011.343735208425
10709 -7996.783674906177
10710 -7981.650423117416
10711 -7966.748458297339
10712 -7951.557390093789
10713 -7937.198418809271
10714 -7922.907332919069
10715 -7909.632104948383
10716 -7896.168944768661
10717 -7884.61587224336
10718 -7873.06199440403
10719 -7862.627633786794
10720 -7852.482771383286
10721 -7844.118433896138
10722 -7836.88697012509
10723 -7831.533604604213
10724 -7825.604913277892
10725 -7821.740290229884
10726 -7818.630481833019
10727 -7816.529903260394
10728 -7815.403844121195
10729 -7815.463592604394
10730 -7816.14637385358
10731 -7818.619709803912
10732 -7821.160192216028
10733 -7823.636201872176
10734 -7827.730902234163
10735 -7832.555540171457
10736 -7837.489238773936
10737 -7841.328199001975
10738 -7846.426334905298
10739 -7852.415795038246
10740 -7858.536235208468
10741 -7864.466091330122
10742 -7870.040667142725
10743 -7875.545094635411
10744 -7880.295825069009
10745 -7885.902426548848
10746 -7890.454921719976
10747 -7895.026700384858
10748 -7898.13714286332
10749 -7900.792934620888
10750 -7903.338983267592
10751 -7906.780474987225
10752 -7908.84547545527
10753 -7910.454980468149
10754 -7912.205768041449
10755 -7914.099284568687
10756 -7915.08564901984
10757 -7917.258727959194
10758 -7918.106108535193
10759 -7919.377434052779
10760 -7920.389780492579
10761 -7922.22876119429
10762 -7922.818963715186
10763 -7923.781624357574
10764 -7923.895380781563
10765 -7924.751442120881
10766 -7924.88156653156
10767 -7925.716563540641
10768 -7925.932204588406
10769 -7926.749854049409
10770 -7927.164627536135
10771 -7927.574686675205
10772 -7927.642882251186
10773 -7928.793040204376
10774 -7930.020716531815
10775 -7931.476451366235
10776 -7932.384546530624
10777 -7934.537921768008
10778 -7936.413031614929
10779 -7939.055983618397
10780 -7942.186066978468
10781 -7946.210820942889
10782 -7949.529131705074
10783 -7952.530100737548
10784 -7957.185213086201
10785 -7962.915061367982
10786 -7965.719373011298
10787 -7972.287795943952
10788 -7978.41738608857
10789 -7985.07426833176
10790 -7989.861765800735
10791 -7997.745277474089
10792 -8006.397895078931
10793 -8015.715560896337
10794 -8024.399345028151
10795 -8033.210581875916
10796 -8043.428747345017
10797 -8053.685041798572
10798 -8063.390850090419
10799 -8073.903321197529
10800 -8082.967610388521
10801 -8092.966099400503
10802 -8102.077636239869
10803 -8108.813309585432
10804 -8118.552030715462
10805 -8128.674856907708
10806 -8138.19135895407
10807 -8144.899171136404
10808 -8154.841216442259
10809 -8165.032012822212
10810 -8170.918743112225
10811 -8179.772911973514
10812 -8185.045448318002
10813 -8193.858175192243
10814 -8198.841071841138
10815 -8206.310009861907
10816 -8210.04685979291
10817 -8216.498222731361
10818 -8219.232712957699
10819 -8224.09624805702
10820 -8226.381550745562
10821 -8229.782567903525
10822 -8231.483421080746
10823 -8233.560224187819
10824 -8234.12394449326
