"x-rfile"
"Iteration" "x"
("Iteration" "x")
5839 -306.652083149927
5840 -309.6712662280048
5841 -312.2440370546786
5842 -319.4551205371915
5843 -325.1224254187645
5844 -329.7124727918999
5845 -337.3946329890979
5846 -344.1318348730764
5847 -351.4452681535481
5848 -358.0040603865478
5849 -364.7235530365917
5850 -372.3876131708813
5851 -381.1018970612641
5852 -388.073500440682
5853 -396.3539796531135
5854 -404.9394970403803
5855 -414.9957015491422
5856 -424.5010776753884
5857 -434.9732208055323
5858 -446.3674587721217
5859 -457.7683482227175
5860 -472.6564074039786
5861 -487.3936356317765
5862 -503.3375729260312
5863 -519.6932048936894
5864 -537.809587911845
5865 -555.1361112464388
5866 -574.2447532980405
5867 -595.4217870611141
5868 -617.3925539548837
5869 -640.7064642416378
5870 -664.0404662450247
5871 -688.3941096534247
5872 -712.3631063757322
5873 -732.1611418484606
5874 -753.4447621875597
5875 -776.0425451988224
5876 -798.5687454380712
5877 -821.739630264135
5878 -837.839735619584
5879 -863.2174978977465
5880 -879.5855928823323
5881 -904.9039468233982
5882 -920.3730279195751
5883 -944.3144576435802
5884 -964.4490121979491
5885 -983.6352445821823
5886 -1000.538940058461
5887 -1017.207678965398
5888 -1032.045832235586
5889 -1047.024963188411
5890 -1060.496070366289
5891 -1070.605938742943
5892 -1085.014883925924
5893 -1095.04296250724
5894 -1109.386588732152
5895 -1119.122264539572
5896 -1133.235838770275
5897 -1142.744469373698
5898 -1152.708718471124
5899 -1163.466295671026
5900 -1174.219889322342
5901 -1185.597525933366
5902 -1201.280230554902
5903 -1211.463720051884
5904 -1221.870088485746
5905 -1237.359588750146
5906 -1246.784863426253
5907 -1261.483574797706
5908 -1270.41299207064
5909 -1284.641321748269
5910 -1296.556589740701
5911 -1308.458968657074
5912 -1318.90951669234
5913 -1329.645820932997
5914 -1339.003141398045
5915 -1348.766134568498
5916 -1357.258314084172
5917 -1366.155617176907
5918 -1373.810621133192
5919 -1381.812521799697
5920 -1388.479910786663
5921 -1395.613606911965
5922 -1401.494164852695
5923 -1407.763712961177
5924 -1412.729899616663
5925 -1416.812934501446
5926 -1421.804373716523
5927 -1425.555274502483
5928 -1429.982169739525
5929 -1433.149497747548
5930 -1435.845952176252
5931 -1438.966358282095
5932 -1441.364897761834
5933 -1444.187389225228
5934 -1446.12126458001
5935 -1448.446994930527
5936 -1449.963121507815
5937 -1451.827326680188
5938 -1452.927679827989
5939 -1454.483126548759
5940 -1455.210425896977
5941 -1456.428026418313
5942 -1456.852545687217
5943 -1457.822746767394
5944 -1457.937562262088
5945 -1458.70824726254
5946 -1458.51820679674
5947 -1459.0058524279
5948 -1458.662481927202
5949 -1458.960013746462
5950 -1458.420817870613
5951 -1458.520407237955
5952 -1457.789051382861
5953 -1457.773715463079
5954 -1456.891079527176
5955 -1456.735260282577
5956 -1455.722692560183
5957 -1455.468374623189
5958 -1454.310860440522
5959 -1453.987713095552
5960 -1452.732650371393
5961 -1452.291739258015
5962 -1450.998741339241
5963 -1450.51774457471
5964 -1449.207927408131
5965 -1448.684533409314
5966 -1447.332429335362
5967 -1446.816327967858
5968 -1445.459157425924
5969 -1444.900458057912
5970 -1443.550607645554
5971 -1443.020513386718
5972 -1441.711343902571
5973 -1441.182331371901
5974 -1439.884306921146
5975 -1439.379837466177
5976 -1438.115022156875
5977 -1437.623404726785
5978 -1436.430395405787
5979 -1435.948719348164
5980 -1434.775796436243
5981 -1434.349477611196
5982 -1433.165785299731
5983 -1432.733747060254
5984 -1431.590214570813
5985 -1431.205203347939
5986 -1430.066752477071
5987 -1429.732023814013
5988 -1428.54092057561
5989 -1428.244338699075
5990 -1427.051271057027
5991 -1426.750782281149
5992 -1425.559904761387
5993 -1425.287733846175
5994 -1424.093047341091
5995 -1423.844312277259
5996 -1422.629116152671
5997 -1422.363734650907
5998 -1421.17408825197
5999 -1420.927953898339
6000 -1419.695379332657
6001 -1419.436857378032
6002 -1418.198987466407
6003 -1417.91335794502
6004 -1416.67448445033
6005 -1416.420996991641
6006 -1415.166051149833
6007 -1414.906850256708
6008 -1413.654498560485
6009 -1413.358674701493
6010 -1412.111628303069
6011 -1411.792847923961
6012 -1410.553555420962
6013 -1410.232284287998
6014 -1408.970800719014
6015 -1408.640076781049
6016 -1407.364988780755
6017 -1407.070816234961
6018 -1405.749317163915
6019 -1405.40634385624
6020 -1404.100571001756
6021 -1403.779855200669
6022 -1402.456838507617
6023 -1402.149639042389
6024 -1400.415468523038
6025 -1400.17289061981
6026 -1398.842455868957
6027 -1398.236969720117
6028 -1396.95036574931
6029 -1396.716524523684
6030 -1395.069958210337
6031 -1394.874087440881
6032 -1393.290396375217
6033 -1393.127992691081
6034 -1391.612791965543
6035 -1391.477512031038
6036 -1389.953846800709
6037 -1389.818292834792
6038 -1388.352695406505
6039 -1387.940827239806
6040 -1386.861995340797
6041 -1386.467122026727
6042 -1385.121187289516
6043 -1384.787703522835
6044 -1383.505230318357
6045 -1383.242038427249
6046 -1381.986248882432
6047 -1381.765277904451
6048 -1380.562248249535
6049 -1380.379089202514
6050 -1379.186253917717
6051 -1379.045311595528
6052 -1377.873747351417
6053 -1377.795657464102
6054 -1376.634805752476
6055 -1376.545034532585
6056 -1375.406142578966
6057 -1375.346948951709
6058 -1374.18402076095
6059 -1374.092991924112
6060 -1372.956544646846
6061 -1372.907801248655
6062 -1371.743840659499
6063 -1371.652957776051
6064 -1370.504087326195
6065 -1370.423705962369
6066 -1369.232419195103
6067 -1369.154506085467
6068 -1367.954207079573
6069 -1367.894828306931
6070 -1366.679010418182
6071 -1366.598277582653
6072 -1365.356026780181
6073 -1365.272342335996
6074 -1363.999766043426
6075 -1363.905904112112
6076 -1362.636336963149
6077 -1362.530776855934
6078 -1361.235183504161
6079 -1361.098218846949
6080 -1359.791340968398
6081 -1359.663140905026
6082 -1358.326674283128
6083 -1358.192834548005
6084 -1356.85301026556
6085 -1356.713471658763
6086 -1355.322426340831
6087 -1355.163030973194
6088 -1353.780434919388
6089 -1353.59560984216
6090 -1352.185983927939
6091 -1351.985139526333
6092 -1350.546575495086
6093 -1350.334526565453
6094 -1348.872597967567
6095 -1348.607541557319
6096 -1347.164701147918
6097 -1346.864622838769
6098 -1345.358660415196
6099 -1345.023133165435
6100 -1343.481404336099
6101 -1343.115593954321
6102 -1341.543599725487
6103 -1341.085463317387
6104 -1339.490617906901
6105 -1339.014713121294
6106 -1337.370634031004
6107 -1336.846573463098
6108 -1334.818984800111
6109 -1334.322391208458
6110 -1332.659778384858
6111 -1332.114930313969
6112 -1330.38004923896
6113 -1329.408907924059
6114 -1327.701089153008
6115 -1327.08762541384
6116 -1325.352542230198
6117 -1324.73157216912
6118 -1322.531154420698
6119 -1321.928020295212
6120 -1320.158215259642
6121 -1319.543873485182
6122 -1317.756061605192
6123 -1317.096087461394
6124 -1315.296439066997
6125 -1314.639006763226
6126 -1312.857438543326
6127 -1312.167929933705
6128 -1310.37005872012
6129 -1309.720364671762
6130 -1307.873645567753
6131 -1307.194599033392
6132 -1305.377114957987
6133 -1304.750016247463
6134 -1302.942706636842
6135 -1302.303615272868
6136 -1300.519479966677
6137 -1299.91316673735
6138 -1298.128379973684
6139 -1297.532279741582
6140 -1295.744559509431
6141 -1295.186606304516
6142 -1293.380541433802
6143 -1292.79676914025
6144 -1290.979993705076
6145 -1290.395758127972
6146 -1288.562231719928
6147 -1287.97403732681
6148 -1286.091773260885
6149 -1285.50564758213
6150 -1283.627607148295
6151 -1283.010132331083
6152 -1281.098244113465
6153 -1280.478573329739
6154 -1278.518181349812
6155 -1277.862076646139
6156 -1275.900681477807
6157 -1275.158976095348
6158 -1273.153796583166
6159 -1272.381934052474
6160 -1270.38760053466
6161 -1269.580142758862
6162 -1267.527515812145
6163 -1266.577563180614
6164 -1264.478571857836
6165 -1263.473943266375
6166 -1261.328755650248
6167 -1260.232350256118
6168 -1258.029742164968
6169 -1256.915839636627
6170 -1254.644330210872
6171 -1253.466635583502
6172 -1251.148339605942
6173 -1249.906281005867
6174 -1247.478292105136
6175 -1246.153122955636
6176 -1243.734838633806
6177 -1242.387427815852
6178 -1239.866203536664
6179 -1238.47394713963
6180 -1235.880737398759
6181 -1234.413329616845
6182 -1231.747444882227
6183 -1230.20338688681
6184 -1227.4567320567
6185 -1225.855374930302
6186 -1223.042683589437
6187 -1221.372881063304
6188 -1218.515176983896
6189 -1216.764796006768
6190 -1213.834628019564
6191 -1212.02785637781
6192 -1209.060609392478
6193 -1207.188323587545
6194 -1204.162497376236
6195 -1202.273575954916
6196 -1199.256973743185
6197 -1197.320820989046
6198 -1194.2491627796
6199 -1192.282949557119
6200 -1189.172930889897
6201 -1187.922958887881
6202 -1184.526877256772
6203 -1182.393450489051
6204 -1179.954886822998
6205 -1177.554382506785
6206 -1174.19962969582
6207 -1172.771073157786
6208 -1169.21243495983
6209 -1167.758148463041
6210 -1164.112443664306
6211 -1162.611692251377
6212 -1158.942993731719
6213 -1157.445375562655
6214 -1153.715034832296
6215 -1152.225118017338
6216 -1148.525335068366
6217 -1147.013369400387
6218 -1144.249892876671
6219 -1141.508703835095
6220 -1138.941534157218
6221 -1137.144160807849
6222 -1133.365303381064
6223 -1131.707446902168
6224 -1128.998895213877
6225 -1126.200319867063
6226 -1123.638171224181
6227 -1121.836125133544
6228 -1119.092502417163
6229 -1117.231917581336
6230 -1113.420555812624
6231 -1111.744157592839
6232 -1109.059995168403
6233 -1107.24349703877
6234 -1104.493468832213
6235 -1102.56203441719
6236 -1098.833270966407
6237 -1097.141603105774
6238 -1094.562063171947
6239 -1092.726703937346
6240 -1090.113839928539
6241 -1087.314338078709
6242 -1084.919213263027
6243 -1083.177437335452
6244 -1080.681221891999
6245 -1078.00000379296
6246 -1075.665139632969
6247 -1073.981563213925
6248 -1071.508530825883
6249 -1068.948700435559
6250 -1066.651738796422
6251 -1065.062355824806
6252 -1062.626271544629
6253 -1060.165602797364
6254 -1057.940392992588
6255 -1056.397830140797
6256 -1053.23435598839
6257 -1051.863378453455
6258 -1049.574151610401
6259 -1047.303902511261
6260 -1045.188889249355
6261 -1043.765650689148
6262 -1040.699757330577
6263 -1039.410822749974
6264 -1037.199494950927
6265 -1035.076756354178
6266 -1032.97288780587
6267 -1031.619705454522
6268 -1028.640260115102
6269 -1027.418069667596
6270 -1025.263166421735
6271 -1023.184126810586
6272 -1021.162125644786
6273 -1019.840509826037
6274 -1016.942320832247
6275 -1015.76365877064
6276 -1013.658365746834
6277 -1011.673701805014
6278 -1009.676075452232
6279 -1007.748630645078
6280 -1005.808745165131
6281 -1004.618472877506
6282 -1001.786259002248
6283 -1000.709467509688
6284 -998.0035924713777
6285 -996.9898026709758
6286 -994.302947506598
6287 -993.3224979685218
6288 -990.7286513778569
6289 -989.7514336993679
6290 -987.188801220886
6291 -986.252276735074
6292 -984.3564387231671
6293 -982.6143674568438
6294 -980.8544499951774
6295 -979.1499242855942
6296 -977.4618386598806
6297 -975.8217032972517
6298 -974.17127253921
6299 -973.1156173367972
6300 -970.6906456257661
6301 -969.7715498026652
6302 -967.9973754121951
6303 -966.3975473353264
6304 -964.7658974567054
6305 -963.7404573169539
6306 -961.4303677755374
6307 -960.5475605692326
6308 -958.8225787929883
6309 -957.2788862475561
6310 -955.6876895592164
6311 -954.7375346284646
6312 -952.506520998472
6313 -951.6821689916557
6314 -950.0437945667192
6315 -949.1153559814869
6316 -946.858540607689
6317 -946.0605907308054
6318 -944.4339125722408
6319 -943.5452373796149
6320 -941.869063961267
6321 -940.3882390372124
6322 -938.8784776571604
6323 -938.021405006948
6324 -936.3996579745225
6325 -935.4932908459099
6326 -933.8215720623226
6327 -932.4311131150257
6328 -930.8993476900524
6329 -930.1059506646724
6330 -928.5308365790498
6331 -927.7087272930366
6332 -926.1007301986391
6333 -925.2855925833763
6334 -923.6775688953367
6335 -922.8766135330891
6336 -921.2776266087858
6337 -920.46881533755
6338 -918.9113497574463
6339 -918.1356142424751
6340 -916.5936145201737
6341 -915.8144270947724
6342 -914.3303428075601
6343 -913.606163605338
6344 -912.1455504880012
6345 -911.4523222732346
6346 -910.0171255709428
6347 -909.3190774781822
6348 -907.9250825060092
6349 -907.2851575721994
6350 -905.9038040483985
6351 -905.319519222004
6352 -903.9488184365392
6353 -903.3670822532463
6354 -902.0404600825231
6355 -901.4818085998769
6356 -900.199340166935
6357 -899.6755817515848
6358 -898.4189209101088
6359 -897.9318525320358
6360 -896.7098653844773
6361 -896.257860084098
6362 -895.0768208398165
6363 -894.6259067907778
6364 -893.4881194346444
6365 -893.0922918736959
6366 -891.9868204624224
6367 -891.6167361342053
6368 -890.5388543229919
6369 -890.1941144136122
6370 -889.1665608464901
6371 -888.8095431097336
6372 -887.8029873355257
6373 -887.4777826153962
6374 -886.4869942281705
6375 -886.2082781596039
6376 -885.2463428794138
6377 -884.9936687634636
6378 -884.0706454409445
6379 -883.8437732522614
6380 -882.9225545311289
6381 -882.7318526462577
6382 -881.83470761986
6383 -881.6779322717977
6384 -880.782167537202
6385 -880.6405063966632
6386 -879.7779274678562
6387 -879.6497365080156
6388 -878.8343938541478
6389 -878.7654566533309
6390 -877.9613011662389
6391 -877.8938790341286
6392 -877.1321029374808
6393 -877.077472551766
6394 -876.321374213481
6395 -876.2911287505666
6396 -875.5661683063493
6397 -875.5691309391684
6398 -874.8534015831438
6399 -874.8673350534059
6400 -874.1767943905248
6401 -874.2098291164453
6402 -873.542615840916
6403 -873.5580740358713
6404 -872.9295389443743
6405 -872.9643989452286
6406 -872.3364324183365
6407 -872.3651209388697
6408 -871.7588142495981
6409 -871.7995937834939
6410 -871.1984983822806
6411 -871.2370489982972
6412 -870.6364399042209
6413 -870.7148869795726
6414 -870.1281419209325
6415 -870.1832842613808
6416 -869.60747474831
6417 -869.6450162043081
6418 -869.1032768391715
6419 -869.1335966741535
6420 -868.6188448160423
6421 -868.6460998446679
6422 -868.1435307742433
6423 -868.1635626719109
6424 -867.6332555240034
6425 -867.6688811460975
6426 -867.1598078416226
6427 -867.1992930665544
6428 -866.6686275516303
6429 -866.7302277048175
6430 -866.221724721805
6431 -866.2782735031001
6432 -865.7711469191555
6433 -865.8345525749889
6434 -865.3056014719548
6435 -865.3539219547806
6436 -864.8526845033216
6437 -864.9646357139601
6438 -864.4589329747845
6439 -864.5526033940625
6440 -864.0556303307424
6441 -864.2049867058746
6442 -863.6735278542664
6443 -863.8553185276332
6444 -863.3433516225049
6445 -863.5568500273646
6446 -863.0363194777997
6447 -863.2688327193197
6448 -862.7674083250777
6449 -863.039851140204
6450 -862.5491500999203
6451 -862.8234130875657
6452 -862.3773705234023
6453 -862.6588975255459
6454 -862.2160681535089
6455 -862.5259248963288
6456 -862.1059850314745
6457 -862.4340952121731
6458 -862.0401759826786
6459 -862.3698220409054
6460 -862.0057610574906
6461 -862.3137344126757
6462 -861.9707775521812
6463 -862.2851750105838
6464 -861.9545580745688
6465 -862.2876105150824
6466 -861.9703610643805
6467 -862.3055388329158
6468 -862.0007994978307
6469 -862.3567089576729
6470 -862.0492692375038
6471 -862.4095471655916
6472 -862.1277025437823
6473 -862.476942787171
6474 -862.1936790443372
6475 -862.5482325391132
6476 -862.2398062352464
6477 -862.59673471725
6478 -862.2978834331018
6479 -862.6438270730838
6480 -862.353939577039
6481 -862.7161998001058
6482 -862.4290210668247
6483 -862.7655828385884
6484 -862.4774641707951
6485 -862.8092004363918
6486 -862.5101184736277
6487 -862.8359103104563
6488 -862.5158730013903
6489 -862.8357695684765
6490 -862.5119501023356
6491 -862.8363612560418
6492 -862.5076734886145
6493 -862.8352078126745
6494 -862.5046045265457
6495 -862.8517562787403
6496 -862.5340888386539
6497 -862.8736275963204
6498 -862.5632772970338
6499 -862.9087747594954
6500 -862.6068821248884
6501 -862.9273224352463
6502 -862.6614173897527
6503 -863.0574498160372
6504 -862.7821310884794
6505 -863.107656511761
6506 -862.8732148294238
6507 -863.2083788015515
6508 -862.9847236387875
6509 -863.3248613474441
6510 -863.0832465356605
6511 -863.4974389837687
6512 -863.2804964888453
6513 -863.6331035512292
6514 -863.4608908686436
6515 -863.7819146500732
6516 -863.6102281977086
6517 -864.011847161564
6518 -863.8449196436939
6519 -864.2163029112041
6520 -864.0452675764927
6521 -864.4242042181691
6522 -864.2618889843932
6523 -864.6001078462621
6524 -864.4444842476856
6525 -864.807223117919
6526 -864.6657059720296
6527 -865.0020959456427
6528 -864.8033728217958
6529 -865.1218009418418
6530 -864.9061836457955
6531 -865.243119225082
6532 -865.0135858509404
6533 -865.2969735079993
6534 -865.0167670511956
6535 -865.332805988555
6536 -865.0377391316105
6537 -865.3204197293189
6538 -865.0211924143885
6539 -865.2749545446114
6540 -864.9488377420014
6541 -865.1898466894919
6542 -864.8090713976769
6543 -865.0638063469898
6544 -864.6628086248944
6545 -864.8799187746671
6546 -864.486012333483
6547 -864.6632536898737
6548 -864.2817335045532
6549 -864.463921420318
6550 -864.0695540287807
6551 -864.1718071056093
6552 -863.7653121838298
6553 -863.918862119041
6554 -863.4347402971373
6555 -863.573294847019
6556 -863.1090999706826
6557 -863.2980641475132
6558 -862.8651774059799
6559 -863.013990635652
6560 -862.5976426688014
6561 -862.7487457460905
6562 -862.3321042963547
6563 -862.4892718732347
6564 -862.082972041908
6565 -862.2939245080157
6566 -861.8601647300262
6567 -862.1003723505673
6568 -861.7011841381411
6569 -861.9763469285926
6570 -861.6022953099895
6571 -861.9037948000146
6572 -861.513310329682
6573 -861.8358675253397
6574 -861.4843184543837
6575 -861.8268047900272
6576 -861.5088762973297
6577 -861.8497469525114
6578 -861.593272946028
6579 -861.9350510753208
6580 -861.6809869261859
6581 -862.0559643868036
6582 -861.769409533252
6583 -862.1197329808335
6584 -861.8528666864539
6585 -862.2337089414978
6586 -861.9537006694469
6587 -862.3205566647928
6588 -862.0413926531927
6589 -862.3494532413411
6590 -862.0336059488581
6591 -862.399543268065
6592 -862.0670664091099
6593 -862.3736602573957
6594 -862.0160505825905
6595 -862.2782765814662
6596 -861.9385931185615
6597 -862.1945421595648
6598 -861.8067288535277
6599 -862.0313537101177
6600 -861.6756752905214
6601 -861.834698788447
6602 -861.4671638780628
6603 -861.5904199751303
6604 -861.192246526392
6605 -861.319177682904
6606 -860.9294300293672
6607 -861.0174443730735
6608 -860.6460169136161
6609 -860.7253279217001
6610 -860.3253169900476
6611 -860.4073608456044
6612 -860.0057727577913
6613 -860.0679790238489
6614 -859.6850507390166
6615 -859.7824872850368
6616 -859.3730902200236
6617 -859.4940859761439
6618 -859.0784203060037
6619 -859.1977826215071
6620 -858.7700500742708
6621 -858.9298994883471
6622 -858.5239223770258
6623 -858.6863774840472
6624 -858.2816222724289
6625 -858.4608874060611
6626 -858.0538962748558
6627 -858.2457328729571
6628 -857.8332676113112
6629 -857.9763379937887
6630 -857.544198857314
6631 -857.6558345989052
6632 -857.2631452532179
6633 -857.3888600613357
6634 -856.9153545065682
6635 -857.1080445519177
6636 -856.6130343438373
6637 -856.7393697311045
6638 -856.2431220814047
6639 -856.4249245617646
6640 -855.9589124590136
6641 -856.0589926865538
6642 -855.5169971584502
6643 -855.6132685645246
6644 -855.1077135466726
6645 -855.2284218949679
6646 -854.6586279623943
6647 -854.7425919638472
6648 -854.1924138034572
6649 -854.2785156809055
6650 -853.6921317343405
6651 -853.7705093110824
6652 -853.1962692617371
6653 -853.2259858817204
6654 -852.645894110537
6655 -852.7232278687696
6656 -852.153359874954
6657 -852.2070785033693
6658 -851.6572147539035
6659 -851.7436090334639
6660 -851.2385926562794
6661 -851.3139024225341
6662 -850.8123408717463
6663 -850.9756011407749
6664 -850.5514346116971
6665 -850.705769188954
6666 -850.2876874419849
6667 -850.492811625913
6668 -850.1198218649296
6669 -850.3573907854023
6670 -850.0026951709386
6671 -850.3213021187245
6672 -850.0298387806102
6673 -850.3075084434658
6674 -850.0098317836172
6675 -850.3109046431669
6676 -850.0277217726585
6677 -850.3453132162624
6678 -850.0316633098486
6679 -850.3740889537796
6680 -850.0508038391951
6681 -850.3831857126377
6682 -850.0237831605472
6683 -850.3687375703314
6684 -849.9829805243324
6685 -850.2871893072216
6686 -849.8696854036534
6687 -850.1684844268278
6688 -849.7059675679445
6689 -849.9435146259369
6690 -849.5188754410869
6691 -849.7582493348364
6692 -849.2548523706258
6693 -849.4128477796517
6694 -848.9586627577023
6695 -849.0973705885021
6696 -848.5591244144825
6697 -848.69128592862
6698 -848.1828761302633
6699 -848.2713685689104
6700 -847.7993029139603
6701 -847.8352820116505
6702 -847.2810023523224
6703 -847.3973967413449
6704 -846.8305312516464
6705 -846.8446806101849
6706 -846.2779609433103
6707 -846.2638709738493
6708 -845.6548383605837
6709 -845.6856068871379
6710 -845.0531564960187
6711 -845.0974803569699
6712 -844.4732895678021
6713 -844.5682896304899
6714 -843.943460456297
6715 -844.077563925995
6716 -843.4180479776395
6717 -843.5512102724589
6718 -842.9619957077387
6719 -843.1039317433682
6720 -842.4935295075281
6721 -842.6370925538075
6722 -842.0477551991829
6723 -842.2092315817271
6724 -841.649193703017
6725 -841.8436571834017
6726 -841.3259840079861
6727 -841.5245431020631
6728 -841.0472636671024
6729 -841.2384054089376
6730 -840.7552968355131
6731 -841.0208180366833
6732 -840.5929293833525
6733 -840.8959520072275
6734 -840.4429715697953
6735 -840.7112457083826
6736 -840.2663461035452
6737 -840.5419542157172
6738 -840.0777276088587
6739 -840.3510583047679
6740 -839.882723710169
6741 -840.1333948659291
6742 -839.6196266602228
6743 -839.8512334196079
6744 -839.2999558995193
6745 -839.4653902975627
6746 -838.8866730302587
6747 -838.9874700699945
6748 -838.360075487668
6749 -838.4198538910323
6750 -837.7537553310547
6751 -837.726718119794
6752 -836.9937725485127
6753 -836.9306783566708
6754 -836.1778353991984
6755 -836.0524255951773
6756 -835.2751277721312
6757 -835.1284950795499
6758 -834.3101223713782
6759 -834.1416927593117
6760 -833.2998430044812
6761 -833.1090338025984
6762 -832.2777603303916
6763 -832.209514420086
6764 -831.2852543465756
6765 -831.0684513342288
6766 -830.3430641573442
6767 -830.047573582534
6768 -829.2968743729135
6769 -828.9726159132474
6770 -828.233465599489
6771 -827.9351808919449
6772 -827.1942482392432
6773 -826.8881578513809
6774 -826.1417696088323
6775 -825.8849390324381
6776 -825.1508909181648
6777 -824.8983560926432
6778 -824.193607394598
6779 -823.9713508677947
6780 -823.2553125126947
6781 -823.2165193267757
6782 -822.3092327508938
6783 -822.3271469976803
6784 -821.4897180549975
6785 -821.549881254005
6786 -820.7621115023395
6787 -820.855362730857
6788 -820.1176526606966
6789 -820.2437745384376
6790 -819.5678867443565
6791 -819.6869969282626
6792 -819.0782481845936
6793 -819.217454704491
6794 -818.6716429833991
6795 -818.8043739952964
6796 -818.4006209226679
6797 -818.5586021551894
6798 -818.2082222179952
6799 -818.3409055841795
6800 -817.951002265155
6801 -818.1653055223524
6802 -817.8385107791917
6803 -818.0319096400982
6804 -817.7321731357456
6805 -817.9445499932588
6806 -817.6397474730469
6807 -817.8774717748538
6808 -817.5703175880267
6809 -817.8205757540943
6810 -817.51211551678
6811 -817.7679046390106
6812 -817.4575030879253
6813 -817.6834671139914
6814 -817.3569167629674
6815 -817.6130493533938
6816 -817.2817894442661
6817 -817.5273896454721
6818 -817.1624429038139
6819 -817.3877683190543
6820 -817.0560076527676
6821 -817.2565751925156
6822 -816.8970042421935
6823 -817.0742279160407
6824 -816.7083491562501
6825 -816.9019199852041
6826 -816.526799321207
6827 -816.6775945418798
6828 -816.3054654613911
6829 -816.4338416727144
6830 -816.0312424781443
6831 -816.1670085140203
6832 -815.7917230911279
6833 -815.909077517349
6834 -815.4657344096274
6835 -815.614856163312
6836 -815.1608065799777
6837 -815.3390523983458
6838 -814.8409861673985
6839 -815.0321319987315
6840 -814.5682892330043
6841 -814.7445913872506
6842 -814.2766942332917
6843 -814.4812150086126
6844 -814.0355884975672
6845 -814.2129917914284
6846 -813.7585719058773
6847 -813.9742840355103
6848 -813.5403454301172
6849 -813.7669910926244
6850 -813.3286902447152
6851 -813.5740475848755
6852 -813.1771398121479
6853 -813.4421025117447
6854 -813.0390496898854
6855 -813.3463513926968
6856 -812.9916956436375
6857 -813.2921189261087
6858 -812.954239985619
6859 -813.2822875452293
6860 -812.9818261256114
6861 -813.332715101876
6862 -813.0547122544669
6863 -813.4008519046328
6864 -813.140449910935
6865 -813.5153113009094
6866 -813.2587252083561
6867 -813.6818860291268
6868 -813.4286671090007
6869 -813.8497168550711
6870 -813.5899103958404
6871 -814.0051699799238
6872 -813.733488176046
6873 -814.20228334544
6874 -813.8908259043216
6875 -814.2896921200457
6876 -813.9791860779413
6877 -814.3723358397552
6878 -814.0668088716433
6879 -814.4443600133274
6880 -814.1291164959939
6881 -814.4570295312734
6882 -814.1250041626622
6883 -814.4436595875522
6884 -814.0756874974072
6885 -814.3501374177238
6886 -813.9906098926288
6887 -814.2324837371698
6888 -813.8526375198838
6889 -814.0563175709651
6890 -813.6648953820795
6891 -813.8752892400818
6892 -813.4594405612002
6893 -813.6388712438037
6894 -813.2134120378925
6895 -813.3853159052715
6896 -812.9440675476686
6897 -813.1068743903454
6898 -812.6432449555675
6899 -812.8157362110154
6900 -812.3188561342535
6901 -812.4914024771326
6902 -811.9612020237286
6903 -812.1503062012951
6904 -811.6484605932
6905 -811.8088655113526
6906 -811.2347826384921
6907 -811.3973499758964
6908 -810.9390125105747
6909 -811.0530099509252
6910 -810.572969090281
6911 -810.657887355149
6912 -810.1818158520746
6913 -810.1894697278641
6914 -809.730654755225
6915 -809.8459686512098
6916 -809.3570847320709
6917 -809.4561922626384
6918 -808.9566727390697
6919 -809.0547317622053
6920 -808.4676563588833
6921 -808.5927077156383
6922 -808.1195445485748
6923 -808.2608968130205
6924 -807.6536196799651
6925 -807.773146622052
6926 -807.286308452404
6927 -807.3249149446659
6928 -806.8413028550843
6929 -806.9499145375606
6930 -806.3576163733695
6931 -806.4638530189097
6932 -805.9972971742363
6933 -806.0473632936627
6934 -805.6022772591735
6935 -805.7180369318924
6936 -805.2933757335109
6937 -805.3493907034169
6938 -804.9290625463631
6939 -805.0577069003464
6940 -804.6414549423642
6941 -804.76909860207
6942 -804.3944572043282
6943 -804.5555476496309
6944 -804.0969513584903
6945 -804.2768392583756
6946 -803.9020757815124
6947 -804.1042996384656
6948 -803.6640834948003
6949 -803.8457640250991
6950 -803.4978223502443
6951 -803.6751117994488
6952 -803.3171736827451
6953 -803.5060182305697
6954 -803.1638948604718
6955 -803.3801437971458
6956 -803.0346104141698
6957 -803.2641878064329
6958 -802.9260598629328
6959 -803.1703199823804
6960 -802.8158579554204
6961 -803.1040312432316
6962 -802.7607864236394
6963 -803.0447668345854
6964 -802.6646910545728
6965 -802.9585677283798
6966 -802.6221321673065
6967 -802.9602185535862
6968 -802.6280321176851
6969 -802.9775260607749
6970 -802.6291299620228
6971 -802.9794747217636
6972 -802.6225910206258
6973 -802.9649797469546
6974 -802.6229940947759
6975 -802.9880518626417
6976 -802.5806289582421
6977 -802.9294996396399
6978 -802.5389213327618
6979 -802.8679677945887
6980 -802.4720321543008
6981 -802.760219099357
6982 -802.3438580164801
6983 -802.5926550903023
6984 -802.1503317943486
6985 -802.3661661972991
6986 -801.9154851743401
6987 -802.058860645375
6988 -801.590444593812
6989 -801.7271391801496
6990 -801.2166768928154
6991 -801.3434114280519
6992 -800.8398883409208
6993 -800.9555866875203
6994 -800.3428676256381
6995 -800.5247465993604
6996 -799.9085580522943
6997 -800.0071821948
6998 -799.4688932940293
6999 -799.5879783579173
7000 -798.9770711489565
7001 -799.138979954109
7002 -798.51204480655
7003 -798.6825237296898
7004 -798.0503118020782
7005 -798.22636514925
7006 -797.6085930338596
7007 -797.7930834533461
7008 -797.1778545894056
7009 -797.3371668508811
7010 -796.7413211077532
7011 -796.9042149543471
7012 -796.3987026382829
7013 -796.4903204341106
7014 -795.9915635234991
7015 -796.0790322697181
7016 -795.5703879860499
7017 -795.6339922650818
7018 -795.157979509128
7019 -795.2299732741636
7020 -794.7560891599571
7021 -794.8425122578634
7022 -794.3777085372735
7023 -794.4788308376046
7024 -794.0304268990113
7025 -794.1601389435392
7026 -793.7009271473394
7027 -793.821775709526
7028 -793.389808705273
7029 -793.5105251806193
7030 -793.0981544203537
7031 -793.2193736457265
7032 -792.8280370486648
7033 -792.9405125550566
7034 -792.5699303136381
7035 -792.6901896789996
7036 -792.3327334662873
7037 -792.4457825806522
7038 -792.1002141809171
7039 -792.2306102357566
7040 -791.8714211064244
7041 -791.9691604785905
7042 -791.6211842095584
7043 -791.7713984792198
7044 -791.4231156593394
7045 -791.5967105264738
7046 -791.2522440536158
7047 -791.4744543699206
7048 -791.1198516747837
7049 -791.3599424267441
7050 -790.9891485747588
7051 -791.2773537774032
7052 -790.9286221690245
7053 -791.2445463343589
7054 -790.9183860536774
7055 -791.2769780516111
7056 -790.9810482331535
7057 -791.3614766905558
7058 -791.0796461996849
7059 -791.4732796444671
7060 -791.2393441631455
7061 -791.6219838558554
7062 -791.4302000195117
7063 -791.8814346856233
7064 -791.7243653862029
7065 -792.1404071992233
7066 -792.0112239814218
7067 -792.4540290603654
7068 -792.3480721507414
7069 -792.7975122441391
7070 -792.6866611938696
7071 -793.177433123044
7072 -793.0731236358395
7073 -793.5790811379702
7074 -793.4646044129909
7075 -793.9729606222935
7076 -793.8590184371525
7077 -794.3635767042638
7078 -794.3099743428622
7079 -794.8115839523642
7080 -794.6817293793803
7081 -795.2291015779305
7082 -795.0455398228133
7083 -795.5429124334138
7084 -795.3542258863521
7085 -795.832686205978
7086 -795.6260249833276
7087 -795.9963232067023
7088 -795.7967809425315
7089 -796.1657486727279
7090 -795.9482248428146
7091 -796.3123483618433
7092 -796.0704705868239
7093 -796.4502400536502
7094 -796.1948605027352
7095 -796.5189294759831
7096 -796.2701007214858
7097 -796.6320426491159
7098 -796.343197060128
7099 -796.665447638606
7100 -796.3896785584218
7101 -796.7112299233153
7102 -796.4587567441787
7103 -796.7887588844967
7104 -796.5537149471752
7105 -796.9043636619242
7106 -796.6400387718181
7107 -797.0440367593593
7108 -796.766558782371
7109 -797.1874593842371
7110 -796.9412098416344
7111 -797.3218726847384
7112 -797.1231368534239
7113 -797.5661062789118
7114 -797.3262142812238
7115 -797.7907178764109
7116 -797.5620920745712
7117 -798.0423210307563
7118 -797.822034945672
7119 -798.32279392411
7120 -798.1149176400471
7121 -798.5784521826488
7122 -798.4303859362441
7123 -798.8622925947287
7124 -798.7014819586352
7125 -799.1426177909327
7126 -798.9965518080871
7127 -799.5274344688509
7128 -799.3708958725822
7129 -799.8212862885522
7130 -799.6633486402106
7131 -800.0783822365971
7132 -799.9867790967904
7133 -800.3755097688803
7134 -800.1849995732207
7135 -800.5674613024161
7136 -800.3504465291676
7137 -800.6961028222159
7138 -800.4432399259402
7139 -800.7939079688125
7140 -800.4901209192927
7141 -800.8147246236383
7142 -800.4667804717473
7143 -800.7765357238229
7144 -800.4181822274171
7145 -800.6554370704772
7146 -800.2619498172771
7147 -800.4929900348689
7148 -800.0739001913386
7149 -800.2552498957685
7150 -799.8230507953916
7151 -800.0162388681497
7152 -799.5752609576485
7153 -799.6817944079395
7154 -799.2347412636069
7155 -799.4102694943588
7156 -798.9472466838881
7157 -799.1121325991195
7158 -798.5631821593831
7159 -798.7078909647419
7160 -798.2580561061593
7161 -798.4051065074729
7162 -797.932622161019
7163 -798.0866891584752
7164 -797.6089888050178
7165 -797.7708230506098
7166 -797.2998261587043
7167 -797.4526590458394
7168 -796.9921676635756
7169 -797.1292591183228
7170 -796.6601310503275
7171 -796.8368735506583
7172 -796.3613263070879
7173 -796.5654152707683
7174 -796.0770951003398
7175 -796.2728770398646
7176 -795.8119309401883
7177 -796.0131284513833
7178 -795.5667596627089
7179 -795.7854334790636
7180 -795.3479388840693
7181 -795.5789077158836
7182 -795.1697492572168
7183 -795.4253031748593
7184 -795.0161436770875
7185 -795.2799618782497
7186 -794.8184455469634
7187 -795.1083242245491
7188 -794.6878998396427
7189 -794.9677249003884
7190 -794.5401380898296
7191 -794.7924016905109
7192 -794.3757137204333
7193 -794.5890987831837
7194 -794.0999208754639
7195 -794.3612834183574
7196 -793.8419844945391
7197 -794.0604978273044
7198 -793.5838579840103
7199 -793.7739213154513
7200 -793.2241219056023
7201 -793.4372379668306
7202 -792.8890515357078
7203 -793.0930330026704
7204 -792.5205747616501
7205 -792.6528581979753
7206 -792.1497017846501
7207 -792.2761944829066
7208 -791.7684858427456
7209 -791.8913239739144
7210 -791.3749195689597
7211 -791.4855031467756
7212 -790.9657361003932
7213 -791.0862096386305
7214 -790.570104774862
7215 -790.6503833629962
7216 -790.1459485180175
7217 -790.2672900903333
7218 -789.7670256460182
7219 -789.8808449747983
7220 -789.4024198228688
7221 -789.5572435898534
7222 -789.0281029744416
7223 -789.2550692359015
7224 -788.7434627270968
7225 -788.9750074252288
7226 -788.5434157408637
7227 -788.7817177063635
7228 -788.3850133185836
7229 -788.6249272670651
7230 -788.1887457341202
7231 -788.4664912018897
7232 -788.0884141001042
7233 -788.3739155178188
7234 -787.9581545679324
7235 -788.2858970678626
7236 -787.9152843393314
7237 -788.2325024564395
7238 -787.8751821926163
7239 -788.2135163356703
7240 -787.8960580811575
7241 -788.2009366638345
7242 -787.8825623545725
7243 -788.2016784701508
7244 -787.8925633159529
7245 -788.2199892267723
7246 -787.9313659892467
7247 -788.2803369925155
7248 -787.9669666706276
7249 -788.3224519798628
7250 -788.0065529340217
7251 -788.3114318247182
7252 -787.9602167584324
7253 -788.2740622075841
7254 -787.8964785375198
7255 -788.1429674107325
7256 -787.7222227078504
7257 -787.9543403448785
7258 -787.5298056816604
7259 -787.7113206555792
7260 -787.2509804613288
7261 -787.3725832730491
7262 -786.8987374660815
7263 -787.0160263004461
7264 -786.4982430594719
7265 -786.5891703583056
7266 -786.0468447376963
7267 -786.1239831704261
7268 -785.5676093427911
7269 -785.6442012865734
7270 -785.0839326445172
7271 -785.1725051135286
7272 -784.5950762058618
7273 -784.7150438468984
7274 -784.1297457862532
7275 -784.3221311743507
7276 -783.7309179310432
7277 -783.8666108829625
7278 -783.3580849997134
7279 -783.4696618873177
7280 -782.8813560485086
7281 -783.1092455302235
7282 -782.5421373205469
7283 -782.7642955826814
7284 -782.3016759513529
7285 -782.5065137697964
7286 -782.0041450592203
7287 -782.2830022187918
7288 -781.8225076385509
7289 -782.1156807955298
7290 -781.7049084141911
7291 -782.0621717277631
7292 -781.7184442647979
7293 -782.0942385916171
7294 -781.7795803280309
7295 -782.1797068708147
7296 -781.8945123287984
7297 -782.3179619806567
7298 -782.0687411818284
7299 -782.5460440698206
7300 -782.2825401511402
7301 -782.7774469776207
7302 -782.5601410647624
7303 -783.0752470778901
7304 -782.8736623417292
7305 -783.4473148076966
7306 -783.261014414917
7307 -783.8243715592675
7308 -783.6282685770468
7309 -784.1522974015829
7310 -783.9827687099715
7311 -784.4674730998688
7312 -784.338177079
7313 -784.771544624983
7314 -784.63768749754
7315 -785.0947329364237
7316 -784.9265422873445
7317 -785.3513520980785
7318 -785.1285024835063
7319 -785.5770004466635
7320 -785.3143413758703
7321 -785.7145966285094
7322 -785.4248328521356
7323 -785.8105306313037
7324 -785.4829989747597
7325 -785.8801266220197
7326 -785.4787068267149
7327 -785.8134212011696
7328 -785.3810157706282
7329 -785.6833465088325
7330 -785.2694336498578
7331 -785.5311640109628
7332 -785.0760891924062
7333 -785.3352399862914
7334 -784.8182791723441
7335 -785.0202202070575
7336 -784.4743616133377
7337 -784.6545042153326
7338 -784.0831514798292
7339 -784.2435449856732
7340 -783.6638209807933
7341 -783.7999256388873
7342 -783.2195510307859
7343 -783.3754230843593
7344 -782.8158632712448
7345 -782.9522107164845
7346 -782.419168228446
7347 -782.5670436930905
7348 -782.121259067913
7349 -782.1932038195134
7350 -781.7541361905274
7351 -781.8869685902073
7352 -781.4538527991298
7353 -781.5924477302816
7354 -781.1742211060542
7355 -781.3327629152666
7356 -780.9242891673741
7357 -781.1004751329373
7358 -780.7125375256968
7359 -780.91443509234
7360 -780.5495918223949
7361 -780.7813962741128
7362 -780.4191326519227
7363 -780.6947740789051
7364 -780.3254592217573
7365 -780.6192643742064
7366 -780.2755428031468
7367 -780.6100144604919
7368 -780.2905898004383
7369 -780.6142991168107
7370 -780.2943843315928
7371 -780.6301169412508
7372 -780.3277223966692
7373 -780.6633497425586
7374 -780.3851663746678
7375 -780.6822858061963
7376 -780.4041117649914
7377 -780.7462985277306
7378 -780.4518546935628
7379 -780.7768836683363
7380 -780.4932832467151
7381 -780.7593635959565
7382 -780.4329116768379
7383 -780.7130065514367
7384 -780.3805392168887
7385 -780.6504194204894
7386 -780.3122646743215
7387 -780.5820571291541
7388 -780.1975571262243
7389 -780.4620464001257
7390 -780.0931317449239
7391 -780.3555632451455
7392 -779.9483745359539
7393 -780.1596932307274
7394 -779.7712397791976
7395 -779.9801246300858
7396 -779.5374958834091
7397 -779.7475524212732
7398 -779.3630869188644
7399 -779.5359153981582
7400 -779.1607316977176
7401 -779.333166654073
7402 -778.9318465296209
7403 -779.1273509128752
7404 -778.7218511849853
7405 -778.9269824104241
7406 -778.5144190822383
7407 -778.7632123454639
7408 -778.3610692914729
7409 -778.6125813171725
7410 -778.2478923015716
7411 -778.5276899907642
7412 -778.1762412975442
7413 -778.4880961035067
7414 -778.1213219232905
7415 -778.4601268176548
7416 -778.1181315642782
7417 -778.4716483715505
7418 -778.1504282867126
7419 -778.5067063645703
7420 -778.1833926129586
7421 -778.5730559883539
7422 -778.2876041385139
7423 -778.7015811469831
7424 -778.4185867532339
7425 -778.8478458385237
7426 -778.5646130760297
7427 -779.0043855200989
7428 -778.7229967812208
7429 -779.1750119850287
7430 -778.887616296128
7431 -779.3674238854765
7432 -779.0839458186878
7433 -779.5031886922532
7434 -779.2342838916317
7435 -779.6232783755831
7436 -779.3816327941128
7437 -779.7525213440837
7438 -779.4926565954387
7439 -779.8498702301558
7440 -779.5951542305883
7441 -779.9553454294009
7442 -779.6639770605018
7443 -779.9894536184948
7444 -779.6691508208618
7445 -779.9876474712368
7446 -779.6333111574781
7447 -779.9263573977387
7448 -779.583489162497
7449 -779.8636759037281
7450 -779.5050787858906
7451 -779.7718223531667
7452 -779.397171601615
7453 -779.6351563233155
7454 -779.2611544939734
7455 -779.5158344759171
7456 -779.1480680387039
7457 -779.3703846146706
7458 -778.9831106861469
7459 -779.2228155883814
7460 -778.8914389257816
7461 -779.08624316909
7462 -778.7700173000496
7463 -778.9740982534558
7464 -778.6467836242716
7465 -778.8723475787735
7466 -778.5486586079749
7467 -778.8140802910979
7468 -778.49798954455
7469 -778.7782840119924
7470 -778.4686027943368
7471 -778.774628254322
7472 -778.4724289976238
7473 -778.8099713631582
7474 -778.5103003014711
7475 -778.8813242745091
7476 -778.6335393346902
7477 -779.0081709549354
7478 -778.7860045466458
7479 -779.1835399622512
7480 -778.9787979305162
7481 -779.3833866452634
7482 -779.2518333005285
7483 -779.6787763923777
7484 -779.525501192625
7485 -780.0498433147503
7486 -779.9165134596986
7487 -780.3655414352728
7488 -780.3107202120221
7489 -780.7571137131735
7490 -780.6314880000956
7491 -781.1868626299283
7492 -781.0593110847576
7493 -781.5310835625712
7494 -781.4842228807837
7495 -781.9379371975733
7496 -781.8977097727543
7497 -782.3573846542564
7498 -782.2206880754172
7499 -782.7582918973065
7500 -782.6044350651326
7501 -783.0450378244868
7502 -782.9448863694088
7503 -783.3685493106377
7504 -783.2226430472422
7505 -783.7118427880561
7506 -783.5240546415022
7507 -783.954314290277
7508 -783.7573257925767
7509 -784.2140418761971
7510 -783.9751259969449
7511 -784.3613782899911
7512 -784.1284590932877
7513 -784.5298700880545
7514 -784.2342184035273
7515 -784.6510823738361
7516 -784.3658771331411
7517 -784.7232407523634
7518 -784.4156047945538
7519 -784.7639933882083
7520 -784.4482820120586
7521 -784.7947826216397
7522 -784.4501492339501
7523 -784.7780480191265
7524 -784.4423519583638
7525 -784.7580037265841
7526 -784.4264112632688
7527 -784.7588622973468
7528 -784.4242285290478
7529 -784.7326407478524
7530 -784.3920592061993
7531 -784.7195117669108
7532 -784.3983649056217
7533 -784.7248967484929
7534 -784.4159629434366
7535 -784.7477499553318
7536 -784.4485820841597
7537 -784.7738545732316
7538 -784.5131554183927
7539 -784.8831502106854
7540 -784.6431581154358
7541 -784.9774080107178
7542 -784.7974801368838
7543 -785.1657686509527
7544 -784.9695303838137
7545 -785.4132292551219
7546 -785.2214210420894
7547 -785.634500771214
7548 -785.4950381260745
7549 -785.9090578035714
7550 -785.8260947928442
7551 -786.2631059021263
7552 -786.1720324482282
7553 -786.6415134891902
7554 -786.5580532005342
7555 -787.0196430460901
7556 -786.9294023284011
7557 -787.4076905952097
7558 -787.3579642587889
7559 -787.8360926436218
7560 -787.7036475879451
7561 -788.3155154983873
7562 -788.1930734802452
7563 -788.6870988618209
7564 -788.6651161633395
7565 -789.1668886684115
7566 -789.0818800425287
7567 -789.5852537762379
7568 -789.5235702098026
7569 -790.0228610726635
7570 -789.9776244691672
7571 -790.4940925234673
7572 -790.4313912839391
7573 -790.9774692236831
7574 -790.9178138323281
7575 -791.4678575060026
7576 -791.3979508229139
7577 -791.9314682215456
7578 -791.8624321571891
7579 -792.3927162348089
7580 -792.3082440965719
7581 -792.8443264767772
7582 -792.7395811394624
7583 -793.2575672220349
7584 -793.1316153215665
7585 -793.6424000301968
7586 -793.5391434321975
7587 -794.0374757213465
7588 -793.992228278013
7589 -794.4374258797102
7590 -794.3199377140461
7591 -794.7572598995681
7592 -794.6238670889528
7593 -795.0297125860776
7594 -794.9755765128718
7595 -795.3750913482365
7596 -795.2333817130117
7597 -795.6300810505784
7598 -795.4640933582385
7599 -795.8793272229329
7600 -795.7154279447994
7601 -796.1210858153823
7602 -795.9633272648217
7603 -796.3289356173452
7604 -796.1459650225928
7605 -796.5548368900116
7606 -796.3466084992323
7607 -796.7281184839825
7608 -796.500827464233
7609 -796.8987475907921
7610 -796.6461967714827
7611 -797.0188083143355
7612 -796.7554695355144
7613 -797.1128434980054
7614 -796.8360345080663
7615 -797.1766243183348
7616 -796.854577221935
7617 -797.2071020308751
7618 -796.8690133147803
7619 -797.1937025252112
7620 -796.8527690905001
7621 -797.1449062276306
7622 -796.785649362773
7623 -797.034483271392
7624 -796.6540784741885
7625 -796.9021456756385
7626 -796.5049267466871
7627 -796.7172081367371
7628 -796.2826517136768
7629 -796.488949582214
7630 -796.0072142146703
7631 -796.2028523755022
7632 -795.7370090380217
7633 -795.9102816173806
7634 -795.4117806962319
7635 -795.556636219078
7636 -795.0578599845162
7637 -795.1993893362396
7638 -794.7126414701687
7639 -794.8512109668895
7640 -794.3496945131493
7641 -794.5109163334738
7642 -794.0175571101788
7643 -794.1664461069812
7644 -793.6938720422423
7645 -793.8845780936482
7646 -793.3948881825291
7647 -793.6144076764366
7648 -793.147806158829
7649 -793.3733445010479
7650 -792.9433916449068
7651 -793.1881409812493
7652 -792.7569905781306
7653 -793.0170567514779
7654 -792.5953049923331
7655 -792.8680486369785
7656 -792.4713736860456
7657 -792.7754102248389
7658 -792.4071571875961
7659 -792.7290042044231
7660 -792.3928911300836
7661 -792.7418932155869
7662 -792.4362812392853
7663 -792.8073636589542
7664 -792.5222127175596
7665 -792.9188057962934
7666 -792.6507262688438
7667 -793.0470541648319
7668 -792.8124148434905
7669 -793.2168661346171
7670 -793.0099552540116
7671 -793.4284474814101
7672 -793.237252174315
7673 -793.6598386364985
7674 -793.4707540212372
7675 -793.9071701807538
7676 -793.7321620686046
7677 -794.1764540170694
7678 -793.9962913988905
7679 -794.4202254299449
7680 -794.2367323457836
7681 -794.6458734404431
7682 -794.466120124746
7683 -794.8632400963718
7684 -794.6730992093215
7685 -795.0217912710949
7686 -794.8247745071005
7687 -795.1485228140781
7688 -794.9160467575671
7689 -795.2082226085491
7690 -794.9477360642086
7691 -795.2243754753495
7692 -794.8998687168128
7693 -795.1754533727195
7694 -794.7801667005947
7695 -795.0430353574385
7696 -794.6123604876474
7697 -794.8421297455247
7698 -794.3902660541887
7699 -794.6151154962876
7700 -794.1000884866233
7701 -794.3135716974397
7702 -793.7882571624167
7703 -794.0021592210907
7704 -793.5418619777134
7705 -793.6561474789075
7706 -793.2144961211616
7707 -793.3687826604684
7708 -792.8328002009473
7709 -792.9810152005559
7710 -792.5464376504467
7711 -792.6642177589845
7712 -792.1844458351496
7713 -792.2936712563603
7714 -791.8649549191258
7715 -791.9758218562381
7716 -791.5159115876397
7717 -791.6316831605506
7718 -791.2113181342972
7719 -791.3363591840498
7720 -790.9288055434843
7721 -791.0708183233713
7722 -790.6536456397318
7723 -790.8291654800499
7724 -790.4134845058646
7725 -790.6574827966558
7726 -790.2785959728907
7727 -790.5293525685132
7728 -790.1493025065164
7729 -790.4284737661741
7730 -790.0804919863161
7731 -790.3921938387351
7732 -790.0659582829909
7733 -790.3744531903671
7734 -790.0529945760553
7735 -790.393411687039
7736 -790.0766712377796
7737 -790.443175009277
7738 -790.1505495843481
7739 -790.5163497325931
7740 -790.2136421650065
7741 -790.5600428586375
7742 -790.3194737595765
7743 -790.6751503712038
7744 -790.4419207592969
7745 -790.7809566245205
7746 -790.5145987624792
7747 -790.866806844825
7748 -790.5897053580971
7749 -790.9152426430704
7750 -790.6457047659311
7751 -790.970537089868
7752 -790.6938734590439
7753 -791.0166722081304
7754 -790.7056324711816
7755 -791.0266741673812
7756 -790.7013601702939
7757 -790.9984337894182
7758 -790.6792674975978
7759 -790.9929967928681
7760 -790.6539741556542
7761 -790.9715409330211
7762 -790.6014895317766
7763 -790.8847834283063
7764 -790.5002555997881
7765 -790.7898860298395
7766 -790.3977492115258
7767 -790.6792216611207
7768 -790.2523968610625
7769 -790.5244116093322
7770 -790.1168358131748
7771 -790.3777385880303
7772 -789.9251144699953
7773 -790.1727957237874
7774 -789.7809395632146
7775 -790.0109194918747
7776 -789.6005189277942
7777 -789.8368750784008
7778 -789.4320517242199
7779 -789.6636999769646
7780 -789.2676687567434
7781 -789.4679776472002
7782 -789.0795452351326
7783 -789.2946426051039
7784 -788.9044144710836
7785 -789.1192351121141
7786 -788.7479147068309
7787 -788.9434771782384
7788 -788.558421234603
7789 -788.7595478050538
7790 -788.37550583056
7791 -788.5970649681649
7792 -788.1809937267324
7793 -788.4177443413603
7794 -788.0027848540201
7795 -788.1870967017696
7796 -787.7496569303808
7797 -787.9752007701311
7798 -787.5199283726596
7799 -787.731126491644
7800 -787.2525914429622
7801 -787.4634800589531
7802 -787.0015703323394
7803 -787.2006284833091
7804 -786.7126354659691
7805 -786.8999582619526
7806 -786.4139791570594
7807 -786.6039714452465
7808 -786.0888519469062
7809 -786.2590913469696
7810 -785.7610788411
7811 -785.9030080133313
7812 -785.3940936023869
7813 -785.5557150354865
7814 -785.051343287094
7815 -785.1982979256998
7816 -784.6919550077553
7817 -784.8361961995173
7818 -784.3378235885434
7819 -784.4676890468551
7820 -783.9964938339389
7821 -784.1361937491114
7822 -783.7058092648807
7823 -783.8333930183326
7824 -783.4064157152205
7825 -783.5244816349206
7826 -783.1196264592479
7827 -783.2729137347252
7828 -782.8723231203702
7829 -783.0309148595296
7830 -782.63522021132
7831 -782.8209204042845
7832 -782.4309286094875
7833 -782.6239120068449
7834 -782.2338108958697
7835 -782.4546074688062
7836 -782.129083590753
7837 -782.3867358773584
7838 -782.0251213671976
7839 -782.2586398679902
7840 -781.9112269155962
7841 -782.1748912942186
7842 -781.8519510832408
7843 -782.1137405490335
7844 -781.7458551187568
7845 -782.0457855650243
7846 -781.7198851832387
7847 -782.0280158005694
7848 -781.6914594538722
7849 -782.0213729774268
7850 -781.6994923056736
7851 -782.0002895425051
7852 -781.6941793938107
7853 -781.9761991848605
7854 -781.6360242029752
7855 -781.9111023138499
7856 -781.5879187105727
7857 -781.8425831005311
7858 -781.5299364371984
7859 -781.761763403479
7860 -781.460129895676
7861 -781.6563854976001
7862 -781.3267297385692
7863 -781.4786367134378
7864 -781.1323321846314
7865 -781.299602554272
7866 -780.9611972404512
7867 -781.0652339089107
7868 -780.665079235508
7869 -780.8202515814678
7870 -780.355357524189
7871 -780.4795612191309
7872 -780.0831015422691
7873 -780.1716098114025
7874 -779.7617708428437
7875 -779.889052784387
7876 -779.3585565163162
7877 -779.4715870860232
7878 -778.9878797602706
7879 -779.1048554672686
7880 -778.5769001016591
7881 -778.7328329056352
7882 -778.2460110093418
7883 -778.4070576166266
7884 -777.9488186265855
7885 -778.1094143530831
7886 -777.6840995998169
7887 -777.8305677261135
7888 -777.3625934154281
7889 -777.5754082391636
7890 -777.1741026794253
7891 -777.3791993229905
7892 -776.9907858995729
7893 -777.2475801521271
7894 -776.8776197081105
7895 -777.1358353743419
7896 -776.7988076928034
7897 -777.0744862705924
7898 -776.7460774217988
7899 -777.0842206951527
7900 -776.7271487159619
7901 -777.0963230048887
7902 -776.7757985108911
7903 -777.1492274759737
7904 -776.8522862365294
7905 -777.2572049957386
7906 -776.9684684498766
7907 -777.3717938077752
7908 -777.1030743341937
7909 -777.5203306056067
7910 -777.2730331927035
7911 -777.7033636181486
7912 -777.4802734906254
7913 -777.9098131824594
7914 -777.7138297706167
7915 -778.1194363853411
7916 -777.9364729235999
7917 -778.3632248671375
7918 -778.2213182387267
7919 -778.6366279475099
7920 -778.4629464540502
7921 -778.8971285877155
7922 -778.7212918502764
7923 -779.1399834902865
7924 -778.9582193859243
7925 -779.3828657851922
7926 -779.2086352738434
7927 -779.6445672611363
7928 -779.432806844538
7929 -779.8310832016356
7930 -779.637459460111
7931 -780.0450764165939
7932 -779.816466956569
7933 -780.219114431824
7934 -779.9874838665345
7935 -780.3671048398916
7936 -780.1180143313585
7937 -780.4795251894301
7938 -780.2240449086438
7939 -780.5393665769643
7940 -780.2751058635823
7941 -780.5783862754774
7942 -780.2903611166749
7943 -780.5575502358563
7944 -780.1922256386254
7945 -780.4349728081686
7946 -780.0643516351366
7947 -780.2759800800922
7948 -779.9033153626805
7949 -780.1059084885829
7950 -779.7137936979012
7951 -779.8512271840806
7952 -779.4145243601617
7953 -779.5689120859781
7954 -779.1471633635703
7955 -779.2577190693484
7956 -778.7011796809036
7957 -778.8439882419569
7958 -778.3654136955857
7959 -778.4704659185766
7960 -777.9959642441879
7961 -778.1019016855133
7962 -777.630556846594
7963 -777.6439477747325
7964 -777.140974010249
7965 -777.2363914292989
7966 -776.7362176620618
7967 -776.7021789904946
7968 -776.2319445645107
7969 -776.2852781931549
7970 -775.7012168018696
7971 -775.7877255166795
7972 -775.3079768671757
7973 -775.3530879662887
7974 -774.8651121066579
7975 -774.90859394499
7976 -774.4223262236217
7977 -774.4923591401732
7978 -774.0200314698345
7979 -774.0986023870437
7980 -773.6320366108705
7981 -773.7362874193241
7982 -773.2637386205006
7983 -773.3690353278829
7984 -772.9029797278946
7985 -773.0128212467572
7986 -772.5712189124048
7987 -772.707562789015
7988 -772.2304226947344
7989 -772.3885311255573
7990 -771.9171436170182
7991 -772.0775523321641
7992 -771.6226560110421
7993 -771.7635565421158
7994 -771.2941534458827
7995 -771.4510576953421
7996 -770.9763110549834
7997 -771.1802320145708
7998 -770.7498955561488
7999 -770.9167982846155
8000 -770.5013667824176
8001 -770.6657792561206
8002 -770.2656965336266
8003 -770.4494185384916
8004 -770.0115160551157
8005 -770.1973285695474
8006 -769.8041439917447
8007 -769.9662607192179
8008 -769.5719193709048
8009 -769.755070903613
8010 -769.370788864425
8011 -769.5509780199657
8012 -769.1514458054221
8013 -769.3563817529199
8014 -769.0197270060636
8015 -769.2059128396057
8016 -768.8599884692325
8017 -769.0578121285031
8018 -768.690110145704
8019 -768.8896391493266
8020 -768.5376610470214
8021 -768.7464021592585
8022 -768.4062299958624
8023 -768.6448663745726
8024 -768.301188250877
8025 -768.5649191965171
8026 -768.2343534319817
8027 -768.5361908515781
8028 -768.218403584268
8029 -768.5208045253092
8030 -768.1979331885841
8031 -768.5235586840297
8032 -768.2145435721424
8033 -768.5440226804266
8034 -768.2202327302033
8035 -768.5803921594219
8036 -768.2879158368929
8037 -768.6392348506383
8038 -768.3577325893045
8039 -768.721807552604
8040 -768.4637093392844
8041 -768.8300477259419
8042 -768.5763090673163
8043 -768.904158421846
8044 -768.6695712209464
8045 -768.9942460006789
8046 -768.8009060195533
8047 -769.1164086099914
8048 -768.9076520006228
8049 -769.243753891753
8050 -769.0187493891102
8051 -769.3672493023347
8052 -769.1436666385559
8053 -769.4786311950866
8054 -769.2373249506179
8055 -769.5330285920786
8056 -769.2936708030908
8057 -769.6130959584785
8058 -769.3382102755908
8059 -769.6437761488088
8060 -769.3372645011702
8061 -769.6487583646389
8062 -769.3479091569353
8063 -769.6787918714666
8064 -769.3323353810364
8065 -769.6529602680706
8066 -769.3392472000594
8067 -769.6321438911859
8068 -769.3266599196547
8069 -769.6206884332368
8070 -769.2646791948744
8071 -769.5305961637137
8072 -769.2525417332317
8073 -769.5315606909154
8074 -769.248419436779
8075 -769.5414199818939
8076 -769.2683339966401
8077 -769.6112736388311
8078 -769.3624894415952
8079 -769.7182678673076
8080 -769.4307697538807
8081 -769.8481858035309
8082 -769.5702803513639
8083 -770.0334220848174
8084 -769.8075417511405
8085 -770.3315174202172
8086 -770.1817559417202
8087 -770.697046519126
8088 -770.4968788345881
8089 -771.1112384539342
8090 -770.9676016357899
8091 -771.590875471487
8092 -771.4525902567616
8093 -772.1380563513179
8094 -772.0751905035411
8095 -772.8065524704083
8096 -772.7398129171709
8097 -773.3942702514514
8098 -773.4723361085112
8099 -774.1517756563853
8100 -774.2191147100676
8101 -774.9102175226317
8102 -774.9788770542899
8103 -775.6902255708852
8104 -775.857465025544
8105 -776.5898106378521
8106 -776.7588929531752
8107 -777.5138619909411
8108 -777.6424200248812
8109 -778.4537409787939
8110 -778.5222774389056
8111 -779.2815499944137
8112 -779.4186517943983
8113 -780.2623551139816
8114 -780.435491412446
8115 -781.2747138460497
8116 -781.3904153928106
8117 -782.2133036251989
8118 -782.3297721267681
8119 -783.1354217835636
8120 -783.1957739302418
8121 -783.980448222791
8122 -784.0403100804049
8123 -784.7641996827282
8124 -784.6551466455251
8125 -785.3288919526811
8126 -785.1249950047858
8127 -785.6854782894295
8128 -785.5057666061283
8129 -785.9779119154185
8130 -785.6717354505571
8131 -786.0548284267849
8132 -785.6537941391261
8133 -785.9712784563139
8134 -785.5058641998893
8135 -785.7734677023245
8136 -785.2427044378696
8137 -785.4700600529621
8138 -784.9235215805696
8139 -785.0993755382556
8140 -784.5133792827179
8141 -784.6665240340653
8142 -784.025104129171
8143 -784.2088501836872
8144 -783.5439351696674
8145 -783.6754693182544
8146 -783.0718170511309
8147 -783.192452479397
8148 -782.5718943695852
8149 -782.7162094083985
8150 -782.1913326795377
8151 -782.367217906638
8152 -781.8378447313632
8153 -782.0209686971282
8154 -781.5066842533956
8155 -781.7235434732777
8156 -781.2785415592392
8157 -781.5334742437415
8158 -781.1797241890968
8159 -781.4431898342837
8160 -781.1454776743025
8161 -781.5084273920199
8162 -781.2522396355303
8163 -781.6064765012353
8164 -781.4163398724752
8165 -781.8883136702749
8166 -781.7892952389642
8167 -782.3476322015619
8168 -782.2544212947429
8169 -782.9159187422119
8170 -782.8940191324189
8171 -783.5799923052643
8172 -783.5881146730495
8173 -784.2754948108521
8174 -784.2848616302265
8175 -784.984946284775
8176 -784.9458025302002
8177 -785.6653835828174
8178 -785.6038930544264
8179 -786.2992002604245
8180 -786.1345056625291
8181 -786.7187037118644
8182 -786.4725383233687
8183 -786.9795390793377
8184 -786.6342454645396
8185 -787.0705270428526
8186 -786.6372714541222
8187 -786.9367952469214
8188 -786.429678176546
8189 -786.6297890991082
8190 -786.0627234158871
8191 -786.1732000142761
8192 -785.496154105831
8193 -785.5602615978777
8194 -784.8889002458865
8195 -784.8515055873562
8196 -784.135485433808
8197 -784.0887014172135
8198 -783.3349966596903
8199 -783.2729381934643
8200 -782.513737200958
8201 -782.4697278066951
8202 -781.7080709184338
8203 -781.6151397909895
8204 -780.8829534027109
8205 -780.799130127258
8206 -780.0800046230825
8207 -780.0254646719693
8208 -779.3160488649554
8209 -779.3187690641994
8210 -778.6461525285683
8211 -778.6792861842741
8212 -778.0219622627211
8213 -778.1287165815604
8214 -777.5127485697757
8215 -777.6911254336322
8216 -777.1648452684681
8217 -777.3601114653139
8218 -776.9094553753466
8219 -777.1167241077364
8220 -776.6665125526666
8221 -776.9893801084988
8222 -776.590470141251
8223 -776.9152196196037
8224 -776.5949919943243
8225 -776.932079297295
8226 -776.6217356122908
8227 -777.0348666791457
8228 -776.7475847906226
8229 -777.1693463275684
8230 -776.8480724259355
8231 -777.2918616440388
8232 -776.9911248140152
8233 -777.4322501035498
8234 -777.0838655296199
8235 -777.4613246610902
8236 -777.0933601940316
8237 -777.4446661205485
8238 -776.9962297504661
8239 -777.2886185110782
8240 -776.8202336936749
8241 -777.0952764551344
8242 -776.5859971792413
8243 -776.7753255163436
8244 -776.2016410171666
8245 -776.3506355049001
8246 -775.7095097344634
8247 -775.9031316220679
8248 -775.2609117545182
8249 -775.3134733780158
8250 -774.739054748413
8251 -774.7279316218101
8252 -774.0438953830063
8253 -774.1592972613773
8254 -773.4523003398109
8255 -773.3920238672517
8256 -772.8657785788196
8257 -772.7891945847582
8258 -772.254910435017
8259 -772.1735540249801
8260 -771.5396344082042
8261 -771.5339074577478
8262 -770.9285238168796
8263 -770.9510968431609
8264 -770.3569832212288
8265 -770.4292367927262
8266 -769.8606225391129
8267 -769.9954954911392
8268 -769.4669757095276
8269 -769.628967178655
8270 -769.1341206803468
8271 -769.3257475279972
8272 -768.816871251478
8273 -769.0375485482167
8274 -768.5652877050402
8275 -768.8776341606814
8276 -768.4263236225593
8277 -768.7917860353064
8278 -768.3506029802279
8279 -768.7215903834718
8280 -768.319188056362
8281 -768.7223149190868
8282 -768.3458607021782
8283 -768.7380200559186
8284 -768.392839067969
8285 -768.8022361929063
8286 -768.4806067125152
8287 -768.8450754074026
8288 -768.5493513557365
8289 -768.9455749327708
8290 -768.6197025031826
8291 -768.9602938868792
8292 -768.6430686565669
8293 -768.9848058413367
8294 -768.5949367929614
8295 -768.866111655248
8296 -768.4465624367621
8297 -768.69253627271
8298 -768.2132385254018
8299 -768.4413594535904
8300 -767.9328466045804
8301 -768.1235952814686
8302 -767.5652783296867
8303 -767.7510717279677
8304 -767.2391226657759
8305 -767.3588634987217
8306 -766.7857114602684
8307 -766.9870264446972
8308 -766.4545982457099
8309 -766.5949854029544
8310 -766.028933431765
8311 -766.2378343089498
8312 -765.6981741097131
8313 -765.8748517707778
8314 -765.3261837816253
8315 -765.5848734265547
8316 -765.1228156751383
8317 -765.3975206925035
8318 -764.9591815871415
8319 -765.2664046645801
8320 -764.8990785099286
8321 -765.2482198463747
8322 -764.8964387177393
8323 -765.3289910334255
8324 -765.0485451451576
8325 -765.4383951565135
8326 -765.2320246183644
8327 -765.6883166321534
8328 -765.5193543759123
8329 -766.0528549978879
8330 -765.872319649321
8331 -766.4208423528631
8332 -766.3361843332937
8333 -766.8796634034093
8334 -766.8303474123777
8335 -767.397394404878
8336 -767.4032830348239
8337 -767.9694590135327
8338 -767.917910588289
8339 -768.4790244531644
8340 -768.468808515762
8341 -769.0331568035429
8342 -769.0006148979791
8343 -769.5686483346329
8344 -769.5567914445086
8345 -770.250507551338
8346 -770.1082372842033
8347 -770.7143201893421
8348 -770.6565195124892
8349 -771.2544638039915
8350 -771.0901644922593
8351 -771.5834684797969
8352 -771.4654353524949
8353 -771.8776285538345
8354 -771.7365142048127
8355 -772.1873014820598
8356 -771.9434103761441
8357 -772.3461220725186
8358 -772.1063202450279
8359 -772.4660866806862
8360 -772.2112743148967
8361 -772.5506647702122
8362 -772.2747508893569
8363 -772.5790931646104
8364 -772.2841133042526
8365 -772.5591781248595
8366 -772.2577512154809
8367 -772.5376369561327
8368 -772.159527033961
8369 -772.4049670967355
8370 -771.9754376613554
8371 -772.2020915141156
8372 -771.7964902523776
8373 -772.0512942176611
8374 -771.6048319088184
8375 -771.8438445834663
8376 -771.3716996077711
8377 -771.6590474170018
8378 -771.2415571806305
8379 -771.5512153409513
8380 -771.1318877296745
8381 -771.4353130412352
8382 -771.1047698004744
8383 -771.4669758040443
8384 -771.1422270293484
8385 -771.5154209656638
8386 -771.2328609525514
8387 -771.613208051847
8388 -771.4205992663506
8389 -771.8644709906861
8390 -771.7198493297234
8391 -772.2485896628991
8392 -772.2258902340784
8393 -772.7328845621857
8394 -772.6856936033666
8395 -773.2936273259227
8396 -773.2952367273663
8397 -773.8808679958717
8398 -773.9247252463929
8399 -774.5829388178591
8400 -774.6644940155065
8401 -775.3603458118232
8402 -775.5284959962593
8403 -776.2497425086443
8404 -776.3978034420803
8405 -777.0782558489817
8406 -777.157419761648
8407 -777.8144392818911
8408 -777.8486025364828
8409 -778.4227216808501
8410 -778.4066949290731
8411 -778.866793391797
8412 -778.6796579881108
8413 -779.0682928190854
8414 -778.730302818106
8415 -779.0127164681387
8416 -778.5515285479945
8417 -778.7328900820733
8418 -778.1746976988615
8419 -778.2518031311823
8420 -777.5369809222486
8421 -777.516057317352
8422 -776.7662444947359
8423 -776.6689086529364
8424 -775.8186752808751
8425 -775.6742833519647
8426 -774.7842789872826
8427 -774.5880822153149
8428 -773.6395378524371
8429 -773.4255812113906
8430 -772.5036054271027
8431 -772.322996886597
8432 -771.4337105512062
8433 -771.2237521214387
8434 -770.3283792059565
8435 -770.1482860833637
8436 -769.2762935831121
8437 -769.1304467000656
8438 -768.3223349091945
8439 -768.2238563652124
8440 -767.4005541115559
8441 -767.3363514112673
8442 -766.6448930626435
8443 -766.6561687993203
8444 -766.0377263178175
8445 -766.101718049139
8446 -765.5355231015266
8447 -765.6475578424926
8448 -765.1367184184712
8449 -765.3113454603142
8450 -764.9094387203097
8451 -765.1772089446109
8452 -764.8037929087625
8453 -765.1162872238915
8454 -764.8168657254027
8455 -765.2037040772174
8456 -764.9239064165488
8457 -765.3844504206301
8458 -765.1583386106777
8459 -765.6567801973374
8460 -765.4718688424176
8461 -765.9653101058522
8462 -765.8879718075345
8463 -766.4901571457476
8464 -766.3885125382232
8465 -766.9246344590015
8466 -766.9170808836965
8467 -767.4747681594198
8468 -767.4792050688782
8469 -768.0837465969745
8470 -768.0961536267948
8471 -768.6982989804541
8472 -768.6822894220958
8473 -769.2624598445021
8474 -769.2510809063504
8475 -769.8152936917844
8476 -769.7967575677014
8477 -770.3475930006746
8478 -770.2772744767592
8479 -770.7970493188003
8480 -770.7151395193883
8481 -771.1693559304962
8482 -771.0577969075193
8483 -771.4771023429946
8484 -771.334411141648
8485 -771.7535295798834
8486 -771.5768951125583
8487 -771.9961220569076
8488 -771.7565119634113
8489 -772.1082653477229
8490 -771.7995499967994
8491 -772.180816783133
8492 -771.7607570195241
8493 -772.1299779652644
8494 -771.7067727346279
8495 -772.0263695383048
8496 -771.5989387041531
8497 -771.9408494056919
8498 -771.5036094175823
8499 -771.8201331089696
8500 -771.3599122503983
8501 -771.6651650420985
8502 -771.2427657849104
8503 -771.5201199815765
8504 -771.064727528872
8505 -771.3362029657688
8506 -770.8811640185056
8507 -771.1536350717618
8508 -770.710545901897
8509 -770.9092030898432
8510 -770.5102946150512
8511 -770.6938288098248
8512 -770.2513399884307
8513 -770.4324975649532
8514 -769.9762008551922
8515 -770.1890266662055
8516 -769.6974324193011
8517 -769.8876113934244
8518 -769.4200777002499
8519 -769.6127020550829
8520 -769.0866086853711
8521 -769.2672809929679
8522 -768.7597905870283
8523 -768.9738945655536
8524 -768.4548116446306
8525 -768.6493567745684
8526 -768.0439593516154
8527 -768.2586908467943
8528 -767.7863432652842
8529 -767.9617220573767
8530 -767.5216734995636
8531 -767.7528520586065
8532 -767.2424374138606
8533 -767.5216395457555
8534 -767.0353182546068
8535 -767.2654467208679
8536 -766.8144750696903
8537 -767.091559565589
8538 -766.6638146751745
8539 -766.9234643226503
8540 -766.5316673330844
8541 -766.8060830290354
8542 -766.4552790362651
8543 -766.7306901645987
8544 -766.3575173843666
8545 -766.6445120439687
8546 -766.3140886392949
8547 -766.6335666807748
8548 -766.3082873528022
8549 -766.6347170240807
8550 -766.3606987571325
8551 -766.7013354503358
8552 -766.4129081082186
8553 -766.7373898483021
8554 -766.5114648087114
8555 -766.8495419195282
8556 -766.5907529380623
8557 -766.9268314484824
8558 -766.6502541651055
8559 -766.9949177454463
8560 -766.7019169939826
8561 -767.0187244631603
8562 -766.7024397254231
8563 -766.9955843720696
8564 -766.6701509925274
8565 -766.9647578879695
8566 -766.5899377131765
8567 -766.8605269983999
8568 -766.4454047758477
8569 -766.7164864700786
8570 -766.2580690178459
8571 -766.5040676964369
8572 -765.9956879756495
8573 -766.2347932018957
8574 -765.6801146157094
8575 -765.8825648758185
8576 -765.3906653122579
8577 -765.4499023528532
8578 -764.935594678004
8579 -764.9734461977608
8580 -764.4448563181548
8581 -764.4849315462242
8582 -763.9650541790193
8583 -763.9970811746263
8584 -763.4918054462294
8585 -763.4790502933838
8586 -762.9636699354901
8587 -762.9664668024957
8588 -762.4714251215004
8589 -762.4817855213383
8590 -761.9910587305452
8591 -762.0556336835654
8592 -761.5785646764582
8593 -761.6263998130162
8594 -761.0775124821234
8595 -761.2376637677747
8596 -760.7246956597306
8597 -760.9498874114987
8598 -760.4288094226646
8599 -760.6539231019292
8600 -760.1826076930553
8601 -760.4398182286022
8602 -759.9872483970032
8603 -760.2807797425198
8604 -759.8582677554585
8605 -760.1432935887609
8606 -759.7699783472398
8607 -760.0923365799083
8608 -759.7559058806152
8609 -760.0779905597545
8610 -759.780676763022
8611 -760.1104323351421
8612 -759.8502504477198
8613 -760.1888393730109
8614 -759.9261402962768
8615 -760.2443143893578
8616 -759.9612183357459
8617 -760.3094292993787
8618 -760.0255106553805
8619 -760.3454945767503
8620 -760.0762370373543
8621 -760.3955374537433
8622 -760.0728062207621
8623 -760.3828391875287
8624 -760.0415888245575
8625 -760.3558429757694
8626 -760.0507320211477
8627 -760.3116053313366
8628 -759.973018248163
8629 -760.2051653059082
8630 -759.864489036094
8631 -760.0978572759118
8632 -759.7692599778053
8633 -759.9931649573235
8634 -759.6374628629239
8635 -759.8479758382241
8636 -759.5016954678085
8637 -759.7091785071498
8638 -759.3590873882894
8639 -759.5416736994827
8640 -759.2104988410341
8641 -759.4240946851648
8642 -759.1009534663528
8643 -759.3231343647269
8644 -758.9868391580017
8645 -759.229538826174
8646 -758.858996433795
8647 -759.1492766826657
8648 -758.7630272776317
8649 -759.0739489313365
8650 -758.7454207970814
8651 -759.0651076233921
8652 -758.7375352536524
8653 -759.0706594865742
8654 -758.7835889898878
8655 -759.1195321588049
8656 -758.8429888113257
8657 -759.1950619953865
8658 -758.9589585210663
8659 -759.3454904142819
8660 -759.1350951479253
8661 -759.5631122489206
8662 -759.348512758
8663 -759.7890938974806
8664 -759.5994133218111
8665 -760.1544645027615
8666 -759.9634922991231
8667 -760.4671009802616
8668 -760.2751313538587
8669 -760.8667898728065
8670 -760.6632078618767
8671 -761.1930155525662
8672 -761.0744845189619
8673 -761.5852736850677
8674 -761.4323196131916
8675 -762.0729199679291
8676 -761.8737880690446
8677 -762.3918890678956
8678 -762.2896084335435
8679 -762.8043276043101
8680 -762.7272672759304
8681 -763.2505238862971
8682 -763.142635568416
8683 -763.6624893389695
8684 -763.5427224012568
8685 -764.0887496279795
8686 -764.0109600436664
8687 -764.5045270521038
8688 -764.4286191670028
8689 -764.9960266432486
8690 -764.8105059664659
8691 -765.3877051123908
8692 -765.2492487979597
8693 -765.8118357569451
8694 -765.6187053993826
8695 -766.2123124344083
8696 -766.077239552259
8697 -766.6479125722286
8698 -766.4741330311975
8699 -767.0193858808885
8700 -766.8469448244283
8701 -767.3716652737677
8702 -767.1637257338408
8703 -767.6586364694451
8704 -767.4265283513034
8705 -767.8991234439474
8706 -767.6460428598966
8707 -768.0752185317973
8708 -767.7675806639802
8709 -768.1823401656861
8710 -767.8242302379011
8711 -768.1842801146796
8712 -767.7715402145675
8713 -768.0509344500479
8714 -767.5458985562325
8715 -767.8739260614067
8716 -767.3157684138881
8717 -767.6102362113987
8718 -767.0606566687102
8719 -767.3554670399089
8720 -766.7477724518095
8721 -766.9870265737924
8722 -766.3726474906898
8723 -766.6770068660027
8724 -766.0759409312208
8725 -766.3305335798309
8726 -765.7716936547265
8727 -766.0480463868661
8728 -765.4673318716364
8729 -765.6800817280755
8730 -765.1192002798026
8731 -765.3599959524928
8732 -764.8532216293792
8733 -765.1683415853748
8734 -764.6839399527256
8735 -764.9899077637799
8736 -764.5457135546786
8737 -764.9192625314161
8738 -764.5592674071577
8739 -764.9563431589814
8740 -764.6947292666697
8741 -765.1121308630597
8742 -764.8540606095147
8743 -765.325276647509
8744 -765.1182113954869
8745 -765.6260973468858
8746 -765.4477256856889
8747 -766.0248666297632
8748 -765.9039555386719
8749 -766.5318848638586
8750 -766.4518289691183
8751 -767.144609785639
8752 -766.9983247271095
8753 -767.7801007837068
8754 -767.7829997911963
8755 -768.4309067011295
8756 -768.4601794529378
8757 -769.1302680495435
8758 -769.1917597149525
8759 -769.8877937829438
8760 -769.8961219476796
8761 -770.5766170059348
8762 -770.6106928601457
8763 -771.2806985301346
8764 -771.2344451571585
8765 -771.8460423674246
8766 -771.7409189495802
8767 -772.3060491389097
8768 -772.1102334143799
8769 -772.6208997838962
8770 -772.4071649842114
8771 -772.8380428273462
8772 -772.5223679615383
8773 -772.906383245593
8774 -772.4977947105945
8775 -772.8129094087832
8776 -772.3580934661891
8777 -772.6186107551312
8778 -772.1174704546355
8779 -772.363155933631
8780 -771.8115228446712
8781 -772.0236564905557
8782 -771.4095122590744
8783 -771.6222045175285
8784 -770.9994336677335
8785 -771.1485395960223
8786 -770.4720165674723
8787 -770.6330321026205
8788 -769.9276463728216
8789 -770.0943609475273
8790 -769.4361071850977
8791 -769.6080370577105
8792 -768.9803188344238
8793 -769.1251786444288
8794 -768.6154411898953
8795 -768.7899740371651
8796 -768.2338223079669
8797 -768.4505798553207
8798 -767.9581842779127
8799 -768.1960385730581
8800 -767.7905201716042
8801 -768.1127837365595
8802 -767.745968659754
8803 -768.0995880816381
8804 -767.7356338095517
8805 -768.1510721195816
8806 -767.8076996059782
8807 -768.2920559678597
8808 -768.0020487465991
8809 -768.4904239869207
8810 -768.2239668956364
8811 -768.8457462515437
8812 -768.6549908631288
8813 -769.1696583349279
8814 -769.015706259936
8815 -769.67095551353
8816 -769.5292299215581
8817 -770.1535122735908
8818 -769.9672452589217
8819 -770.6801446585733
8820 -770.5695141566816
8821 -771.2013110209331
8822 -771.1060694959092
8823 -771.770526881594
8824 -771.6735888778887
8825 -772.3042207167778
8826 -772.1496065718432
8827 -772.7659058074906
8828 -772.6548030642133
8829 -773.2682505007745
8830 -773.0774899536901
8831 -773.6267711109253
8832 -773.4484565670255
8833 -773.9519954281277
8834 -773.731997284836
8835 -774.2393757259672
8836 -773.97683266146
8837 -774.4351503576271
8838 -774.0856793680445
8839 -774.4937049514652
8840 -774.1614679983578
8841 -774.5426260213414
8842 -774.1398031255994
8843 -774.4927057042194
8844 -774.0748789982308
8845 -774.3613931692684
8846 -773.8447995370485
8847 -774.0971513713214
8848 -773.586553727925
8849 -773.7967413516898
8850 -773.273938640341
8851 -773.4440981006852
8852 -772.9102212972487
8853 -772.9720460459773
8854 -772.3888044791898
8855 -772.4460003260385
8856 -771.8549298532681
8857 -771.889077457846
8858 -771.155412629338
8859 -771.2925775045119
8860 -770.4997375730861
8861 -770.5350800508699
8862 -769.8927345052078
8863 -769.8846123613226
8864 -769.1476073415457
8865 -769.1938044061125
8866 -768.5724971352789
8867 -768.6289349443421
8868 -767.934673242036
8869 -768.055266105399
8870 -767.3758862461069
8871 -767.5025996712834
8872 -766.8895134469971
8873 -767.0802946212654
8874 -766.5062195713522
8875 -766.7008782499884
8876 -766.1770354737026
8877 -766.4173430774589
8878 -765.9235038211173
8879 -766.2152903929012
8880 -765.7865086530438
8881 -766.0794423208773
8882 -765.7212700105482
8883 -766.0231973550173
8884 -765.6219511851588
8885 -765.9587623050061
8886 -765.6449819124165
8887 -766.0030556452551
8888 -765.6838334203986
8889 -766.0886557526431
8890 -765.7974765212576
8891 -766.2086848272305
8892 -765.9797301026354
8893 -766.3724455958205
8894 -766.1378961735627
8895 -766.522060362651
8896 -766.2460390027004
8897 -766.6300361885283
8898 -766.3883191030257
8899 -766.7719081260274
8900 -766.4965298669817
8901 -766.8428671051018
8902 -766.4833254966113
8903 -766.8164386411078
8904 -766.4262464469887
8905 -766.729843897417
8906 -766.3353341811463
8907 -766.5851620470269
8908 -766.1443846406779
8909 -766.3906558655857
8910 -765.9376668703977
8911 -766.1450202652323
8912 -765.6369595013699
8913 -765.8425292869003
8914 -765.3336807108282
8915 -765.4932465190684
8916 -765.0019877368489
8917 -765.1895812841296
8918 -764.6532792071245
8919 -764.811025825202
8920 -764.2560931971742
8921 -764.4667129819595
8922 -763.9107127309104
8923 -764.1305920893773
8924 -763.573768670691
8925 -763.766709668471
8926 -763.1935518624381
8927 -763.4299375030197
8928 -762.8598884924315
8929 -763.1073743753999
8930 -762.5635873438652
8931 -762.7881950763211
8932 -762.2833454619965
8933 -762.5271703485199
8934 -762.0144330244948
8935 -762.2666269403323
8936 -761.8059332160055
8937 -762.0587358981948
8938 -761.5938521510946
8939 -761.8869205181232
8940 -761.4770322830651
8941 -761.8186963044583
8942 -761.4401556455194
8943 -761.7967276739444
8944 -761.4278491732415
8945 -761.7870267140654
8946 -761.4336178776985
8947 -761.7700271938589
8948 -761.3982215078247
8949 -761.7653973394155
8950 -761.3513654038728
8951 -761.7362132856293
8952 -761.2953949547408
8953 -761.6660243572035
8954 -761.207812848031
8955 -761.5424658657662
8956 -761.0675782025066
8957 -761.3734459000154
8958 -760.833262171824
8959 -761.0526403678717
8960 -760.5126153507084
8961 -760.6984073317745
8962 -760.1710210212292
8963 -760.365345544405
8964 -759.7558104296941
8965 -759.9101709918116
8966 -759.2841709360691
8967 -759.4555581130568
8968 -758.8981158148424
8969 -759.0366523708477
8970 -758.4241166500954
8971 -758.592470270714
8972 -758.0273289614772
8973 -758.2212921389588
8974 -757.6367515996942
8975 -757.8180441343972
8976 -757.3041960420273
8977 -757.5318632075961
8978 -757.0660381826044
8979 -757.3339853456135
8980 -756.9493264405691
8981 -757.2801859208372
8982 -756.9340264026655
8983 -757.3241206143009
8984 -757.0090660679266
8985 -757.4858926126282
8986 -757.2614707925339
8987 -757.7397891354713
8988 -757.5854285762215
8989 -758.2194081258401
8990 -758.0784078166963
8991 -758.711065376946
8992 -758.6163368486923
8993 -759.1967772068352
8994 -759.1282803163791
8995 -759.8701675587353
8996 -759.8492413034734
8997 -760.4809281721317
8998 -760.4858411792338
8999 -761.3398085948762
9000 -761.2710469282628
9001 -762.0751389413292
9002 -762.1113175934787
9003 -762.8005729210081
9004 -762.9093432457984
9005 -763.598734599442
9006 -763.6438811336827
9007 -764.3079459016482
9008 -764.3056631823749
9009 -764.9466717829258
9010 -764.8805812119595
9011 -765.4862420537821
9012 -765.390524061909
9013 -765.9659677043991
9014 -765.7735962023716
9015 -766.3152330203205
9016 -766.0924096186067
9017 -766.5725275268286
9018 -766.2518197522761
9019 -766.6604859695465
9020 -766.2701283995657
9021 -766.6013859033383
9022 -766.1866096959827
9023 -766.4868051608336
9024 -766.0329771421486
9025 -766.3011158596041
9026 -765.8293497869809
9027 -766.0579262394632
9028 -765.6163596132452
9029 -765.8174262582839
9030 -765.2778258276202
9031 -765.4860436647625
9032 -765.0034563254248
9033 -765.183178684695
9034 -764.6546861360511
9035 -764.893398244226
9036 -764.3745998046289
9037 -764.6230063458389
9038 -764.0762050545156
9039 -764.324344836514
9040 -763.846746211619
9041 -764.1472931627706
9042 -763.675955915886
9043 -764.0305372185442
9044 -763.6575734453784
9045 -764.0454859911413
9046 -763.7188418382186
9047 -764.131727619136
9048 -763.857589402378
9049 -764.2844386252947
9050 -764.1041212505961
9051 -764.597254103721
9052 -764.4214226521756
9053 -765.0174357137593
9054 -764.8397248716634
9055 -765.3948652385174
9056 -765.3660129444194
9057 -765.9359053736422
9058 -765.8373646686198
9059 -766.6215586712075
9060 -766.5730904095085
9061 -767.3717965160237
9062 -767.3051757229017
9063 -768.1770514720596
9064 -768.1308268324002
9065 -769.0155185691051
9066 -768.9419654102685
9067 -769.7772430655996
9068 -769.6931308342329
9069 -770.5230366390371
9070 -770.4278941515404
9071 -771.1912549446868
9072 -771.0817427360629
9073 -771.7990354622964
9074 -771.6447720398517
9075 -772.2545559258277
9076 -772.0530130276132
9077 -772.61400563036
9078 -772.3836369709024
9079 -772.7863339100222
9080 -772.5347167451406
9081 -772.8920397836921
9082 -772.556757074954
9083 -772.8889612652359
9084 -772.500266014864
9085 -772.7580635668855
9086 -772.2516492187179
9087 -772.469399751837
9088 -771.9518338666315
9089 -772.1355816379776
9090 -771.5825994400451
9091 -771.7519982166303
9092 -771.1533164274042
9093 -771.2748202881025
9094 -770.626698442896
9095 -770.7142979808743
9096 -770.0479577807552
9097 -770.140170834019
9098 -769.4818191041832
9099 -769.5599514902927
9100 -768.9189530836824
9101 -769.054058635804
9102 -768.5082954640352
9103 -768.6555382687918
9104 -767.9980856066443
9105 -768.201512812193
9106 -767.6009166764908
9107 -767.7496949639276
9108 -767.228972325354
9109 -767.4159004400653
9110 -766.9364939088838
9111 -767.1166298188174
9112 -766.6669516928632
9113 -766.8894700123572
9114 -766.4822210298182
9115 -766.7529621723347
9116 -766.3867938264742
9117 -766.7020291339859
9118 -766.3449518558868
9119 -766.6756201717674
9120 -766.367257966097
9121 -766.7436744448512
9122 -766.42062197901
9123 -766.8355485486846
9124 -766.5606325590011
9125 -767.0194204339485
9126 -766.7701418708481
9127 -767.2924381246495
9128 -767.0374073064955
9129 -767.5524605166551
9130 -767.274162133715
9131 -767.84614561786
9132 -767.5718032062199
9133 -768.061069844833
9134 -767.8329438113451
9135 -768.3757743021799
9136 -768.0530079389009
9137 -768.5880392249653
9138 -768.2845314360069
9139 -768.7228219820907
9140 -768.4335495050741
9141 -768.7871841223432
9142 -768.4148784668643
9143 -768.7773369964143
9144 -768.3402591035582
9145 -768.665185943336
9146 -768.1938798395926
9147 -768.4699481111684
9148 -767.9701976683766
9149 -768.1909295528676
9150 -767.5879742317844
9151 -767.8096447986836
9152 -767.265422518512
9153 -767.4229898069755
9154 -766.7716581126248
9155 -766.9800895778508
9156 -766.3349006246063
9157 -766.5094900323365
9158 -765.8231479229678
9159 -766.02600631306
9160 -765.3318756975101
9161 -765.5071260592413
9162 -764.8872897814417
9163 -765.1066055436128
9164 -764.4757803774786
9165 -764.6718355136173
9166 -764.1582885174037
9167 -764.3284564766601
9168 -763.7555967571124
9169 -763.9734549247571
9170 -763.5118879335868
9171 -763.7408436300132
9172 -763.2598686361755
9173 -763.5128623266323
9174 -763.0492204262154
9175 -763.326077299646
9176 -762.9062270809324
9177 -763.2227950813779
9178 -762.8304130704209
9179 -763.1828108575424
9180 -762.861262180347
9181 -763.2487668125532
9182 -762.9415969874987
9183 -763.4091061447101
9184 -763.1006674227048
9185 -763.496430167007
9186 -763.2334328573551
9187 -763.6852686382192
9188 -763.3982666818882
9189 -763.8655205233695
9190 -763.5555428770871
9191 -764.0460781908938
9192 -763.7131735860871
9193 -764.1639181907283
9194 -763.8464262629545
9195 -764.3300635325718
9196 -764.0044775859005
9197 -764.5077895603305
9198 -764.1674864261436
9199 -764.6232846357444
9200 -764.2784493308299
9201 -764.7582449514579
9202 -764.4156131730955
9203 -764.9431884741629
9204 -764.5818483509836
9205 -765.1543758293799
9206 -764.8635630840879
9207 -765.3581843675917
9208 -765.0877894722001
9209 -765.6578344284112
9210 -765.3663790299856
9211 -765.9761964438973
9212 -765.7271797624597
9213 -766.3093473632119
9214 -766.0956110478173
9215 -766.6972015102531
9216 -766.4963081206165
9217 -767.1057276648648
9218 -766.9541943486672
9219 -767.6278555203342
9220 -767.4587386146039
9221 -768.1938395419025
9222 -768.0710637439985
9223 -768.7897414990329
9224 -768.7441275085063
9225 -769.4392425241851
9226 -769.3979744635452
9227 -770.1886773733075
9228 -770.2152337857751
9229 -770.9725737953753
9230 -770.9907123023834
9231 -771.7895020494574
9232 -771.8344848763253
9233 -772.6364021165758
9234 -772.7137273105393
9235 -773.571218263142
9236 -773.6506100459765
9237 -774.5052868255182
9238 -774.5770466389023
9239 -775.4077992897928
9240 -775.4750481118871
9241 -776.3147368550812
9242 -776.3654520861924
9243 -777.2050304229534
9244 -777.2370017187832
9245 -778.0236509850002
9246 -778.0151200796687
9247 -778.7770600811701
9248 -778.722091076648
9249 -779.3807112991184
9250 -779.2426450151559
9251 -779.9144681325232
9252 -779.6969553259651
9253 -780.2758035210999
9254 -780.0100311385315
9255 -780.5536236342217
9256 -780.2628139667879
9257 -780.811832649115
9258 -780.4797056419397
9259 -780.9280507309078
9260 -780.5725112258938
9261 -781.022121837906
9262 -780.6426826805829
9263 -781.0519182360591
9264 -780.6121591747171
9265 -781.0199540267868
9266 -780.5772577099081
9267 -780.8935437714755
9268 -780.4053164359369
9269 -780.7604214502766
9270 -780.2679391229136
9271 -780.5613335527703
9272 -780.0670264651243
9273 -780.3964389628097
9274 -779.9058759830181
9275 -780.2367386870536
9276 -779.7546355738855
9277 -780.125008486419
9278 -779.6186637529394
9279 -779.9945374221815
9280 -779.5178038982415
9281 -779.9252990633855
9282 -779.4779903441555
9283 -779.9115774933488
9284 -779.4874537087935
9285 -779.9128069272108
9286 -779.5159384915203
9287 -779.9907465130709
9288 -779.6289956750331
9289 -780.1336583258588
9290 -779.81355554292
9291 -780.3972475201724
9292 -780.1324791316953
9293 -780.7611096585331
9294 -780.5886004872013
9295 -781.3188375948714
9296 -781.1903318096474
9297 -781.9260725752583
9298 -781.8174701861263
9299 -782.5982261640943
9300 -782.5061109648469
9301 -783.2731710167332
9302 -783.1900725319915
9303 -783.9769960079076
9304 -783.8899010205649
9305 -784.6654015900016
9306 -784.5713168112393
9307 -785.3042878361902
9308 -785.1531085735826
9309 -785.7613495996004
9310 -785.6613901910422
9311 -786.3392055715861
9312 -786.1445104193953
9313 -786.7488905750891
9314 -786.4723095684631
9315 -787.0007642294346
9316 -786.695534417915
9317 -787.1673992243668
9318 -786.8443746026887
9319 -787.2805314980378
9320 -786.9039321963705
9321 -787.2814469314408
9322 -786.8779916953249
9323 -787.2537902495039
9324 -786.8037119964126
9325 -787.1956395686806
9326 -786.7625691586562
9327 -787.1322432156426
9328 -786.6857825055278
9329 -787.0650949724849
9330 -786.6137270584643
9331 -786.9914860216786
9332 -786.5931608000839
9333 -786.9698711594222
9334 -786.5665505559446
9335 -786.9394663870063
9336 -786.5655506048423
9337 -786.9544255883005
9338 -786.4883975259316
9339 -786.8795936786364
9340 -786.5032354079763
9341 -786.9558620994875
9342 -786.5604315938737
9343 -787.0261715273998
9344 -786.6452633269191
9345 -787.1396060613896
9346 -786.792262459154
9347 -787.3330500299089
9348 -787.0040476725484
9349 -787.5826128743087
9350 -787.2569353937007
9351 -787.8656852396862
9352 -787.5482296752307
9353 -788.1571595353734
9354 -787.9237900993577
9355 -788.5299868445032
9356 -788.2949571409717
9357 -788.9575482612998
9358 -788.7440114536494
9359 -789.3851251595873
9360 -789.1513290105202
9361 -789.7920489153702
9362 -789.5945590984244
9363 -790.1412167780479
9364 -789.9492282136017
9365 -790.5774443649098
9366 -790.3465228804732
9367 -790.9025206761718
9368 -790.7259795595255
9369 -791.2294435542588
9370 -791.0611064585643
9371 -791.5432140309622
9372 -791.3029679676565
9373 -791.7637341489781
9374 -791.4909497565301
9375 -791.9418167365679
9376 -791.6158311176899
9377 -792.0629750344808
9378 -791.6316742804886
9379 -792.0106339348949
9380 -791.5602819380388
9381 -791.9723753064787
9382 -791.4996917273889
9383 -791.8143242200046
9384 -791.3076184624545
9385 -791.5634905117319
9386 -791.0352074194193
9387 -791.2318857332142
9388 -790.6464194257917
9389 -790.8547196812344
9390 -790.2161870665019
9391 -790.4059569521605
9392 -789.748352781621
9393 -789.9384602081832
9394 -789.3054807568878
9395 -789.4775016934972
9396 -788.8911793611068
9397 -789.1367519831782
9398 -788.5616382805014
9399 -788.7802607265245
9400 -788.2214594908913
9401 -788.5419275054649
9402 -787.9978803770462
9403 -788.2569277426912
9404 -787.789025993034
9405 -788.0597468479524
9406 -787.5968308625174
9407 -787.9029949437099
9408 -787.4645458833128
9409 -787.8203696500854
9410 -787.3779026918817
9411 -787.6869196677333
9412 -787.2942708680926
9413 -787.6265167236176
9414 -787.2627336886688
9415 -787.6146023086661
9416 -787.2316931607305
9417 -787.4849396552265
9418 -787.0971154321275
9419 -787.3267426064598
9420 -786.9790938255755
9421 -787.1825106981712
9422 -786.7269380205641
9423 -786.9645564746869
9424 -786.5469910075037
9425 -786.8171448139459
9426 -786.3131997792931
9427 -786.5256922555529
9428 -786.0679286366992
9429 -786.2576090496004
9430 -785.7755241457487
9431 -786.0360670950753
9432 -785.5015055924187
9433 -785.8165097277644
9434 -785.2967383914895
9435 -785.6110539885855
9436 -785.1307595561858
9437 -785.4529903864352
9438 -785.0401669450479
9439 -785.4145877582814
9440 -785.0523285616936
9441 -785.5371273006202
9442 -785.2019973363542
9443 -785.6228981647815
9444 -785.3626758177894
9445 -785.9077144272125
9446 -785.6618161371362
9447 -786.1935272250968
9448 -785.9941028763772
9449 -786.6147896917777
9450 -786.4957242853048
9451 -787.1334982538006
9452 -787.0351924519808
9453 -787.7447264571298
9454 -787.677571841648
9455 -788.4321996241111
9456 -788.4061133143828
9457 -789.2202343022825
9458 -789.2899029304803
9459 -790.148777464572
9460 -790.2143702551523
9461 -791.1078701491184
9462 -791.2097210554273
9463 -792.0789598652109
9464 -792.1448690942912
9465 -792.9806585850353
9466 -793.0392375498101
9467 -793.8449013544856
9468 -793.8397843524358
9469 -794.5774127637234
9470 -794.4850688732099
9471 -795.1258990804813
9472 -794.9253412443612
9473 -795.4895270425677
9474 -795.205171465848
9475 -795.6843507356423
9476 -795.3067631207199
9477 -795.6979686684538
9478 -795.2642034016773
9479 -795.5776985340017
9480 -795.039180154273
9481 -795.3474753039802
9482 -794.7667747081406
9483 -794.9647023474272
9484 -794.3068852270952
9485 -794.4473997690837
9486 -793.7812585865764
9487 -793.9501490806549
9488 -793.2714528179445
9489 -793.4295909078047
9490 -792.773437889218
9491 -792.9393004025311
9492 -792.2495871965021
9493 -792.437895867975
9494 -791.7803194968777
9495 -791.9707284870874
9496 -791.3101995343704
9497 -791.4509850489442
9498 -790.8445784285623
9499 -791.0970371227488
9500 -790.4748563461515
9501 -790.7806889842784
9502 -790.2768209872451
9503 -790.6643894060602
9504 -790.1926680982671
9505 -790.6097592298502
9506 -790.2355818135444
9507 -790.6977926089573
9508 -790.3452281941302
9509 -790.9234459347915
9510 -790.6607717058102
9511 -791.1871332383976
9512 -790.9541059312704
9513 -791.4983574265129
9514 -791.3103780278105
9515 -791.9884939295658
9516 -791.860140960966
9517 -792.5751932990577
9518 -792.4866807846396
9519 -793.2079707138537
9520 -793.0667536824424
9521 -793.7464367699241
9522 -793.6093680874794
9523 -794.2489582439258
9524 -794.0819059972563
9525 -794.7070317399896
9526 -794.4878107098851
9527 -795.0669367220667
9528 -794.8418011616986
9529 -795.2803497092036
9530 -794.9127123911203
9531 -795.2560924357896
9532 -794.8017925272972
9533 -795.0461411449697
9534 -794.4775731038667
9535 -794.6238118011282
9536 -793.9407309279433
9537 -794.0304035905887
9538 -793.244231329575
9539 -793.2866053194846
9540 -792.4235421019328
9541 -792.4070833495274
9542 -791.471031831356
9543 -791.4163497110824
9544 -790.4317448933235
9545 -790.3201499252776
9546 -789.3804603507491
9547 -789.3225292440666
9548 -788.3034285821219
9549 -788.2230904472648
9550 -787.3140349495102
9551 -787.2251869737687
9552 -786.3099251395013
9553 -786.2364853413629
9554 -785.4169648381524
9555 -785.434396682137
9556 -784.6782309977277
9557 -784.7065823774491
9558 -783.9977836842359
9559 -784.1108590105314
9560 -783.4185521202803
9561 -783.5648029037454
9562 -782.9513192301534
9563 -783.1918926065097
9564 -782.5895634351906
9565 -782.8827752783558
9566 -782.3836882817496
9567 -782.7784797535894
9568 -782.3622264658493
9569 -782.8189373249735
9570 -782.474569974514
9571 -782.9941006071153
9572 -782.6784994036915
9573 -783.2635993721506
9574 -782.9989357976211
9575 -783.5719467955365
9576 -783.3206560979232
9577 -783.9419072567313
9578 -783.7424081280051
9579 -784.3888950734539
9580 -784.2244559022414
9581 -784.858177763006
9582 -784.737809068029
9583 -785.4093313982562
9584 -785.2181631395174
9585 -785.8518246863631
9586 -785.6493626287191
9587 -786.1792250473693
9588 -785.8921773309823
9589 -786.3624134744281
9590 -786.0070092521338
9591 -786.4412947514951
9592 -785.9958794782959
9593 -786.3763588500999
9594 -785.9107652290446
9595 -786.2332935628536
9596 -785.6370332594988
9597 -785.9322272342823
9598 -785.3268196288547
9599 -785.5622219940443
9600 -784.9192708714437
9601 -785.1115360225991
9602 -784.4400978459433
9603 -784.64027665497
9604 -783.9572710848824
9605 -784.1387761420326
9606 -783.4825309088845
9607 -783.6965631743386
9608 -783.0518852417055
9609 -783.2391072209149
9610 -782.6713416264885
9611 -782.96880517802
9612 -782.4550322898783
9613 -782.7340611378933
9614 -782.2578863079096
9615 -782.614543797491
9616 -782.1946512380521
9617 -782.6256994901066
9618 -782.2839843684616
9619 -782.7415716197518
9620 -782.4518666589612
9621 -782.9802895367926
9622 -782.7233750462115
9623 -783.2830918867804
9624 -783.0732815925124
9625 -783.7165527773743
9626 -783.5918824058448
9627 -784.2379674184419
9628 -784.1334149107847
9629 -784.8643743367911
9630 -784.8068345184552
9631 -785.5984605633801
9632 -785.473686074095
9633 -786.286366271499
9634 -786.2165224717504
9635 -787.0069697036135
9636 -786.9031999210189
9637 -787.662039212417
9638 -787.5372915764881
9639 -788.2803689840671
9640 -788.1284371906563
9641 -788.7653157927222
9642 -788.5703199692173
9643 -789.1212678101843
9644 -788.7870377391778
9645 -789.3115339031698
9646 -788.9263223977752
9647 -789.3309531853569
9648 -788.8470795066814
9649 -789.1693439442477
9650 -788.6202799053044
9651 -788.8614941584507
9652 -788.2322874450251
9653 -788.4149758782303
9654 -787.7698802800443
9655 -787.9139728783541
9656 -787.1834441912027
9657 -787.3155002652099
9658 -786.5931143315112
9659 -786.6798147822872
9660 -785.9740006699026
9661 -786.1729969028196
9662 -785.5038246312231
9663 -785.6139808426628
9664 -785.1043735977531
9665 -785.2263843440646
9666 -784.6093382840922
9667 -784.8692089766471
9668 -784.3007464627227
9669 -784.5205294043493
9670 -784.0096000902225
9671 -784.3536542243257
9672 -783.9028103963068
9673 -784.2738043208992
9674 -783.8966033466352
9675 -784.3464415814718
9676 -784.049270927472
9677 -784.5477023912945
9678 -784.3676556059728
9679 -784.9718274562831
9680 -784.7642069662536
9681 -785.4595190362252
9682 -785.4216155073024
9683 -786.0459849566357
9684 -786.0408719810544
9685 -786.7400426952909
9686 -786.778656677513
9687 -787.5016480252393
9688 -787.5214751612011
9689 -788.2657129488466
9690 -788.314054126743
9691 -789.031297325285
9692 -789.0927965413915
9693 -789.7820043922414
9694 -789.805432996539
9695 -790.4919470832292
9696 -790.4873112426727
9697 -791.1292674103214
9698 -791.1013532203165
9699 -791.7093802151717
9700 -791.6206931901622
9701 -792.1297470227123
9702 -791.9810771877202
9703 -792.4581620426612
9704 -792.2310243941102
9705 -792.6916246552344
9706 -792.3322579613356
9707 -792.7083246247037
9708 -792.3275018661826
9709 -792.672023124827
9710 -792.1886429229136
9711 -792.482906146893
9712 -791.9098838448022
9713 -792.1569579167183
9714 -791.5183374921977
9715 -791.7398438092011
9716 -791.0639203179671
9717 -791.1864615419205
9718 -790.570538737206
9719 -790.6843161146518
9720 -789.9384047730942
9721 -790.0752404516085
9722 -789.4506785452926
9723 -789.5688611561428
9724 -788.8548991952185
9725 -788.964563048073
9726 -788.3777196483938
9727 -788.5485396855669
9728 -787.9442823068174
9729 -788.2069017007233
9730 -787.6694071125942
9731 -787.9414312911402
9732 -787.4600248900246
9733 -787.8149564747506
9734 -787.4419662926313
9735 -787.8139853973402
9736 -787.4672146010702
9737 -787.9175190165987
9738 -787.6241326748076
9739 -788.1410639634498
9740 -787.8969369546637
9741 -788.4524555891478
9742 -788.2868338129939
9743 -788.8665049969624
9744 -788.7401527606323
9745 -789.3791326602964
9746 -789.2531768788851
9747 -789.9241979783029
9748 -789.9103437045021
9749 -790.720199107195
9750 -790.5628535062133
9751 -791.3934697496502
9752 -791.415717016554
9753 -792.1175162891165
9754 -792.1414250061326
9755 -792.9650296194624
9756 -792.8719158214874
9757 -793.650301672628
9758 -793.6041774058449
9759 -794.1712942757932
9760 -794.0732137959462
9761 -794.7055019046129
9762 -794.5338543306054
9763 -795.1194618615717
9764 -794.9260673480646
9765 -795.3397660653923
9766 -795.0750055406696
9767 -795.4717414792266
9768 -795.1464465936585
9769 -795.4990598360886
9770 -795.0634300998742
9771 -795.371736161612
9772 -794.8773559285266
9773 -795.1129505371798
9774 -794.5205978458763
9775 -794.7715502478707
9776 -794.0801215466371
9777 -794.2332460622267
9778 -793.5636254532648
9779 -793.6980074874401
9780 -792.9809400466863
9781 -793.071354861395
9782 -792.361036583357
9783 -792.4705447831687
9784 -791.7225360150881
9785 -791.8020921814374
9786 -791.0796633885565
9787 -791.1531692672901
9788 -790.4332248770257
9789 -790.5178900896393
9790 -789.8534441685906
9791 -789.9680864347067
9792 -789.3200482745611
9793 -789.4756977824178
9794 -788.8905179261189
9795 -789.1548626764181
9796 -788.5513126870044
9797 -788.7856965426533
9798 -788.2856515464864
9799 -788.63262791817
9800 -788.1862180432659
9801 -788.5332029282511
9802 -788.1820303000602
9803 -788.6448401075768
9804 -788.3154888424099
9805 -788.8025414395386
9806 -788.6008931076321
9807 -789.139582769711
9808 -788.9006611765278
9809 -789.4660835246506
9810 -789.3211119343131
9811 -789.9978541563553
9812 -789.8739357417872
9813 -790.6154078518531
9814 -790.4388129621356
9815 -791.2296549010441
9816 -791.1771523581281
9817 -791.9564835189342
9818 -791.9148382770067
9819 -792.5992913201266
9820 -792.5853310688448
9821 -793.3763692636122
9822 -793.2173148480266
9823 -793.9995504162566
9824 -793.8495331220118
9825 -794.5388862794704
9826 -794.3624774336976
9827 -795.1041101721177
9828 -794.9174520124861
9829 -795.6346862245582
9830 -795.4303406922389
9831 -796.1417713623889
9832 -795.8974995901964
9833 -796.5434389021814
9834 -796.2833557576043
9835 -796.9179585685246
9836 -796.6225614048105
9837 -797.2198310734545
9838 -796.9459914326673
9839 -797.4609543754451
9840 -797.2148379683384
9841 -797.7883358455832
9842 -797.5218681969342
9843 -798.077877901425
9844 -797.7825041972072
9845 -798.2871323234305
9846 -797.9879551272027
9847 -798.5121359217864
9848 -798.2141273451026
9849 -798.7035512786815
9850 -798.4123294789189
9851 -798.879748993944
9852 -798.5826108610676
9853 -799.0541338237203
9854 -798.7479177580901
9855 -799.304405162183
9856 -799.0436236069519
9857 -799.6133799452444
9858 -799.3990605832957
9859 -799.9896589150044
9860 -799.7874620312066
9861 -800.400676162245
9862 -800.2042264801355
9863 -800.7784656438397
9864 -800.530752717566
9865 -801.1082000076218
9866 -800.8076660364757
9867 -801.3258775276265
9868 -800.9788872951963
9869 -801.4029044703511
9870 -800.9417519507695
9871 -801.3065094880382
9872 -800.8417425973075
9873 -801.1900263114883
9874 -800.6301307620208
9875 -800.9218942240607
9876 -800.363687383086
9877 -800.6751216306203
9878 -800.0361685447589
9879 -800.3111815863429
9880 -799.7024128090414
9881 -799.97591851445
9882 -799.3454720628495
9883 -799.6136860156347
9884 -798.9967250873297
9885 -799.3040268929755
9886 -798.7503416152811
9887 -799.064079033885
9888 -798.4916534048197
9889 -798.8728755734969
9890 -798.3872309586453
9891 -798.732432033402
9892 -798.2768546681577
9893 -798.6462944865484
9894 -798.27659848895
9895 -798.6523382316743
9896 -798.2792456994476
9897 -798.6827654723927
9898 -798.3385941737985
9899 -798.8395101279423
9900 -798.5027824925587
9901 -799.0238067863343
9902 -798.7497200802361
9903 -799.306430882027
9904 -799.0308689940829
9905 -799.6515386668366
9906 -799.4181251532427
9907 -800.1026525222086
9908 -799.8629637045719
9909 -800.5746151894515
9910 -800.38232994106
9911 -801.1036991548945
9912 -800.9118681486923
9913 -801.6784555846134
9914 -801.5187761260818
9915 -802.2644982564204
9916 -802.1307043362011
9917 -802.8505318317735
9918 -802.7138376921929
9919 -803.432399473219
9920 -803.2552128262444
9921 -803.935330781725
9922 -803.6954564976174
9923 -804.2230943468253
9924 -804.0022896783828
9925 -804.5184940850793
9926 -804.1890877137421
9927 -804.6888700783375
9928 -804.2944822540865
9929 -804.7150309320084
9930 -804.2833112959044
9931 -804.6491966122752
9932 -804.1592560040272
9933 -804.5114972225755
9934 -803.9664552698533
9935 -804.2171393377059
9936 -803.6358883586511
9937 -803.883884777522
9938 -803.3556432449393
9939 -803.4961654453482
9940 -802.910413874728
9941 -803.0610920686586
9942 -802.4178028126012
9943 -802.6000515301093
9944 -801.9504175020621
9945 -802.1007370588712
9946 -801.4509890985751
9947 -801.5924647651536
9948 -800.9599982383504
9949 -801.1426091979777
9950 -800.4945287168382
9951 -800.6952543665667
9952 -800.0832404135948
9953 -800.336622250873
9954 -799.7685760482523
9955 -800.0345601729176
9956 -799.5327976609592
9957 -799.8063163522179
9958 -799.3291241874624
9959 -799.6188253786449
9960 -799.1265688770537
9961 -799.4604049609358
9962 -799.0633567524229
9963 -799.4118432634586
9964 -799.0678258426559
9965 -799.423811336802
9966 -799.0786095446688
9967 -799.4368525079052
9968 -799.1167689296441
9969 -799.4503349239644
9970 -799.1600595380161
9971 -799.4944315825168
9972 -799.2155951929333
9973 -799.6752713330366
9974 -799.4029488625786
9975 -799.7868025046592
9976 -799.4749933703406
9977 -799.8813983814604
9978 -799.5927356244164
9979 -799.9464129601311
9980 -799.5956737284007
9981 -799.9315978203306
9982 -799.5608709202154
9983 -799.8414904258875
9984 -799.4247057815259
9985 -799.621066733304
9986 -799.1859133238448
9987 -799.3569122320019
9988 -798.8891955220362
9989 -798.9670050640392
9990 -798.45108011683
9991 -798.4411204722343
9992 -797.9249491991814
9993 -797.8956029671336
9994 -797.3547518753682
9995 -797.3303861209063
9996 -796.7610148411032
9997 -796.7489443789409
9998 -796.1986318032377
9999 -796.1466619057852
10000 -795.5780209108833
10001 -795.5531915805524
10002 -794.9728142166787
10003 -794.8690499412246
10004 -794.1496638861415
10005 -794.2708159614381
10006 -793.5586205793659
10007 -793.6813736922441
10008 -792.9734368330893
10009 -793.1225456549007
10010 -792.3626917339068
10011 -792.5481810038651
10012 -791.8917015814304
10013 -792.1142047092604
10014 -791.4727957889071
10015 -791.7416541710121
10016 -791.1801772387165
10017 -791.5013483038346
10018 -790.9406524683959
10019 -791.2917882992388
10020 -790.8294833063073
10021 -791.2142342856929
10022 -790.7727553090859
10023 -791.1692709986125
10024 -790.7698458492714
10025 -791.2317961281904
10026 -790.9053400782562
10027 -791.3905718355733
10028 -791.1442136163513
10029 -791.6683446004979
10030 -791.4779876889188
10031 -792.0410150756004
10032 -791.9164934254419
10033 -792.4976878519394
10034 -792.4354687142475
10035 -793.0317769972042
10036 -792.9826447998868
10037 -793.5858492452186
10038 -793.6037440707855
10039 -794.3679307021807
10040 -794.2360159463158
10041 -794.9327765295428
10042 -794.8859126884984
10043 -795.4475276697815
10044 -795.433959531239
10045 -796.0955165286869
10046 -795.9380443476847
10047 -796.5404485342998
10048 -796.3288163695371
10049 -796.8648914509971
10050 -796.6937630710084
10051 -797.0860577089201
10052 -796.8092644391893
10053 -797.2191927107265
10054 -796.9611505225323
10055 -797.340829071339
10056 -796.9777128356342
10057 -797.2739435492355
10058 -796.8910890923296
10059 -797.1668951536564
10060 -796.754648915244
10061 -797.0427065779238
10062 -796.5790669714891
10063 -796.8851879178698
10064 -796.4306953785672
10065 -796.6793872104679
10066 -796.2127844591373
10067 -796.5155218358344
10068 -796.0423194094125
10069 -796.3594289223381
10070 -795.9238217686415
10071 -796.2143429351735
10072 -795.773406540598
10073 -796.1093575528146
10074 -795.7262758153819
10075 -796.0718396503822
10076 -795.7234038978651
10077 -796.180718488049
10078 -795.859137815901
10079 -796.2660267265323
10080 -796.0690373497096
10081 -796.5680518449859
10082 -796.342442505855
10083 -796.9512733538013
10084 -796.8156280993499
10085 -797.3854799522412
10086 -797.3386997267024
10087 -797.936115264518
10088 -797.9574410735614
10089 -798.6330131863656
10090 -798.6712490475139
10091 -799.3368291762836
10092 -799.5282513144447
10093 -800.3885875368275
10094 -800.3624263586922
10095 -801.2673799954829
10096 -801.4784053582546
10097 -802.376962832951
10098 -802.411500446739
10099 -803.4058002123249
10100 -803.6820905572921
10101 -804.6255986463299
10102 -804.8362702527401
10103 -805.7706924191599
10104 -805.8349456411146
10105 -806.7625210522074
10106 -807.0084849828954
10107 -807.9245267458887
10108 -808.0585301435503
10109 -808.7604985351627
10110 -808.8984742428872
10111 -809.6969921249141
10112 -809.8130127017165
10113 -810.4134873160056
10114 -810.4988822530911
10115 -811.2080244997932
10116 -811.13287587707
10117 -811.7867228020582
10118 -811.5815275111255
10119 -812.1534675083235
10120 -811.9423713299773
10121 -812.4176367986877
10122 -812.2012424324639
10123 -812.6994345780199
10124 -812.4168811672921
10125 -812.8760701186283
10126 -812.5875224788826
10127 -812.9647060418158
10128 -812.6442826941509
10129 -813.0264373483431
10130 -812.6737643123469
10131 -813.0620857976821
10132 -812.6806225328927
10133 -813.1405427347179
10134 -812.7991378677186
10135 -813.1878022639058
10136 -812.8513645032913
10137 -813.2704218869885
10138 -812.9870628501197
10139 -813.4460956086688
10140 -813.1397805611609
10141 -813.6076739071265
10142 -813.2982746902139
10143 -813.8236299274872
10144 -813.5178223028353
10145 -814.107131003306
10146 -813.8413490965696
10147 -814.4930275388654
10148 -814.3807833140185
10149 -815.0891839160971
10150 -815.0158181096297
10151 -815.7344873587429
10152 -815.7759310104719
10153 -816.6155648761782
10154 -816.7052366602951
10155 -817.7036108160984
10156 -817.8727985495532
10157 -818.8838085497619
10158 -819.1531198556582
10159 -820.186556363574
10160 -820.4392404083734
10161 -821.4922753072973
10162 -821.7499069072652
10163 -822.7797415944551
10164 -823.0277386362928
10165 -824.0263194169158
10166 -824.1775933749348
10167 -825.0631801684057
10168 -825.0986085609643
10169 -825.9608563766442
10170 -825.874153483767
10171 -826.6236705160015
10172 -826.4465264392929
10173 -827.0493232481913
10174 -826.7497929640653
10175 -827.3100406743927
10176 -826.8762536836562
10177 -827.3755977446895
10178 -826.8473178055233
10179 -827.2232876153063
10180 -826.6117056755435
10181 -826.9219772699506
10182 -826.2972259312477
10183 -826.5760397581638
10184 -825.8978925194177
10185 -826.1740839728005
10186 -825.4883266119601
10187 -825.6994450635885
10188 -825.0174105557159
10189 -825.2098852772975
10190 -824.5556067492317
10191 -824.7583231694678
10192 -824.1089939018937
10193 -824.3475288799932
10194 -823.7208064670504
10195 -823.9437605520303
10196 -823.3737576555446
10197 -823.5999857309173
10198 -823.0048047795268
10199 -823.2606293120783
10200 -822.7237673194635
10201 -823.077975771868
10202 -822.5876899085133
10203 -822.9313459316718
10204 -822.4421229307881
10205 -822.856067629451
10206 -822.3728691780481
10207 -822.8094670468529
10208 -822.3609356014774
10209 -822.7917110868906
10210 -822.3983454888161
10211 -822.8855705112891
10212 -822.501765223673
10213 -822.954178818254
10214 -822.5343530958087
10215 -823.0019992285969
10216 -822.5391043909651
10217 -822.9347636093617
10218 -822.4883452798989
10219 -822.880373525499
10220 -822.3939557674919
10221 -822.7620592179243
10222 -822.2545026554067
10223 -822.5759847435871
10224 -822.0743394572567
10225 -822.3381541462338
10226 -821.7535879694422
10227 -821.9954570991797
10228 -821.3902557213694
10229 -821.5949666504584
10230 -820.9150939905834
10231 -821.07503565885
10232 -820.3750071657742
10233 -820.5311959597761
10234 -819.7991866137962
10235 -819.922013948132
10236 -819.1802570882099
10237 -819.3057314249477
10238 -818.5109766918711
10239 -818.626391843616
10240 -817.8459759864026
10241 -817.9528308268824
10242 -817.1736343459817
10243 -817.2728074043906
10244 -816.5212964542106
10245 -816.616941545375
10246 -815.8731035530104
10247 -815.9551629225198
10248 -815.2029537792612
10249 -815.3109330985559
10250 -814.5988321794463
10251 -814.6535937511692
10252 -814.0142506741568
10253 -814.0082019619512
10254 -813.2417531447866
10255 -813.3801960740468
10256 -812.6045927631068
10257 -812.6767936767629
10258 -811.9584988561909
10259 -812.0586753837784
10260 -811.3438773371148
10261 -811.4639411355288
10262 -810.7538127282679
10263 -810.9137326996641
10264 -810.209363049035
10265 -810.3678031607119
10266 -809.6760502490959
10267 -809.89528683872
10268 -809.223005205781
10269 -809.4713764623385
10270 -808.8380585652219
10271 -809.0819148713088
10272 -808.4465248382073
10273 -808.7684758551328
10274 -808.2003986882125
10275 -808.550000258915
10276 -808.0387558022145
10277 -808.3634514467349
10278 -807.819923056242
10279 -808.1289322268638
10280 -807.6094887721775
10281 -807.8860750251381
10282 -807.3432331043717
10283 -807.5793472783326
10284 -807.0224175832199
10285 -807.2143251283159
10286 -806.6805364266385
10287 -806.8640084092076
10288 -806.2751518781467
10289 -806.4221099611756
10290 -805.8145097938775
10291 -805.9846161443187
10292 -805.3931108759492
10293 -805.5525401477518
10294 -804.9568959110935
10295 -805.1113784791331
10296 -804.5104452564699
10297 -804.6836155966215
10298 -804.1069026507025
10299 -804.2919091038017
10300 -803.6487833473427
10301 -803.9017769831556
10302 -803.2856415740885
10303 -803.5192532115361
10304 -802.9021307545769
10305 -803.1552252762724
10306 -802.6000430710222
10307 -802.8666772109932
10308 -802.3441993916696
10309 -802.6414169615992
10310 -802.1246923472356
10311 -802.4675912685431
10312 -801.9799826666041
10313 -802.3318612772218
10314 -801.9500083381359
10315 -802.2793222461889
10316 -801.8927952252387
10317 -802.2961041733755
10318 -801.9123936742774
10319 -802.3204406267822
10320 -801.9660711968621
10321 -802.3812916978947
10322 -801.9714990384734
10323 -802.3632116516659
10324 -802.0038906650541
10325 -802.380106042768
10326 -801.9971102050154
10327 -802.4458770394032
10328 -802.0561100533621
10329 -802.4698831675253
10330 -802.1133665311946
10331 -802.5000981337629
10332 -802.1223431049799
10333 -802.544749871135
10334 -802.1829502362378
10335 -802.596783672941
10336 -802.2275163423117
10337 -802.6024447159998
10338 -802.2992681873918
10339 -802.7287435697189
10340 -802.4392332533879
10341 -802.9009247433205
10342 -802.6260172253826
10343 -803.0475324825799
10344 -802.8050054911015
10345 -803.2669771449488
10346 -803.032623573677
10347 -803.489168307917
10348 -803.2358928799372
10349 -803.5850819702625
10350 -803.302313315609
10351 -803.7115767138112
10352 -803.4020038438102
10353 -803.7874600595918
10354 -803.4125855575926
10355 -803.7457668813762
10356 -803.3370045717558
10357 -803.6544814453773
10358 -803.1969489391156
10359 -803.4653519440238
10360 -802.9834880198301
10361 -803.2647689698874
10362 -802.7860674131431
10363 -803.0377983419439
10364 -802.5571203374975
10365 -802.8260619648696
10366 -802.3350376219267
10367 -802.6385836223975
10368 -802.1707507812007
10369 -802.4692390074929
10370 -801.9953367014886
10371 -802.359111380307
10372 -801.9688927568798
10373 -802.4051300965053
10374 -802.0491852009691
10375 -802.5464038469847
10376 -802.2690086738402
10377 -802.819853862577
10378 -802.5483980057004
10379 -803.1501824263372
10380 -802.9670956962646
10381 -803.6639423968737
10382 -803.540612619229
10383 -804.3013611382236
10384 -804.2248126702456
10385 -805.0570159654891
10386 -805.0338009898252
10387 -805.8714650556867
10388 -805.8798702287244
10389 -806.7199321882082
10390 -806.779994766656
10391 -807.6177660950783
10392 -807.7106009033696
10393 -808.5637275869063
10394 -808.6350566965323
10395 -809.4832454377367
10396 -809.5286817814813
10397 -810.3772929858828
10398 -810.4380723235543
10399 -811.2683056354264
10400 -811.2461090777396
10401 -811.8938362214949
10402 -811.9081337920061
10403 -812.6967592683105
10404 -812.553489906105
10405 -813.2678611129121
10406 -813.1362587828646
10407 -813.6599908859258
10408 -813.4963145233079
10409 -814.0239017214445
10410 -813.8145234576315
10411 -814.3422851988798
10412 -814.0330481682098
10413 -814.5247275226099
10414 -814.1801444057876
10415 -814.592594870399
10416 -814.2207819585032
10417 -814.6118814593563
10418 -814.1987782674755
10419 -814.5624248325432
10420 -814.0629188094174
10421 -814.4501130385547
10422 -813.9606488478036
10423 -814.3172087292139
10424 -813.8846945655355
10425 -814.2681674679773
10426 -813.8168424632815
10427 -814.2161821562538
10428 -813.8316885778655
10429 -814.2319295535111
10430 -813.8847065120401
10431 -814.3333038216762
10432 -813.9921863318325
10433 -814.506689644363
10434 -814.2130840932452
10435 -814.800729501446
10436 -814.5580551401907
10437 -815.113129601675
10438 -814.9278031553306
10439 -815.6245020580901
10440 -815.5208880330177
10441 -816.060047959695
10442 -816.0156517508498
10443 -816.6908209209361
10444 -816.6851636393033
10445 -817.2883600799698
10446 -817.3852701495039
10447 -818.1037265306011
10448 -818.1154874597665
10449 -818.7567862798239
10450 -818.856408836019
10451 -819.7437550717978
10452 -819.6666978575837
10453 -820.5363978312897
10454 -820.5824153887752
10455 -821.399051464366
10456 -821.2704791593414
10457 -822.1794111269093
10458 -822.2397859746867
10459 -822.9467873116043
10460 -823.0863844856456
10461 -823.9142295041351
10462 -823.9049251644656
10463 -824.7194365604572
10464 -824.6484825189053
10465 -825.4280718532984
10466 -825.2881804897137
10467 -826.0186997681809
10468 -825.8396158545847
10469 -826.6418875280726
10470 -826.4513597092273
10471 -827.1392001743678
10472 -826.9161601325462
10473 -827.6038515128662
10474 -827.3821692634651
10475 -828.055633233878
10476 -827.9131431536786
10477 -828.5821114464854
10478 -828.3892783796302
10479 -829.0604776058914
10480 -828.9007652972448
10481 -829.5252448590124
10482 -829.3191877771285
10483 -829.9085663392259
10484 -829.6936020731256
10485 -830.2394991443706
10486 -829.9604429424251
10487 -830.4879911040729
10488 -830.1718481796651
10489 -830.6278234773137
10490 -830.2766922802485
10491 -830.740180756327
10492 -830.3126761355292
10493 -830.6922683216523
10494 -830.1986122501821
10495 -830.4965939795422
10496 -830.0254041452415
10497 -830.3162396168351
10498 -829.7870843501476
10499 -830.0896360260396
10500 -829.5528708043142
10501 -829.8145668555143
10502 -829.2301872422811
10503 -829.4640245057657
10504 -828.8713420745535
10505 -829.104035760579
10506 -828.5126367114041
10507 -828.7118033392228
10508 -828.2177500821746
10509 -828.4643700583953
10510 -827.9354051584161
10511 -828.2117338357782
10512 -827.7020860506493
10513 -828.0284291930092
10514 -827.472298290493
10515 -827.7984573113055
10516 -827.2999871416008
10517 -827.6778988858614
10518 -827.2383914626413
10519 -827.6547725683888
10520 -827.2008449221713
10521 -827.6695969313688
10522 -827.318468248591
10523 -827.819185916483
10524 -827.5502200408165
10525 -828.1435149125662
10526 -827.903114350225
10527 -828.5807574961744
10528 -828.3971888882379
10529 -829.0517104565411
10530 -828.9217451686098
10531 -829.6405248321611
10532 -829.554360378468
10533 -830.3137647378819
10534 -830.2379035204027
10535 -830.8804975396829
10536 -830.8448104344495
10537 -831.608786578596
10538 -831.4821722240243
10539 -832.2375237998286
10540 -832.1498107607047
10541 -832.886168423099
10542 -832.8325604651932
10543 -833.5927415322583
10544 -833.4475056815658
10545 -834.2220419671681
10546 -834.0819928252422
10547 -834.7273419461137
10548 -834.7252500509068
10549 -835.2905389016166
10550 -835.1280939965326
10551 -835.7919759676307
10552 -835.5814025924632
10553 -836.1321929254283
10554 -835.9685061772403
10555 -836.4696552290707
10556 -836.22320684524
10557 -836.7397191364839
10558 -836.4247622566071
10559 -836.8632963203137
10560 -836.5127505132363
10561 -836.9004527376292
10562 -836.5210281451338
10563 -836.8665730543736
10564 -836.4402321590488
10565 -836.808833314254
10566 -836.3727302861546
10567 -836.7269679848181
10568 -836.2446113065691
10569 -836.5677398592525
10570 -836.0133819449815
10571 -836.3582450662205
10572 -835.8140216625043
10573 -836.1544353191414
10574 -835.5714606351746
10575 -835.92408662227
10576 -835.3978734980629
10577 -835.748790258657
10578 -835.2088977122939
10579 -835.5842523039723
10580 -835.0625681695213
10581 -835.424763173297
10582 -834.8892931531204
10583 -835.2466634695591
10584 -834.7339127470069
10585 -835.0726281408464
10586 -834.5783042733228
10587 -834.88100658143
10588 -834.3733191974676
10589 -834.7007792787927
10590 -834.1593199882941
10591 -834.4597235219665
10592 -833.9436160414936
10593 -834.2165881804153
10594 -833.6865134294655
10595 -833.9122616575249
10596 -833.353497940859
10597 -833.5874733996046
10598 -832.9858266470876
10599 -833.1829350751358
10600 -832.5890621395241
10601 -832.6752788316199
10602 -832.0762639781219
10603 -832.0829334266344
10604 -831.4285280273681
10605 -831.3955467486991
10606 -830.7069025743838
10607 -830.6065398010651
10608 -829.9285001713635
10609 -829.8492349590632
10610 -829.1597397559274
10611 -829.0131105546343
10612 -828.3033629122292
10613 -828.1914010429435
10614 -827.4895282115746
10615 -827.3269255414444
10616 -826.6156557944228
10617 -826.4158759513339
10618 -825.7139097152063
10619 -825.5266260516989
10620 -824.8262779830874
10621 -824.6201280167429
10622 -823.9116565846721
10623 -823.6983972493789
10624 -822.7927273150672
10625 -822.8418827342283
10626 -821.9720052147214
10627 -821.8922654047304
10628 -821.1887247869179
10629 -821.0962284735782
10630 -820.2867392197248
10631 -820.2715555408595
10632 -819.4672810894549
10633 -819.6229006999824
10634 -818.8718527526761
10635 -818.9560152595926
10636 -818.277690965779
10637 -818.4151128711443
10638 -817.7720822326661
10639 -817.9344233987225
10640 -817.3942508386741
10641 -817.6065908566912
10642 -817.0169958795959
10643 -817.3212839053418
10644 -816.8152036716593
10645 -817.2193767391886
10646 -816.7391324099493
10647 -817.1666608857608
10648 -816.7385863450604
10649 -817.2582123510301
10650 -816.9276858624316
10651 -817.4646021289778
10652 -817.1648668571549
10653 -817.7192927131898
10654 -817.4024840102873
10655 -817.9744829534558
10656 -817.6448343240324
10657 -818.2278319388388
10658 -817.9207810139771
10659 -818.514778899321
10660 -818.1596545088062
10661 -818.6904770011013
10662 -818.3944754025825
10663 -818.907053531397
10664 -818.5564988356231
10665 -819.1072537047835
10666 -818.7166711720769
10667 -819.1921896607097
10668 -818.763517235357
10669 -819.1721345555907
10670 -818.7019672856185
10671 -819.0085260181213
10672 -818.5149061090176
10673 -818.7614203794662
10674 -818.2598145101749
10675 -818.4781624695551
10676 -817.9395763172408
10677 -818.1696372953847
10678 -817.6513663403844
10679 -817.7990555724067
10680 -817.2566661639003
10681 -817.4326750425989
10682 -816.8802410048155
10683 -817.0612248597965
10684 -816.5006659224827
10685 -816.6303313998837
10686 -816.1344980393362
10687 -816.3219115591678
10688 -815.7782361017751
10689 -815.9986786640223
10690 -815.5098329709808
10691 -815.7585194887259
10692 -815.2959167460384
10693 -815.5839942943759
10694 -815.1143494951203
10695 -815.4549215202304
10696 -815.00093608155
10697 -815.4214646700705
10698 -815.0416111760513
10699 -815.4923587521533
10700 -815.1131591635667
10701 -815.6028619999238
10702 -815.3238832640724
10703 -815.8808034020836
10704 -815.5626194315229
10705 -816.1754247874147
10706 -815.8919201343934
10707 -816.5017184397325
10708 -816.2011617068547
10709 -816.7989471126596
10710 -816.5248363601186
10711 -817.1826253469465
10712 -816.8929738433561
10713 -817.5537313392196
10714 -817.3087033985875
10715 -817.9505374469343
10716 -817.6979956975493
10717 -818.3330317073707
10718 -818.092073556658
10719 -818.7182957808211
10720 -818.4896808034368
10721 -819.0531477239572
10722 -818.8621160297869
10723 -819.4475959229763
10724 -819.2413875490428
10725 -819.8243842823907
10726 -819.6276309929698
10727 -820.2221110906463
10728 -820.0046925214137
10729 -820.5953107496721
10730 -820.3128275727221
10731 -820.9177858194154
10732 -820.6865314023329
10733 -821.1891908277256
10734 -820.9473541020003
10735 -821.5746019978016
10736 -821.3331922832601
10737 -821.8508061049739
10738 -821.5857355723889
10739 -822.2034559265221
10740 -821.9356278193743
10741 -822.5780301563401
10742 -822.3043981422453
10743 -822.9066885325453
10744 -822.6042044967899
10745 -823.1819811743422
10746 -822.9100009644544
10747 -823.4402047921023
10748 -823.1224353219679
10749 -823.5797393575949
10750 -823.1717058539057
10751 -823.6291039064133
10752 -823.2918974963983
10753 -823.7218608530063
10754 -823.3273852142694
10755 -823.7578066467534
10756 -823.3360724474686
10757 -823.7015180239954
10758 -823.2694664870311
10759 -823.6513035446749
10760 -823.1487570223098
10761 -823.4794411597203
10762 -822.9517018830411
10763 -823.3244294861599
10764 -822.8024396661015
10765 -823.148566332107
10766 -822.6164483778291
10767 -822.9240276059976
10768 -822.3446573950224
10769 -822.6587441194556
10770 -822.1204191755595
10771 -822.4387469901882
10772 -821.8830843847093
10773 -822.189916244741
10774 -821.6759750756995
10775 -821.9493891705424
10776 -821.4752116957029
10777 -821.7722430301161
10778 -821.3533583411224
10779 -821.6721723460093
10780 -821.2571643124172
10781 -821.5626935417982
10782 -821.1804006120192
10783 -821.5444118148457
10784 -821.2568020801849
10785 -821.645106854118
10786 -821.3814658012956
10787 -821.7899481642075
10788 -821.5358069541229
10789 -821.9737497127974
10790 -821.679375110419
10791 -822.2306822474494
10792 -821.9891943862615
10793 -822.5496930123721
10794 -822.3436325972092
10795 -822.9176386803323
10796 -822.640604516207
10797 -823.2469614112639
10798 -823.0124536581573
10799 -823.6102939433807
10800 -823.3988833488005
10801 -824.0172584631179
10802 -823.8147086681402
10803 -824.3985655587159
10804 -824.2606719042141
10805 -824.955218435963
10806 -824.7473425819395
10807 -825.3312051798686
10808 -825.1471683045517
10809 -825.7971162414779
10810 -825.5107478426946
10811 -826.1576961775246
10812 -825.8736236701914
10813 -826.4981905233832
10814 -826.2369774791453
10815 -826.8898333641216
10816 -826.6408256648946
10817 -827.2434890611308
10818 -826.965755616886
10819 -827.5655646980421
10820 -827.2461794014357
10821 -827.7744080992186
10822 -827.4318040425028
10823 -827.9439993640991
