"y-rfile"
"Iteration" "y"
("Iteration" "y")
5839 -3715.167101461916
5840 -3785.72147669865
5841 -3862.035548395278
5842 -4036.108807950572
5843 -4213.736236820617
5844 -4374.598520049398
5845 -4534.278571527079
5846 -4692.208006184313
5847 -4847.985499251945
5848 -4998.150815851368
5849 -5117.524654002246
5850 -5245.725409276099
5851 -5367.345864117278
5852 -5468.885337487076
5853 -5536.930184094104
5854 -5580.803487807609
5855 -5603.09992206016
5856 -5612.334410880528
5857 -5616.890844743843
5858 -5624.660998935724
5859 -5638.24074931377
5860 -5670.962373965694
5861 -5706.819484003944
5862 -5755.624482264971
5863 -5812.524247779039
5864 -5880.340994744866
5865 -5945.955887079148
5866 -6025.766569565943
5867 -6114.775278595788
5868 -6212.02822947042
5869 -6316.598134690629
5870 -6426.101949672265
5871 -6535.941148316218
5872 -6643.94733812703
5873 -6724.742031576056
5874 -6807.681260461591
5875 -6890.161851203172
5876 -6972.378173153364
5877 -7051.728377537123
5878 -7103.566613680762
5879 -7180.861161777487
5880 -7230.797027538075
5881 -7303.274351126897
5882 -7347.5741331888
5883 -7410.911593780111
5884 -7466.889271443258
5885 -7516.354255783477
5886 -7558.9822102117
5887 -7595.940718731188
5888 -7627.5698062648
5889 -7655.523969721005
5890 -7679.434116556287
5891 -7694.438705419789
5892 -7715.774701152057
5893 -7730.133980235501
5894 -7751.653767832494
5895 -7766.61457420769
5896 -7789.429376352296
5897 -7805.852771550753
5898 -7823.90682199558
5899 -7843.900768383086
5900 -7865.57639204352
5901 -7889.501017578496
5902 -7926.194418551509
5903 -7950.966563346241
5904 -7976.489027940424
5905 -8015.467251090066
5906 -8040.277488051823
5907 -8077.794817789434
5908 -8101.199496114829
5909 -8135.225667370604
5910 -8165.903788634374
5911 -8193.134749241599
5912 -8216.717481900938
5913 -8236.923885590923
5914 -8253.743971215285
5915 -8267.80302837519
5916 -8278.103505541807
5917 -8286.495153971884
5918 -8292.332144862752
5919 -8296.927595803692
5920 -8298.464182613214
5921 -8299.082729077754
5922 -8297.891690221782
5923 -8296.143804216872
5924 -8292.517266140854
5925 -8290.588552481619
5926 -8286.337634337337
5927 -8283.597047769328
5928 -8278.534190154269
5929 -8275.255702289611
5930 -8271.334401055905
5931 -8268.058833736821
5932 -8264.023517811405
5933 -8260.441116310911
5934 -8256.316539772426
5935 -8252.656264241095
5936 -8248.226828333309
5937 -8244.168985804681
5938 -8239.563539375393
5939 -8235.149066805137
5940 -8230.260663808283
5941 -8225.859305026155
5942 -8220.766408343246
5943 -8216.04373021392
5944 -8210.650527314239
5945 -8205.758369239595
5946 -8200.31866163895
5947 -8195.52253148511
5948 -8190.180030560281
5949 -8185.414465260356
5950 -8180.214042214325
5951 -8175.659309004159
5952 -8170.589453178003
5953 -8166.295146878872
5954 -8161.476547347117
5955 -8157.587177910937
5956 -8153.187855433112
5957 -8149.570831772447
5958 -8145.544796189642
5959 -8142.196195953855
5960 -8138.571936634674
5961 -8135.670835994863
5962 -8132.335560834435
5963 -8129.763654820587
5964 -8126.898015619377
5965 -8124.731475887053
5966 -8122.193000516482
5967 -8120.378076921254
5968 -8118.016956788376
5969 -8116.352789779233
5970 -8114.347130124357
5971 -8113.008871577824
5972 -8111.325288179624
5973 -8110.123728828416
5974 -8108.552752191375
5975 -8107.466107134248
5976 -8105.96154011582
5977 -8104.992093518392
5978 -8103.70072593112
5979 -8102.960036885582
5980 -8101.723257439003
5981 -8101.101408845813
5982 -8100.021014418708
5983 -8099.497263382108
5984 -8098.562749320293
5985 -8098.202465410771
5986 -8097.263792151295
5987 -8097.036510749281
5988 -8096.25171821181
5989 -8096.217541112141
5990 -8095.622679910863
5991 -8095.704003374475
5992 -8095.240188237341
5993 -8095.669189367545
5994 -8095.484232672501
5995 -8096.123809484297
5996 -8096.278201668774
5997 -8097.18900710482
5998 -8097.51849568292
5999 -8098.660363053286
6000 -8099.266428272542
6001 -8100.790272166277
6002 -8101.668740826725
6003 -8103.492324278911
6004 -8104.615556066201
6005 -8106.712039960763
6006 -8108.049427711675
6007 -8110.279364585162
6008 -8111.999461815155
6009 -8114.635901761313
6010 -8116.775532253202
6011 -8119.638244842411
6012 -8121.911255052746
6013 -8124.948106304857
6014 -8127.492850236535
6015 -8130.853500988778
6016 -8133.628773591976
6017 -8136.99243970837
6018 -8139.953312406642
6019 -8143.665709786543
6020 -8146.83433238201
6021 -8150.772282394484
6022 -8154.079647898187
6023 -8158.307780651725
6024 -8163.60292253594
6025 -8167.714506352246
6026 -8171.253145407317
6027 -8177.551117662995
6028 -8181.106851252686
6029 -8185.43553318368
6030 -8191.224518528674
6031 -8195.723490904835
6032 -8201.481085689762
6033 -8205.841287847292
6034 -8211.235437007568
6035 -8215.358743952314
6036 -8221.101240184213
6037 -8225.272762497101
6038 -8230.944694427946
6039 -8237.059105624963
6040 -8240.577837855133
6041 -8246.623728017408
6042 -8251.970863920309
6043 -8257.897285603129
6044 -8263.036675332984
6045 -8268.44503091809
6046 -8273.207598181983
6047 -8278.58368095986
6048 -8283.155032634211
6049 -8288.16189025182
6050 -8292.481983273679
6051 -8297.451002704433
6052 -8301.600676091108
6053 -8306.129308319923
6054 -8310.115260696826
6055 -8314.888036318265
6056 -8318.594120737083
6057 -8322.922465348323
6058 -8326.592283367936
6059 -8330.92431999721
6060 -8334.521157238156
6061 -8338.733378869161
6062 -8342.379133104419
6063 -8346.594701182326
6064 -8350.026977518695
6065 -8354.040305074917
6066 -8357.276513504556
6067 -8361.351260548736
6068 -8364.715233610219
6069 -8368.39871498108
6070 -8371.58183971799
6071 -8375.325020930941
6072 -8378.649982909708
6073 -8382.373111854617
6074 -8385.524819593697
6075 -8389.070113033473
6076 -8391.855178859936
6077 -8395.48263043503
6078 -8398.193148334187
6079 -8401.632170682182
6080 -8404.541003364662
6081 -8407.935489487456
6082 -8410.562193491638
6083 -8414.043490465934
6084 -8416.532331908555
6085 -8419.965297763381
6086 -8422.659385220313
6087 -8425.944309468712
6088 -8428.230002784276
6089 -8431.641637824083
6090 -8434.132834970264
6091 -8437.266941054108
6092 -8440.008777513738
6093 -8443.284585154848
6094 -8445.869388579602
6095 -8449.166179322023
6096 -8451.924556787495
6097 -8455.385897216902
6098 -8458.165520607103
6099 -8461.754042446368
6100 -8464.67042252891
6101 -8468.149391466495
6102 -8470.96399913057
6103 -8475.074133702894
6104 -8477.96710878948
6105 -8482.09428156184
6106 -8485.377292797355
6107 -8489.130024663315
6108 -8493.271638505463
6109 -8497.09766978136
6110 -8500.365611685733
6111 -8504.325105082275
6112 -8508.053639040798
6113 -8513.580470908228
6114 -8517.451303538663
6115 -8521.702957333828
6116 -8524.836066660509
6117 -8528.9693493468
6118 -8533.751276621731
6119 -8537.704074818015
6120 -8540.886047657901
6121 -8544.5080080524
6122 -8547.304513354591
6123 -8550.681585896615
6124 -8552.91524253201
6125 -8555.85866980526
6126 -8557.569572053902
6127 -8560.112588823218
6128 -8561.404945259856
6129 -8562.975841756312
6130 -8563.933845033032
6131 -8564.996211940146
6132 -8565.096521921127
6133 -8565.35824393968
6134 -8564.661712835714
6135 -8564.388871797964
6136 -8562.403814507645
6137 -8560.857951735239
6138 -8558.280743899251
6139 -8555.697132890607
6140 -8552.011551635051
6141 -8548.436391779038
6142 -8543.738183274072
6143 -8539.350785074646
6144 -8533.696653616673
6145 -8528.464941556198
6146 -8521.812461681027
6147 -8515.525483794308
6148 -8508.070503198514
6149 -8500.887860261182
6150 -8492.274166703211
6151 -8484.250152336459
6152 -8475.019805269547
6153 -8466.035625656988
6154 -8455.675643152728
6155 -8446.09305302587
6156 -8434.824746514216
6157 -8424.33679515728
6158 -8412.625638722173
6159 -8401.255288798991
6160 -8388.788825719854
6161 -8376.715576268065
6162 -8363.391244365472
6163 -8350.828759149357
6164 -8337.087337786083
6165 -8323.964505628952
6166 -8309.83161261755
6167 -8296.178378030134
6168 -8281.714808236287
6169 -8267.730119921813
6170 -8253.101845539093
6171 -8238.90794438868
6172 -8223.858724918227
6173 -8209.794123513528
6174 -8194.763817157887
6175 -8180.312569778198
6176 -8165.201191292955
6177 -8150.674817076419
6178 -8135.37080572623
6179 -8120.862289598388
6180 -8105.677420464097
6181 -8091.243544435287
6182 -8075.837366842285
6183 -8061.58865466678
6184 -8046.640005963318
6185 -8032.52182228454
6186 -8017.696213131318
6187 -8004.00151362681
6188 -7989.387798187847
6189 -7975.902782210519
6190 -7961.948627989228
6191 -7949.006591085818
6192 -7935.353006769416
6193 -7922.45279267236
6194 -7909.032297554245
6195 -7896.466154551949
6196 -7883.190802418609
6197 -7871.149825872923
6198 -7858.223465199155
6199 -7846.366022900873
6200 -7833.757313483283
6201 -7826.029259975328
6202 -7812.980045620934
6203 -7801.055387625604
6204 -7792.352216847587
6205 -7779.969749149001
6206 -7766.772202971565
6207 -7758.693821490637
6208 -7745.015960505903
6209 -7736.649060322732
6210 -7722.825914915757
6211 -7714.42965042161
6212 -7700.536232890314
6213 -7691.941406793195
6214 -7678.073374644039
6215 -7669.383356091002
6216 -7655.26520130981
6217 -7646.660996579654
6218 -7636.924061545796
6219 -7623.295563261909
6220 -7613.727163230853
6221 -7604.687437979276
6222 -7590.242305451389
6223 -7581.201202820067
6224 -7571.294785729481
6225 -7557.358412095015
6226 -7547.716588070155
6227 -7538.854045833662
6228 -7529.049789822105
6229 -7519.523538797091
6230 -7504.715317623256
6231 -7495.683680483296
6232 -7485.790396421402
6233 -7476.453945615293
6234 -7466.410745877366
6235 -7456.769402103454
6236 -7441.909354713447
6237 -7432.764649402305
6238 -7423.01978201769
6239 -7413.726849997309
6240 -7403.781146669516
6241 -7389.778122633958
6242 -7380.384390181942
6243 -7371.463099805166
6244 -7361.954241444095
6245 -7348.859278601758
6246 -7339.854640080551
6247 -7331.495795131646
6248 -7322.582742143004
6249 -7310.155599157673
6250 -7301.502274496956
6251 -7293.561215051902
6252 -7284.957254103999
6253 -7273.153488584298
6254 -7265.011701056441
6255 -7257.346246462429
6256 -7245.284870802598
6257 -7237.938052699503
6258 -7229.865657823583
6259 -7218.511840223984
6260 -7210.700049912371
6261 -7203.44979099333
6262 -7191.818670502894
6263 -7184.68330644798
6264 -7176.94179368638
6265 -7166.072485380121
6266 -7158.545255379347
6267 -7151.257752874857
6268 -7139.781568610011
6269 -7132.836145981501
6270 -7124.987548220345
6271 -7114.083192433841
6272 -7106.374127433503
6273 -7099.055865685403
6274 -7087.381979527004
6275 -7080.147266597571
6276 -7071.984085661004
6277 -7060.60120471359
6278 -7052.512977334419
6279 -7041.402856401263
6280 -7033.656711667047
6281 -7026.283329088085
6282 -7014.470623698837
6283 -7007.390308457324
6284 -6995.63908355068
6285 -6988.627677187944
6286 -6977.165641433104
6287 -6970.122511493057
6288 -6958.655907565359
6289 -6951.564428853148
6290 -6940.080309921774
6291 -6933.167829229968
6292 -6925.406166592146
6293 -6914.289422744081
6294 -6906.487582544542
6295 -6895.702796447107
6296 -6887.918738179848
6297 -6877.010208061955
6298 -6869.257263257618
6299 -6862.013111567941
6300 -6850.241439520844
6301 -6842.925415395604
6302 -6834.743391598478
6303 -6823.36617254277
6304 -6815.497874163003
6305 -6807.752493490529
6306 -6795.83373924259
6307 -6788.528819991036
6308 -6780.410828835839
6309 -6769.093145441899
6310 -6761.166008670047
6311 -6753.822349522235
6312 -6742.217509182786
6313 -6735.155001673135
6314 -6727.496823008071
6315 -6720.457550034031
6316 -6709.37217470106
6317 -6702.778243702524
6318 -6695.433012779102
6319 -6688.770155089005
6320 -6681.520048438292
6321 -6671.549702578073
6322 -6664.674382063484
6323 -6658.490215145605
6324 -6651.640026365446
6325 -6645.508771175253
6326 -6638.734850799678
6327 -6629.734502777716
6328 -6623.5465975577
6329 -6617.972691994923
6330 -6611.683184420336
6331 -6606.2185682326
6332 -6600.197078200723
6333 -6594.859389228531
6334 -6588.942900081272
6335 -6583.702392820699
6336 -6577.829777147543
6337 -6572.647635950951
6338 -6566.860967535209
6339 -6561.884566580146
6340 -6556.121198592506
6341 -6551.051886445801
6342 -6545.397296419592
6343 -6540.511439074973
6344 -6534.84054615426
6345 -6529.884820592725
6346 -6524.262232521171
6347 -6519.363885631218
6348 -6513.844562819353
6349 -6508.94048559757
6350 -6503.446604032373
6351 -6498.745635292829
6352 -6493.334084827685
6353 -6488.659005562039
6354 -6483.385041445511
6355 -6478.760644657761
6356 -6473.423015862054
6357 -6468.872307103749
6358 -6463.606073563883
6359 -6459.064013002931
6360 -6453.852882396616
6361 -6449.313799486737
6362 -6444.122124147805
6363 -6439.641181364832
6364 -6434.502444708151
6365 -6430.083941894613
6366 -6424.926022797218
6367 -6420.603351658333
6368 -6415.463925111168
6369 -6411.045570612581
6370 -6406.04459443522
6371 -6401.756472965145
6372 -6396.827935901091
6373 -6392.60100502948
6374 -6387.813501758902
6375 -6383.702358388587
6376 -6378.973150088059
6377 -6375.003548412058
6378 -6370.373341301829
6379 -6366.534108102947
6380 -6361.999988248601
6381 -6358.19157809194
6382 -6353.778175011938
6383 -6350.112056352868
6384 -6345.668732696457
6385 -6341.977372366719
6386 -6337.659612674116
6387 -6333.951679131914
6388 -6329.659370873701
6389 -6326.01281542306
6390 -6321.840921793164
6391 -6318.180183836582
6392 -6313.891767501779
6393 -6310.427017450976
6394 -6306.323624801817
6395 -6302.841171019396
6396 -6298.798553287296
6397 -6295.512237657557
6398 -6291.533737164235
6399 -6288.355157908898
6400 -6284.547811485151
6401 -6281.495487907503
6402 -6277.834296196569
6403 -6274.914341796491
6404 -6271.41738122228
6405 -6268.615968370639
6406 -6265.33908004801
6407 -6262.785683134172
6408 -6259.728272841263
6409 -6257.293543547064
6410 -6254.47787567968
6411 -6252.232514547235
6412 -6249.670164747015
6413 -6247.715622970575
6414 -6245.443254173033
6415 -6243.780268876179
6416 -6241.791160289022
6417 -6240.45165322229
6418 -6238.715176602902
6419 -6237.592001737531
6420 -6236.055992131575
6421 -6235.273510895229
6422 -6234.047085681377
6423 -6233.486783075046
6424 -6232.550637851503
6425 -6232.258959603309
6426 -6231.457898623946
6427 -6231.366280689461
6428 -6230.780897820365
6429 -6230.829571142129
6430 -6230.397989233532
6431 -6230.641664134977
6432 -6230.435769401549
6433 -6230.811709373895
6434 -6230.797196313273
6435 -6231.294855234257
6436 -6231.30600146275
6437 -6231.849275474788
6438 -6231.713832224704
6439 -6232.225060448396
6440 -6232.230131534626
6441 -6232.736629357967
6442 -6232.691459345177
6443 -6233.197187337549
6444 -6233.057627336523
6445 -6233.458312168836
6446 -6233.132955528576
6447 -6233.374192868951
6448 -6233.041238063669
6449 -6233.185872550636
6450 -6232.636872294942
6451 -6232.67410820331
6452 -6232.053226195755
6453 -6231.915713068588
6454 -6231.042171208671
6455 -6230.713460094
6456 -6229.684958859686
6457 -6229.254264839559
6458 -6228.156286145295
6459 -6227.517199241724
6460 -6226.327399952931
6461 -6225.798810249426
6462 -6224.519503112256
6463 -6223.658573430414
6464 -6222.366166167354
6465 -6221.620924071132
6466 -6220.301380564821
6467 -6219.724949089336
6468 -6218.558534097483
6469 -6218.107096322336
6470 -6217.20999622555
6471 -6216.950948937846
6472 -6216.250690922478
6473 -6216.275714382817
6474 -6215.909005162106
6475 -6216.212847574892
6476 -6216.139878235006
6477 -6216.839070051661
6478 -6217.22009975217
6479 -6218.316256237632
6480 -6218.993824205147
6481 -6220.405878555311
6482 -6221.543647034829
6483 -6223.365604687882
6484 -6225.027116041088
6485 -6227.38097570691
6486 -6229.367492415656
6487 -6232.086719015755
6488 -6234.361031660569
6489 -6237.47460767104
6490 -6240.100860860159
6491 -6243.483829866047
6492 -6246.308615556453
6493 -6249.782879420301
6494 -6252.888210259935
6495 -6256.504121333072
6496 -6259.495681002553
6497 -6264.720239165042
6498 -6267.67735736847
6499 -6271.028317022264
6500 -6275.524332986055
6501 -6278.679670868309
6502 -6281.319270329041
6503 -6285.564369041354
6504 -6287.871844624367
6505 -6290.483849543723
6506 -6293.372375547052
6507 -6295.479854409238
6508 -6297.859746996119
6509 -6299.528816126935
6510 -6300.603974047604
6511 -6302.599722122542
6512 -6303.20474794954
6513 -6304.205059864598
6514 -6304.787204734816
6515 -6305.450516747489
6516 -6305.362656900541
6517 -6305.841571172258
6518 -6305.566740324427
6519 -6305.687073543257
6520 -6305.16870957242
6521 -6305.098723894646
6522 -6304.472546673287
6523 -6304.454085321187
6524 -6303.886435215996
6525 -6303.904124819222
6526 -6303.363478586571
6527 -6303.5159496182
6528 -6303.233298226929
6529 -6303.575937971154
6530 -6303.479864543282
6531 -6304.038624655532
6532 -6304.224174425341
6533 -6305.156556285755
6534 -6305.613833938589
6535 -6306.861496133328
6536 -6307.738313749351
6537 -6309.352795363742
6538 -6310.762075054571
6539 -6312.955749755016
6540 -6314.714584047353
6541 -6317.466417979234
6542 -6319.764842043733
6543 -6322.747538852846
6544 -6325.429032313285
6545 -6328.699385456363
6546 -6331.785132145972
6547 -6335.494331296257
6548 -6338.815319199596
6549 -6342.786572861623
6550 -6346.388861513098
6551 -6352.731203938217
6552 -6356.606814970836
6553 -6361.055225225974
6554 -6367.240351142004
6555 -6371.801444363812
6556 -6377.732992570785
6557 -6382.031329475222
6558 -6385.843827719503
6559 -6392.092081968723
6560 -6395.680657589918
6561 -6401.454415500538
6562 -6404.504288048461
6563 -6409.874755749214
6564 -6412.821818545531
6565 -6417.489585352128
6566 -6420.015030009604
6567 -6423.851377322435
6568 -6425.782575127945
6569 -6429.090789257843
6570 -6430.527786561944
6571 -6432.86676055397
6572 -6434.187639843688
6573 -6435.274599904908
6574 -6436.168879651868
6575 -6436.75096950082
6576 -6436.545257045759
6577 -6436.574232749305
6578 -6435.496328772214
6579 -6435.057735334773
6580 -6433.529341036548
6581 -6432.85019661893
6582 -6430.773906657335
6583 -6429.776016236943
6584 -6428.031795910098
6585 -6426.035956132214
6586 -6424.033347954272
6587 -6422.495309087298
6588 -6419.593184172911
6589 -6418.097011625267
6590 -6416.086306442149
6591 -6413.632310162041
6592 -6411.7409372788
6593 -6410.34228101802
6594 -6407.676768119207
6595 -6406.495039026427
6596 -6404.894408834331
6597 -6403.283267956548
6598 -6402.027847009601
6599 -6400.638045134851
6600 -6399.48867980021
6601 -6398.680057722801
6602 -6397.900210386418
6603 -6397.67376347689
6604 -6397.106307708896
6605 -6396.964382328378
6606 -6396.538502616162
6607 -6396.79138784916
6608 -6396.501398220713
6609 -6396.685365711328
6610 -6396.61384267735
6611 -6397.114731861034
6612 -6397.173616747345
6613 -6397.857162442312
6614 -6397.827053173269
6615 -6398.187994902224
6616 -6398.058067687221
6617 -6398.315884606362
6618 -6397.992382293088
6619 -6398.018082394008
6620 -6397.484038861159
6621 -6396.943280251096
6622 -6396.192734811088
6623 -6395.495444626854
6624 -6394.50543348839
6625 -6393.627065451985
6626 -6392.531965926628
6627 -6391.180411720856
6628 -6389.793239619707
6629 -6388.312123850456
6630 -6386.848878299027
6631 -6385.352456475342
6632 -6384.0210144748
6633 -6382.567429051182
6634 -6380.706919349966
6635 -6379.9128423868
6636 -6378.373078027055
6637 -6377.409781755974
6638 -6375.870386129835
6639 -6375.237782473421
6640 -6374.286641848775
6641 -6373.991643410849
6642 -6373.597834609574
6643 -6373.850303692617
6644 -6373.923853875775
6645 -6374.792166433177
6646 -6375.446784978412
6647 -6377.207205711346
6648 -6378.588402288756
6649 -6380.618245447185
6650 -6382.342479913375
6651 -6385.288588655867
6652 -6387.695302948346
6653 -6390.797470972482
6654 -6393.631075956043
6655 -6396.921301809604
6656 -6399.861475939289
6657 -6403.503318710639
6658 -6406.420177774302
6659 -6409.95923776647
6660 -6413.060898447071
6661 -6416.707470287848
6662 -6419.465645132032
6663 -6422.298370576472
6664 -6424.400732589444
6665 -6426.766462137186
6666 -6428.242604048188
6667 -6430.160251037574
6668 -6431.276165138842
6669 -6432.519964267136
6670 -6432.787541282836
6671 -6432.988732694027
6672 -6432.854140817542
6673 -6433.020712656743
6674 -6432.248736018808
6675 -6431.952627582409
6676 -6430.483159696384
6677 -6430.040498627401
6678 -6428.029787470035
6679 -6427.358665890279
6680 -6425.322483295759
6681 -6424.504176324096
6682 -6422.51565366526
6683 -6421.621323798493
6684 -6419.724404342117
6685 -6418.271598146869
6686 -6416.91432307983
6687 -6415.685226701038
6688 -6414.322332921982
6689 -6413.482166456274
6690 -6412.72396863452
6691 -6412.373143380142
6692 -6411.973386359863
6693 -6412.574545157137
6694 -6412.725297259242
6695 -6413.897970020871
6696 -6414.547202094901
6697 -6416.022568674902
6698 -6417.353334052411
6699 -6419.873258452531
6700 -6421.325416053368
6701 -6424.821401690207
6702 -6427.576446126311
6703 -6429.92860072468
6704 -6432.736145420195
6705 -6436.368876726421
6706 -6439.707031463017
6707 -6444.127907859193
6708 -6447.647535203911
6709 -6451.692965485786
6710 -6455.299692079723
6711 -6459.596163728587
6712 -6462.646588307894
6713 -6466.078591891799
6714 -6468.484612095148
6715 -6471.162028281569
6716 -6473.004586219218
6717 -6474.859797519384
6718 -6475.412014299962
6719 -6476.049769123764
6720 -6475.775483635312
6721 -6475.625298034512
6722 -6474.271407415838
6723 -6472.888262618637
6724 -6470.313732541063
6725 -6467.635412242436
6726 -6463.683512076048
6727 -6461.249926994677
6728 -6455.843396574198
6729 -6450.523109671088
6730 -6444.018694902801
6731 -6439.878155562559
6732 -6431.965648131922
6733 -6424.113930629229
6734 -6415.659950857825
6735 -6407.391155983852
6736 -6398.274787519518
6737 -6389.572127483568
6738 -6380.047016450866
6739 -6371.363310383686
6740 -6361.767667682161
6741 -6352.977077769216
6742 -6343.911474493144
6743 -6335.409039858685
6744 -6326.585457189394
6745 -6318.650093384052
6746 -6310.633183118419
6747 -6303.658826353452
6748 -6296.310149791518
6749 -6290.097622989954
6750 -6283.817566033254
6751 -6278.730005670928
6752 -6273.638321621142
6753 -6269.74571893433
6754 -6265.881178641015
6755 -6263.116276752087
6756 -6260.184249259502
6757 -6258.473368443701
6758 -6256.924151298219
6759 -6256.369493671195
6760 -6255.718276916755
6761 -6256.029138283988
6762 -6256.271400782663
6763 -6257.276634183153
6764 -6258.388562102282
6765 -6260.434138371658
6766 -6261.643269303248
6767 -6264.365304230556
6768 -6265.953627168646
6769 -6269.292508575791
6770 -6271.214852691099
6771 -6274.748629741921
6772 -6276.84249332323
6773 -6280.807146775026
6774 -6283.111696290313
6775 -6287.074595744763
6776 -6289.411255888163
6777 -6293.311774158845
6778 -6295.441329240474
6779 -6299.188898070927
6780 -6301.154553685757
6781 -6303.485508004274
6782 -6306.087407535269
6783 -6308.061191931829
6784 -6310.022516309034
6785 -6311.523020367405
6786 -6312.592644842969
6787 -6313.67215885628
6788 -6313.910612697796
6789 -6314.314307850776
6790 -6313.725839475666
6791 -6313.577606530552
6792 -6312.08092903334
6793 -6311.270000904246
6794 -6308.880745499021
6795 -6306.576059183358
6796 -6304.380178326281
6797 -6301.334029559753
6798 -6298.726299037176
6799 -6295.19598749997
6800 -6291.067896781325
6801 -6288.443453408384
6802 -6283.842410600736
6803 -6279.999711016281
6804 -6277.000136368178
6805 -6273.125230281938
6806 -6270.097740370707
6807 -6266.357662146041
6808 -6263.613047520031
6809 -6260.269454644048
6810 -6257.653343864409
6811 -6254.693847750766
6812 -6252.477326087042
6813 -6250.1729298683
6814 -6248.47989560094
6815 -6246.907230580952
6816 -6245.738532579768
6817 -6245.103243753942
6818 -6244.50567614509
6819 -6244.711375411735
6820 -6244.823186160589
6821 -6246.050305558287
6822 -6246.777180962829
6823 -6248.939404253591
6824 -6250.325168578551
6825 -6253.252719277118
6826 -6255.068693194169
6827 -6258.696849067827
6828 -6261.184132257765
6829 -6265.680580028752
6830 -6268.506007314872
6831 -6273.274557205624
6832 -6276.257342538031
6833 -6281.800372373515
6834 -6286.844562507072
6835 -6290.607461294958
6836 -6295.410687952039
6837 -6299.122173803009
6838 -6303.881253678899
6839 -6307.412838800813
6840 -6312.038570701811
6841 -6315.401918215171
6842 -6319.4133638655
6843 -6322.322086604557
6844 -6325.682964685918
6845 -6328.337432848904
6846 -6331.285520556676
6847 -6333.349239370717
6848 -6335.159266612832
6849 -6336.700350661225
6850 -6337.901645252131
6851 -6338.789342078552
6852 -6338.97177545844
6853 -6339.246901535239
6854 -6338.295124647368
6855 -6337.790299980367
6856 -6335.768430354607
6857 -6334.692850904185
6858 -6331.797639371667
6859 -6330.088666158043
6860 -6327.556987902351
6861 -6323.891662446679
6862 -6320.538338224803
6863 -6317.735298944465
6864 -6312.468442042087
6865 -6309.119000420529
6866 -6305.046978757648
6867 -6299.407447257344
6868 -6294.968516278449
6869 -6291.052914652325
6870 -6284.613164534357
6871 -6280.682916419249
6872 -6276.182278779344
6873 -6270.100254155334
6874 -6265.739799298821
6875 -6262.06941964712
6876 -6255.840705264623
6877 -6252.398946314826
6878 -6248.506627824238
6879 -6243.734509414327
6880 -6240.2108134108
6881 -6236.100786785968
6882 -6233.139749066051
6883 -6229.740667034153
6884 -6227.391104133985
6885 -6224.794000135519
6886 -6223.081331064608
6887 -6221.554536635311
6888 -6220.224764859231
6889 -6219.330994402729
6890 -6218.496361914987
6891 -6218.479632741843
6892 -6218.196458533404
6893 -6218.978115575273
6894 -6219.197873904659
6895 -6220.426887583562
6896 -6220.817900440175
6897 -6222.450694585854
6898 -6223.234874964594
6899 -6225.143199979181
6900 -6226.03519842932
6901 -6227.670317930642
6902 -6229.044232095041
6903 -6230.533145337773
6904 -6231.580903568321
6905 -6233.148011354758
6906 -6234.798334678376
6907 -6236.209325538653
6908 -6236.949343493827
6909 -6238.25741549854
6910 -6238.934741840259
6911 -6240.038226583514
6912 -6240.543689979831
6913 -6241.902011288137
6914 -6242.190048036316
6915 -6242.807672661178
6916 -6242.87573523394
6917 -6243.331405451379
6918 -6243.24033238423
6919 -6243.567358760824
6920 -6243.408246240007
6921 -6243.548849005721
6922 -6243.190672508543
6923 -6243.313152655931
6924 -6242.81630793177
6925 -6242.897616134121
6926 -6242.526396367294
6927 -6242.688093253642
6928 -6242.400022939729
6929 -6242.797332885101
6930 -6242.817081218965
6931 -6243.590503574626
6932 -6243.907940251202
6933 -6245.083422011774
6934 -6245.595210896081
6935 -6246.816782096943
6936 -6247.501088456355
6937 -6249.267300731136
6938 -6250.402195363296
6939 -6252.05189038577
6940 -6253.469468362616
6941 -6255.466336439184
6942 -6257.316502679912
6943 -6259.628872500234
6944 -6262.63174233575
6945 -6265.170028804117
6946 -6267.299990169976
6947 -6269.99542662769
6948 -6273.879053925136
6949 -6276.810452014856
6950 -6279.145262562745
6951 -6283.556050325205
6952 -6286.02845473768
6953 -6290.207202259147
6954 -6292.481392312238
6955 -6296.435307078958
6956 -6298.508244718308
6957 -6302.013839635349
6958 -6303.613309230045
6959 -6306.595867930293
6960 -6307.897105876917
6961 -6310.214171582486
6962 -6310.993027683184
6963 -6312.194116961262
6964 -6312.662625317073
6965 -6313.134851844209
6966 -6312.725957993011
6967 -6312.618894825124
6968 -6311.581151068214
6969 -6310.421408151432
6970 -6308.742169617251
6971 -6307.332980649454
6972 -6303.960873411105
6973 -6301.898568620008
6974 -6298.869186678725
6975 -6296.454061073335
6976 -6291.73321499465
6977 -6288.678766053279
6978 -6284.992548490187
6979 -6279.828678716604
6980 -6275.798359968779
6981 -6270.138547094176
6982 -6265.987839831871
6983 -6260.357487602459
6984 -6256.203450236499
6985 -6250.605437920958
6986 -6246.319181055046
6987 -6240.683750555384
6988 -6236.663670750695
6989 -6231.559255866222
6990 -6227.628624922846
6991 -6222.6603400155
6992 -6219.145009822512
6993 -6214.817138362539
6994 -6210.241081500395
6995 -6207.90893226109
6996 -6203.892889474912
6997 -6200.803707060838
6998 -6198.520065710841
6999 -6196.061959528602
7000 -6193.355001161146
7001 -6192.24177482371
7002 -6190.109833923533
7003 -6189.180459175646
7004 -6187.438695583731
7005 -6186.740528734745
7006 -6185.146910281224
7007 -6184.815594010821
7008 -6183.890144726793
7009 -6183.725015829975
7010 -6182.610928633905
7011 -6182.513408116984
7012 -6181.820831035171
7013 -6181.769370378029
7014 -6181.088894197402
7015 -6180.932410690178
7016 -6180.259755740934
7017 -6180.187051197978
7018 -6179.567653766568
7019 -6179.38269028212
7020 -6178.683707412855
7021 -6178.275050955913
7022 -6177.403607013339
7023 -6176.935526299622
7024 -6175.928941657055
7025 -6175.479614288943
7026 -6174.477745010809
7027 -6173.953319079115
7028 -6172.860128648473
7029 -6172.36575989551
7030 -6171.355140593345
7031 -6170.761010614615
7032 -6169.748136942549
7033 -6169.307552252243
7034 -6168.387745339794
7035 -6168.106924039001
7036 -6167.302489799245
7037 -6167.093320020943
7038 -6166.48695867969
7039 -6166.597472153105
7040 -6166.214315147699
7041 -6166.551731682156
7042 -6166.485541037537
7043 -6167.086421177564
7044 -6167.27599659741
7045 -6168.110745482978
7046 -6168.60703634637
7047 -6169.821205122466
7048 -6170.598031117833
7049 -6172.061163914193
7050 -6173.00662903356
7051 -6174.617598781781
7052 -6175.839708875096
7053 -6177.721294401002
7054 -6179.004321424276
7055 -6180.84720520399
7056 -6182.171943282084
7057 -6184.094563656345
7058 -6185.330415534878
7059 -6187.122189115041
7060 -6188.197499320771
7061 -6189.928576428773
7062 -6190.929044029888
7063 -6192.282009161752
7064 -6192.980152681147
7065 -6194.259937897793
7066 -6194.668498298734
7067 -6195.533958654982
7068 -6195.490974291156
7069 -6195.860556229541
7070 -6195.597664899738
7071 -6195.497226353989
7072 -6194.673034295226
7073 -6194.369464736342
7074 -6193.32844813807
7075 -6192.69681273313
7076 -6191.295765147145
7077 -6190.409192974043
7078 -6188.028821508719
7079 -6186.874490064363
7080 -6185.201960439551
7081 -6183.536567987342
7082 -6181.980024593603
7083 -6180.343680341699
7084 -6179.062066744563
7085 -6177.858905615891
7086 -6176.843439934203
7087 -6176.604680524523
7088 -6175.859787854936
7089 -6175.961118739556
7090 -6175.903115812255
7091 -6176.497729898485
7092 -6177.011871888408
7093 -6178.88197162312
7094 -6179.97604277397
7095 -6181.693914555367
7096 -6183.238125033608
7097 -6186.404111437514
7098 -6188.447658017764
7099 -6191.267525829832
7100 -6195.239931086197
7101 -6198.427846106605
7102 -6202.565287237417
7103 -6206.027370930651
7104 -6210.537517667554
7105 -6214.236611427048
7106 -6218.735631071231
7107 -6224.017788062496
7108 -6227.136353596845
7109 -6232.188310371483
7110 -6236.469864210835
7111 -6239.759720069935
7112 -6243.499164387063
7113 -6247.660246412665
7114 -6249.801491525339
7115 -6253.438654887722
7116 -6255.156889552273
7117 -6257.981238608787
7118 -6259.195644664801
7119 -6261.291051604918
7120 -6261.890787850322
7121 -6262.828977765887
7122 -6263.241417626264
7123 -6263.605812643812
7124 -6263.231613484909
7125 -6263.16613606603
7126 -6262.217415917898
7127 -6261.178148983719
7128 -6259.826697327724
7129 -6258.748552674449
7130 -6256.939555388588
7131 -6255.384268995275
7132 -6252.064417539962
7133 -6250.415553208379
7134 -6248.13383704152
7135 -6246.323924703963
7136 -6243.092554212543
7137 -6241.262878372575
7138 -6238.772390105238
7139 -6236.901647636891
7140 -6233.480592395718
7141 -6231.756188764723
7142 -6229.676920089414
7143 -6228.103581743955
7144 -6226.193466106643
7145 -6224.221360344915
7146 -6222.63327079941
7147 -6221.672167926127
7148 -6220.407165358592
7149 -6219.525239065942
7150 -6218.669476225837
7151 -6218.53097962167
7152 -6218.069101231327
7153 -6218.367827982555
7154 -6218.368810197895
7155 -6219.007743038486
7156 -6219.446705207054
7157 -6220.573124986458
7158 -6221.707306563191
7159 -6223.010372896721
7160 -6224.010204001831
7161 -6225.680290896081
7162 -6226.908113302697
7163 -6228.780226550051
7164 -6230.226779496117
7165 -6232.267129166921
7166 -6233.840375378697
7167 -6235.977057404268
7168 -6237.432824469282
7169 -6239.426140356582
7170 -6240.779589686293
7171 -6242.594619949661
7172 -6243.681105363225
7173 -6245.22255535856
7174 -6246.06546697777
7175 -6247.20832782967
7176 -6247.592612564335
7177 -6248.314117942179
7178 -6248.30921324722
7179 -6248.602318281006
7180 -6248.053310880472
7181 -6247.764082598319
7182 -6246.601368645538
7183 -6245.802504471042
7184 -6244.155377026935
7185 -6242.858670614435
7186 -6239.79410748102
7187 -6238.230422743263
7188 -6235.786844019149
7189 -6232.621538109223
7190 -6229.932982660381
7191 -6226.285093998807
7192 -6223.310131884617
7193 -6219.675982576749
7194 -6215.551567386779
7195 -6213.285949651588
7196 -6209.197348080048
7197 -6205.920492521375
7198 -6203.392691453021
7199 -6200.590938038573
7200 -6197.415874247692
7201 -6196.060109108349
7202 -6193.578419233463
7203 -6192.711179841687
7204 -6190.866311686817
7205 -6190.064226320867
7206 -6189.262426379202
7207 -6189.028656469626
7208 -6188.61905202497
7209 -6189.146383668156
7210 -6189.302029594144
7211 -6190.473186269122
7212 -6190.983316284261
7213 -6192.823812127372
7214 -6193.797971802905
7215 -6196.079447420649
7216 -6197.377974816559
7217 -6200.258356737503
7218 -6201.819519893626
7219 -6204.935545202723
7220 -6206.611978109042
7221 -6209.753279943149
7222 -6212.269845150503
7223 -6214.313316359097
7224 -6216.672784350952
7225 -6219.398974937525
7226 -6220.643753172054
7227 -6222.960385936563
7228 -6223.883259450748
7229 -6225.667369611883
7230 -6226.557657672541
7231 -6227.560237480366
7232 -6227.764150624041
7233 -6228.360818814677
7234 -6228.258592293096
7235 -6228.364342894812
7236 -6227.494688238987
7237 -6227.159618506605
7238 -6225.504830047772
7239 -6224.151949966324
7240 -6222.475874739004
7241 -6220.485524581501
7242 -6218.234753399192
7243 -6215.393065356128
7244 -6211.563225986766
7245 -6209.307089632261
7246 -6204.991196980071
7247 -6200.897895519165
7248 -6195.987156065585
7249 -6191.598732547473
7250 -6186.486197684849
7251 -6182.069155398456
7252 -6177.354936287404
7253 -6172.764569367727
7254 -6167.939891418993
7255 -6163.686550775627
7256 -6159.308496677653
7257 -6155.680898263658
7258 -6151.475486251829
7259 -6148.229572924429
7260 -6144.693159853226
7261 -6142.267552542393
7262 -6139.557045490792
7263 -6137.93849750287
7264 -6136.207432037088
7265 -6135.477549029389
7266 -6134.462408688185
7267 -6134.73096094753
7268 -6135.052739188744
7269 -6136.254125411195
7270 -6137.061798549902
7271 -6139.17789054017
7272 -6140.945421675711
7273 -6143.853288587398
7274 -6146.30801875883
7275 -6148.836272834151
7276 -6152.209010828842
7277 -6156.72332709779
7278 -6159.425624783653
7279 -6164.770717315325
7280 -6169.680026162522
7281 -6173.488274849972
7282 -6178.755651641787
7283 -6184.844834358842
7284 -6188.228955851461
7285 -6194.496344751851
7286 -6200.116332188742
7287 -6204.377021851245
7288 -6209.746727179621
7289 -6213.736611853094
7290 -6218.714716756128
7291 -6223.924936347765
7292 -6226.697027119185
7293 -6231.383117857948
7294 -6233.52528259113
7295 -6237.312394886349
7296 -6238.964452754192
7297 -6241.770249197914
7298 -6242.712912856321
7299 -6244.549941695021
7300 -6244.984015863075
7301 -6245.753708443402
7302 -6245.492807969143
7303 -6245.245957279219
7304 -6244.202463028962
7305 -6242.887838357676
7306 -6241.171552917483
7307 -6238.954518847722
7308 -6236.60155458385
7309 -6233.611031806849
7310 -6230.809521741621
7311 -6228.564071896471
7312 -6224.130130627465
7313 -6221.661663182274
7314 -6216.718710665091
7315 -6213.879931525864
7316 -6208.765677740267
7317 -6206.004397052096
7318 -6202.475830263837
7319 -6198.141333331489
7320 -6194.693359596867
7321 -6191.995629724731
7322 -6187.371543514624
7323 -6185.060893844284
7324 -6182.189892779949
7325 -6178.801503437552
7326 -6176.251944364714
7327 -6174.644642447814
7328 -6171.755323746125
7329 -6170.78008700182
7330 -6169.260867565707
7331 -6168.332351002689
7332 -6167.373728991329
7333 -6167.51805066451
7334 -6167.236893669925
7335 -6167.99266060177
7336 -6168.516570619037
7337 -6169.865177872107
7338 -6171.470797878873
7339 -6173.391745057959
7340 -6175.613301833266
7341 -6177.888470805449
7342 -6180.694899787336
7343 -6183.271744260262
7344 -6186.37743778717
7345 -6189.130174352839
7346 -6192.453676058537
7347 -6195.333518261331
7348 -6197.559062563542
7349 -6201.687159930219
7350 -6203.760067062052
7351 -6206.437349699623
7352 -6208.42393291566
7353 -6210.834234471629
7354 -6212.546206972428
7355 -6214.661142593447
7356 -6215.945596099561
7357 -6217.765014757833
7358 -6218.653286879505
7359 -6219.853727287256
7360 -6220.15879571094
7361 -6220.864963756649
7362 -6220.619060184494
7363 -6220.779805152196
7364 -6219.971856902484
7365 -6219.637175212457
7366 -6218.278381385187
7367 -6217.453880973489
7368 -6215.675821951087
7369 -6214.383516100118
7370 -6212.127972070447
7371 -6210.439227678808
7372 -6207.966820579825
7373 -6204.825958183686
7374 -6202.194482227542
7375 -6200.206017613353
7376 -6197.460077620543
7377 -6194.26069369847
7378 -6191.545956437255
7379 -6189.612944913501
7380 -6187.145502496859
7381 -6185.445786351355
7382 -6182.342164502377
7383 -6181.075450535132
7384 -6179.400024256692
7385 -6178.544844327444
7386 -6177.32956623939
7387 -6176.996524265644
7388 -6176.213955902539
7389 -6176.274886034368
7390 -6175.864970128967
7391 -6176.329539261294
7392 -6176.560359978386
7393 -6177.651926549539
7394 -6178.358982609762
7395 -6179.960987387664
7396 -6181.738467776068
7397 -6183.750577569834
7398 -6185.252417946795
7399 -6188.507763184085
7400 -6190.325811342615
7401 -6192.820374704978
7402 -6196.010818193341
7403 -6198.671754363502
7404 -6201.974210497566
7405 -6204.669630148182
7406 -6207.844352387561
7407 -6210.572583869212
7408 -6213.477011756504
7409 -6215.927586297559
7410 -6217.561483749517
7411 -6220.518967122796
7412 -6221.657217809761
7413 -6223.252308431774
7414 -6224.49017855402
7415 -6225.676636183171
7416 -6225.877188731029
7417 -6226.871163638069
7418 -6226.65481048261
7419 -6226.818353184073
7420 -6225.784102263373
7421 -6225.464547980878
7422 -6224.203357918623
7423 -6222.68607968812
7424 -6220.886046395725
7425 -6218.683634098663
7426 -6216.55781967543
7427 -6213.849693682446
7428 -6211.273998618021
7429 -6208.002756432509
7430 -6205.150721354344
7431 -6201.437218682157
7432 -6198.250614920092
7433 -6194.337435898188
7434 -6189.840728563203
7435 -6187.372234977298
7436 -6182.849147230637
7437 -6180.48791739048
7438 -6176.18656932132
7439 -6173.858251133928
7440 -6169.77995223377
7441 -6167.831325017136
7442 -6164.11480139931
7443 -6162.455176553412
7444 -6159.348615102439
7445 -6158.000593211004
7446 -6155.525172994535
7447 -6154.649951627045
7448 -6152.736438004888
7449 -6152.212998012905
7450 -6151.056264046591
7451 -6151.066537273668
7452 -6150.510410370599
7453 -6150.872024049608
7454 -6151.008120024298
7455 -6151.755944584409
7456 -6152.418777258875
7457 -6153.618299759483
7458 -6154.759820419158
7459 -6156.245959790481
7460 -6157.320075658247
7461 -6159.930255710397
7462 -6161.230839926142
7463 -6164.099260534844
7464 -6165.578508850815
7465 -6167.811443867738
7466 -6170.344110415286
7467 -6172.696252708896
7468 -6174.313875135308
7469 -6177.666942354326
7470 -6179.212967319369
7471 -6181.393318836671
7472 -6182.938363488137
7473 -6185.868037652718
7474 -6187.191954001805
7475 -6188.897795479698
7476 -6189.931404801495
7477 -6191.328576195405
7478 -6192.373280822165
7479 -6193.40662231097
7480 -6193.652104072522
7481 -6194.246280132759
7482 -6194.047863836738
7483 -6194.330348505306
7484 -6193.706539560523
7485 -6193.156536345121
7486 -6192.036678593152
7487 -6191.342011371156
7488 -6189.262154918173
7489 -6188.117096554764
7490 -6186.287894023904
7491 -6183.854938439868
7492 -6181.554803607555
7493 -6179.594068770099
7494 -6175.873343669204
7495 -6173.793903285326
7496 -6170.012452171054
7497 -6167.822179890115
7498 -6164.986468741209
7499 -6161.477930091181
7500 -6158.565484123076
7501 -6156.17461045709
7502 -6151.93160285633
7503 -6149.767550146844
7504 -6146.804795483637
7505 -6143.529638524867
7506 -6140.947182182423
7507 -6139.081600654573
7508 -6136.660465930653
7509 -6134.213600740897
7510 -6132.093765605528
7511 -6130.935499620172
7512 -6128.57112367502
7513 -6127.802107138214
7514 -6126.521084805167
7515 -6125.878991558101
7516 -6125.11739963619
7517 -6125.289458504088
7518 -6124.996658751447
7519 -6125.714774950127
7520 -6125.94559169367
7521 -6127.263129737083
7522 -6128.508381911133
7523 -6130.110082831055
7524 -6131.243927474705
7525 -6133.188249484582
7526 -6134.697683313037
7527 -6138.176919811262
7528 -6140.062283514743
7529 -6142.667661658599
7530 -6145.905232994062
7531 -6148.702180966561
7532 -6150.978570748372
7533 -6155.319026457347
7534 -6157.55568389674
7535 -6160.450685781853
7536 -6163.905875045527
7537 -6166.676128553077
7538 -6168.859578696528
7539 -6172.598448461828
7540 -6174.429865242452
7541 -6176.794794100275
7542 -6179.441305035321
7543 -6181.570490622696
7544 -6183.017780247903
7545 -6185.652028934062
7546 -6186.742055269598
7547 -6188.18451067596
7548 -6189.537469634853
7549 -6190.64670246462
7550 -6191.355974758179
7551 -6192.211923257059
7552 -6192.465384960151
7553 -6193.166735710832
7554 -6193.043739437178
7555 -6193.393947691688
7556 -6192.908544159288
7557 -6193.011087794801
7558 -6192.295503938316
7559 -6192.323800426881
7560 -6191.591531050619
7561 -6191.24859774021
7562 -6190.478714369871
7563 -6190.384730570378
7564 -6189.468629235589
7565 -6189.350771275114
7566 -6188.737198733697
7567 -6188.772563648903
7568 -6188.138432304609
7569 -6188.276923725511
7570 -6187.815721008039
7571 -6188.035373880597
7572 -6187.783348629978
7573 -6187.977077022596
7574 -6187.651955882394
7575 -6188.123705375389
7576 -6187.883459028715
7577 -6188.304868172775
7578 -6188.407312800288
7579 -6189.155362349718
7580 -6189.269300886385
7581 -6190.083011351253
7582 -6190.451029426336
7583 -6191.540151708627
7584 -6191.900120417253
7585 -6193.035902806411
7586 -6193.546640979215
7587 -6194.933419886123
7588 -6196.014374632489
7589 -6197.580583349712
7590 -6198.460282523361
7591 -6200.00613691958
7592 -6201.039904342636
7593 -6202.62225946419
7594 -6204.471418063075
7595 -6206.174301163998
7596 -6207.092502242765
7597 -6208.596047550655
7598 -6209.462832231981
7599 -6210.891182531806
7600 -6211.729358392756
7601 -6212.99723988319
7602 -6213.558709624246
7603 -6214.886091181814
7604 -6215.325763570068
7605 -6216.279518616959
7606 -6216.529410927793
7607 -6217.339368547347
7608 -6217.357508225181
7609 -6217.895351072728
7610 -6217.704133381229
7611 -6217.961312806729
7612 -6217.500632453605
7613 -6217.534508562135
7614 -6216.991567503024
7615 -6216.898902229344
7616 -6216.055583386677
7617 -6215.817752175436
7618 -6214.686653191977
7619 -6214.400659030737
7620 -6213.230960694726
7621 -6212.784684393126
7622 -6211.732181887957
7623 -6211.423281877207
7624 -6210.464778440329
7625 -6210.142001822288
7626 -6209.302490312168
7627 -6209.295191568356
7628 -6208.802011714036
7629 -6209.11294825298
7630 -6208.845348687876
7631 -6209.30288129865
7632 -6209.210735190894
7633 -6210.01043202449
7634 -6210.407640460568
7635 -6211.488871585774
7636 -6212.209692737917
7637 -6213.771488262562
7638 -6214.771100193849
7639 -6216.67844155611
7640 -6218.054774409524
7641 -6220.248278015581
7642 -6221.839177566902
7643 -6224.38608789785
7644 -6226.265557271015
7645 -6228.886826771878
7646 -6230.786375292751
7647 -6233.520824918782
7648 -6235.560137694515
7649 -6238.360186272795
7650 -6240.570976344792
7651 -6243.472707461277
7652 -6245.650231870374
7653 -6248.471692335705
7654 -6250.488624632448
7655 -6253.173817584774
7656 -6255.137141836305
7657 -6257.627619867039
7658 -6259.300202082946
7659 -6261.414738994771
7660 -6262.801596225586
7661 -6264.526828366764
7662 -6265.572212151962
7663 -6267.007630129934
7664 -6267.501018990921
7665 -6268.504798581408
7666 -6268.567791562053
7667 -6269.041441158334
7668 -6268.64892078532
7669 -6268.691312181881
7670 -6267.788843079303
7671 -6267.348322237971
7672 -6265.991725458735
7673 -6264.91716838759
7674 -6263.057723593831
7675 -6261.650281912422
7676 -6259.305741917417
7677 -6257.380438564526
7678 -6254.628356212294
7679 -6252.350407893194
7680 -6249.345467680563
7681 -6246.70248540817
7682 -6243.455677948928
7683 -6240.791952590984
7684 -6235.976514375052
7685 -6233.223136096451
7686 -6229.861408578314
7687 -6227.121322514172
7688 -6222.418343564538
7689 -6219.961358713796
7690 -6217.009344557159
7691 -6213.475243363445
7692 -6210.769425892901
7693 -6208.791666480067
7694 -6205.340954798548
7695 -6203.78923870298
7696 -6200.903155602645
7697 -6199.658777494174
7698 -6197.48322265769
7699 -6196.778601731186
7700 -6195.159874346478
7701 -6194.875043905847
7702 -6193.917539963551
7703 -6194.027464092113
7704 -6193.751016053565
7705 -6194.190944880414
7706 -6194.25699475957
7707 -6195.029485148774
7708 -6195.850562500071
7709 -6196.841054689197
7710 -6197.48509878849
7711 -6198.849855518648
7712 -6199.876861861802
7713 -6201.442161487266
7714 -6202.625633111921
7715 -6204.442260637697
7716 -6205.733771087388
7717 -6207.55157003218
7718 -6208.968547530782
7719 -6210.977128780038
7720 -6212.397464558523
7721 -6214.458214469254
7722 -6215.97401261542
7723 -6218.097573909558
7724 -6219.572114487408
7725 -6221.574883532063
7726 -6222.968489096634
7727 -6224.860755871485
7728 -6226.107490768497
7729 -6227.894791296733
7730 -6229.006069380289
7731 -6230.66204433442
7732 -6231.615032195352
7733 -6232.995864976187
7734 -6233.749236841985
7735 -6235.00177665202
7736 -6235.616305961818
7737 -6236.727156587443
7738 -6236.9850603737
7739 -6237.985511722849
7740 -6238.215891807969
7741 -6238.935634053338
7742 -6239.030753719187
7743 -6239.559945013717
7744 -6239.353361644742
7745 -6239.752092617587
7746 -6239.56393362494
7747 -6239.725360793177
7748 -6239.310234776311
7749 -6239.516918898316
7750 -6239.222421524591
7751 -6239.375789305377
7752 -6238.991452069567
7753 -6239.222315242692
7754 -6238.984260027427
7755 -6239.367327286748
7756 -6239.086894642699
7757 -6239.423609263044
7758 -6239.195582972817
7759 -6239.630116302789
7760 -6239.406403704689
7761 -6240.019025025836
7762 -6240.033819644766
7763 -6240.91121866841
7764 -6241.123727466001
7765 -6242.113965230278
7766 -6242.446132063595
7767 -6243.414276924253
7768 -6243.824594103712
7769 -6244.919468155673
7770 -6245.436703288507
7771 -6246.607104441307
7772 -6247.138971443267
7773 -6248.267531172331
7774 -6248.858100018725
7775 -6249.928007718517
7776 -6250.231087353557
7777 -6251.230212125111
7778 -6251.527421194789
7779 -6252.278114130375
7780 -6252.450319505775
7781 -6252.984200161563
7782 -6252.958383490871
7783 -6253.35114850866
7784 -6253.00035840378
7785 -6253.146993477092
7786 -6252.621511613889
7787 -6252.632311847256
7788 -6251.915064909276
7789 -6251.627280824182
7790 -6250.656213748259
7791 -6250.144703774967
7792 -6248.960795058001
7793 -6248.271229369201
7794 -6246.862238785719
7795 -6246.087329385565
7796 -6244.433981085922
7797 -6243.387923473845
7798 -6241.688437122897
7799 -6240.605939099099
7800 -6238.852498529404
7801 -6237.753425131476
7802 -6236.011667238759
7803 -6234.988871534171
7804 -6233.341232093371
7805 -6232.47885838441
7806 -6231.004736978723
7807 -6230.309369406603
7808 -6229.06698604783
7809 -6228.63921101862
7810 -6227.787297572376
7811 -6227.704674426774
7812 -6227.087363769952
7813 -6227.326908943437
7814 -6227.208059744086
7815 -6227.809640218125
7816 -6227.938800982061
7817 -6228.734483217621
7818 -6229.294217212756
7819 -6230.594660769355
7820 -6231.345710172584
7821 -6232.780024421763
7822 -6233.877786824987
7823 -6235.590836624914
7824 -6236.799305663706
7825 -6238.60754000105
7826 -6239.98878547304
7827 -6241.962812996355
7828 -6243.382655674562
7829 -6245.591701734078
7830 -6247.086296933738
7831 -6249.224423353807
7832 -6250.751097487315
7833 -6252.634104108438
7834 -6254.711326653448
7835 -6256.466460815541
7836 -6257.438267870437
7837 -6258.942265981239
7838 -6259.724132771445
7839 -6261.319413740443
7840 -6261.806289132858
7841 -6262.806746208958
7842 -6262.908674964675
7843 -6263.408873297371
7844 -6263.425580877351
7845 -6263.735474157361
7846 -6263.177532502191
7847 -6262.966346608111
7848 -6262.004622764328
7849 -6261.018742330789
7850 -6259.898592195284
7851 -6259.159359472383
7852 -6257.779832155074
7853 -6256.833431794828
7854 -6254.688958243556
7855 -6253.583785372562
7856 -6251.783624136282
7857 -6250.52621411417
7858 -6248.770119880204
7859 -6246.743723243198
7860 -6245.012860231033
7861 -6243.796648304313
7862 -6242.252645581958
7863 -6240.571025221403
7864 -6239.133355419608
7865 -6238.376222542385
7866 -6237.116302016332
7867 -6236.033441362696
7868 -6235.003587386644
7869 -6234.69016923624
7870 -6233.87924171841
7871 -6234.028450136987
7872 -6233.710728107305
7873 -6234.044662072723
7874 -6234.153230275253
7875 -6234.703753723332
7876 -6235.311205381114
7877 -6236.386819735317
7878 -6237.508328901942
7879 -6238.899615570984
7880 -6240.489093299712
7881 -6242.181007156155
7882 -6244.082334778578
7883 -6246.151065641609
7884 -6247.632811513044
7885 -6250.639470165123
7886 -6252.143448056568
7887 -6254.483910304455
7888 -6256.969009979802
7889 -6259.132342611381
7890 -6260.75389646951
7891 -6263.037429982443
7892 -6264.829741421529
7893 -6267.154789158325
7894 -6268.792486585679
7895 -6271.101953272656
7896 -6272.478804084423
7897 -6274.322813631155
7898 -6275.642782030471
7899 -6277.544143874683
7900 -6278.491980314865
7901 -6279.953280324061
7902 -6280.793598579972
7903 -6282.150117002441
7904 -6282.64216608787
7905 -6283.838408537185
7906 -6284.085444561757
7907 -6284.735795828485
7908 -6284.613243636944
7909 -6284.831046879003
7910 -6284.234390413468
7911 -6284.23624745338
7912 -6283.345427808735
7913 -6282.840448961477
7914 -6281.719534295244
7915 -6280.926606959094
7916 -6279.468195093185
7917 -6278.496908173655
7918 -6276.781446997596
7919 -6275.563646923623
7920 -6273.760940537895
7921 -6272.395789054985
7922 -6270.394194697819
7923 -6269.024354796228
7924 -6266.970439828063
7925 -6265.494064431886
7926 -6263.669733274306
7927 -6262.298606450227
7928 -6260.580670155173
7929 -6259.371154428621
7930 -6257.731090144992
7931 -6256.787417880832
7932 -6255.444070368065
7933 -6254.579169788565
7934 -6253.22000434759
7935 -6252.677605720492
7936 -6251.861465201215
7937 -6251.62030620654
7938 -6250.956319714097
7939 -6250.964418513627
7940 -6250.546358197827
7941 -6250.873859908027
7942 -6250.829558306006
7943 -6251.359171317794
7944 -6251.608865639067
7945 -6252.441003347879
7946 -6252.877166754614
7947 -6253.915634645356
7948 -6254.499183545842
7949 -6255.740252131553
7950 -6256.380160403505
7951 -6257.949605362813
7952 -6258.501704676904
7953 -6259.698786448833
7954 -6260.268372802399
7955 -6261.321496891401
7956 -6262.314606949304
7957 -6263.06864064745
7958 -6263.239529362887
7959 -6263.815237353378
7960 -6263.825509460466
7961 -6264.145350663122
7962 -6263.7011196225
7963 -6263.48256617842
7964 -6262.756824688122
7965 -6262.372926246562
7966 -6261.382842965357
7967 -6260.244960045059
7968 -6258.965945870605
7969 -6257.713338188019
7970 -6255.108764399893
7971 -6253.652112585013
7972 -6251.536462828282
7973 -6248.752147777339
7974 -6246.45097886219
7975 -6243.494400669653
7976 -6240.956408208423
7977 -6237.753046892118
7978 -6235.102442753627
7979 -6231.805484215675
7980 -6229.269245913562
7981 -6226.219519800567
7982 -6223.64096889617
7983 -6220.587371449389
7984 -6218.218135742751
7985 -6215.699850732789
7986 -6213.621898653207
7987 -6211.648654090763
7988 -6209.865444015373
7989 -6208.234755711974
7990 -6206.99856473407
7991 -6206.015746816819
7992 -6205.285208747529
7993 -6205.300169841395
7994 -6205.019220663141
7995 -6205.451523992951
7996 -6205.69990423882
7997 -6206.894408631743
7998 -6207.583129877104
7999 -6209.71381219061
8000 -6210.915015454955
8001 -6214.063012436286
8002 -6215.676116319734
8003 -6218.068964427281
8004 -6221.249571342507
8005 -6224.024105753743
8006 -6226.622754067316
8007 -6231.015287968897
8008 -6233.759039946167
8009 -6237.040066778448
8010 -6241.890109007099
8011 -6245.441373248985
8012 -6250.332016610736
8013 -6253.92945613815
8014 -6257.047023822612
8015 -6262.316486448293
8016 -6265.700040931124
8017 -6271.24829196914
8018 -6274.456115020347
8019 -6279.617204232548
8020 -6282.740462454602
8021 -6287.570725636226
8022 -6290.212004421876
8023 -6294.624667393873
8024 -6296.886570225925
8025 -6300.833230960086
8026 -6302.733930040116
8027 -6306.113135923851
8028 -6307.582922303602
8029 -6310.02607420146
8030 -6310.960501284249
8031 -6312.596862725839
8032 -6313.068897807073
8033 -6313.774235068124
8034 -6313.947502843634
8035 -6314.153689933791
8036 -6313.707489107457
8037 -6313.421551232024
8038 -6311.830871615201
8039 -6311.125071006177
8040 -6309.621851990338
8041 -6308.516416396144
8042 -6306.701900366087
8043 -6305.251763469618
8044 -6303.058802213555
8045 -6301.139179721375
8046 -6298.758124816581
8047 -6296.642689630225
8048 -6293.788072279257
8049 -6291.343284087207
8050 -6288.343226817577
8051 -6285.637799589755
8052 -6282.217174192841
8053 -6277.914432323576
8054 -6274.664391365782
8055 -6271.945339978963
8056 -6267.159543838634
8057 -6264.614164683402
8058 -6260.035746324003
8059 -6257.602363928717
8060 -6253.646551401257
8061 -6251.510968944692
8062 -6247.749446282271
8063 -6245.105349450238
8064 -6242.23909972366
8065 -6240.087199609626
8066 -6238.002844635712
8067 -6236.512687518534
8068 -6234.95012445233
8069 -6234.203182797147
8070 -6233.096534217388
8071 -6232.918326834746
8072 -6232.593969987021
8073 -6233.521025068289
8074 -6233.771062565276
8075 -6235.124301721903
8076 -6235.983648802452
8077 -6238.056547459216
8078 -6239.433246012632
8079 -6241.645745113416
8080 -6243.270028410696
8081 -6246.052124616679
8082 -6247.931739213312
8083 -6251.252717159709
8084 -6253.344717039174
8085 -6256.782714408375
8086 -6258.912746014604
8087 -6262.24706890682
8088 -6265.001931687081
8089 -6268.493131345161
8090 -6271.814871508922
8091 -6275.632677898348
8092 -6278.019897847674
8093 -6280.810120483654
8094 -6283.04958943541
8095 -6285.654736281665
8096 -6288.05253388219
8097 -6290.767813282479
8098 -6292.518502680467
8099 -6294.396755991086
8100 -6294.847845704739
8101 -6295.900127385066
8102 -6296.170898233197
8103 -6296.478152735148
8104 -6295.068392565482
8105 -6294.034611307302
8106 -6292.132021112517
8107 -6290.356447067707
8108 -6287.797134270899
8109 -6284.895651253065
8110 -6281.532881712234
8111 -6278.440830258332
8112 -6273.52934947158
8113 -6268.993573023102
8114 -6263.233506801075
8115 -6258.207728725422
8116 -6252.555781502655
8117 -6247.38244689716
8118 -6241.225176575665
8119 -6235.864832982159
8120 -6229.436557080546
8121 -6224.222230774682
8122 -6218.863286772184
8123 -6214.02334726893
8124 -6209.103751507625
8125 -6205.360525807917
8126 -6201.681968656624
8127 -6199.401006016034
8128 -6196.988648243333
8129 -6196.278988692263
8130 -6195.250216350022
8131 -6195.631465739189
8132 -6196.645778398731
8133 -6198.56408534574
8134 -6200.800616179912
8135 -6204.306066369631
8136 -6208.308817449016
8137 -6212.969504566892
8138 -6217.961438839345
8139 -6224.171221541112
8140 -6230.507665847565
8141 -6238.015920527978
8142 -6245.61276711285
8143 -6253.968175419785
8144 -6262.283232522746
8145 -6271.990822242303
8146 -6281.197075573137
8147 -6291.518371955776
8148 -6300.840973744428
8149 -6310.783391465618
8150 -6319.888457482873
8151 -6329.796079677036
8152 -6338.736262737649
8153 -6348.031790811349
8154 -6356.524202885562
8155 -6364.60913590274
8156 -6372.267920431133
8157 -6379.644215293671
8158 -6386.324551992617
8159 -6392.436314196147
8160 -6397.49023471592
8161 -6402.345545712245
8162 -6406.026229764328
8163 -6409.555913956895
8164 -6411.437834779596
8165 -6412.908493164711
8166 -6412.740695009266
8167 -6412.252675104189
8168 -6410.121355691684
8169 -6407.498940424089
8170 -6403.651181094926
8171 -6399.099601729551
8172 -6393.2325460366
8173 -6387.542178528292
8174 -6380.265314503059
8175 -6373.20437954171
8176 -6365.230802601428
8177 -6357.233239309964
8178 -6347.837413325004
8179 -6338.959827687548
8180 -6329.430080033218
8181 -6320.367945044836
8182 -6310.77817649288
8183 -6301.774494426822
8184 -6291.901399708675
8185 -6283.28908237727
8186 -6274.352443445965
8187 -6266.469924275412
8188 -6258.337247797629
8189 -6251.445546487943
8190 -6244.464533417627
8191 -6238.732559252547
8192 -6233.442721852658
8193 -6229.381680538403
8194 -6225.508279930388
8195 -6223.133896591822
8196 -6220.860996459787
8197 -6220.051074460592
8198 -6219.55756501129
8199 -6220.291095521288
8200 -6221.341796644454
8201 -6223.575183181164
8202 -6226.299755062881
8203 -6230.025977454442
8204 -6234.240131944553
8205 -6239.642026027321
8206 -6244.966497724822
8207 -6251.135768059149
8208 -6257.058743026761
8209 -6264.256824310712
8210 -6271.038026139717
8211 -6278.556804156041
8212 -6285.538125979477
8213 -6293.589589394676
8214 -6300.556369471407
8215 -6307.982279901347
8216 -6314.395062331911
8217 -6321.236371543201
8218 -6325.262423756431
8219 -6331.277020059715
8220 -6336.375192350546
8221 -6341.322636719486
8222 -6345.040326617492
8223 -6348.50611345872
8224 -6350.758635297844
8225 -6352.92168792832
8226 -6353.603995135198
8227 -6354.015396338561
8228 -6353.2202816391
8229 -6352.400759132667
8230 -6350.231648108304
8231 -6347.959025317821
8232 -6344.81604884297
8233 -6341.522536828932
8234 -6337.403626093614
8235 -6333.673565800023
8236 -6328.86411069498
8237 -6324.683303256652
8238 -6319.702618500145
8239 -6315.306586919783
8240 -6310.517474198797
8241 -6306.54500810493
8242 -6302.122090587166
8243 -6298.669050281464
8244 -6294.64581945933
8245 -6291.74817044911
8246 -6288.380922228779
8247 -6286.983108187581
8248 -6284.891198180866
8249 -6283.735661911082
8250 -6282.925999759391
8251 -6282.880722433492
8252 -6282.813548629865
8253 -6283.638943092295
8254 -6285.229412606177
8255 -6287.645635305967
8256 -6289.037905348317
8257 -6292.546398086321
8258 -6294.505968940547
8259 -6298.625446952039
8260 -6302.238696019716
8261 -6306.978637376505
8262 -6311.336941913946
8263 -6316.653965283511
8264 -6321.578901280166
8265 -6327.535599847573
8266 -6332.912513638817
8267 -6338.636951696481
8268 -6344.126016823137
8269 -6349.825319736432
8270 -6354.831545364372
8271 -6360.141461015603
8272 -6364.501326073295
8273 -6368.975065662896
8274 -6372.464415951705
8275 -6375.743635772503
8276 -6377.792543507702
8277 -6379.96293097221
8278 -6380.512091694723
8279 -6381.357364161132
8280 -6380.861398838876
8281 -6380.380102708325
8282 -6378.048589114448
8283 -6376.145058288393
8284 -6372.975903931982
8285 -6369.643363748348
8286 -6366.471150495616
8287 -6362.088623737859
8288 -6356.831055215461
8289 -6351.577642758284
8290 -6345.607798989268
8291 -6339.922049615056
8292 -6333.342288577047
8293 -6327.477169484644
8294 -6320.772867552755
8295 -6314.850953248059
8296 -6308.571356650212
8297 -6302.893006498935
8298 -6296.758091583488
8299 -6291.464282447593
8300 -6286.001052211255
8301 -6281.363404238684
8302 -6276.45516499666
8303 -6273.85890231556
8304 -6269.609771756125
8305 -6266.275498601159
8306 -6262.77710880398
8307 -6261.350584731981
8308 -6258.577643611735
8309 -6257.022092171271
8310 -6255.389193258083
8311 -6255.117627839069
8312 -6254.254929519018
8313 -6254.232596720653
8314 -6253.917583753132
8315 -6254.680519547104
8316 -6255.805366804112
8317 -6257.356005495974
8318 -6258.661197830566
8319 -6260.3524303631
8320 -6262.225209354773
8321 -6264.780814183583
8322 -6266.292976316962
8323 -6269.212739472873
8324 -6271.561195015654
8325 -6273.705273830275
8326 -6275.786291440418
8327 -6277.817238666178
8328 -6280.123506333715
8329 -6282.001179930556
8330 -6283.823931561506
8331 -6285.53963742355
8332 -6286.750921306752
8333 -6287.729166749005
8334 -6287.986836122523
8335 -6288.65102319534
8336 -6288.555568154003
8337 -6288.886857906479
8338 -6288.267270131982
8339 -6288.151496629072
8340 -6286.795407740708
8341 -6286.119140706388
8342 -6283.771904917949
8343 -6282.691772416901
8344 -6280.076436876804
8345 -6277.594308878569
8346 -6275.171848589539
8347 -6272.074443136154
8348 -6268.297702866805
8349 -6265.073931687447
8350 -6262.200707248747
8351 -6258.530109695824
8352 -6254.639483401405
8353 -6252.210139251595
8354 -6247.812824072158
8355 -6244.438932156027
8356 -6241.62922625496
8357 -6238.138501903102
8358 -6235.751783533521
8359 -6232.898710103377
8360 -6230.730072023533
8361 -6228.160445536296
8362 -6226.710427732626
8363 -6225.399682578186
8364 -6224.367586390199
8365 -6223.770690655032
8366 -6223.460694475711
8367 -6223.879370184755
8368 -6224.389993487026
8369 -6225.794939771844
8370 -6226.759175946664
8371 -6229.600341517405
8372 -6231.45619329527
8373 -6234.87034695638
8374 -6238.371791597134
8375 -6243.002479240025
8376 -6247.578205928707
8377 -6252.770227611731
8378 -6257.751792465747
8379 -6263.264747437787
8380 -6268.898689746397
8381 -6274.909476453015
8382 -6280.377546492407
8383 -6286.541815293982
8384 -6291.65754568479
8385 -6297.598640428359
8386 -6302.561800276598
8387 -6307.815716069622
8388 -6311.954004046559
8389 -6315.64039226165
8390 -6318.279492581183
8391 -6320.772141686799
8392 -6321.614123932901
8393 -6322.356459131525
8394 -6322.143625010875
8395 -6320.900933668188
8396 -6318.672425162839
8397 -6316.059277534363
8398 -6311.684812260142
8399 -6306.654456386078
8400 -6300.57456649989
8401 -6293.724240590452
8402 -6285.726048721409
8403 -6277.023849963171
8404 -6267.161367340124
8405 -6257.607543733013
8406 -6246.768007003067
8407 -6235.703610621656
8408 -6224.087970156753
8409 -6212.73703281383
8410 -6200.829491526721
8411 -6189.938272764656
8412 -6178.96124400131
8413 -6168.856465320844
8414 -6158.435213063807
8415 -6149.106189897056
8416 -6140.152462279299
8417 -6132.376514666443
8418 -6125.351749144463
8419 -6119.555008370698
8420 -6114.62360647132
8421 -6111.290716071403
8422 -6108.461554268788
8423 -6107.209276637943
8424 -6106.875135930968
8425 -6108.423052495739
8426 -6110.379559205442
8427 -6114.502977847574
8428 -6119.024055615721
8429 -6125.781038912288
8430 -6133.021575866535
8431 -6141.537451239825
8432 -6150.602873563054
8433 -6160.871380867847
8434 -6171.962520251616
8435 -6184.296398965772
8436 -6196.230264128893
8437 -6209.770922976547
8438 -6223.129078291881
8439 -6237.493325181703
8440 -6251.416565863676
8441 -6265.955502414989
8442 -6280.283327038759
8443 -6295.057352078376
8444 -6308.472466482451
8445 -6322.330231191365
8446 -6335.259060107714
8447 -6348.244913986185
8448 -6359.864990521995
8449 -6371.269181441588
8450 -6381.003797369577
8451 -6390.82331116483
8452 -6399.029190891239
8453 -6407.042940656004
8454 -6413.408537104167
8455 -6419.588855430187
8456 -6424.072333080653
8457 -6428.409714318883
8458 -6431.105552584249
8459 -6433.284643016506
8460 -6434.23134767689
8461 -6434.717781503901
8462 -6433.667693746748
8463 -6432.758847605677
8464 -6430.157035267467
8465 -6428.490982920791
8466 -6424.238543909476
8467 -6421.587489934389
8468 -6416.16719093696
8469 -6412.67963309485
8470 -6406.458047980694
8471 -6402.473482028029
8472 -6395.159055389304
8473 -6390.669239503089
8474 -6382.827369375639
8475 -6377.874146001264
8476 -6369.557265034973
8477 -6364.452250018109
8478 -6355.980455180226
8479 -6350.977324902921
8480 -6342.550539797178
8481 -6337.452510796998
8482 -6329.441872332183
8483 -6324.710377077185
8484 -6317.002438640579
8485 -6312.619055911998
8486 -6305.698233485124
8487 -6301.569357455282
8488 -6295.377457855198
8489 -6290.284061264304
8490 -6285.156311032692
8491 -6281.210402080385
8492 -6277.28099266364
8493 -6274.557988479976
8494 -6271.688942576159
8495 -6270.027069003802
8496 -6268.329918871265
8497 -6267.728958033811
8498 -6267.082381482932
8499 -6267.242157011342
8500 -6267.164354001726
8501 -6268.004780778199
8502 -6268.753765686936
8503 -6269.973600299723
8504 -6271.171225574397
8505 -6272.744296096942
8506 -6274.473302919112
8507 -6275.996306822693
8508 -6277.147950700806
8509 -6279.712954360174
8510 -6280.98012444084
8511 -6282.897139922473
8512 -6284.31503389887
8513 -6286.127804595701
8514 -6287.300506204135
8515 -6288.978681353395
8516 -6290.142404152029
8517 -6291.80694569823
8518 -6292.718218673969
8519 -6294.241307665369
8520 -6294.890205449129
8521 -6296.031657892187
8522 -6296.520400510276
8523 -6297.414097396113
8524 -6297.605209915571
8525 -6298.212062088682
8526 -6298.186627947754
8527 -6298.528072181994
8528 -6298.02051199677
8529 -6297.678896748308
8530 -6296.710225686008
8531 -6296.016724377443
8532 -6294.062325509917
8533 -6292.946097961842
8534 -6290.478747773046
8535 -6289.114000019105
8536 -6286.041347873354
8537 -6284.270911188646
8538 -6280.654597423817
8539 -6278.483947359226
8540 -6274.29810570644
8541 -6271.95956761437
8542 -6267.494926127141
8543 -6264.953884229662
8544 -6260.299366351541
8545 -6257.569068263015
8546 -6252.901773440839
8547 -6250.198001168516
8548 -6246.923747005163
8549 -6243.012542925133
8550 -6239.730652515338
8551 -6235.648252788962
8552 -6232.525378858482
8553 -6230.118875416387
8554 -6226.04154923126
8555 -6223.949437940432
8556 -6220.110144568816
8557 -6218.380920745491
8558 -6215.276391286887
8559 -6213.847148863589
8560 -6211.1410938091
8561 -6210.208905947346
8562 -6208.418991339513
8563 -6207.917934621023
8564 -6206.869925236662
8565 -6206.789559934332
8566 -6206.227924098212
8567 -6206.607892466778
8568 -6206.921504740222
8569 -6207.934042240738
8570 -6208.910437866057
8571 -6210.297883693684
8572 -6211.845150941876
8573 -6213.618240359645
8574 -6215.876534690189
8575 -6217.907812685989
8576 -6219.49960537173
8577 -6223.042900339203
8578 -6224.879528138445
8579 -6228.527562229248
8580 -6230.833979821907
8581 -6234.869752179076
8582 -6237.145412496208
8583 -6241.229611195683
8584 -6243.592536237758
8585 -6247.61574215066
8586 -6249.823429913115
8587 -6253.918343393052
8588 -6255.854990671239
8589 -6259.434424023258
8590 -6261.197961999625
8591 -6264.233613344163
8592 -6265.69651796027
8593 -6268.247297931431
8594 -6269.89471561037
8595 -6271.185967580545
8596 -6272.100685004761
8597 -6272.956015701752
8598 -6273.172450153402
8599 -6273.712834019796
8600 -6273.113290498152
8601 -6273.015096881156
8602 -6271.852833870988
8603 -6271.349716446029
8604 -6269.360488431386
8605 -6268.354106710553
8606 -6265.759514885548
8607 -6264.51613656782
8608 -6261.541146338809
8609 -6259.989836996733
8610 -6257.640487791579
8611 -6254.840037105661
8612 -6252.289752009222
8613 -6249.081374318838
8614 -6246.564897493861
8615 -6244.514382137467
8616 -6240.641050617486
8617 -6238.63413390599
8618 -6235.011737909073
8619 -6233.021933711542
8620 -6230.594455529005
8621 -6227.774144211658
8622 -6225.550535560537
8623 -6224.049452666101
8624 -6221.380725322777
8625 -6220.264056041482
8626 -6218.770052200855
8627 -6217.100754985271
8628 -6215.985902920193
8629 -6215.6194166733
8630 -6214.594988173743
8631 -6214.426248079162
8632 -6214.041924430479
8633 -6214.585936420095
8634 -6214.669142383244
8635 -6215.332418293928
8636 -6215.823487378168
8637 -6217.004592595124
8638 -6217.771667268056
8639 -6219.336391500734
8640 -6220.572648348758
8641 -6222.30853685487
8642 -6223.646090891188
8643 -6225.429938540795
8644 -6226.890964026142
8645 -6228.904970542349
8646 -6230.395335133892
8647 -6232.547905704309
8648 -6234.028126349746
8649 -6237.087748065683
8650 -6238.503826664111
8651 -6240.383234018982
8652 -6241.585390273864
8653 -6243.385334126475
8654 -6244.620001673423
8655 -6246.14167015509
8656 -6247.005694718952
8657 -6248.140541569203
8658 -6249.126503916764
8659 -6249.915623811559
8660 -6250.014307211605
8661 -6250.624275738258
8662 -6250.261506527416
8663 -6250.287062431921
8664 -6249.3894682857
8665 -6248.588725493715
8666 -6247.513070891011
8667 -6246.713375527956
8668 -6245.156956527464
8669 -6243.568848789198
8670 -6241.711112776953
8671 -6240.264996278926
8672 -6236.953416382169
8673 -6235.215328282496
8674 -6232.666574110389
8675 -6228.892800056636
8676 -6226.244245238734
8677 -6223.796902989453
8678 -6219.077525903822
8679 -6216.335517648729
8680 -6211.312245298325
8681 -6208.303420960494
8682 -6202.68583393832
8683 -6199.622868356707
8684 -6194.076012747894
8685 -6190.575616400037
8686 -6184.501433719804
8687 -6180.917311530062
8688 -6174.605296615733
8689 -6169.47199396417
8690 -6165.39721081964
8691 -6160.353918076684
8692 -6154.487119976976
8693 -6149.170128575971
8694 -6144.987907184903
8695 -6139.740859644133
8696 -6134.096521340237
8697 -6129.173393866451
8698 -6123.996324892828
8699 -6119.604223905924
8700 -6114.676171342753
8701 -6110.705592583288
8702 -6106.335485402423
8703 -6102.823394816824
8704 -6099.441904034153
8705 -6097.043686216235
8706 -6094.510129028055
8707 -6092.751630446763
8708 -6090.863714202996
8709 -6089.835140933299
8710 -6089.169189285696
8711 -6089.507824308862
8712 -6089.850319326723
8713 -6091.78276138744
8714 -6093.396385510775
8715 -6095.488722660989
8716 -6098.236296546127
8717 -6101.082766405577
8718 -6105.000968776888
8719 -6108.856523755341
8720 -6113.853358157727
8721 -6118.262545514983
8722 -6124.241233833921
8723 -6129.613067976276
8724 -6137.084641167336
8725 -6142.734154334711
8726 -6151.095317028521
8727 -6157.602701945785
8728 -6166.839686443939
8729 -6176.444976938697
8730 -6185.473705023605
8731 -6196.003750535907
8732 -6205.118333908377
8733 -6214.654178059114
8734 -6223.118123486773
8735 -6232.403137618655
8736 -6240.007592459478
8737 -6248.027124234583
8738 -6255.135687804921
8739 -6262.196358099898
8740 -6267.966864989366
8741 -6273.991684761919
8742 -6278.865975903157
8743 -6283.53058066539
8744 -6286.827221060326
8745 -6290.063286495455
8746 -6292.124914255599
8747 -6293.817968868009
8748 -6294.514112817432
8749 -6294.863534333443
8750 -6293.948445813062
8751 -6293.116537034131
8752 -6291.623560904321
8753 -6289.063778525647
8754 -6285.806423890639
8755 -6283.419449233344
8756 -6278.68619300648
8757 -6275.909515168295
8758 -6270.092057259546
8759 -6266.697270426113
8760 -6260.665896237948
8761 -6256.779509223365
8762 -6250.139846921693
8763 -6245.985677242931
8764 -6238.957409405878
8765 -6234.910989810714
8766 -6228.282672737755
8767 -6224.406166569022
8768 -6218.25609838256
8769 -6214.930058971015
8770 -6209.399656825911
8771 -6206.514766730891
8772 -6201.903531582456
8773 -6199.555791817914
8774 -6195.895831209765
8775 -6194.420582334233
8776 -6192.27292781625
8777 -6191.814117752679
8778 -6191.023858471111
8779 -6191.315426559008
8780 -6191.770288484716
8781 -6193.130244256114
8782 -6195.136106346761
8783 -6197.128177251308
8784 -6200.393595954922
8785 -6203.565866859617
8786 -6208.233567620043
8787 -6212.127048906507
8788 -6217.785450700195
8789 -6222.323730591641
8790 -6229.065094933763
8791 -6233.955769121768
8792 -6241.103745159385
8793 -6248.795805831485
8794 -6253.840801925681
8795 -6261.652647688313
8796 -6268.951381373496
8797 -6274.271406195456
8798 -6281.091088134232
8799 -6288.214668660024
8800 -6292.316546022448
8801 -6298.816324048321
8802 -6304.410463872966
8803 -6308.104843272191
8804 -6312.592169442682
8805 -6316.798974265821
8806 -6318.730244850105
8807 -6321.874907301381
8808 -6323.660333859772
8809 -6324.806230321919
8810 -6325.329725585737
8811 -6325.738909913138
8812 -6324.687155965092
8813 -6324.094946213614
8814 -6321.422763968375
8815 -6318.812051663649
8816 -6314.865218180764
8817 -6310.872629117729
8818 -6307.242430828342
8819 -6302.165079290607
8820 -6295.853390924581
8821 -6289.807245785067
8822 -6282.972570387293
8823 -6276.139910947644
8824 -6268.925645688352
8825 -6261.725984987667
8826 -6253.970839183476
8827 -6246.821294721038
8828 -6239.136749504928
8829 -6232.435757496772
8830 -6225.172855099318
8831 -6218.511450188834
8832 -6211.696122863727
8833 -6205.801643805177
8834 -6199.870570219652
8835 -6195.204603929302
8836 -6190.448360012526
8837 -6186.753719982269
8838 -6183.125301176303
8839 -6180.743699621287
8840 -6178.15967950032
8841 -6177.083079755957
8842 -6176.027200026359
8843 -6176.461091302208
8844 -6177.150926015333
8845 -6178.639135809228
8846 -6180.315214014903
8847 -6183.406683166646
8848 -6186.592438499378
8849 -6191.151398263304
8850 -6194.119454194749
8851 -6199.873405466526
8852 -6203.922070276648
8853 -6211.236010582403
8854 -6216.05720071163
8855 -6224.401255881262
8856 -6229.983466979438
8857 -6239.322812849496
8858 -6248.132550757163
8859 -6254.92690041234
8860 -6264.7129938436
8861 -6275.462135309662
8862 -6281.966039463307
8863 -6292.889536392912
8864 -6302.726500808348
8865 -6313.114867743837
8866 -6319.308926972443
8867 -6329.524819471035
8868 -6338.309229079
8869 -6347.4234966719
8870 -6355.248362345788
8871 -6363.044086100195
8872 -6369.611575284395
8873 -6375.984816200596
8874 -6381.049225379966
8875 -6385.96980649441
8876 -6389.587761216924
8877 -6392.907595136004
8878 -6394.620430544401
8879 -6396.15382699208
8880 -6396.167246656155
8881 -6395.976615727235
8882 -6394.658808029275
8883 -6392.641374637289
8884 -6389.499417374623
8885 -6387.253726724126
8886 -6382.495712264232
8887 -6379.334567777849
8888 -6373.061695530755
8889 -6369.031179173906
8890 -6361.209480838963
8891 -6356.389988216632
8892 -6347.499225465171
8893 -6342.021220608292
8894 -6332.458575000553
8895 -6326.343027403832
8896 -6316.286817222231
8897 -6309.649804458178
8898 -6299.167217368882
8899 -6292.580531721953
8900 -6282.121915708936
8901 -6275.884458581481
8902 -6265.793743800952
8903 -6259.80878093895
8904 -6250.302294491285
8905 -6241.906271177906
8906 -6236.193776898951
8907 -6228.872408828461
8908 -6221.382497530635
8909 -6215.39004016181
8910 -6209.399278067563
8911 -6204.832281908927
8912 -6200.485228922206
8913 -6197.574300133056
8914 -6194.920053889398
8915 -6193.620218741233
8916 -6192.578351145516
8917 -6192.677280975145
8918 -6193.245571205886
8919 -6194.834159746462
8920 -6196.441080690951
8921 -6198.238097896607
8922 -6201.249309085654
8923 -6203.98441038787
8924 -6207.857030291363
8925 -6211.038432252421
8926 -6215.248423204527
8927 -6218.817924558622
8928 -6223.832417427407
8929 -6227.729942854262
8930 -6233.213177995072
8931 -6237.236898345885
8932 -6242.748970572562
8933 -6246.921029037536
8934 -6252.277989669633
8935 -6256.132658131261
8936 -6261.090189793694
8937 -6264.71735521195
8938 -6269.574602133966
8939 -6272.923992380537
8940 -6276.76498803186
8941 -6280.837349148707
8942 -6282.561319182901
8943 -6285.237704514461
8944 -6286.868741859503
8945 -6288.291557102662
8946 -6288.594801116054
8947 -6288.870551056129
8948 -6287.706488875034
8949 -6286.397547607862
8950 -6283.422897933179
8951 -6280.70003405754
8952 -6276.746600902935
8953 -6272.400613421862
8954 -6267.026535904425
8955 -6261.611316105969
8956 -6255.375280045946
8957 -6249.035499333614
8958 -6242.019680945128
8959 -6235.127247934603
8960 -6227.466751994521
8961 -6220.141994426853
8962 -6212.462974035467
8963 -6205.61735491617
8964 -6198.356504936157
8965 -6192.242813406479
8966 -6185.463301549094
8967 -6179.791210095187
8968 -6174.150301429366
8969 -6169.468038299802
8970 -6165.08399575652
8971 -6161.644915683175
8972 -6158.415844923132
8973 -6156.54463084777
8974 -6154.426677768048
8975 -6153.748949842498
8976 -6153.39005533025
8977 -6154.030294236301
8978 -6154.978869351969
8979 -6156.762799611462
8980 -6158.642175708943
8981 -6161.964677852931
8982 -6164.917895688881
8983 -6169.131183377453
8984 -6173.530738437059
8985 -6178.372542770896
8986 -6183.089800272505
8987 -6186.996687893581
8988 -6192.246902625497
8989 -6198.348938104659
8990 -6204.057757044415
8991 -6210.140211323422
8992 -6215.780433912443
8993 -6219.893899874377
8994 -6225.266804614933
8995 -6230.808864204854
8996 -6235.251845674921
8997 -6238.391560618899
8998 -6242.177232405272
8999 -6246.090305650506
9000 -6247.932774271367
9001 -6250.746852157781
9002 -6252.942885084583
9003 -6254.383055286867
9004 -6255.205472764263
9005 -6255.755722994516
9006 -6255.882025734679
9007 -6256.261508369697
9008 -6255.629110052862
9009 -6255.696073372936
9010 -6254.507561510813
9011 -6254.002134815106
9012 -6252.455798851498
9013 -6252.029217797216
9014 -6250.431852905712
9015 -6249.743140091735
9016 -6248.097318299463
9017 -6247.334980648892
9018 -6245.556447582391
9019 -6244.575537293773
9020 -6242.521816570638
9021 -6241.794291731108
9022 -6239.947891246673
9023 -6239.442934669319
9024 -6237.827134290345
9025 -6237.187376686172
9026 -6235.430591193242
9027 -6234.892650672009
9028 -6233.644403009707
9029 -6233.399797838541
9030 -6231.957776040855
9031 -6231.939722057078
9032 -6231.399181892248
9033 -6231.441141802833
9034 -6231.361147448954
9035 -6231.581335155949
9036 -6231.625497078763
9037 -6232.232659743715
9038 -6232.756089888207
9039 -6233.575234589113
9040 -6234.468886314317
9041 -6235.506345726914
9042 -6236.876528462602
9043 -6238.062412387351
9044 -6239.18772408185
9045 -6240.456650884562
9046 -6241.879172674104
9047 -6243.445887544439
9048 -6245.016117568657
9049 -6246.417711927196
9050 -6247.432352350077
9051 -6248.373044203488
9052 -6248.754907615406
9053 -6250.248982922601
9054 -6250.591994853954
9055 -6251.253390401494
9056 -6251.150577927757
9057 -6251.504984410401
9058 -6251.158593463711
9059 -6251.307677109413
9060 -6250.517434105981
9061 -6249.803159098355
9062 -6248.572667469109
9063 -6246.877719124185
9064 -6245.217227258376
9065 -6242.79258134101
9066 -6240.71736077552
9067 -6238.143052388687
9068 -6235.98675436862
9069 -6233.053634341934
9070 -6230.732500755902
9071 -6227.847731827486
9072 -6225.661843581577
9073 -6223.081709384747
9074 -6220.932192986373
9075 -6218.730987524165
9076 -6217.031158823181
9077 -6215.29582063493
9078 -6214.008572695332
9079 -6213.380710135706
9080 -6212.16608011169
9081 -6212.243688077269
9082 -6212.045420796029
9083 -6213.160121134487
9084 -6213.576693438303
9085 -6214.753894123608
9086 -6216.364673541017
9087 -6218.173007545816
9088 -6220.811829980035
9089 -6223.337194425184
9090 -6226.51945152885
9091 -6229.405551558924
9092 -6233.161497864678
9093 -6236.367294069616
9094 -6240.706939521504
9095 -6245.568725461569
9096 -6250.218149280999
9097 -6255.146557418664
9098 -6259.638975106587
9099 -6264.625500924568
9100 -6268.844491566529
9101 -6273.251500653934
9102 -6275.793139680006
9103 -6279.802843480223
9104 -6283.280545179449
9105 -6285.682869859736
9106 -6288.314950050066
9107 -6291.300231449967
9108 -6292.733404136189
9109 -6295.098111861192
9110 -6296.038326156313
9111 -6297.536846086376
9112 -6297.875691708721
9113 -6298.740697447941
9114 -6298.346730378687
9115 -6298.329347106094
9116 -6297.5340503516
9117 -6296.925800106101
9118 -6295.730264368211
9119 -6294.146628662864
9120 -6292.334347234652
9121 -6290.230948082144
9122 -6287.096725987101
9123 -6285.3561000281
9124 -6281.735728767815
9125 -6278.424108050202
9126 -6274.546020074637
9127 -6271.171425391673
9128 -6267.033621095048
9129 -6263.534975263671
9130 -6259.425175890406
9131 -6255.979768045926
9132 -6251.997095440385
9133 -6249.95878770391
9134 -6246.177575166547
9135 -6243.208913283672
9136 -6241.008821172476
9137 -6238.640367088915
9138 -6236.018209788412
9139 -6234.959099037843
9140 -6232.867428413576
9141 -6232.385936049551
9142 -6231.416249465845
9143 -6231.527321258286
9144 -6231.438794037982
9145 -6232.138989529138
9146 -6232.644932686538
9147 -6234.31532665758
9148 -6235.148053366018
9149 -6237.652644281206
9150 -6239.81239740924
9151 -6243.010105344627
9152 -6244.860280583493
9153 -6248.575412779857
9154 -6251.88672547427
9155 -6256.014734736722
9156 -6259.404703958527
9157 -6263.630727424926
9158 -6267.03901019224
9159 -6271.109799872491
9160 -6274.401837746919
9161 -6278.193987062153
9162 -6281.257891841451
9163 -6284.430193207002
9164 -6286.802598228376
9165 -6289.254951810568
9166 -6290.129866538233
9167 -6291.541697705586
9168 -6291.977041862227
9169 -6292.567457657978
9170 -6292.215342507439
9171 -6291.603240993421
9172 -6290.054055337774
9173 -6289.068532832906
9174 -6286.160797564248
9175 -6284.265605114295
9176 -6280.230505884587
9177 -6277.659944205447
9178 -6272.32042267893
9179 -6269.061122624747
9180 -6262.618479654439
9181 -6258.751997457323
9182 -6251.395681280385
9183 -6244.378901300423
9184 -6238.847494381238
9185 -6231.568142771379
9186 -6223.342751256915
9187 -6216.028993264257
9188 -6208.298865919152
9189 -6201.274263833075
9190 -6193.810500946405
9191 -6187.456111318793
9192 -6180.683405816249
9193 -6175.161394113794
9194 -6169.58574404661
9195 -6165.021309334687
9196 -6160.731196898657
9197 -6157.475989590151
9198 -6154.24820884975
9199 -6152.233770699063
9200 -6150.479985872827
9201 -6150.381853502357
9202 -6149.900385931568
9203 -6150.947060665021
9204 -6151.626063454191
9205 -6154.086339594484
9206 -6156.725310896844
9207 -6159.448152824432
9208 -6163.354493086965
9209 -6168.749018240594
9210 -6172.218883875857
9211 -6178.52999306611
9212 -6184.839715801842
9213 -6192.133899015273
9214 -6199.198944656533
9215 -6207.108878596351
9216 -6214.059586252284
9217 -6222.347741014833
9218 -6230.039266485635
9219 -6238.430825249242
9220 -6245.880345593033
9221 -6253.471311811451
9222 -6260.123945031168
9223 -6267.125128427117
9224 -6273.134078608146
9225 -6278.565980391024
9226 -6282.927421482303
9227 -6287.09128712963
9228 -6289.768636307906
9229 -6292.365587202253
9230 -6293.551635354186
9231 -6294.186154017261
9232 -6293.309920218838
9233 -6292.271346701136
9234 -6289.028193126293
9235 -6285.324810690891
9236 -6280.203082327142
9237 -6274.200545054555
9238 -6266.916611584978
9239 -6259.363845382906
9240 -6250.50562501077
9241 -6241.378381424678
9242 -6230.875381972205
9243 -6220.112975312838
9244 -6208.351676883328
9245 -6196.923140803876
9246 -6184.54187707051
9247 -6172.775507938625
9248 -6160.526601830404
9249 -6148.956289128238
9250 -6137.032980064027
9251 -6125.883983981462
9252 -6114.676604268882
9253 -6104.785503083444
9254 -6094.803850754952
9255 -6086.022506493722
9256 -6077.504427451693
9257 -6070.416299012141
9258 -6063.883086655375
9259 -6058.717982486218
9260 -6053.988371712808
9261 -6050.619019290027
9262 -6048.013116302332
9263 -6047.438692424525
9264 -6047.419816887213
9265 -6048.756587916304
9266 -6050.788382402041
9267 -6054.841891855986
9268 -6059.311163203214
9269 -6065.220500237427
9270 -6071.782890999582
9271 -6080.039574239419
9272 -6088.51270852096
9273 -6098.414342746418
9274 -6107.898412451341
9275 -6119.163118141527
9276 -6130.111292914708
9277 -6142.820078836103
9278 -6155.053650989029
9279 -6168.054568019753
9280 -6180.369432963911
9281 -6193.592808699247
9282 -6205.801708629663
9283 -6218.955337263112
9284 -6230.858745155077
9285 -6243.103414250289
9286 -6254.185600372474
9287 -6265.853624843716
9288 -6276.036357090495
9289 -6286.333814513273
9290 -6295.021809303176
9291 -6303.636365652764
9292 -6310.620818065019
9293 -6317.221245601749
9294 -6321.87298796407
9295 -6326.280483366136
9296 -6328.614769389442
9297 -6330.656807072374
9298 -6330.730371531564
9299 -6330.65646398312
9300 -6328.530817000455
9301 -6326.201641151578
9302 -6322.25410792326
9303 -6318.45759842601
9304 -6312.745932674315
9305 -6306.986320296336
9306 -6299.479212110326
9307 -6292.483534800172
9308 -6284.639007595642
9309 -6279.445384776702
9310 -6270.171184341368
9311 -6261.356675932206
9312 -6252.007590101355
9313 -6243.490553732727
9314 -6234.552230477919
9315 -6226.267317791951
9316 -6218.100798707599
9317 -6213.569153968453
9318 -6206.03111449108
9319 -6200.066335295506
9320 -6194.23000575159
9321 -6189.773466034121
9322 -6185.653131702554
9323 -6183.27639001013
9324 -6181.175923330048
9325 -6180.759082810402
9326 -6180.909407705966
9327 -6182.298573825592
9328 -6184.290866612945
9329 -6187.837336188419
9330 -6191.592502811732
9331 -6197.053452561599
9332 -6202.671316734238
9333 -6209.775147808244
9334 -6216.695522390464
9335 -6225.376140520406
9336 -6233.798686833135
9337 -6243.629405743799
9338 -6253.657658798998
9339 -6263.618838708512
9340 -6273.296100080523
9341 -6283.963863668662
9342 -6294.165381438009
9343 -6304.54556927822
9344 -6314.239288355594
9345 -6324.209908660311
9346 -6333.333582623909
9347 -6342.602712853309
9348 -6350.674600625802
9349 -6358.968359339064
9350 -6365.992403850562
9351 -6372.891776955602
9352 -6378.768312231925
9353 -6384.425872746117
9354 -6388.830388638653
9355 -6392.691987863059
9356 -6395.335795454603
9357 -6397.886976655255
9358 -6398.943665046412
9359 -6400.431222764113
9360 -6400.488449442009
9361 -6400.366444428677
9362 -6398.853759585247
9363 -6398.053576196595
9364 -6395.509547609274
9365 -6393.406722141008
9366 -6390.718963803663
9367 -6387.23571449182
9368 -6383.08794090135
9369 -6380.154366037836
9370 -6374.743227676021
9371 -6371.488370276143
9372 -6365.153226921595
9373 -6361.267205693817
9374 -6354.044417587563
9375 -6349.78087119787
9376 -6342.461756903575
9377 -6337.774806166874
9378 -6330.206318826744
9379 -6325.267534057201
9380 -6316.79179688345
9381 -6311.666745936618
9382 -6302.733374673562
9383 -6297.587504525989
9384 -6289.013674507341
9385 -6281.011166389057
9386 -6275.403310742586
9387 -6267.607443010397
9388 -6259.445714541722
9389 -6252.520959066712
9390 -6245.42728456038
9391 -6239.185717439454
9392 -6232.767592257311
9393 -6227.518363164934
9394 -6222.013760527943
9395 -6217.538158254741
9396 -6212.697367366581
9397 -6208.675059299076
9398 -6204.948561954327
9399 -6202.24839681485
9400 -6199.229410157282
9401 -6197.690061062762
9402 -6195.130498150565
9403 -6193.465159761189
9404 -6191.976242244205
9405 -6190.719071201092
9406 -6189.206547916261
9407 -6188.072020397314
9408 -6186.986270859045
9409 -6186.362111486949
9410 -6185.578405080911
9411 -6185.274312127391
9412 -6184.714575008563
9413 -6184.996813417599
9414 -6184.818473701213
9415 -6185.249189350682
9416 -6185.680902487602
9417 -6187.261135854358
9418 -6188.104657523731
9419 -6190.345299809267
9420 -6191.839848371817
9421 -6194.145163043765
9422 -6197.849528239773
9423 -6201.071540442175
9424 -6204.40881834208
9425 -6208.363046186763
9426 -6214.924862925335
9427 -6219.86592376828
9428 -6224.720315718722
9429 -6230.573348674518
9430 -6239.156168035198
9431 -6245.732693769138
9432 -6255.406027860028
9433 -6262.577373468012
9434 -6273.581862076677
9435 -6281.07972506184
9436 -6292.161465629341
9437 -6303.254997670888
9438 -6313.728974628495
9439 -6324.589263513933
9440 -6333.953989657977
9441 -6343.143760241212
9442 -6351.545875568874
9443 -6359.31199985934
9444 -6365.414276588022
9445 -6371.228786896439
9446 -6375.672665108217
9447 -6379.555074361544
9448 -6381.957639043928
9449 -6383.261471470054
9450 -6383.107566274306
9451 -6382.421775506255
9452 -6379.627096822808
9453 -6376.514449251087
9454 -6371.785644415419
9455 -6366.644397087885
9456 -6359.176262766987
9457 -6351.668250587071
9458 -6342.332896274426
9459 -6332.594036785669
9460 -6321.823090712801
9461 -6310.852586801353
9462 -6298.792186378809
9463 -6286.584298250648
9464 -6273.808117157493
9465 -6261.92605613967
9466 -6249.234414566668
9467 -6237.335284383387
9468 -6225.297255924434
9469 -6214.625270231124
9470 -6203.592008524452
9471 -6193.836046169758
9472 -6184.483153022889
9473 -6176.698965218253
9474 -6169.153476069094
9475 -6163.65242221696
9476 -6158.2960160455
9477 -6155.316279828175
9478 -6153.026597041791
9479 -6152.349742876429
9480 -6152.802438708974
9481 -6155.125949897825
9482 -6158.084197979181
9483 -6162.955625276385
9484 -6168.539972659838
9485 -6176.317827495758
9486 -6184.913018867342
9487 -6195.036512995226
9488 -6204.916065893685
9489 -6216.617636148016
9490 -6228.957447010422
9491 -6242.982160127834
9492 -6257.301527764285
9493 -6272.518138664844
9494 -6287.283750414744
9495 -6303.550405649713
9496 -6319.044816438848
9497 -6335.213141494871
9498 -6349.769524796774
9499 -6365.189337183282
9500 -6379.683761925352
9501 -6393.998098707103
9502 -6406.781997995371
9503 -6419.50425430908
9504 -6431.061766742524
9505 -6442.093029576936
9506 -6451.360233449172
9507 -6459.984813566212
9508 -6466.992465860821
9509 -6472.363019792185
9510 -6476.078790272655
9511 -6479.330615435802
9512 -6479.452867800942
9513 -6479.534899015838
9514 -6477.232626567576
9515 -6473.359073441822
9516 -6467.434578150936
9517 -6460.609317851967
9518 -6451.462141987909
9519 -6441.262907831268
9520 -6429.023672032413
9521 -6416.225596759895
9522 -6402.233132058472
9523 -6387.410470519229
9524 -6370.94149038354
9525 -6354.016447080693
9526 -6336.471994335442
9527 -6318.154904101571
9528 -6299.004698206395
9529 -6281.339718011022
9530 -6262.634096902745
9531 -6244.788270284334
9532 -6226.780467233536
9533 -6209.574885879108
9534 -6192.716549879616
9535 -6177.278566260939
9536 -6162.051136185793
9537 -6148.761689580463
9538 -6136.262374297046
9539 -6125.509769069396
9540 -6115.655593427749
9541 -6107.938154784817
9542 -6101.20981512576
9543 -6096.53602162564
9544 -6092.696890869983
9545 -6091.913216061066
9546 -6091.338731086632
9547 -6093.331563764893
9548 -6096.57411464105
9549 -6101.686644815888
9550 -6107.838354577757
9551 -6116.088299503553
9552 -6125.286842810853
9553 -6135.955486334538
9554 -6147.073446800935
9555 -6159.729828375035
9556 -6172.828878978029
9557 -6187.568137943053
9558 -6202.290065043037
9559 -6217.558593706664
9560 -6232.447968531969
9561 -6248.575157450659
9562 -6263.753660689128
9563 -6279.104191958719
9564 -6293.987955105265
9565 -6309.26728406247
9566 -6322.719294340831
9567 -6336.511717283867
9568 -6348.377447444883
9569 -6360.29886741386
9570 -6370.770843078551
9571 -6380.275478925116
9572 -6387.797223181137
9573 -6395.041534739442
9574 -6400.040284343598
9575 -6404.669745922521
9576 -6407.501623664584
9577 -6409.029545977985
9578 -6408.593605060258
9579 -6407.90273982742
9580 -6404.659935994698
9581 -6400.978491869233
9582 -6395.107748929892
9583 -6388.7414442617
9584 -6380.665976876239
9585 -6371.793115242435
9586 -6361.425882905485
9587 -6351.391128102376
9588 -6340.003733799424
9589 -6328.878396415972
9590 -6316.479422595004
9591 -6304.050717284076
9592 -6290.841498793315
9593 -6278.653994627594
9594 -6265.787568928646
9595 -6253.619948378141
9596 -6241.182709751704
9597 -6229.917286051023
9598 -6218.783292215475
9599 -6208.337085609045
9600 -6197.959786963581
9601 -6189.245098266732
9602 -6180.637671437932
9603 -6173.474652054905
9604 -6167.240240081082
9605 -6162.685567473633
9606 -6158.518158899567
9607 -6156.84088023621
9608 -6155.397420339325
9609 -6156.169880671082
9610 -6157.08087627406
9611 -6159.99553599173
9612 -6162.995871985467
9613 -6168.440702501151
9614 -6173.73280413163
9615 -6180.703927867135
9616 -6188.013455848381
9617 -6196.416048613601
9618 -6204.648254984812
9619 -6213.996033568726
9620 -6222.885068311625
9621 -6232.808124697141
9622 -6241.934875834279
9623 -6252.085209066645
9624 -6261.174467944553
9625 -6269.99269170245
9626 -6278.03296512352
9627 -6286.564260282838
9628 -6293.505533543034
9629 -6300.574190459323
9630 -6306.16175733689
9631 -6311.734357499809
9632 -6316.189266142814
9633 -6319.989652193898
9634 -6322.622857624931
9635 -6324.892680301369
9636 -6325.706698071751
9637 -6326.204539345348
9638 -6325.756664029644
9639 -6324.813901304846
9640 -6323.029491178995
9641 -6321.444365557277
9642 -6318.646235421882
9643 -6316.207048415988
9644 -6312.720387613036
9645 -6309.82094460547
9646 -6305.479309159805
9647 -6301.46559747635
9648 -6296.261090452826
9649 -6291.88739803846
9650 -6286.900082905493
9651 -6282.212908285268
9652 -6276.85512871832
9653 -6272.071363192157
9654 -6266.679267748244
9655 -6262.103588978245
9656 -6257.059330299669
9657 -6252.780055308906
9658 -6247.838841504255
9659 -6244.087377186079
9660 -6239.955723566825
9661 -6238.066876022281
9662 -6234.336863296857
9663 -6231.029171847967
9664 -6228.709155877571
9665 -6226.222096663438
9666 -6223.575084295689
9667 -6222.578232857896
9668 -6221.074488209041
9669 -6220.301623136989
9670 -6219.430275638303
9671 -6219.390362855192
9672 -6219.610361032706
9673 -6220.623591546949
9674 -6221.552246857652
9675 -6223.231690683238
9676 -6224.741036917176
9677 -6226.390217137353
9678 -6228.203722471965
9679 -6230.81039293722
9680 -6232.163858351874
9681 -6235.034850712981
9682 -6236.860546691626
9683 -6238.869557984007
9684 -6240.887546279273
9685 -6242.800062626452
9686 -6244.760138266783
9687 -6246.713516627637
9688 -6248.427976759774
9689 -6250.132554066055
9690 -6251.687627354438
9691 -6253.389766747693
9692 -6255.049544033723
9693 -6256.879051680623
9694 -6258.562730305233
9695 -6260.232367817063
9696 -6261.993192486809
9697 -6263.917285027603
9698 -6265.900301264949
9699 -6267.978540875594
9700 -6270.193700215501
9701 -6272.425010793391
9702 -6275.004758244628
9703 -6277.469103936318
9704 -6280.097324845355
9705 -6282.824537738888
9706 -6286.412776043712
9707 -6289.456672073844
9708 -6293.33140386474
9709 -6296.818664066843
9710 -6301.390184642656
9711 -6305.169226445273
9712 -6310.404636080188
9713 -6314.390732252328
9714 -6319.470418220576
9715 -6323.582184009599
9716 -6329.032682693676
9717 -6334.991341074852
9718 -6338.424908794212
9719 -6344.224970341893
9720 -6349.153092052476
9721 -6354.623924369894
9722 -6357.451628554676
9723 -6362.318396784197
9724 -6365.972658360677
9725 -6369.714546443991
9726 -6371.649537342253
9727 -6374.44003904886
9728 -6376.337232479274
9729 -6377.857816433931
9730 -6378.90847510187
9731 -6379.673816021983
9732 -6379.437493651074
9733 -6379.694084184637
9734 -6378.62271594614
9735 -6378.341861880445
9736 -6376.370287963053
9737 -6375.187160664932
9738 -6372.338845794104
9739 -6370.623123045424
9740 -6367.007979068256
9741 -6364.96580522165
9742 -6360.561279102722
9743 -6357.928610640703
9744 -6352.576266517742
9745 -6349.500335736235
9746 -6343.91590944693
9747 -6340.240720293656
9748 -6334.002918492429
9749 -6328.186975631835
9750 -6323.654273127622
9751 -6317.520627834804
9752 -6310.756876457666
9753 -6306.736722853377
9754 -6299.991119927255
9755 -6294.012335364853
9756 -6289.511866395819
9757 -6283.776523655358
9758 -6278.059277764399
9759 -6275.047238501596
9760 -6270.157394475083
9761 -6265.703763234477
9762 -6262.519417930187
9763 -6259.307092847795
9764 -6256.062426348845
9765 -6254.715523830625
9766 -6252.835664720005
9767 -6252.371569856026
9768 -6251.871025757769
9769 -6252.306711723463
9770 -6252.914033889057
9771 -6254.298051075678
9772 -6256.099754939356
9773 -6259.045484221276
9774 -6262.406035718654
9775 -6265.519552556804
9776 -6270.013720032182
9777 -6275.386668402598
9778 -6280.467324481342
9779 -6287.111501570092
9780 -6293.150955197309
9781 -6300.212297977974
9782 -6306.582733237608
9783 -6313.889709794165
9784 -6320.563269443495
9785 -6327.889118878886
9786 -6334.363730453524
9787 -6341.265181110709
9788 -6347.314459922384
9789 -6353.764829751337
9790 -6359.105286739071
9791 -6364.657850016087
9792 -6368.801293703299
9793 -6373.395210370158
9794 -6376.557967821551
9795 -6378.721364798925
9796 -6380.721042288516
9797 -6382.686246379512
9798 -6383.609604138413
9799 -6384.070688366594
9800 -6383.190879187592
9801 -6382.428492979342
9802 -6380.916984611349
9803 -6378.845548924665
9804 -6375.347005895846
9805 -6373.229035440272
9806 -6368.663099231188
9807 -6364.469619893906
9808 -6358.957621189492
9809 -6355.784772765302
9810 -6349.5494990425
9811 -6343.957280268671
9812 -6337.420657368368
9813 -6331.540655861482
9814 -6327.205467911158
9815 -6321.443173320896
9816 -6315.318034596253
9817 -6310.105983909833
9818 -6304.540164552883
9819 -6301.314743199414
9820 -6296.730108855648
9821 -6293.452793629785
9822 -6291.037013958832
9823 -6288.729783477614
9824 -6287.156053447984
9825 -6286.117730451174
9826 -6285.526378816509
9827 -6285.674363831807
9828 -6285.762169654762
9829 -6287.385842802029
9830 -6288.457746270198
9831 -6291.415374623763
9832 -6293.184724345504
9833 -6297.478170156887
9834 -6300.411056825308
9835 -6305.768312145506
9836 -6309.195732501371
9837 -6315.730860580909
9838 -6319.458129108876
9839 -6326.661789511611
9840 -6333.20238260634
9841 -6340.747164450858
9842 -6347.551372785924
9843 -6354.951085229285
9844 -6361.371650842612
9845 -6368.437459154567
9846 -6374.523344095784
9847 -6380.887379583932
9848 -6386.281839298479
9849 -6391.829929395195
9850 -6396.04289397416
9851 -6400.230211287834
9852 -6403.37668142529
9853 -6406.347653010276
9854 -6408.135824876013
9855 -6409.183170295695
9856 -6408.336747829712
9857 -6407.582496251199
9858 -6405.051468257935
9859 -6402.420535994675
9860 -6398.090958454111
9861 -6393.696395989784
9862 -6387.630677911901
9863 -6381.65764973563
9864 -6374.623144225179
9865 -6367.003737115572
9866 -6358.531446704338
9867 -6350.700988498748
9868 -6341.61011770019
9869 -6333.047719235573
9870 -6324.216969397498
9871 -6315.763282682424
9872 -6307.102863142454
9873 -6298.655287030057
9874 -6290.342795283306
9875 -6282.970586546206
9876 -6275.158200245275
9877 -6268.805836790506
9878 -6262.398499359996
9879 -6257.262136986298
9880 -6252.599100906678
9881 -6249.534814261513
9882 -6246.664191796229
9883 -6245.579989233015
9884 -6244.366191206968
9885 -6244.872328017577
9886 -6245.862625442202
9887 -6248.304131504346
9888 -6251.310053385287
9889 -6254.342513993408
9890 -6258.828845822557
9891 -6263.10201457702
9892 -6269.522973105884
9893 -6274.817384164088
9894 -6282.638809189634
9895 -6288.645664361193
9896 -6297.812912640677
9897 -6304.460940077824
9898 -6313.672913040908
9899 -6323.60889293838
9900 -6329.649927492811
9901 -6339.47019327513
9902 -6345.489531595521
9903 -6355.417803245554
9904 -6361.387144683132
9905 -6370.497333938688
9906 -6375.670060181415
9907 -6383.73253346913
9908 -6388.223877541524
9909 -6394.992684868863
9910 -6398.761098739094
9911 -6404.575534497136
9912 -6407.325259746613
9913 -6411.964643323086
9914 -6414.092904250083
9915 -6417.039673013316
9916 -6417.865188411988
9917 -6419.424459334567
9918 -6419.773577571345
9919 -6420.629152720969
9920 -6420.441930749105
9921 -6420.561931649064
9922 -6419.963569574491
9923 -6419.437920881111
9924 -6417.906962272898
9925 -6417.568844636852
9926 -6415.512495920981
9927 -6414.84244982842
9928 -6412.766118182983
9929 -6411.614124925908
9930 -6408.855003036487
9931 -6407.360792823783
9932 -6404.426307951439
9933 -6402.673962720297
9934 -6399.214633424906
9935 -6397.385935606052
9936 -6393.614527103132
9937 -6391.645142149008
9938 -6389.197212351953
9939 -6386.063617444175
9940 -6383.56725348737
9941 -6381.557061935841
9942 -6377.840279943303
9943 -6375.927865136302
9944 -6372.513646848542
9945 -6370.746959109528
9946 -6367.646026784026
9947 -6366.416120759485
9948 -6363.353813800218
9949 -6362.122214916141
9950 -6359.900881911006
9951 -6359.204934218553
9952 -6357.645032356052
9953 -6357.491797783331
9954 -6356.693217244993
9955 -6356.708554887308
9956 -6356.120966339634
9957 -6356.568924002521
9958 -6356.391069851632
9959 -6356.901199824047
9960 -6357.114744059253
9961 -6357.827749350293
9962 -6357.746126435682
9963 -6358.472173582718
9964 -6359.023419342062
9965 -6359.968055824555
9966 -6360.289014189223
9967 -6361.422326592015
9968 -6361.86901123916
9969 -6362.73614683138
9970 -6363.240468920584
9971 -6363.903309049459
9972 -6364.00866282397
9973 -6365.055662213779
9974 -6365.184585656032
9975 -6366.216209100523
9976 -6366.322380657392
9977 -6367.024600895588
9978 -6366.829083054388
9979 -6367.561912134716
9980 -6367.395084256192
9981 -6367.848752297749
9982 -6367.740038577651
9983 -6368.849961532242
9984 -6369.063925543152
9985 -6369.783983566261
9986 -6369.827774711633
9987 -6371.033359608458
9988 -6371.381129844524
9989 -6372.917120802915
9990 -6373.273945573705
9991 -6374.634629508283
9992 -6375.164147433053
9993 -6376.627022068289
9994 -6377.143626736247
9995 -6378.251311456897
9996 -6378.459214531814
9997 -6379.408535438743
9998 -6379.397641050648
9999 -6380.182600819117
10000 -6379.728434219114
10001 -6379.258812903076
10002 -6378.429684522564
10003 -6377.860036327055
10004 -6376.29640477022
10005 -6375.619166784838
10006 -6373.749427453868
10007 -6372.968291773434
10008 -6370.72828707863
10009 -6369.477717240197
10010 -6366.455246815533
10011 -6364.933548463064
10012 -6361.682567986862
10013 -6359.89444124171
10014 -6356.302182443048
10015 -6354.545438184149
10016 -6350.204450227561
10017 -6348.106989941637
10018 -6343.568087265518
10019 -6341.524556487968
10020 -6336.925935856027
10021 -6334.527672589708
10022 -6329.973285406365
10023 -6327.446777572212
10024 -6322.512034564003
10025 -6319.915083288115
10026 -6315.261903964165
10027 -6312.57862897511
10028 -6307.84786862586
10029 -6305.313000942684
10030 -6300.305072518816
10031 -6297.831522127402
10032 -6293.559406598829
10033 -6291.33722592666
10034 -6287.296032646363
10035 -6285.134019583615
10036 -6281.359240037351
10037 -6279.693630913594
10038 -6276.993561689604
10039 -6274.838033122962
10040 -6273.115426729866
10041 -6271.388976118111
10042 -6269.230718654444
10043 -6268.760480738199
10044 -6267.658742345751
10045 -6267.595066476417
10046 -6267.350834973532
10047 -6268.403679519106
10048 -6268.866581438262
10049 -6270.847918010256
10050 -6272.663824681948
10051 -6274.577612693329
10052 -6277.039649899799
10053 -6279.808837355691
10054 -6283.452587770827
10055 -6287.894834103715
10056 -6290.720105266369
10057 -6295.819492351046
10058 -6300.371363821998
10059 -6303.947017602764
10060 -6309.054371064834
10061 -6314.51229281773
10062 -6319.391216094308
10063 -6323.140836535177
10064 -6328.212339775304
10065 -6333.543717192551
10066 -6338.081459856215
10067 -6342.462627802633
10068 -6346.255092648756
10069 -6348.898020169816
10070 -6351.977126682747
10071 -6355.072267303504
10072 -6357.0276867688
10073 -6359.048676671155
10074 -6359.804360521647
10075 -6360.235452977306
10076 -6359.708255444781
10077 -6358.752358403044
10078 -6356.42894418963
10079 -6354.705223322463
10080 -6351.105076827882
10081 -6347.285074327725
10082 -6343.769238041866
10083 -6338.335396789171
10084 -6332.084922340121
10085 -6327.854475857206
10086 -6320.587317077474
10087 -6315.409315831756
10088 -6306.43297433008
10089 -6300.660273908132
10090 -6291.149800444742
10091 -6285.047302956706
10092 -6274.793514656749
10093 -6265.206379542782
10094 -6258.302277655311
10095 -6248.861449512155
10096 -6238.904033594873
10097 -6229.547726116125
10098 -6223.041852399844
10099 -6214.3147300947
10100 -6205.107650258178
10101 -6197.2027156923
10102 -6189.44286221458
10103 -6182.646371390888
10104 -6178.232124932916
10105 -6173.042118446673
10106 -6168.099088720481
10107 -6164.57617291648
10108 -6161.135952010819
10109 -6160.021904447083
10110 -6158.275725372843
10111 -6157.71937015055
10112 -6157.64469139425
10113 -6158.795482114112
10114 -6160.665838678899
10115 -6164.051544054389
10116 -6167.921367336223
10117 -6173.083721242971
10118 -6176.995383546076
10119 -6184.294523592463
10120 -6191.730246320993
10121 -6200.394688647579
10122 -6208.90529557539
10123 -6219.055542834357
10124 -6229.306773954613
10125 -6240.107419519773
10126 -6251.043464188756
10127 -6263.280163317181
10128 -6275.322261537389
10129 -6288.090781149231
10130 -6300.083250996653
10131 -6312.79953147904
10132 -6325.095986863294
10133 -6337.333936734199
10134 -6348.752996072559
10135 -6360.22403641338
10136 -6371.379855198878
10137 -6382.307928416693
10138 -6391.886891937212
10139 -6402.008055236155
10140 -6410.551951389513
10141 -6419.661364143192
10142 -6426.596937942896
10143 -6432.843745915341
10144 -6437.978260082452
10145 -6442.257383538871
10146 -6445.117904834794
10147 -6447.912941493012
10148 -6448.032751791829
10149 -6447.637370340596
10150 -6445.45486707327
10151 -6444.009432646342
10152 -6439.922865045515
10153 -6435.379436399993
10154 -6429.558363117609
10155 -6422.795599311933
10156 -6415.088816381246
10157 -6406.733104864305
10158 -6397.135981036487
10159 -6387.781343649223
10160 -6377.313570051645
10161 -6367.071877885915
10162 -6355.799040152868
10163 -6345.224849722444
10164 -6333.965575360239
10165 -6323.447250060962
10166 -6312.894166660782
10167 -6303.166695728387
10168 -6293.458515820744
10169 -6284.736211061743
10170 -6276.958360298298
10171 -6270.2646556638
10172 -6264.286914685746
10173 -6259.816675516425
10174 -6256.298179998751
10175 -6254.811406712939
10176 -6254.087641504532
10177 -6255.399348354429
10178 -6257.736490301748
10179 -6262.361346924657
10180 -6267.893361236593
10181 -6275.34374930304
10182 -6283.150958987365
10183 -6292.808630035307
10184 -6303.12089963199
10185 -6315.05329923458
10186 -6327.272139056517
10187 -6341.968123561822
10188 -6355.949629396641
10189 -6371.745459709226
10190 -6386.812415061107
10191 -6403.058318484184
10192 -6418.933263662175
10193 -6435.055424476973
10194 -6450.439740686704
10195 -6466.252380276805
10196 -6481.177674544215
10197 -6496.519953192768
10198 -6510.797545033891
10199 -6524.266436569015
10200 -6535.979855259077
10201 -6547.500714324407
10202 -6557.385412620142
10203 -6567.319022697875
10204 -6574.922917367893
10205 -6582.052137019185
10206 -6587.04556264352
10207 -6591.253526227913
10208 -6593.49288398833
10209 -6595.023405598892
10210 -6594.083903729388
10211 -6592.739238478376
10212 -6589.278122639541
10213 -6584.876932925926
10214 -6578.691451570508
10215 -6572.135494956317
10216 -6563.639248981219
10217 -6554.836608428909
10218 -6543.984812578871
10219 -6532.795100410381
10220 -6520.381938083583
10221 -6507.649484246126
10222 -6493.767180593194
10223 -6480.160126538655
10224 -6465.35105307752
10225 -6451.423713370698
10226 -6436.710079442817
10227 -6422.168419996944
10228 -6407.494409853665
10229 -6394.016326814635
10230 -6380.088362775054
10231 -6367.314769520536
10232 -6354.78690869924
10233 -6343.32327253146
10234 -6332.056504582981
10235 -6322.420812884796
10236 -6313.155123444057
10237 -6305.036374840967
10238 -6297.70570293638
10239 -6291.803356075293
10240 -6286.508992782738
10241 -6282.852996828534
10242 -6279.868542142314
10243 -6278.500068335742
10244 -6277.590070234726
10245 -6278.561310483164
10246 -6279.927213949432
10247 -6283.083042281115
10248 -6286.501010287277
10249 -6291.84122039508
10250 -6296.941310565086
10251 -6303.61004903273
10252 -6308.445568111651
10253 -6316.872824391211
10254 -6325.323031789349
10255 -6332.248636389049
10256 -6342.63991994536
10257 -6353.995791743622
10258 -6364.702095446914
10259 -6376.477584002761
10260 -6387.803428626024
10261 -6399.964988082842
10262 -6411.124622110119
10263 -6423.257923909303
10264 -6433.996438746428
10265 -6445.096739001253
10266 -6454.92989081177
10267 -6464.892969777996
10268 -6473.716118631159
10269 -6482.644072906854
10270 -6489.864390725425
10271 -6497.375859044474
10272 -6503.434298064031
10273 -6508.963481622591
10274 -6512.627754806871
10275 -6515.846413322826
10276 -6517.153062172249
10277 -6518.273575873496
10278 -6517.318083927379
10279 -6516.242449845805
10280 -6513.52554095631
10281 -6509.811918547201
10282 -6505.024928851421
10283 -6499.563930808012
10284 -6492.791585101261
10285 -6485.257676412866
10286 -6476.533548939088
10287 -6467.683354280841
10288 -6457.252504966606
10289 -6447.115107984303
10290 -6435.652793936199
10291 -6424.464906588576
10292 -6412.16981579203
10293 -6400.046699578166
10294 -6387.379218976946
10295 -6375.27782563594
10296 -6362.577420058695
10297 -6350.817049494671
10298 -6339.133234073195
10299 -6328.262325650847
10300 -6317.271367053259
10301 -6307.696245131973
10302 -6298.242064814102
10303 -6289.815775783394
10304 -6282.043375836784
10305 -6276.088737863935
10306 -6270.171846707386
10307 -6265.555430535541
10308 -6261.61147440294
10309 -6259.408918369055
10310 -6257.470385418915
10311 -6257.090464053385
10312 -6256.994886187009
10313 -6258.472841973722
10314 -6260.158840968626
10315 -6263.415582276728
10316 -6267.162173599299
10317 -6271.894999430542
10318 -6276.695831294316
10319 -6282.479003873888
10320 -6288.020050099148
10321 -6294.527107364695
10322 -6298.855947518478
10323 -6306.136479602041
10324 -6313.347004592951
10325 -6318.903303413693
10326 -6326.470241003482
10327 -6334.829827640867
10328 -6340.049696461755
10329 -6348.385546038206
10330 -6356.138328970216
10331 -6361.676334202994
10332 -6368.880850112097
10333 -6376.446878606752
10334 -6383.11927442307
10335 -6387.843338830379
10336 -6393.776475114369
10337 -6399.741818746975
10338 -6404.509405073421
10339 -6409.371544674522
10340 -6412.687980906231
10341 -6415.932693149271
10342 -6417.713531229573
10343 -6419.390766557711
10344 -6419.621730360177
10345 -6419.555750614709
10346 -6418.224106878847
10347 -6416.45433297772
10348 -6413.219335867832
10349 -6409.676769297474
10350 -6404.967760144676
10351 -6400.195898529987
10352 -6394.215925601132
10353 -6388.148878877005
10354 -6381.320034054435
10355 -6374.887872342477
10356 -6367.614959107533
10357 -6360.632226823846
10358 -6353.114181446484
10359 -6345.76650778709
10360 -6338.342726995441
10361 -6331.252495854032
10362 -6324.045045088842
10363 -6318.111273862477
10364 -6312.101544988016
10365 -6307.071359602307
10366 -6302.331787363959
10367 -6298.729294058367
10368 -6295.320234364493
10369 -6293.457975187804
10370 -6291.72864851264
10371 -6291.620508923654
10372 -6291.131330140566
10373 -6292.487261088036
10374 -6294.33374537802
10375 -6297.225875489538
10376 -6300.10847809665
10377 -6304.854492505952
10378 -6309.789130849297
10379 -6315.721078168811
10380 -6320.736853089394
10381 -6327.031243877656
10382 -6333.64592242186
10383 -6340.505468845484
10384 -6347.055636023571
10385 -6354.322056174659
10386 -6360.872990425541
10387 -6368.542618829248
10388 -6375.500554975888
10389 -6382.464518416246
10390 -6388.898022205376
10391 -6395.122297964943
10392 -6400.67117762517
10393 -6406.238617383369
10394 -6410.898061511471
10395 -6415.29613724051
10396 -6418.627956294789
10397 -6422.21515857356
10398 -6424.334154861758
10399 -6426.933188600095
10400 -6428.464489894045
10401 -6429.60525338397
10402 -6429.91021648316
10403 -6431.182290670675
10404 -6431.203107077373
10405 -6431.546891206264
10406 -6431.229953925229
10407 -6431.847389177683
10408 -6431.500417539456
10409 -6431.499654240717
10410 -6430.932893286926
10411 -6430.744987549998
10412 -6429.837777067045
10413 -6429.260282439148
10414 -6428.083959002895
10415 -6427.62284245993
10416 -6425.947996607229
10417 -6425.017349112088
10418 -6423.721970604374
10419 -6422.313708786493
10420 -6419.73322298642
10421 -6418.388943190848
10422 -6415.441170536607
10423 -6412.908232331224
10424 -6410.473962878671
10425 -6407.060354340798
10426 -6404.164813946904
10427 -6400.36140396038
10428 -6397.294495516113
10429 -6392.734241909999
10430 -6389.398344050129
10431 -6384.581920130727
10432 -6380.813380311585
10433 -6375.807707709815
10434 -6372.102139761733
10435 -6367.360076143985
10436 -6363.525012391816
10437 -6358.862833355684
10438 -6355.78666192421
10439 -6351.660478787764
10440 -6347.141467940069
10441 -6344.790623548147
10442 -6340.327224798024
10443 -6337.178155873377
10444 -6334.388800830935
10445 -6333.074458618525
10446 -6330.852885016729
10447 -6329.725675546187
10448 -6328.536723669557
10449 -6328.659952612315
10450 -6328.633317722712
10451 -6329.222104205707
10452 -6329.820993514031
10453 -6331.556595857447
10454 -6333.023420735123
10455 -6334.820828056102
10456 -6336.00176176122
10457 -6338.514764311836
10458 -6341.235718351104
10459 -6343.380976284668
10460 -6345.871971645909
10461 -6349.670694399536
10462 -6352.961307443302
10463 -6356.783319599856
10464 -6359.760636913347
10465 -6363.548601399436
10466 -6367.042687582018
10467 -6371.035016124493
10468 -6373.889296295466
10469 -6377.35030956647
10470 -6379.495912597929
10471 -6382.15855996919
10472 -6383.509079604793
10473 -6385.22737006544
10474 -6386.130540565954
10475 -6387.157723185368
10476 -6387.311545028186
10477 -6387.446032625802
10478 -6386.042917691179
10479 -6385.296402695401
10480 -6383.961642232427
10481 -6382.429287289714
10482 -6379.735320307029
10483 -6378.156463967473
10484 -6375.282322949367
10485 -6372.859645679129
10486 -6369.752596407486
10487 -6366.801163122481
10488 -6363.389359704979
10489 -6359.90045971925
10490 -6356.082680142735
10491 -6352.589208566913
10492 -6348.454611945429
10493 -6345.033406750847
10494 -6341.35027954214
10495 -6338.310215130184
10496 -6334.995237308441
10497 -6332.438992052508
10498 -6329.632536123775
10499 -6327.870917201263
10500 -6325.8726856428
10501 -6325.406868444116
10502 -6324.279166920979
10503 -6324.845453176948
10504 -6325.556205895626
10505 -6327.347446528186
10506 -6328.802362979308
10507 -6331.96213750547
10508 -6334.032097873259
10509 -6338.332226976559
10510 -6342.432513670539
10511 -6348.451852628188
10512 -6352.669614061475
10513 -6360.466770715263
10514 -6367.927922976307
10515 -6376.654319826295
10516 -6382.421115990005
10517 -6392.358280520673
10518 -6401.564405328448
10519 -6411.911195210833
10520 -6422.243427615655
10521 -6432.970423453536
10522 -6443.094020712773
10523 -6450.206462026855
10524 -6460.407292123842
10525 -6470.557028667233
10526 -6480.21093324937
10527 -6489.891809755602
10528 -6498.938704734022
10529 -6508.02435533191
10530 -6516.292391054545
10531 -6524.857688865437
10532 -6531.98238223799
10533 -6539.538982099432
10534 -6545.972480822717
10535 -6550.345894993883
10536 -6556.08603413563
10537 -6561.87244993871
10538 -6564.954010436794
10539 -6570.047245067335
10540 -6572.928327973528
10541 -6577.320159880011
10542 -6579.57274343
10543 -6583.425106595922
10544 -6585.347471413305
10545 -6588.277039467565
10546 -6589.853434163021
10547 -6591.571844461264
10548 -6593.416854134368
10549 -6594.967889208922
10550 -6595.733284827428
10551 -6596.943760408593
10552 -6597.183074027575
10553 -6597.79060133611
10554 -6597.414190003465
10555 -6597.316734834169
10556 -6596.379388659027
10557 -6595.437241229979
10558 -6593.926448333477
10559 -6592.520831578599
10560 -6588.933832599838
10561 -6587.02816453455
10562 -6583.7388026043
10563 -6579.155713387429
10564 -6575.285895479858
10565 -6569.608980921449
10566 -6564.891844486158
10567 -6560.547748770718
10568 -6552.675689901061
10569 -6547.781938717442
10570 -6539.088051368095
10571 -6533.125950618364
10572 -6523.320642120753
10573 -6517.327070124006
10574 -6507.123669445885
10575 -6500.674199493594
10576 -6490.279828068612
10577 -6483.940419465146
10578 -6473.651668453836
10579 -6467.618252778928
10580 -6457.758312198573
10581 -6451.8497997808
10582 -6442.649304132415
10583 -6437.28209964986
10584 -6428.843683741862
10585 -6424.095189937267
10586 -6416.693946568319
10587 -6412.670098423317
10588 -6406.61747392083
10589 -6403.480625548699
10590 -6398.742720450557
10591 -6396.438823320075
10592 -6393.489046569507
10593 -6392.637087304994
10594 -6391.011144637881
10595 -6390.950895439537
10596 -6390.911509238269
10597 -6391.829518188816
10598 -6393.357848046688
10599 -6395.144393467343
10600 -6396.985841266366
10601 -6401.04029814578
10602 -6403.447552209146
10603 -6408.708467823833
10604 -6412.083409809641
10605 -6418.324140150603
10606 -6422.392428742991
10607 -6429.337163757206
10608 -6433.72654101368
10609 -6441.021433967918
10610 -6445.59682257503
10611 -6453.134908929447
10612 -6457.795403608601
10613 -6465.196530953376
10614 -6469.55961490582
10615 -6477.154322964147
10616 -6481.454280532381
10617 -6488.592409948979
10618 -6492.361500469766
10619 -6498.571979697652
10620 -6501.757093392792
10621 -6506.960400047432
10622 -6509.613131624243
10623 -6513.254005001119
10624 -6515.813772367756
10625 -6517.470085989141
10626 -6518.648237413954
10627 -6519.333521695197
10628 -6518.903324429337
10629 -6517.814530769461
10630 -6515.070310976424
10631 -6512.195648833972
10632 -6508.016617594584
10633 -6504.926760231386
10634 -6498.609216192789
10635 -6492.24512033786
10636 -6484.483821712761
10637 -6476.875901211932
10638 -6468.187261381352
10639 -6459.400198129277
10640 -6452.549937907414
10641 -6442.436774468856
10642 -6431.402044243218
10643 -6420.731626371112
10644 -6408.881381242522
10645 -6397.704635064947
10646 -6386.124282616583
10647 -6375.075300969022
10648 -6363.80375483914
10649 -6353.270547109794
10650 -6342.138716314706
10651 -6332.262329845089
10652 -6322.058291858459
10653 -6313.462322972616
10654 -6304.400271258183
10655 -6296.830939353599
10656 -6289.259129906594
10657 -6283.041867862202
10658 -6277.073606736893
10659 -6272.314185893578
10660 -6267.882947163526
10661 -6265.257231788315
10662 -6262.730352546542
10663 -6261.821412420946
10664 -6261.35968432999
10665 -6262.477623308808
10666 -6263.997037863476
10667 -6267.043194986968
10668 -6270.627629749178
10669 -6274.184415464499
10670 -6280.237170427718
10671 -6287.018226502455
10672 -6291.647884694357
10673 -6300.417523431771
10674 -6309.069356857484
10675 -6315.900932225756
10676 -6325.97235854359
10677 -6337.018271178916
10678 -6347.827509443343
10679 -6359.161295525537
10680 -6369.862835788325
10681 -6381.072354604084
10682 -6391.579650468428
10683 -6402.426021501048
10684 -6412.424923335589
10685 -6422.707913606987
10686 -6431.664556556543
10687 -6440.369123294892
10688 -6448.244285216584
10689 -6455.722126680481
10690 -6461.725533851187
10691 -6467.321779348133
10692 -6471.309459817665
10693 -6474.702587935565
10694 -6476.775878907471
10695 -6478.162314490475
10696 -6477.865218159114
10697 -6476.938871461783
10698 -6474.210929465124
10699 -6470.815630885314
10700 -6465.888898223743
10701 -6460.771109193646
10702 -6453.990885912805
10703 -6447.089182718981
10704 -6438.631387889619
10705 -6430.143690682148
10706 -6420.486199963889
10707 -6410.912792614387
10708 -6400.427112633253
10709 -6390.120170222959
10710 -6379.078139700653
10711 -6368.400785263509
10712 -6357.227669478031
10713 -6346.671027902981
10714 -6335.834546511299
10715 -6325.852418075902
10716 -6315.429404863008
10717 -6306.464824045643
10718 -6297.294644895202
10719 -6289.041586075001
10720 -6280.799702513389
10721 -6273.944905060921
10722 -6267.619874496416
10723 -6262.691900821053
10724 -6257.458628260574
10725 -6253.798974126356
10726 -6250.511720814806
10727 -6248.305429098809
10728 -6246.600918994542
10729 -6245.981472447056
10730 -6245.865115276652
10731 -6247.000458839201
10732 -6248.225618647262
10733 -6249.889166336244
10734 -6252.39096039423
10735 -6255.837604449779
10736 -6259.367886363822
10737 -6262.430213165376
10738 -6266.504043683765
10739 -6271.5122650331
10740 -6276.40820520792
10741 -6281.692605029061
10742 -6286.678230519725
10743 -6292.081251401554
10744 -6296.93362413022
10745 -6302.721639957749
10746 -6307.721205572229
10747 -6313.041089840836
10748 -6317.333433904305
10749 -6320.803016669879
10750 -6324.91935049002
10751 -6329.813831576954
10752 -6333.72038425161
10753 -6336.669539247972
10754 -6340.320733112935
10755 -6344.267368762996
10756 -6346.436211262255
10757 -6350.337075565441
10758 -6352.992341516975
10759 -6355.378588931164
10760 -6357.840257130536
10761 -6360.882895589085
10762 -6362.672424364543
10763 -6364.715093086589
10764 -6365.727380547105
10765 -6367.092815133214
10766 -6367.484730506215
10767 -6368.264620803046
10768 -6367.999538561893
10769 -6368.065343553508
10770 -6367.355296000037
10771 -6366.582524994177
10772 -6365.081388818257
10773 -6364.122773465048
10774 -6362.704297290431
10775 -6361.382609859405
10776 -6359.294136121053
10777 -6358.028297991436
10778 -6356.043327520262
10779 -6354.593313087067
10780 -6353.130949629645
10781 -6352.305425379234
10782 -6350.727536241024
10783 -6350.367884461298
10784 -6349.449026553445
10785 -6349.455673476697
10786 -6348.608545896622
10787 -6348.984501035839
10788 -6349.128883117221
10789 -6349.957453793184
10790 -6350.544065489816
10791 -6352.22925850236
10792 -6354.205376787326
10793 -6357.09216805868
10794 -6359.615618008002
10795 -6362.777437622496
10796 -6366.650458457998
10797 -6371.022340526269
10798 -6375.129224990593
10799 -6380.205451767844
10800 -6384.577506109937
10801 -6389.962141523645
10802 -6394.827368157213
10803 -6398.768989205936
10804 -6404.349934509803
10805 -6410.776622559989
10806 -6416.812082426733
10807 -6421.419142448275
10808 -6428.006964056062
10809 -6435.300377617115
10810 -6439.473589152297
10811 -6446.488181056661
10812 -6450.639914508895
10813 -6457.858151838557
10814 -6462.073049128787
10815 -6468.902602151217
10816 -6472.55252148635
10817 -6479.042717489208
10818 -6482.33521597351
10819 -6488.239481171326
10820 -6491.303293026467
10821 -6496.29943927483
10822 -6499.070209734239
10823 -6503.298658367312
10824 -6505.416342555201
