"mx-rfile"
"Iteration" "mx"
("Iteration" "mx")
3013 -3836.230393256084
3014 -3855.440922245145
3015 -3882.403168627138
3016 -3953.517458355114
3017 -4043.416126014171
3018 -4142.271590323089
3019 -4229.976901371078
3020 -4327.768448119846
3021 -4422.523784594871
3022 -4514.090570767346
3023 -4610.366182898633
3024 -4687.496070700177
3025 -4748.405119892801
3026 -4782.396698041157
3027 -4805.445772099736
3028 -4819.101698263677
3029 -4824.845936821737
3030 -4832.547396227574
3031 -4838.298372129053
3032 -4851.300919559278
3033 -4869.728056542628
3034 -4900.460668614637
3035 -4929.311412803618
3036 -4982.707704680526
3037 -5028.357285688877
3038 -5086.876446819221
3039 -5152.358008932461
3040 -5228.71062723204
3041 -5309.903274163351
3042 -5400.180601889348
3043 -5493.132161150819
3044 -5592.352584410015
3045 -5691.498870462143
3046 -5792.433323970437
3047 -5890.065816992048
3048 -5989.09807685246
3049 -6082.310771871684
3050 -6175.028461279518
3051 -6261.398953680326
3052 -6345.518458302759
3053 -6420.900754116788
3054 -6492.769428742926
3055 -6534.643277158097
3056 -6596.735840765319
3057 -6650.23294874241
3058 -6683.855348808624
3059 -6727.609278543428
3060 -6767.602139347362
3061 -6798.771749372416
3062 -6818.059823563994
3063 -6839.792297336329
3064 -6858.329329650454
3065 -6865.948799698999
3066 -6875.991060138394
3067 -6878.439820848769
3068 -6880.741844186208
3069 -6878.450460709862
3070 -6874.954297340226
3071 -6868.880198649467
3072 -6860.57775371585
3073 -6851.9027136564
3074 -6843.622658562876
3075 -6827.578857419425
3076 -6818.362493910244
3077 -6805.772747322835
3078 -6795.071254039851
3079 -6776.439266129104
3080 -6765.730753767076
3081 -6752.168233146816
3082 -6735.286150423388
3083 -6722.98872248802
3084 -6712.934692242195
3085 -6696.526728243757
3086 -6688.397676555705
3087 -6673.967571198281
3088 -6667.6562374155
3089 -6656.005946790223
3090 -6652.028683998555
3091 -6643.912235714712
3092 -6639.700829931093
3093 -6634.001900623028
3094 -6632.721973543175
3095 -6629.587470616002
3096 -6630.94255564658
3097 -6629.745249168284
3098 -6631.921679326066
3099 -6632.476597156287
3100 -6635.570756758669
3101 -6636.381162632557
3102 -6640.597196308641
3103 -6641.557071148482
3104 -6645.033900250261
3105 -6645.519895806861
3106 -6649.23716627748
3107 -6649.951030911321
3108 -6652.473735289377
3109 -6652.693133565164
3110 -6655.741958049111
3111 -6654.646852844804
3112 -6656.626596952148
3113 -6654.507700095332
3114 -6655.176770556604
3115 -6653.646223219937
3116 -6653.803500092879
3117 -6652.353372719017
3118 -6653.521806187047
3119 -6652.151480886701
3120 -6651.496011027784
3121 -6650.997309345015
3122 -6650.562756326941
3123 -6648.807082252757
3124 -6648.603567624854
3125 -6646.509036371974
3126 -6647.068107227911
3127 -6644.398791355683
3128 -6643.680087168274
3129 -6642.657629586186
3130 -6643.240071005595
3131 -6642.872095408569
3132 -6644.482493846779
3133 -6643.017745914608
3134 -6644.608096158176
3135 -6644.015096775583
3136 -6645.531884777236
3137 -6645.985762129289
3138 -6647.045155385865
3139 -6646.594427376397
3140 -6648.936284990083
3141 -6650.75301947001
3142 -6654.985214281047
3143 -6657.441383688585
3144 -6662.814244004143
3145 -6666.513343482751
3146 -6672.603587358921
3147 -6676.10396342342
3148 -6683.93569026152
3149 -6692.42239788042
3150 -6701.420259447077
3151 -6710.451484223377
3152 -6725.855020741838
3153 -6737.247806281712
3154 -6750.845953395039
3155 -6765.705940638091
3156 -6783.866580931081
3157 -6800.326173525422
3158 -6818.325478458817
3159 -6835.818116746928
3160 -6854.621687997975
3161 -6874.496490855133
3162 -6896.228448580528
3163 -6918.307572088806
3164 -6947.891439795729
3165 -6970.341493742647
3166 -6995.303766112476
3167 -7020.347081743457
3168 -7047.884577972729
3169 -7074.82357519019
3170 -7111.182115552246
3171 -7140.3442907034
3172 -7172.12729613533
3173 -7201.862585647301
3174 -7242.424825531134
3175 -7273.20957139396
3176 -7312.227685823568
3177 -7343.188000858227
3178 -7381.25993679374
3179 -7410.39355033275
3180 -7448.628614448761
3181 -7476.238381935166
3182 -7514.170886929829
3183 -7543.571196034043
3184 -7580.00004894395
3185 -7610.787353128408
3186 -7648.607216551313
3187 -7678.733234884538
3188 -7714.680851548008
3189 -7743.556992344586
3190 -7779.494384796804
3191 -7807.571409824586
3192 -7841.130941450318
3193 -7868.250849045722
3194 -7899.754977685168
3195 -7924.647529700393
3196 -7952.653131081213
3197 -7975.570528812205
3198 -8003.440494791799
3199 -8024.309175236913
3200 -8049.61013438918
3201 -8068.288584033065
3202 -8090.286308511932
3203 -8109.097094910871
3204 -8125.34331709294
3205 -8145.139119050311
3206 -8159.080155682009
3207 -8172.775365187063
3208 -8185.079222396997
3209 -8197.19431800384
3210 -8207.233004301339
3211 -8217.54898169578
3212 -8225.515235276969
3213 -8232.74948954864
3214 -8237.549479252835
3215 -8243.120040512906
3216 -8244.738019898872
3217 -8245.010305318629
3218 -8243.098844033939
3219 -8241.164196393293
3220 -8236.250151527431
3221 -8230.943998804431
3222 -8224.217390583635
3223 -8215.235576140676
3224 -8202.77453050214
3225 -8193.274288108452
3226 -8176.286491004352
3227 -8164.583244055468
3228 -8144.142831395711
3229 -8129.504556014228
3230 -8105.90584388987
3231 -8086.940459443153
3232 -8058.360797940672
3233 -8038.054339325152
3234 -8013.95938846846
3235 -7980.910312942491
3236 -7954.464138558526
3237 -7917.728668764519
3238 -7888.505012579776
3239 -7850.143471160991
3240 -7819.884302868419
3241 -7779.501214323938
3242 -7746.736635368399
3243 -7704.132545795479
3244 -7669.504174739066
3245 -7625.20576162526
3246 -7577.770063717559
3247 -7544.023169406463
3248 -7496.264518448728
3249 -7450.311893308419
3250 -7404.341566036041
3251 -7357.742050386643
3252 -7311.302537991204
3253 -7265.64087247999
3254 -7217.808941641941
3255 -7172.405180901576
3256 -7125.533657455659
3257 -7080.886170628562
3258 -7034.234177607936
3259 -6989.254138252254
3260 -6942.523675414216
3261 -6897.457073941172
3262 -6850.732552255632
3263 -6805.299146576027
3264 -6758.67698720179
3265 -6713.244684610538
3266 -6667.214511741784
3267 -6622.468311448105
3268 -6576.70308870959
3269 -6533.41498316551
3270 -6488.136891620572
3271 -6445.486094118351
3272 -6401.299288831343
3273 -6359.653323340627
3274 -6316.517236617796
3275 -6276.248084084231
3276 -6244.958581228086
3277 -6204.839246916606
3278 -6163.665967982733
3279 -6134.992965468939
3280 -6095.223023803012
3281 -6066.982014446679
3282 -6028.597559167472
3283 -6001.828264751554
3284 -5964.745844372931
3285 -5939.099642752777
3286 -5911.809388657946
3287 -5887.180314529889
3288 -5861.383779230603
3289 -5838.069120331104
3290 -5813.977133836404
3291 -5792.474634614926
3292 -5770.18559320225
3293 -5750.705848442778
3294 -5730.116809148532
3295 -5712.320842674284
3296 -5694.273075782898
3297 -5679.621987780047
3298 -5663.304513833757
3299 -5652.031239377664
3300 -5642.890207989925
3301 -5632.314857921929
3302 -5624.367692981248
3303 -5614.92401044078
3304 -5608.410976043537
3305 -5599.667856649037
3306 -5593.73019463068
3307 -5586.888174175679
3308 -5581.303451754145
3309 -5574.674206679709
3310 -5569.10809680794
3311 -5561.731072000443
3312 -5556.040450191935
3313 -5548.129763821793
3314 -5538.452640431609
3315 -5533.138868489765
3316 -5522.68295792688
3317 -5512.997859643465
3318 -5500.750546519406
3319 -5489.0098751019
3320 -5475.025683629886
3321 -5461.395180657866
3322 -5444.670605049221
3323 -5427.623027525631
3324 -5407.349702435309
3325 -5387.245226379651
3326 -5364.211359646408
3327 -5340.522442995045
3328 -5312.906437824668
3329 -5285.242175378259
3330 -5253.238861309971
3331 -5220.862631744211
3332 -5184.319012296093
3333 -5147.375664418836
3334 -5107.079714981112
3335 -5067.226954775899
3336 -5023.597013734516
3337 -4980.666992281038
3338 -4933.927708993178
3339 -4872.21324840492
3340 -4825.102798221747
3341 -4764.912999911751
3342 -4719.086715972647
3343 -4660.773057069457
3344 -4601.281072116012
3345 -4546.745739485993
3346 -4491.769469475635
3347 -4441.673952631943
3348 -4391.553941997716
3349 -4346.06779816926
3350 -4300.231713140412
3351 -4259.788627542825
3352 -4218.743271831785
3353 -4181.515637950471
3354 -4143.447056449724
3355 -4109.910143208709
3356 -4075.258776588502
3357 -4045.067562249628
3358 -4013.425886702278
3359 -3986.54452049709
3360 -3959.021821701625
3361 -3935.644143676714
3362 -3916.376544371209
3363 -3895.209244391368
3364 -3878.067304394344
3365 -3858.950911646581
3366 -3844.57736551217
3367 -3832.523204893952
3368 -3819.382589452911
3369 -3810.266091062853
3370 -3799.227531840369
3371 -3792.043877145596
3372 -3783.537580765485
3373 -3779.11513604957
3374 -3773.409194863614
3375 -3771.653948796038
3376 -3768.714431126639
3377 -3768.965615362565
3378 -3768.862463217859
3379 -3771.418498632925
3380 -3774.465376629019
3381 -3778.805752508746
3382 -3784.444623817064
3383 -3790.464349124393
3384 -3798.034924120244
3385 -3809.521486275366
3386 -3820.413490498402
3387 -3833.435063122141
3388 -3845.529754326244
3389 -3860.087510269293
3390 -3873.222591590401
3391 -3888.410294029996
3392 -3902.243076856832
3393 -3917.514253156779
3394 -3931.17592084061
3395 -3946.468546228722
3396 -3959.485431220528
3397 -3974.462812458561
3398 -3987.350542830373
3399 -4001.288064029813
3400 -4012.954365811584
3401 -4025.95732061434
3402 -4036.788990156335
3403 -4049.711289431056
3404 -4060.010410868691
3405 -4072.426374061568
3406 -4078.761480023953
3407 -4090.500498265438
3408 -4096.789175526445
3409 -4108.099955015611
3410 -4114.130035339675
3411 -4125.475157356663
3412 -4131.811745397406
3413 -4143.446733106824
3414 -4149.643227247896
3415 -4157.163439589878
3416 -4166.415258563469
3417 -4173.751404165581
3418 -4180.462130216495
3419 -4188.479355294965
3420 -4198.84833726008
3421 -4206.859557821358
3422 -4213.51990303017
3423 -4224.807715170993
3424 -4231.413576911696
3425 -4239.3674851052
3426 -4249.900486312446
3427 -4258.011466856919
3428 -4267.539683468783
3429 -4275.26906760231
3430 -4281.817883730113
3431 -4293.102883085
3432 -4299.990397493038
3433 -4310.183772536455
3434 -4315.879234885844
3435 -4325.838708421697
3436 -4331.410399526189
3437 -4340.891424483669
3438 -4346.143572045052
3439 -4355.091076392086
3440 -4359.980033545908
3441 -4368.326354354158
3442 -4372.677801356938
3443 -4380.5225500781
3444 -4384.51137177714
3445 -4391.336640259602
3446 -4394.984143526293
3447 -4401.01013659308
3448 -4403.955357041572
3449 -4409.12943295371
3450 -4411.58732968667
3451 -4415.78487436396
3452 -4417.599538736076
3453 -4420.861427347123
3454 -4421.808024092094
3455 -4423.47568063158
3456 -4423.503831806735
3457 -4423.531339731169
3458 -4422.223757252881
3459 -4420.996376464032
3460 -4418.628787532009
3461 -4415.461154709906
3462 -4410.762505878551
3463 -4408.184081226129
3464 -4402.572748822875
3465 -4399.13505955844
3466 -4392.67507021133
3467 -4388.856019637222
3468 -4381.385549419674
3469 -4376.607445080515
3470 -4368.341033542527
3471 -4363.621239009586
3472 -4355.126207351099
3473 -4350.075143360162
3474 -4341.625277836045
3475 -4334.332038566678
3476 -4328.945074744915
3477 -4322.394703247044
3478 -4315.52328303952
3479 -4310.359806759005
3480 -4304.732967381306
3481 -4300.407800240164
3482 -4296.12163456396
3483 -4293.378893948426
3484 -4290.937280825457
3485 -4290.559514738368
3486 -4289.681597511353
3487 -4291.195497715184
3488 -4292.506664097893
3489 -4295.896486691201
3490 -4298.831003765287
3491 -4304.306792722193
3492 -4309.225503027968
3493 -4316.750930130357
3494 -4324.190389230809
3495 -4333.538614539494
3496 -4343.105805777173
3497 -4354.997993621233
3498 -4366.387834864922
3499 -4380.398333439168
3500 -4393.813841660876
3501 -4409.855359804755
3502 -4425.181684509
3503 -4442.888331555037
3504 -4459.989596398144
3505 -4479.408997419415
3506 -4504.490763817559
3507 -4525.01126922072
3508 -4544.047574957486
3509 -4571.631018221648
3510 -4591.166212407672
3511 -4618.412627551156
3512 -4637.908237303714
3513 -4665.582476455444
3514 -4691.526988096459
3515 -4712.196220286694
3516 -4737.62925908402
3517 -4764.899781544991
3518 -4789.710243667616
3519 -4815.207331081425
3520 -4838.421862030669
3521 -4862.330355842456
3522 -4884.145595842783
3523 -4907.115789562916
3524 -4927.459795028036
3525 -4948.373873109398
3526 -4967.412560082284
3527 -4986.822733911811
3528 -5004.034399635833
3529 -5021.824690374679
3530 -5033.039062527815
3531 -5049.463446584277
3532 -5063.180957563382
3533 -5074.327808968526
3534 -5086.416537453233
3535 -5099.075058730363
3536 -5106.435415469469
3537 -5116.597074109058
3538 -5122.213241211581
3539 -5130.854506464577
3540 -5134.92231507476
3541 -5140.942964826751
3542 -5143.491243177432
3543 -5146.384436310315
3544 -5146.800984194118
3545 -5147.552065974073
3546 -5145.831171373036
3547 -5144.046718666573
3548 -5140.187992735155
3549 -5136.907630283813
3550 -5131.324554865681
3551 -5125.516660338546
3552 -5117.804215462889
3553 -5109.801766094279
3554 -5099.626683328035
3555 -5089.997857544339
3556 -5081.522230660079
3557 -5068.521860562672
3558 -5053.54534051318
3559 -5039.002673181853
3560 -5022.778212476087
3561 -5007.324810688613
3562 -4990.335409307654
3563 -4973.419700824234
3564 -4954.817720042238
3565 -4937.625180381578
3566 -4918.333500832532
3567 -4899.821200615608
3568 -4879.864745370847
3569 -4854.805078573947
3570 -4835.339223335557
3571 -4810.827864482162
3572 -4791.932976051798
3573 -4768.927059747743
3574 -4751.013845159058
3575 -4728.806543104931
3576 -4711.660868801664
3577 -4690.433897845894
3578 -4669.654271079569
3579 -4655.003856794759
3580 -4634.750761551317
3581 -4616.697536853542
3582 -4602.535326738043
3583 -4585.452897711471
3584 -4568.110266490388
3585 -4556.135759361687
3586 -4539.163712130723
3587 -4527.841739032072
3588 -4511.795104560884
3589 -4501.132689572525
3590 -4485.628688954209
3591 -4475.344449633956
3592 -4460.905819271533
3593 -4451.389277110839
3594 -4440.877621690386
3595 -4431.51609948079
3596 -4421.804998046789
3597 -4412.770126132687
3598 -4403.037604799232
3599 -4394.859621379532
3600 -4386.078369809098
3601 -4378.925594160388
3602 -4370.805440573375
3603 -4364.129186014899
3604 -4357.259946186763
3605 -4351.788180018259
3606 -4346.212776425631
3607 -4341.773759298418
3608 -4338.474716295234
3609 -4335.430603338638
3610 -4332.21914099489
3611 -4331.143342835478
3612 -4329.228088807226
3613 -4328.801776593692
3614 -4328.242094091263
3615 -4328.912211422838
3616 -4329.032617424917
3617 -4330.600586554809
3618 -4331.882688875644
3619 -4334.479150259195
3620 -4336.539490752339
3621 -4340.073453534593
3622 -4343.462752926813
3623 -4347.956370214109
3624 -4352.230698210984
3625 -4357.33165048479
3626 -4362.107626626959
3627 -4367.775174139531
3628 -4372.709784270683
3629 -4378.71707388052
3630 -4383.947971223251
3631 -4390.103741097706
3632 -4395.648283907978
3633 -4401.582328385701
3634 -4407.216644568518
3635 -4413.361634129684
3636 -4418.939229600681
3637 -4425.066467956005
3638 -4430.488252427985
3639 -4436.337928891266
3640 -4441.159874438132
3641 -4446.28483992141
3642 -4450.87091750714
3643 -4455.68957040289
3644 -4459.499232914912
3645 -4463.5807725726
3646 -4467.157597059345
3647 -4470.846237630286
3648 -4473.764364375196
3649 -4476.883879336002
3650 -4479.179273899288
3651 -4481.407572177668
3652 -4482.74065812688
3653 -4484.196073154631
3654 -4484.255760524495
3655 -4484.323590795159
3656 -4483.760195532665
3657 -4482.833617261133
3658 -4481.646950622854
3659 -4480.204864142731
3660 -4477.907068313966
3661 -4475.402992240703
3662 -4471.926432286008
3663 -4468.031207004879
3664 -4463.335845705507
3665 -4458.385638631655
3666 -4452.903778569556
3667 -4447.078665489787
3668 -4440.180134181463
3669 -4432.722150501466
3670 -4424.713859830144
3671 -4416.373593460619
3672 -4407.598139210032
3673 -4398.649859132371
3674 -4389.194354866289
3675 -4379.502105974507
3676 -4369.334475366511
3677 -4359.440396669913
3678 -4348.673159574246
3679 -4337.759562324187
3680 -4327.053761247189
3681 -4312.537603615539
3682 -4301.833457484434
3683 -4291.335210194432
3684 -4277.611248955021
3685 -4267.540277312884
3686 -4257.62591303852
3687 -4244.949870139462
3688 -4235.465392018377
3689 -4226.798597002512
3690 -4215.236828067837
3691 -4207.438746345439
3692 -4199.432690411344
3693 -4190.080772104093
3694 -4183.043557781435
3695 -4176.878083275777
3696 -4170.715431252887
3697 -4165.2508846258
3698 -4159.769647383113
3699 -4154.925827055311
3700 -4150.242748156469
3701 -4146.438937879911
3702 -4142.530616322612
3703 -4139.616175247928
3704 -4136.438190663027
3705 -4134.342967814442
3706 -4132.102135600443
3707 -4130.691056980269
3708 -4129.412638865793
3709 -4129.005198757345
3710 -4128.66136543735
3711 -4129.063050696312
3712 -4129.015297009592
3713 -4130.16148298829
3714 -4131.625676380858
3715 -4133.42767392889
3716 -4135.911884168155
3717 -4138.967026776712
3718 -4141.020354286285
3719 -4144.74502071347
3720 -4148.500205951785
3721 -4153.291321731018
3722 -4156.107539808492
3723 -4161.563704494858
3724 -4166.574898750789
3725 -4172.204805814565
3726 -4177.999976048244
3727 -4184.337228049439
3728 -4188.295731024475
3729 -4195.329025812725
3730 -4202.480872534912
3731 -4210.229261964359
3732 -4217.869237511882
3733 -4226.056953995685
3734 -4231.50037806897
3735 -4240.478128780684
3736 -4249.423045589285
3737 -4258.880324465235
3738 -4264.928316924342
3739 -4274.868433366048
3740 -4284.394213667683
3741 -4291.551546139712
3742 -4301.824262140486
3743 -4312.625386349855
3744 -4319.517951085469
3745 -4330.925143889748
3746 -4338.203460407529
3747 -4349.285522233809
3748 -4356.572817970359
3749 -4367.74228371063
3750 -4375.187205182732
3751 -4386.527500380397
3752 -4397.290017742389
3753 -4404.814676833627
3754 -4416.163393032553
3755 -4427.065619954945
3756 -4434.259194679365
3757 -4445.325763715723
3758 -4455.488911816276
3759 -4465.76574898242
3760 -4475.681144095297
3761 -4484.92474198739
3762 -4494.087503030576
3763 -4502.45749535016
3764 -4510.390210311665
3765 -4518.169727174914
3766 -4525.656422749598
3767 -4532.263719762743
3768 -4538.394904452439
3769 -4544.175169161458
3770 -4549.462396847621
3771 -4554.764192697077
3772 -4558.972634696465
3773 -4562.873401930709
3774 -4566.105959489651
3775 -4568.980816230622
3776 -4571.26280470472
3777 -4573.221961438648
3778 -4574.291560226698
3779 -4574.90257136585
3780 -4575.190557244893
3781 -4574.775526833226
3782 -4573.723392693866
3783 -4572.483387980285
3784 -4570.441832985114
3785 -4568.355228851466
3786 -4566.374438145764
3787 -4563.302445434928
3788 -4559.618238512612
3789 -4557.199141562509
3790 -4552.619689638237
3791 -4549.528441260115
3792 -4544.306495447642
3793 -4541.020675941882
3794 -4535.317594227092
3795 -4531.515643443134
3796 -4525.59319064517
3797 -4519.666040570246
3798 -4513.674010938369
3799 -4507.807611855753
3800 -4501.984943191571
3801 -4496.640570878024
3802 -4491.262113075314
3803 -4486.210643950368
3804 -4481.21658586521
3805 -4476.761825585465
3806 -4472.488861879074
3807 -4468.636642769217
3808 -4464.87434070734
3809 -4461.69031958125
3810 -4458.620865963872
3811 -4456.209806003986
3812 -4453.878888998837
3813 -4451.952327034789
3814 -4450.215037655074
3815 -4449.032586199286
3816 -4447.860799561657
3817 -4447.354505576562
3818 -4446.889622798621
3819 -4446.921102240467
3820 -4447.107622485981
3821 -4447.930114527215
3822 -4448.757306059169
3823 -4450.413811930044
3824 -4452.175310507393
3825 -4454.458679240694
3826 -4456.793639570976
3827 -4459.606593594383
3828 -4461.440296916251
3829 -4464.728816165477
3830 -4468.003402260304
3831 -4470.489977913
3832 -4474.254617335476
3833 -4477.004751322938
3834 -4481.419215344406
3835 -4486.121984993557
3836 -4489.25959624299
3837 -4494.072389173115
3838 -4499.227134504756
3839 -4504.16823590183
3840 -4509.166260373566
3841 -4514.223015110983
3842 -4519.058232017875
3843 -4524.032284774236
3844 -4528.683803792608
3845 -4533.50355528831
3846 -4538.473493344844
3847 -4543.242582730406
3848 -4548.04098597029
3849 -4552.787295363622
3850 -4557.412250449214
3851 -4561.918085777814
3852 -4566.482134665891
3853 -4570.625529214228
3854 -4574.862752526609
3855 -4578.808240671236
3856 -4582.704457300724
3857 -4586.521206673995
3858 -4590.256714754029
3859 -4593.666233759659
3860 -4597.025939370653
3861 -4599.850210552258
3862 -4602.750942775459
3863 -4605.129912301484
3864 -4607.573553797332
3865 -4609.728540173728
3866 -4611.766529248814
3867 -4613.38671858413
3868 -4615.056535400558
3869 -4616.162126377464
3870 -4617.416566509933
3871 -4618.195179178008
3872 -4618.688408670424
3873 -4618.721656795423
3874 -4618.676176308805
3875 -4617.903179546431
3876 -4617.194830487126
3877 -4616.007360055039
3878 -4614.628631371344
3879 -4612.763025577593
3880 -4610.707187639318
3881 -4608.017038982807
3882 -4606.146406799575
3883 -4602.631014670518
3884 -4599.119731594316
3885 -4594.883477494704
3886 -4590.717287986678
3887 -4586.051463254651
3888 -4581.057215895296
3889 -4575.247882013573
3890 -4569.554401736988
3891 -4563.51999249849
3892 -4557.346530068559
3893 -4550.548499687115
3894 -4543.861699268798
3895 -4536.709559510509
3896 -4529.557568436476
3897 -4522.045905785275
3898 -4514.749999977086
3899 -4506.664889439455
3900 -4499.104888581775
3901 -4490.740538474534
3902 -4482.586631286744
3903 -4474.280975402643
3904 -4466.224750216138
3905 -4457.898303240593
3906 -4449.848575161031
3907 -4441.574699127609
3908 -4433.631381659555
3909 -4425.213891530024
3910 -4417.427346020167
3911 -4409.267090742645
3912 -4401.676270550681
3913 -4393.738498740197
3914 -4386.503593227564
3915 -4379.230332690633
3916 -4372.68974868059
3917 -4365.717624641069
3918 -4359.533537789749
3919 -4353.440080933023
3920 -4348.032400545649
3921 -4342.573660311831
3922 -4337.880200955341
3923 -4333.233131649968
3924 -4329.325159860954
3925 -4325.355813061838
3926 -4322.126871476117
3927 -4318.951225268463
3928 -4316.519111895813
3929 -4314.0087861918
3930 -4312.472536031748
3931 -4310.925320081241
3932 -4310.180233623059
3933 -4309.64474989872
3934 -4309.685081126569
3935 -4309.635058759033
3936 -4310.303533184651
3937 -4310.766165278558
3938 -4311.98239967539
3939 -4312.734253912346
3940 -4314.442270323303
3941 -4315.448590010246
3942 -4317.712422225438
3943 -4319.114232360363
3944 -4321.613822239181
3945 -4323.345005303916
3946 -4326.258017558521
3947 -4329.140556112829
3948 -4332.316852920146
3949 -4335.200402805711
3950 -4338.546294228325
3951 -4341.537374791218
3952 -4344.851871906462
3953 -4348.044666600092
3954 -4351.401428842536
3955 -4354.59937317004
3956 -4357.711088587439
3957 -4360.793947180917
3958 -4363.787437783712
3959 -4366.584222055342
3960 -4369.28436496315
3961 -4371.814211923465
3962 -4374.347422636791
3963 -4376.831364929272
3964 -4379.161265762294
3965 -4381.321082344725
3966 -4383.556032024251
3967 -4385.519262501992
3968 -4387.208309595235
3969 -4388.862406913187
3970 -4390.560927342704
3971 -4392.057397357748
3972 -4393.458457476247
3973 -4394.759232263783
3974 -4395.981028933909
3975 -4396.91643485336
3976 -4397.93318585015
3977 -4398.990010591255
3978 -4399.878299999295
3979 -4401.13268640181
3980 -4402.511027837752
3981 -4403.102840290432
3982 -4404.492444148394
3983 -4405.372870681051
3984 -4406.728920255352
3985 -4407.724130762286
3986 -4409.629788231006
3987 -4410.805468143423
3988 -4412.512289085073
3989 -4413.555116426403
3990 -4415.667408160306
3991 -4416.794248279838
3992 -4419.021955228727
3993 -4420.280068410731
3994 -4422.287867453643
3995 -4424.237544933043
3996 -4425.565457370348
3997 -4427.220751897994
3998 -4428.668534064469
3999 -4430.362622733249
4000 -4432.171107743478
4001 -4433.208838254633
4002 -4434.951330234921
4003 -4435.977323739182
4004 -4437.457498248037
4005 -4438.598775325689
4006 -4439.511822069371
4007 -4440.573455762975
4008 -4441.277216863007
4009 -4441.865416053962
4010 -4442.420980724443
4011 -4442.966010907182
4012 -4443.307252825031
4013 -4443.309529929222
4014 -4443.372217534645
4015 -4442.97437655533
4016 -4442.929957073805
4017 -4442.104239823461
4018 -4441.629603225025
4019 -4440.415535288612
4020 -4439.847917303104
4021 -4438.477322292015
4022 -4437.61355052841
4023 -4435.839618122579
4024 -4434.880235823071
4025 -4432.868033419974
4026 -4431.848680894051
4027 -4429.640100988031
4028 -4428.365855380363
4029 -4425.899691579358
4030 -4424.36093507749
4031 -4421.524312001102
4032 -4419.990225463202
4033 -4417.153724579437
4034 -4415.471228103439
4035 -4412.42403725814
4036 -4409.802492812669
4037 -4407.819646022165
4038 -4405.310649978208
4039 -4403.500178830694
4040 -4401.082919844581
4041 -4398.516500636136
4042 -4397.170592072115
4043 -4394.857363022209
4044 -4392.901901475896
4045 -4391.599445234229
4046 -4390.031093485753
4047 -4388.974693835533
4048 -4387.851947848309
4049 -4386.788474240427
4050 -4386.216556210027
4051 -4385.60664540339
4052 -4385.381846322271
4053 -4385.082196797985
4054 -4385.260628074358
4055 -4385.413406559393
4056 -4385.794839682825
4057 -4386.46356885804
4058 -4387.224086225307
4059 -4388.39401878588
4060 -4389.520673199424
4061 -4391.147769603439
4062 -4392.607734979019
4063 -4394.842125064562
4064 -4396.602508023896
4065 -4399.185836014482
4066 -4401.358629975934
4067 -4404.249540726303
4068 -4406.628281241076
4069 -4410.093990259315
4070 -4412.664750481391
4071 -4416.033575620029
4072 -4420.007140399755
4073 -4422.234517759922
4074 -4426.147549023784
4075 -4429.7927082671
4076 -4432.482737461594
4077 -4436.017331360598
4078 -4439.898412510465
4079 -4443.134019212508
4080 -4445.69644824544
4081 -4448.923487763412
4082 -4452.381842001945
4083 -4454.16747647342
4084 -4457.291727532911
4085 -4459.901341264933
4086 -4461.762477620023
4087 -4463.979317297448
4088 -4466.634261136756
4089 -4467.816705506066
4090 -4470.038583339117
4091 -4471.130301159289
4092 -4472.975484391302
4093 -4473.794721370979
4094 -4475.365954110008
4095 -4476.014109476646
4096 -4477.238992072205
4097 -4477.571838446333
4098 -4478.457182018043
4099 -4478.494118897026
4100 -4479.10108828385
4101 -4478.957674769881
4102 -4479.222429373028
4103 -4478.877308828169
4104 -4479.016031069147
4105 -4478.501201175076
4106 -4478.472190323697
4107 -4477.885520538462
4108 -4477.721827984056
4109 -4476.915740696121
4110 -4476.683601127262
4111 -4475.635600485928
4112 -4475.284115984073
4113 -4474.366395207401
4114 -4473.918660235084
4115 -4472.409908420199
4116 -4472.012202308699
4117 -4470.871376625635
4118 -4470.014877386239
4119 -4468.980158982748
4120 -4468.364916464943
4121 -4466.869283394655
4122 -4466.362346135298
4123 -4465.235156444825
4124 -4464.21193114185
4125 -4463.067158662356
4126 -4461.996881748049
4127 -4460.778401967082
4128 -4460.164150480591
4129 -4458.487444986879
4130 -4457.917743462447
4131 -4456.156246160792
4132 -4455.547332197096
4133 -4454.177597727705
4134 -4453.098870232881
4135 -4451.76412006959
4136 -4451.055649778058
4137 -4449.150174338085
4138 -4448.547052789274
4139 -4447.085086870191
4140 -4445.843371583727
4141 -4444.353929061821
4142 -4443.529173227867
4143 -4441.194073613392
4144 -4440.288529335248
4145 -4438.619948131518
4146 -4437.019444238537
4147 -4435.232000254677
4148 -4434.044327897442
4149 -4432.243171806618
4150 -4430.45689950335
4151 -4428.50918081892
4152 -4427.245660408093
4153 -4424.41790830486
4154 -4423.141581385836
4155 -4421.081693407083
4156 -4419.692297244303
4157 -4416.806589785901
4158 -4415.441372473186
4159 -4413.22717763617
4160 -4410.979378216771
4161 -4408.942939845091
4162 -4407.631228393161
4163 -4404.845580612639
4164 -4403.628994826697
4165 -4401.649696430513
4166 -4399.607000046248
4167 -4397.712192341311
4168 -4396.568222337819
4169 -4394.018661130945
4170 -4393.023174789962
4171 -4391.311978158463
4172 -4389.878425456998
4173 -4388.294200820568
4174 -4387.484224926884
4175 -4385.43585504251
4176 -4384.76126031688
4177 -4382.768346613648
4178 -4382.277395031907
4179 -4381.043926603414
4180 -4380.33109193463
4181 -4379.201114545751
4182 -4378.903520493799
4183 -4377.742629188516
4184 -4377.665959142941
4185 -4376.788098867476
4186 -4376.688225064687
4187 -4375.980776112571
4188 -4376.123742748178
4189 -4375.41225519147
4190 -4375.765814470009
4191 -4375.303028937729
4192 -4375.570614814328
4193 -4375.111841345375
4194 -4375.591005761195
4195 -4375.186159695228
4196 -4375.710180535156
4197 -4375.470972176778
4198 -4376.078791421796
4199 -4375.941953493993
4200 -4376.608583661739
4201 -4376.313159780457
4202 -4376.951473532279
4203 -4376.726188954193
4204 -4377.437075932959
4205 -4377.188354429856
4206 -4377.768054963503
4207 -4377.705948260382
4208 -4378.255926390399
4209 -4377.936067174363
4210 -4378.49771665164
4211 -4378.133668352434
4212 -4378.620183132793
4213 -4378.13549589256
4214 -4378.50807835092
4215 -4377.962245641231
4216 -4378.297773839318
4217 -4377.578578315697
4218 -4377.698624855768
4219 -4376.921267474336
4220 -4376.990102606547
4221 -4376.150305457018
4222 -4376.233861616194
4223 -4375.25635037009
4224 -4375.271755319577
4225 -4374.011628746526
4226 -4373.939757699975
4227 -4372.936513211342
4228 -4372.452433663542
4229 -4371.308096595742
4230 -4371.103628207499
4231 -4369.7180711697
4232 -4369.514933245808
4233 -4367.806139865312
4234 -4367.525105154908
4235 -4365.771752830065
4236 -4365.492270274102
4237 -4363.952477059446
4238 -4363.868379837834
4239 -4362.488476980566
4240 -4362.512149575619
4241 -4361.276401469014
4242 -4361.337124513158
4243 -4360.217350074585
4244 -4360.104471029097
4245 -4359.246739450793
4246 -4359.327375494018
4247 -4358.619648228306
4248 -4358.779226413417
4249 -4358.066965441025
4250 -4358.435039737526
4251 -4357.722218557388
4252 -4358.110572155908
4253 -4357.486779207608
4254 -4358.065257997931
4255 -4357.540602839774
4256 -4358.104052802051
4257 -4357.590744285037
4258 -4358.197891314155
4259 -4357.665288719751
4260 -4358.393187419707
4261 -4357.937959838073
4262 -4358.644978152626
4263 -4358.167017341169
4264 -4358.843738839996
4265 -4358.463237970049
4266 -4359.108789610787
4267 -4358.812469982451
4268 -4359.528251603168
4269 -4359.216463095887
4270 -4359.896569636516
4271 -4359.513353840607
4272 -4360.057734983437
4273 -4359.721451790811
4274 -4360.333856873183
4275 -4360.06262537249
4276 -4360.913175388308
4277 -4360.488662381402
4278 -4361.281641196827
4279 -4360.792206110452
4280 -4361.436614471849
4281 -4361.013698400083
4282 -4361.65848814104
4283 -4361.138831307052
4284 -4361.524552002747
4285 -4360.972298774625
4286 -4361.354720979091
4287 -4360.718663785486
4288 -4360.894531159416
4289 -4360.060090556399
4290 -4360.048332650842
4291 -4359.094082371617
4292 -4358.74277527172
4293 -4357.546102634481
4294 -4357.019358601724
4295 -4355.487766561064
4296 -4354.599249873394
4297 -4353.042728665419
4298 -4351.888722293388
4299 -4350.210642588563
4300 -4348.905882212428
4301 -4346.994923907759
4302 -4345.424169670006
4303 -4343.347435727169
4304 -4341.582747657838
4305 -4339.504594909679
4306 -4337.490779344969
4307 -4334.493142280122
4308 -4333.283203954554
4309 -4330.323623788716
4310 -4328.253582353698
4311 -4326.115152090535
4312 -4324.164661219989
4313 -4321.30827945866
4314 -4320.162122603023
4315 -4317.333394989344
4316 -4315.498651675547
4317 -4313.433266646872
4318 -4311.563384486585
4319 -4308.844579117867
4320 -4307.925681848017
4321 -4305.281151984333
4322 -4303.865715942628
4323 -4302.014024756286
4324 -4300.475154949896
4325 -4298.690075434095
4326 -4297.255639656068
4327 -4295.521854982076
4328 -4294.282726729238
4329 -4292.630984029098
4330 -4291.388883066529
4331 -4289.79706027101
4332 -4288.712899760687
4333 -4287.39600359316
4334 -4286.54296590899
4335 -4285.087278374418
4336 -4284.744920272533
4337 -4283.109797160971
4338 -4282.885394082541
4339 -4281.723158759431
4340 -4281.339273941339
4341 -4280.300413111894
4342 -4280.120230334705
4343 -4278.832945074064
4344 -4278.884122968399
4345 -4277.931880022901
4346 -4278.008875410733
4347 -4277.263896318222
4348 -4277.442608353679
4349 -4276.530358232884
4350 -4276.837030228739
4351 -4276.121832003596
4352 -4276.268826758513
4353 -4275.548562977149
4354 -4275.779225815671
4355 -4275.057506897883
4356 -4275.294576303528
4357 -4274.681508607913
4358 -4274.920568434283
4359 -4274.281629697489
4360 -4274.43968540986
4361 -4273.785709609043
4362 -4273.990475608422
4363 -4273.334304913267
4364 -4273.640061954849
4365 -4273.117920908487
4366 -4273.481491027653
4367 -4272.967466967732
4368 -4273.362284064821
4369 -4272.942553512039
4370 -4273.646975052523
4371 -4273.297614411856
4372 -4274.205419059193
4373 -4274.025785103327
4374 -4274.966893410804
4375 -4274.858472339674
4376 -4276.009051215558
4377 -4275.977228976302
4378 -4277.178241607751
4379 -4277.278064031127
4380 -4278.628246365275
4381 -4278.751561474225
4382 -4280.249630047487
4383 -4280.470778312701
4384 -4282.065313261426
4385 -4282.402992602743
4386 -4284.016251117842
4387 -4284.341672147666
4388 -4285.994816797886
4389 -4286.431814424182
4390 -4287.852933004735
4391 -4289.022581706407
4392 -4290.696544607036
4393 -4292.038655758824
4394 -4293.748823533194
4395 -4295.365171715443
4396 -4297.371217794966
4397 -4298.40057401087
4398 -4301.45218651434
4399 -4302.823952983095
4400 -4306.280383666181
4401 -4307.881544351908
4402 -4311.53007061121
4403 -4313.364584296044
4404 -4317.292423518439
4405 -4319.033013149748
4406 -4322.900635966404
4407 -4324.902532373573
4408 -4329.036728100883
4409 -4332.256631653856
4410 -4335.162958710804
4411 -4338.30123588311
4412 -4342.297184097002
4413 -4345.229371924263
4414 -4347.981264947573
4415 -4350.745477411267
4416 -4354.337632825226
4417 -4356.795417189001
4418 -4360.006710488568
4419 -4362.088972046684
4420 -4364.706649968337
4421 -4366.116875851901
4422 -4368.308020716759
4423 -4369.29698012808
4424 -4371.019364867361
4425 -4371.541301789388
4426 -4372.802769911474
4427 -4372.838320884894
4428 -4373.579213307968
4429 -4373.266502963883
4430 -4373.515218175398
4431 -4372.754414190118
4432 -4372.536525300557
4433 -4371.327079075509
4434 -4370.649036255872
4435 -4368.907942331663
4436 -4368.069869590256
4437 -4365.898787817778
4438 -4364.68425904759
4439 -4362.220687433863
4440 -4361.26310393724
4441 -4358.286880022632
4442 -4356.427357210555
4443 -4353.029309096572
4444 -4350.57933937879
4445 -4347.040091479092
4446 -4344.132312756795
4447 -4340.375308529224
4448 -4337.467427943256
4449 -4333.533758254593
4450 -4330.569317911013
4451 -4326.572588797991
4452 -4323.488290393243
4453 -4319.432796385889
4454 -4316.383750219698
4455 -4312.531389287828
4456 -4309.700830712154
4457 -4306.039481153878
4458 -4303.242477238745
4459 -4299.864970768675
4460 -4297.621958274233
4461 -4294.630513564391
4462 -4292.602236611247
4463 -4289.925536160777
4464 -4288.393009499407
4465 -4286.264139070372
4466 -4285.273231686287
4467 -4283.45240713957
4468 -4282.999726179311
4469 -4281.983526606217
4470 -4281.985638962096
4471 -4281.420349571026
4472 -4281.975336322665
4473 -4281.838486451792
4474 -4282.4685670894
4475 -4282.813753870275
4476 -4284.226909630928
4477 -4284.721964408578
4478 -4286.574173633103
4479 -4287.360989641868
4480 -4289.433126693109
4481 -4290.437491286793
4482 -4293.003133211361
4483 -4294.325348447343
4484 -4297.340676527718
4485 -4298.782305408089
4486 -4302.081604406112
4487 -4303.590578587189
4488 -4306.987958580217
4489 -4308.632777302895
4490 -4312.117100497855
4491 -4314.886411768082
4492 -4318.62828320648
4493 -4321.504759773728
4494 -4325.344806618294
4495 -4328.155563449649
4496 -4331.817189376487
4497 -4334.499742927619
4498 -4337.99900009354
4499 -4340.538694449951
4500 -4343.771902129387
4501 -4346.068953218003
4502 -4349.141035025687
4503 -4351.179377931283
4504 -4354.057260571904
4505 -4355.758659362195
4506 -4358.248257143921
4507 -4359.7827772739
4508 -4361.853203136453
4509 -4362.95582968053
4510 -4364.713508442634
4511 -4365.434814695675
4512 -4366.908801256723
4513 -4367.352848301639
4514 -4368.566736453604
4515 -4368.756152070859
4516 -4369.663458351512
4517 -4369.488964491599
4518 -4370.124310895098
4519 -4369.860606194336
4520 -4370.439488532714
4521 -4369.917173772399
4522 -4370.303288978962
4523 -4369.835703831983
4524 -4370.172764195522
4525 -4369.612171475468
4526 -4369.750434660627
4527 -4369.16220539858
4528 -4369.510409778008
4529 -4369.268456919955
4530 -4369.919862258565
4531 -4369.653509289793
4532 -4370.52567143459
4533 -4370.358128107035
4534 -4371.29982830822
4535 -4371.246922231616
4536 -4372.403539202923
4537 -4372.387860180322
4538 -4373.479798995097
4539 -4373.738298892297
4540 -4375.047613052751
4541 -4375.406755227648
4542 -4376.728444285719
4543 -4377.130030492321
4544 -4378.48850651738
4545 -4378.989520453955
4546 -4380.183626554342
4547 -4380.428540249032
4548 -4381.463920529549
4549 -4381.462542182026
4550 -4382.07947354325
4551 -4381.395750173709
4552 -4381.79935050031
4553 -4381.097051655963
4554 -4381.200830223158
4555 -4379.723624127922
4556 -4378.992128515099
4557 -4376.831064620013
4558 -4375.431612067316
4559 -4372.896255295528
4560 -4370.948289614686
4561 -4367.961803439131
4562 -4365.666928174936
4563 -4361.919881824812
4564 -4358.806721952866
4565 -4354.644415317308
4566 -4351.164698737637
4567 -4346.707098671865
4568 -4343.200518494296
4569 -4338.630409923275
4570 -4334.908937674008
4571 -4330.283175979662
4572 -4326.568372993592
4573 -4322.281887023441
4574 -4318.978276294754
4575 -4314.840979095443
4576 -4311.779123048296
4577 -4308.006563426706
4578 -4305.363437572922
4579 -4302.140876961775
4580 -4300.111957290965
4581 -4297.317548697478
4582 -4295.713383016787
4583 -4293.475149744738
4584 -4292.527732794873
4585 -4290.869756654763
4586 -4290.703250891499
4587 -4289.751039599485
4588 -4290.252406945934
4589 -4289.964046119408
4590 -4291.11541561412
4591 -4291.274095752241
4592 -4292.964228344181
4593 -4293.834790125657
4594 -4296.016198130588
4595 -4297.362184658557
4596 -4300.120165871092
4597 -4301.379016164696
4598 -4304.719054055622
4599 -4307.094479829176
4600 -4309.713032478578
4601 -4312.68212662372
4602 -4316.880200832454
4603 -4319.090222029754
4604 -4323.937051708072
4605 -4326.588503548202
4606 -4331.885536171233
4607 -4336.756336155844
4608 -4340.934844464769
4609 -4345.784404719569
4610 -4352.081048229871
4611 -4357.2934216854
4612 -4363.609155125614
4613 -4368.909903324939
4614 -4375.352534688031
4615 -4380.526878686559
4616 -4386.654839950597
4617 -4391.627896333014
4618 -4397.236438236544
4619 -4401.677118943088
4620 -4407.161694367323
4621 -4411.224598018439
4622 -4416.098410861598
4623 -4419.682961398688
4624 -4424.091286155491
4625 -4427.370108215934
4626 -4431.435643767009
4627 -4434.242187807163
4628 -4437.560317824558
4629 -4439.885188948988
4630 -4442.516143192157
4631 -4444.010969879732
4632 -4446.080635792091
4633 -4447.245593395648
4634 -4448.60715467206
4635 -4449.02070911593
4636 -4449.79106655655
4637 -4449.389764270622
4638 -4449.370812482061
4639 -4448.275814920461
4640 -4447.80718005583
4641 -4445.733057813612
4642 -4444.695675060191
4643 -4441.886406325764
4644 -4440.448527470218
4645 -4437.03141505825
4646 -4435.283601408823
4647 -4431.147263772386
4648 -4429.117390882087
4649 -4425.057421777524
4650 -4422.674611844755
4651 -4418.25463321652
4652 -4415.027601233971
4653 -4412.132686738947
4654 -4408.825810003933
4655 -4405.044389298964
4656 -4403.069256621369
4657 -4399.634677264916
4658 -4397.255178499793
4659 -4395.475924973939
4660 -4393.709975974873
4661 -4391.653165348476
4662 -4391.193858388708
4663 -4389.816316427226
4664 -4389.480273798317
4665 -4388.804388893119
4666 -4389.108461394794
4667 -4388.953594454481
4668 -4389.646156981902
4669 -4390.090783072739
4670 -4391.542038719905
4671 -4392.097952772564
4672 -4394.168841035475
4673 -4396.064412186753
4674 -4398.141819571065
4675 -4400.374191910289
4676 -4403.849502628551
4677 -4405.638196888931
4678 -4409.412999415913
4679 -4411.619755181891
4680 -4416.001067453594
4681 -4418.375498574804
4682 -4422.873305656746
4683 -4425.375797591865
4684 -4430.170679057756
4685 -4432.870901643337
4686 -4437.672305406737
4687 -4441.896958448277
4688 -4445.275638334797
4689 -4449.491958998254
4690 -4454.179554083306
4691 -4458.003134100414
4692 -4462.273350024469
4693 -4465.496818075359
4694 -4469.45023076388
4695 -4472.446918557213
4696 -4475.835805977656
4697 -4478.248540210882
4698 -4481.18031404571
4699 -4482.972222192693
4700 -4485.259046258571
4701 -4486.641153223289
4702 -4488.250441292526
4703 -4488.880336460317
4704 -4490.02275608325
4705 -4490.181418230817
4706 -4490.824692262488
4707 -4490.611185858036
4708 -4490.867408857752
4709 -4490.071721493535
4710 -4489.843416594875
4711 -4488.758948731869
4712 -4488.488490549551
4713 -4486.939620078415
4714 -4486.478689903834
4715 -4485.021266910548
4716 -4484.713686574637
4717 -4483.253706044628
4718 -4482.956843629981
4719 -4481.633090531926
4720 -4481.532197195249
4721 -4480.476954606178
4722 -4480.531224456049
4723 -4479.729292336106
4724 -4480.047278850245
4725 -4479.574134894473
4726 -4480.095569141843
4727 -4480.164067479833
4728 -4481.229434814073
4729 -4481.77838205952
4730 -4483.007219696732
4731 -4483.955958822927
4732 -4486.058868207188
4733 -4487.391249044607
4734 -4489.638636362968
4735 -4491.296084926468
4736 -4493.940101878697
4737 -4495.803705338554
4738 -4498.402948421319
4739 -4500.314680397437
4740 -4502.796516291973
4741 -4504.655550711022
4742 -4507.225556007371
4743 -4508.176309922046
4744 -4510.742926690828
4745 -4512.413843869237
4746 -4514.509032576499
4747 -4515.683243407795
4748 -4516.882023325121
4749 -4517.559754493921
4750 -4518.652665424817
4751 -4518.903892421147
4752 -4519.677958664701
4753 -4519.220244736419
4754 -4519.488567991804
4755 -4518.373470816825
4756 -4517.523731330649
4757 -4515.472577563009
4758 -4513.936328239102
4759 -4511.187447497985
4760 -4508.645308668042
4761 -4504.975461095304
4762 -4501.715194206599
4763 -4497.183052040204
4764 -4493.049213774132
4765 -4487.40268727675
4766 -4482.244229290571
4767 -4475.801854016246
4768 -4469.938626780313
4769 -4462.458285896925
4770 -4455.658434895842
4771 -4447.771747579551
4772 -4440.333753152963
4773 -4431.946946781442
4774 -4423.865897746965
4775 -4415.173180643711
4776 -4406.92839247742
4777 -4397.429914724533
4778 -4388.831904083714
4779 -4379.233269874279
4780 -4370.609905091275
4781 -4360.91707625767
4782 -4352.119183173411
4783 -4342.466882705155
4784 -4333.81025136362
4785 -4324.756605195763
4786 -4316.572040162775
4787 -4308.040701380152
4788 -4300.437440775751
4789 -4292.210533119056
4790 -4285.162609796113
4791 -4277.820417652463
4792 -4271.722005684131
4793 -4265.107205059807
4794 -4259.548888448772
4795 -4253.624164581051
4796 -4249.217138324335
4797 -4244.060990643914
4798 -4239.974347353628
4799 -4235.7795649534
4800 -4232.791974246581
4801 -4229.54068052497
4802 -4227.590238422506
4803 -4225.291506893563
4804 -4224.178051597247
4805 -4222.962275844331
4806 -4222.742871488377
4807 -4222.350145543429
4808 -4223.059295312734
4809 -4223.336985967961
4810 -4224.315909169938
4811 -4225.606276115896
4812 -4227.78135311646
4813 -4228.911318728316
4814 -4231.878978501354
4815 -4233.420080229766
4816 -4236.940843281081
4817 -4238.777551959938
4818 -4242.861439675475
4819 -4245.025813578976
4820 -4249.313862007015
4821 -4251.915568669474
4822 -4256.886741070491
4823 -4261.007651995946
4824 -4265.611190957343
4825 -4269.57809171259
4826 -4274.560901106373
4827 -4278.349379506354
4828 -4282.625862043133
4829 -4285.851670587715
4830 -4289.879977219228
4831 -4292.957779479424
4832 -4296.275666481546
4833 -4298.882793368123
4834 -4301.479429720431
4835 -4303.384556976984
4836 -4305.612456442732
4837 -4306.847711180827
4838 -4308.707529138183
4839 -4309.241991549095
4840 -4310.1491380617
4841 -4310.219199470017
4842 -4310.493385368449
4843 -4310.059997858644
4844 -4310.224357006695
4845 -4309.564532231387
4846 -4309.42955302578
4847 -4308.632898292677
4848 -4308.539431459874
4849 -4307.484668484331
4850 -4307.117417741115
4851 -4306.194790316506
4852 -4306.069775465041
4853 -4305.280430587055
4854 -4304.991315821042
4855 -4304.595872742685
4856 -4304.6821088293
4857 -4304.24018399445
4858 -4304.677817555754
4859 -4304.503353781177
4860 -4305.521290526938
4861 -4306.129865497534
4862 -4307.444218719318
4863 -4308.686917840216
4864 -4310.855323237468
4865 -4312.06589614719
4866 -4314.480297858811
4867 -4316.269848485591
4868 -4318.545747861648
4869 -4321.114406105987
4870 -4324.39280335486
4871 -4326.059612317666
4872 -4329.802259089234
4873 -4331.895110878626
4874 -4335.805134909332
4875 -4338.118449703362
4876 -4342.463250300169
4877 -4344.750794451243
4878 -4349.259383261811
4879 -4351.566329065741
4880 -4356.026174293043
4881 -4358.268704830026
4882 -4362.121942046818
4883 -4364.215878619729
4884 -4368.071344113516
4885 -4370.016406666917
4886 -4373.911227857945
4887 -4375.576299063582
4888 -4378.846106703892
4889 -4380.189243842979
4890 -4382.788034986807
4891 -4384.481578676815
4892 -4386.145929463897
4893 -4387.199915316678
4894 -4388.686467281836
4895 -4388.817422079607
4896 -4389.819140394375
4897 -4389.437321816025
4898 -4389.585205986501
4899 -4388.402334120247
4900 -4387.839193023792
4901 -4386.448625361483
4902 -4385.231425986296
4903 -4383.601388616278
4904 -4381.680220023492
4905 -4379.620057713196
4906 -4377.460183976743
4907 -4375.117689574139
4908 -4372.245492535616
4909 -4369.849505119369
4910 -4366.824411472358
4911 -4364.180290209229
4912 -4362.587102308664
4913 -4359.31293264671
4914 -4357.718440871896
4915 -4353.914522681318
4916 -4352.507454181151
4917 -4349.153756291397
4918 -4347.773060929737
4919 -4344.987969643561
4920 -4344.113159759806
4921 -4342.222793823608
4922 -4341.770452562943
4923 -4340.990026395766
4924 -4341.536581957882
4925 -4341.610096856504
4926 -4343.358856219958
4927 -4344.590195739378
4928 -4347.589048863277
4929 -4350.086213572073
4930 -4354.295414087018
4931 -4357.886453695803
4932 -4363.440110858589
4933 -4368.163456596983
4934 -4374.285320652838
4935 -4380.135277318205
4936 -4387.932649560397
4937 -4394.882094521306
4938 -4403.442351024577
4939 -4411.05252313192
4940 -4420.289853841524
4941 -4428.783393370521
4942 -4439.223085832598
4943 -4448.929562851185
4944 -4459.288579757723
4945 -4469.082628326209
4946 -4479.856441226695
4947 -4489.57120384772
4948 -4500.671207388559
4949 -4510.405903545289
4950 -4521.206537148708
4951 -4530.790656589739
4952 -4540.805759000686
4953 -4549.681948835114
4954 -4559.151490850102
4955 -4567.325587616593
4956 -4576.07121798402
4957 -4582.778869372022
4958 -4590.17163790422
4959 -4595.816160643544
4960 -4601.992322838172
4961 -4605.987202976237
4962 -4611.076478771355
4963 -4614.200944005745
4964 -4617.855932953604
4965 -4619.735356870067
4966 -4621.913274506454
4967 -4622.039478485816
4968 -4622.79393909576
4969 -4621.840332266014
4970 -4621.631331186371
4971 -4619.948464375626
4972 -4619.142910646517
4973 -4616.363012720118
4974 -4614.401745226885
4975 -4610.755709938292
4976 -4608.255643748958
4977 -4604.110902189953
4978 -4601.158874940256
4979 -4598.256084606222
4980 -4595.077876602998
4981 -4591.85657584144
4982 -4588.441288299515
4983 -4585.096100748491
4984 -4581.645799900316
4985 -4578.698073855772
4986 -4576.778824268751
4987 -4572.692750368069
4988 -4571.059014849825
4989 -4567.329537272144
4990 -4565.880589911098
4991 -4562.403824110485
4992 -4560.456986627762
4993 -4557.709991772719
4994 -4556.497412735954
4995 -4554.478493454676
4996 -4554.004715826628
4997 -4552.502170028126
4998 -4552.732641562242
4999 -4552.289030763418
5000 -4553.610615920465
5001 -4553.771171893221
5002 -4555.475928164494
5003 -4556.047780173869
5004 -4558.046435554212
5005 -4559.221076979279
5006 -4561.793026956189
5007 -4563.314684955304
5008 -4566.31467302668
5009 -4567.991981361262
5010 -4570.904993742028
5011 -4572.684412576333
5012 -4575.39695690481
5013 -4576.179924503011
5014 -4578.92063926049
5015 -4579.521521890771
5016 -4581.659048941558
5017 -4581.847381436333
5018 -4583.477597366212
5019 -4583.528029528296
5020 -4584.554320460968
5021 -4584.032660770105
5022 -4584.603710164093
5023 -4583.73162479521
5024 -4583.862864794295
5025 -4582.227279274185
5026 -4581.299086616042
5027 -4578.550265915831
5028 -4577.201311481683
5029 -4573.892667382015
5030 -4571.738816262887
5031 -4567.981763762981
5032 -4565.456272555953
5033 -4561.059094784267
5034 -4557.744556552927
5035 -4552.804312548318
5036 -4548.785517112023
5037 -4543.151988473243
5038 -4538.877267093669
5039 -4532.725162084706
5040 -4527.976471091411
5041 -4521.545272488184
5042 -4516.375954100614
5043 -4509.551811211961
5044 -4504.092852189855
5045 -4497.115345416756
5046 -4491.54195686132
5047 -4484.557350706724
5048 -4479.418327020076
5049 -4472.85034122794
5050 -4468.132647485983
5051 -4461.859214588537
5052 -4457.577062878285
5053 -4451.555518916899
5054 -4447.815294063322
5055 -4442.347624971384
5056 -4439.281048427645
5057 -4434.566928496321
5058 -4432.293037604866
5059 -4428.736654693352
5060 -4427.357882204107
5061 -4424.706681526528
5062 -4423.781430001613
5063 -4422.107066153249
5064 -4422.459812924034
5065 -4421.409141472186
5066 -4422.368626650401
5067 -4422.246669571174
5068 -4424.167666535755
5069 -4424.800881758973
5070 -4427.525371008693
5071 -4429.164295951131
5072 -4432.781398983903
5073 -4434.792168529106
5074 -4439.174678238322
5075 -4441.921793453327
5076 -4446.34180523816
5077 -4449.127810233893
5078 -4454.410934318307
5079 -4457.815755749511
5080 -4462.813628568072
5081 -4465.904408874875
5082 -4470.885137540871
5083 -4474.03974912854
5084 -4478.520784624368
5085 -4481.226786064891
5086 -4485.273133746066
5087 -4487.260916446112
5088 -4490.835759458014
5089 -4492.30449700113
5090 -4495.378788237867
5091 -4496.304248923661
5092 -4498.271624413747
5093 -4498.149062791958
5094 -4499.211376885101
5095 -4498.156475912344
5096 -4498.715505498179
5097 -4496.922560965798
5098 -4496.244305407814
5099 -4493.554777142367
5100 -4492.264524313237
5101 -4488.579090909573
5102 -4486.249381986337
5103 -4481.882342448633
5104 -4478.996951474428
5105 -4473.716829888786
5106 -4470.012481527796
5107 -4464.279564147581
5108 -4460.086671266929
5109 -4453.861051742258
5110 -4449.003892053797
5111 -4442.075928903588
5112 -4436.732197490684
5113 -4431.786622674108
5114 -4426.319939331037
5115 -4419.250111928778
5116 -4413.878645744399
5117 -4406.761217640391
5118 -4401.537416337347
5119 -4394.57358480178
5120 -4389.85040402151
5121 -4383.400655708281
5122 -4379.128383239742
5123 -4373.388060273485
5124 -4369.466452779451
5125 -4364.215988140701
5126 -4360.933547933972
5127 -4356.42067287785
5128 -4354.042022749143
5129 -4349.964732595401
5130 -4348.091207090114
5131 -4344.672047855944
5132 -4343.369538167808
5133 -4340.699504312954
5134 -4340.290283034229
5135 -4338.428965627885
5136 -4338.709565373699
5137 -4337.423124974938
5138 -4338.52973369436
5139 -4337.945169510521
5140 -4339.396461643794
5141 -4339.277019601742
5142 -4341.229933561842
5143 -4341.736402985585
5144 -4344.473583721037
5145 -4345.467299133284
5146 -4348.401189297477
5147 -4349.656250603489
5148 -4352.888797893789
5149 -4354.57521811692
5150 -4357.135628830818
5151 -4358.786851758169
5152 -4361.294777747192
5153 -4363.266387734115
5154 -4366.17323362718
5155 -4368.065993349796
5156 -4370.915657818323
5157 -4372.958917167632
5158 -4375.636754355065
5159 -4377.53490428835
5160 -4380.335785353651
5161 -4382.137225332559
5162 -4385.629828290535
5163 -4387.340938317038
5164 -4390.626882146689
5165 -4392.063809265299
5166 -4395.203212405791
5167 -4396.415973722762
5168 -4399.106758550139
5169 -4399.87186259573
5170 -4402.302414872335
5171 -4402.652640214083
5172 -4404.747432361408
5173 -4404.861120982659
5174 -4406.445809213377
5175 -4406.011642700816
5176 -4407.100681121974
5177 -4406.171140814397
5178 -4406.964868763225
5179 -4405.628267302549
5180 -4405.858997734327
5181 -4404.115156213901
5182 -4403.888958907329
5183 -4402.157172326411
5184 -4401.285455505122
5185 -4398.654565029609
5186 -4398.086532084517
5187 -4394.932966884062
5188 -4394.01526960228
5189 -4390.584456831461
5190 -4389.456176039843
5191 -4385.498049540839
5192 -4384.225113185364
5193 -4380.292375228139
5194 -4379.049224049647
5195 -4375.04455349005
5196 -4372.86240974569
5197 -4370.02779229719
5198 -4367.917080860323
5199 -4364.208850363517
5200 -4362.407905753857
5201 -4358.984438218562
5202 -4357.479398971819
5203 -4354.341004900643
5204 -4353.226155275021
5205 -4350.38639165065
5206 -4349.613262626275
5207 -4347.04182652431
5208 -4346.372928359593
5209 -4343.98323192414
5210 -4343.734419123964
5211 -4341.437511902635
5212 -4341.098918737156
5213 -4338.9703850812
5214 -4338.56891852329
5215 -4336.63868419887
5216 -4336.27452228657
5217 -4334.391687358346
5218 -4334.146225607086
5219 -4332.069097070459
5220 -4331.712756211881
5221 -4330.159382070326
5222 -4329.762438835714
5223 -4327.519683983811
5224 -4327.393982335282
5225 -4324.962764811059
5226 -4324.721187668223
5227 -4322.101882650264
5228 -4321.668027616099
5229 -4318.788666275853
5230 -4318.034756394964
5231 -4314.703542047164
5232 -4313.829492243513
5233 -4310.31561020395
5234 -4309.068069474079
5235 -4305.308655341873
5236 -4304.035051864379
5237 -4299.948332877004
5238 -4298.338629233542
5239 -4293.742681423279
5240 -4292.120113486512
5241 -4287.39700781783
5242 -4285.533249490741
5243 -4280.843356310987
5244 -4278.955833430983
5245 -4274.430568136668
5246 -4272.590531994885
5247 -4267.969722143143
5248 -4266.43596583849
5249 -4261.89146330675
5250 -4260.456832081148
5251 -4256.600159718284
5252 -4254.459485169993
5253 -4251.932492156495
5254 -4250.267783975793
5255 -4248.095433351158
5256 -4247.060401521423
5257 -4245.00478097503
5258 -4245.086656858302
5259 -4243.721727685555
5260 -4244.145778322437
5261 -4243.238366335992
5262 -4244.420342098263
5263 -4244.05352368987
5264 -4245.628972578572
5265 -4246.201258097126
5266 -4248.878062183418
5267 -4249.936024785929
5268 -4252.348514014368
5269 -4254.192454008411
5270 -4257.860403156032
5271 -4258.859229773076
5272 -4262.805820916823
5273 -4265.494248305247
5274 -4268.658980394902
5275 -4271.693959373672
5276 -4274.890963759839
5277 -4278.377211627885
5278 -4281.984274193941
5279 -4285.137740300241
5280 -4288.477355267036
5281 -4291.619596926722
5282 -4296.482709352273
5283 -4298.371501247308
5284 -4302.830604346129
5285 -4305.733731401873
5286 -4309.892287912787
5287 -4312.408590249315
5288 -4316.388933462007
5289 -4318.322014735121
5290 -4321.854563071239
5291 -4323.27769070174
5292 -4325.911767278351
5293 -4326.534120228711
5294 -4328.079184758695
5295 -4328.145933337317
5296 -4329.341561200408
5297 -4328.619339032197
5298 -4328.972932777342
5299 -4327.288554379733
5300 -4326.763498258403
5301 -4324.392782729903
5302 -4323.343498867892
5303 -4320.459766339921
5304 -4318.339525045022
5305 -4314.786882244827
5306 -4312.23166886921
5307 -4308.068617569146
5308 -4305.046293352776
5309 -4300.353367046319
5310 -4296.922470521347
5311 -4291.938153266916
5312 -4288.324181540695
5313 -4282.929552541113
5314 -4279.024024578682
5315 -4274.979259768895
5316 -4270.686744013016
5317 -4264.903872999106
5318 -4262.099064279787
5319 -4256.266443970891
5320 -4252.09810318875
5321 -4246.271864860345
5322 -4242.240792306817
5323 -4236.842600645031
5324 -4233.1325969968
5325 -4228.01865749496
5326 -4224.822866226565
5327 -4220.448571762909
5328 -4217.799893091311
5329 -4213.880683428532
5330 -4211.850819713872
5331 -4208.754501906814
5332 -4207.33871687305
5333 -4204.919164928548
5334 -4204.367754977755
5335 -4202.426741724411
5336 -4202.173328971217
5337 -4200.698978865439
5338 -4200.989020295772
5339 -4200.005743628489
5340 -4200.678644734486
5341 -4200.070120995592
5342 -4201.23985966477
5343 -4201.008019577042
5344 -4202.550263672902
5345 -4202.419280876395
5346 -4204.244659531337
5347 -4204.244771581351
5348 -4205.64167439142
5349 -4205.907770157904
5350 -4207.340095314632
5351 -4207.77508172259
5352 -4209.064316589956
5353 -4209.122527374682
5354 -4210.511871528556
5355 -4210.525201449824
5356 -4211.889062529734
5357 -4211.77634306027
5358 -4213.285801960513
5359 -4213.001984875264
5360 -4214.22116745415
5361 -4213.732884673213
5362 -4214.796918634665
5363 -4214.386849363243
5364 -4215.606937601417
5365 -4215.179752438988
5366 -4216.178617150506
5367 -4215.544374215517
5368 -4217.006653330058
5369 -4216.501534496346
5370 -4217.667792635276
5371 -4217.555242348709
5372 -4218.769618554437
5373 -4218.533193970939
5374 -4220.092596951654
5375 -4219.860947790175
5376 -4221.315229331736
5377 -4221.774389495631
5378 -4223.579511205545
5379 -4224.208915806143
5380 -4225.84316652868
5381 -4226.556227109284
5382 -4228.990190891244
5383 -4230.290596274797
5384 -4233.075122526427
5385 -4234.524070012823
5386 -4237.527031206148
5387 -4239.356121047681
5388 -4242.657665763672
5389 -4244.835429133445
5390 -4248.712150626845
5391 -4251.320365453386
5392 -4255.767901612233
5393 -4258.906423518991
5394 -4263.494098447342
5395 -4266.798393197928
5396 -4271.882680390924
5397 -4275.934384626666
5398 -4281.90055266226
5399 -4286.629108509936
5400 -4292.89885299157
5401 -4297.950211655841
5402 -4304.721359307256
5403 -4310.054418843732
5404 -4317.281288448432
5405 -4322.913425314146
5406 -4330.514061489454
5407 -4336.585609464532
5408 -4344.431116585389
5409 -4350.436468080643
5410 -4357.938989292295
5411 -4363.862556487603
5412 -4371.542886447529
5413 -4377.55883164777
5414 -4384.925372372088
5415 -4390.226803572584
5416 -4396.997670023233
5417 -4401.647756925454
5418 -4409.271516763154
5419 -4413.296078226253
5420 -4418.295229943147
5421 -4421.568740919537
5422 -4426.193830264949
5423 -4429.418547975361
5424 -4432.871515490775
5425 -4433.819002976668
5426 -4436.154873482986
5427 -4436.27577629376
5428 -4437.634983813247
5429 -4436.826861571906
5430 -4437.090279920628
5431 -4434.912431295552
5432 -4434.613146620421
5433 -4431.879835828155
5434 -4430.766684742519
5435 -4427.097066678895
5436 -4425.08338751343
5437 -4421.113021557203
5438 -4418.840366639974
5439 -4414.36130334819
5440 -4411.156378246177
5441 -4405.926131856178
5442 -4403.949633711232
5443 -4398.484735332022
5444 -4395.266856869601
5445 -4389.899018007325
5446 -4386.596439405722
5447 -4381.602048112172
5448 -4378.422109549931
5449 -4373.895767619835
5450 -4371.414309393933
5451 -4367.284237365727
5452 -4365.055583997014
5453 -4361.076177725305
5454 -4359.300135473868
5455 -4356.322799791255
5456 -4354.976137146023
5457 -4352.15962224059
5458 -4351.458702856025
5459 -4349.209415733998
5460 -4349.089548426619
5461 -4347.571475888639
5462 -4348.041149558336
5463 -4346.861180547282
5464 -4347.847505745647
5465 -4347.511259201308
5466 -4348.884849721091
5467 -4348.52931744307
5468 -4350.111986907172
5469 -4350.006777668308
5470 -4351.988773851075
5471 -4352.089874676697
5472 -4354.199810466316
5473 -4354.931176873797
5474 -4357.449983366121
5475 -4358.326559865463
5476 -4361.275865186941
5477 -4362.965718784704
5478 -4366.305025145957
5479 -4368.313962752907
5480 -4371.002533523779
5481 -4373.74631706533
5482 -4378.174872223033
5483 -4379.935709475505
5484 -4385.33936234377
5485 -4389.005039529127
5486 -4393.015790757318
5487 -4397.202531158557
5488 -4403.4794015413
5489 -4408.043748721499
5490 -4414.726719886807
5491 -4419.444988445362
5492 -4426.112751783776
5493 -4431.103728763894
5494 -4438.176834591842
5495 -4443.358194005061
5496 -4450.265294064797
5497 -4455.199575407224
5498 -4461.929357910109
5499 -4466.670231085923
5500 -4472.961370484669
5501 -4477.525582661223
5502 -4483.46968017004
5503 -4487.719970426981
5504 -4493.316174169438
5505 -4496.903240437998
5506 -4502.098334335942
5507 -4505.243353623237
5508 -4509.898417036047
5509 -4512.45861204686
5510 -4516.478764459178
5511 -4518.24186008024
5512 -4521.549534634551
5513 -4522.824274161512
5514 -4525.627859372687
5515 -4526.236097120663
5516 -4528.549868673715
5517 -4528.413809030617
5518 -4530.253391024933
5519 -4529.817388772195
5520 -4531.297575266623
5521 -4530.868013935531
5522 -4532.340021906121
5523 -4531.845968321568
5524 -4532.84075029105
5525 -4532.148762172723
5526 -4533.165679421817
5527 -4532.562874926455
5528 -4533.577956250873
5529 -4532.945690033343
5530 -4534.010695788978
5531 -4533.442700771275
5532 -4534.694599263699
5533 -4534.276787853502
5534 -4535.870026636238
5535 -4535.483820137953
5536 -4537.187105670527
5537 -4537.032704751147
5538 -4538.911444227413
5539 -4539.256243037938
5540 -4541.132815773002
5541 -4541.608598234638
5542 -4544.110689559249
5543 -4544.368098374801
5544 -4546.739788900059
5545 -4547.796073442523
5546 -4550.094607586287
5547 -4550.219726220157
5548 -4552.451666866149
5549 -4553.141726795891
5550 -4555.109913040229
5551 -4555.328715171849
5552 -4557.298786341136
5553 -4557.480569452779
5554 -4558.897871263503
5555 -4558.238632065567
5556 -4559.230638589377
5557 -4558.080324475197
5558 -4558.189455511782
5559 -4556.357429865093
5560 -4555.99864444117
5561 -4553.521891289693
5562 -4552.614118977061
5563 -4549.682545786774
5564 -4547.826712274682
5565 -4543.737902534644
5566 -4541.440446997523
5567 -4537.042376651574
5568 -4534.295710544408
5569 -4529.661437851151
5570 -4526.523904214601
5571 -4521.633180497241
5572 -4518.273637682789
5573 -4513.307115944399
5574 -4509.950237032775
5575 -4504.617349765781
5576 -4501.211723247655
5577 -4495.931575293574
5578 -4492.562023110715
5579 -4487.367663087377
5580 -4484.436674386103
5581 -4479.619011176746
5582 -4476.95855855606
5583 -4472.517454406947
5584 -4470.290803565271
5585 -4466.49854711799
5586 -4464.627389073295
5587 -4461.47237055505
5588 -4460.552011735135
5589 -4458.173780964284
5590 -4457.847540899118
5591 -4456.058364821687
5592 -4456.525167024061
5593 -4456.100633378783
5594 -4457.587616577262
5595 -4457.528971420398
5596 -4459.406764431863
5597 -4460.187020187863
5598 -4463.129567842076
5599 -4464.77621160021
5600 -4468.399706727694
5601 -4470.929784947124
5602 -4475.488960368903
5603 -4478.419320634868
5604 -4483.650948182048
5605 -4487.287395885694
5606 -4492.901472981141
5607 -4496.965881440397
5608 -4503.083812337933
5609 -4507.390102853808
5610 -4513.598215149064
5611 -4516.514178006507
5612 -4523.131057560061
5613 -4528.384383336472
5614 -4533.329480009064
5615 -4538.650316765581
5616 -4545.982459853896
5617 -4551.360837971469
5618 -4558.653642576592
5619 -4563.972350519254
5620 -4570.71627481341
5621 -4575.622541909125
5622 -4582.129892610566
5623 -4586.304145076843
5624 -4592.002661481132
5625 -4595.61743449935
5626 -4600.464409478443
5627 -4603.168175201907
5628 -4607.16890457634
5629 -4609.171009036492
5630 -4612.426167232486
5631 -4613.55302507247
5632 -4615.999991786113
5633 -4616.083173792094
5634 -4617.400875313045
5635 -4616.496289651566
5636 -4617.026617749498
5637 -4615.149619625642
5638 -4614.701437547385
5639 -4611.832286553114
5640 -4610.366825505421
5641 -4607.721350295122
5642 -4605.398424976991
5643 -4602.303592467615
5644 -4599.096440577683
5645 -4595.298134164988
5646 -4591.133555325332
5647 -4586.711423674155
5648 -4583.454665312185
5649 -4576.618546354146
5650 -4573.10902598281
5651 -4567.589522740931
5652 -4561.045859194654
5653 -4555.032193177352
5654 -4547.951380596995
5655 -4541.914705402
5656 -4534.483327594535
5657 -4525.643645772613
5658 -4521.086777723173
5659 -4512.09641461381
5660 -4504.73653684531
5661 -4496.156208510987
5662 -4489.502890439069
5663 -4481.451964585523
5664 -4475.466099682586
5665 -4468.232340137503
5666 -4462.977853199733
5667 -4456.351504343107
5668 -4451.860429881524
5669 -4446.011556701316
5670 -4442.294598056564
5671 -4437.280891534449
5672 -4434.29675901414
5673 -4430.016956636834
5674 -4427.771492989353
5675 -4424.390362622124
5676 -4423.042132876963
5677 -4420.32356871556
5678 -4419.593979482725
5679 -4417.336640000466
5680 -4417.146845189742
5681 -4415.55917219418
5682 -4416.098251817236
5683 -4415.172036073037
5684 -4416.067193192761
5685 -4415.462113788466
5686 -4416.815783571743
5687 -4416.536333865087
5688 -4418.268955508293
5689 -4418.193553056373
5690 -4420.540131285459
5691 -4420.68457404284
5692 -4422.526838085298
5693 -4423.309656037156
5694 -4425.202575642297
5695 -4425.390889947665
5696 -4428.099723100574
5697 -4428.344764789439
5698 -4430.927232745895
5699 -4431.2136265471
5700 -4433.630901368613
5701 -4434.213615574668
5702 -4436.363745941256
5703 -4436.855687036623
5704 -4438.701485195462
5705 -4438.659143396584
5706 -4440.115554028516
5707 -4439.777046731895
5708 -4440.691896725119
5709 -4439.620163359539
5710 -4440.08278755383
5711 -4438.462191721604
5712 -4438.648693718937
5713 -4436.560956781218
5714 -4435.939298845842
5715 -4433.298460925345
5716 -4432.250966353471
5717 -4429.334793198793
5718 -4427.527639485537
5719 -4423.910060693657
5720 -4422.029093204593
5721 -4418.089657372267
5722 -4415.682993162949
5723 -4412.489722723132
5724 -4409.742911972163
5725 -4405.490120435217
5726 -4403.998943517819
5727 -4399.826921691028
5728 -4397.692978476283
5729 -4393.694212045169
5730 -4391.632992830248
5731 -4388.066804553566
5732 -4386.897223543596
5733 -4384.069770742406
5734 -4383.435284810719
5735 -4381.524213787272
5736 -4381.709836527661
5737 -4381.037425797638
5738 -4382.376938435593
5739 -4382.256708878271
5740 -4384.354980263054
5741 -4385.170651097891
5742 -4388.519101624299
5743 -4390.380122081574
5744 -4394.792891452289
5745 -4397.737204519424
5746 -4402.709070840812
5747 -4406.319627428564
5748 -4412.030116919143
5749 -4416.281150084708
5750 -4422.888177776351
5751 -4427.579960726658
5752 -4434.477598776309
5753 -4439.609346394258
5754 -4446.925070561114
5755 -4452.323203925436
5756 -4459.140211998819
5757 -4464.457572596591
5758 -4471.393806572986
5759 -4475.994162676532
5760 -4482.311625362781
5761 -4486.887977573047
5762 -4492.807551564236
5763 -4496.703007489238
5764 -4501.98019726082
5765 -4505.101178625076
5766 -4509.168876106301
5767 -4511.611778801283
5768 -4515.01585808079
5769 -4516.178756256371
5770 -4518.540246938728
5771 -4518.828977922853
5772 -4520.343298034772
5773 -4519.570510659697
5774 -4520.076647839443
5775 -4518.228788412664
5776 -4517.947476091821
5777 -4515.530574356206
5778 -4514.252196249623
5779 -4510.904634460438
5780 -4508.862301998903
5781 -4504.813731795612
5782 -4502.308490865966
5783 -4497.365842037115
5784 -4494.006429426478
5785 -4488.809334292706
5786 -4485.075292189776
5787 -4479.569320747562
5788 -4475.525308783371
5789 -4469.480503568291
5790 -4465.275650059429
5791 -4461.235209384831
5792 -4457.048676051054
5793 -4451.158129832113
5794 -4448.605038435871
5795 -4443.0763592163
5796 -4438.601867852683
5797 -4432.788652535148
5798 -4428.956347604971
5799 -4423.91538260184
5800 -4420.530707273835
5801 -4416.111304398182
5802 -4413.221718016196
5803 -4409.252883239929
5804 -4406.99878099795
5805 -4403.615128444681
5806 -4401.983681782366
5807 -4399.300576571524
5808 -4398.383903227374
5809 -4396.490340523685
5810 -4396.484506387811
5811 -4395.464421349327
5812 -4396.042641552285
5813 -4395.675584193857
5814 -4397.097008213362
5815 -4397.322457819517
5816 -4399.398343199283
5817 -4400.501020328056
5818 -4403.300864476787
5819 -4404.956782316423
5820 -4408.553171972192
5821 -4410.695015412468
5822 -4414.812348272976
5823 -4417.353343564389
5824 -4421.676641902854
5825 -4423.472829152144
5826 -4428.150874041041
5827 -4430.162387352391
5828 -4435.41474939501
5829 -4437.785274926968
5830 -4442.783847160274
5831 -4445.383337927698
5832 -4451.108407998921
5833 -4453.733231948825
5834 -4459.403292093533
5835 -4462.082379741886
5836 -4467.675866160013
5837 -4472.035210484195
5838 -4475.83788206391
5839 -4479.756783966301
5840 -4484.972620050448
5841 -4488.306201926782
5842 -4492.913514407926
5843 -4495.65013137616
5844 -4499.84598844273
5845 -4502.023500593054
5846 -4505.257136689263
5847 -4506.460858791614
5848 -4508.970692960556
5849 -4509.604338896075
5850 -4511.261222713052
5851 -4511.179690624504
5852 -4512.173774758922
5853 -4511.402838125322
5854 -4511.972391889072
5855 -4511.033211354857
5856 -4511.174229523554
5857 -4510.000972782875
5858 -4509.896737055807
5859 -4508.488937590756
5860 -4508.091858833633
5861 -4506.509264158442
5862 -4506.28415409285
5863 -4504.25994969869
5864 -4504.138860745576
5865 -4502.498200148558
5866 -4502.256518739729
5867 -4500.708582174342
5868 -4500.702871709265
5869 -4499.357491097971
5870 -4499.469112276331
5871 -4498.262859675822
5872 -4498.468597975923
5873 -4497.510544821534
5874 -4498.242115925428
5875 -4497.807055150268
5876 -4498.801553110969
5877 -4498.435598529371
5878 -4499.907947328986
5879 -4499.943608757623
5880 -4502.077241141576
5881 -4502.181348170116
5882 -4504.479775498163
5883 -4504.940197304488
5884 -4507.790209023863
5885 -4508.506848579271
5886 -4511.353586215915
5887 -4512.07709232385
5888 -4515.138993566952
5889 -4515.892591548877
5890 -4519.026857299999
5891 -4519.740128528472
5892 -4522.688987567665
5893 -4523.349399581532
5894 -4526.218695097268
5895 -4526.715797538904
5896 -4529.058004271797
5897 -4529.410750485731
5898 -4531.446524039689
5899 -4531.402602341273
5900 -4532.880394281952
5901 -4532.596431499774
5902 -4533.479913442732
5903 -4532.572676064655
5904 -4532.893327738244
5905 -4531.332482839278
5906 -4530.863014259407
5907 -4528.601760816948
5908 -4527.459334846981
5909 -4524.611592623653
5910 -4522.686826360848
5911 -4518.814191065638
5912 -4516.024723596795
5913 -4511.522200272488
5914 -4508.194556134279
5915 -4503.031651482686
5916 -4498.941293309856
5917 -4493.173637062789
5918 -4488.602259308855
5919 -4482.223032439311
5920 -4477.064686310199
5921 -4470.179559706243
5922 -4464.399505718133
5923 -4456.927925912064
5924 -4451.009812697925
5925 -4443.362036770126
5926 -4437.036240572188
5927 -4429.105331532393
5928 -4422.66826387916
5929 -4414.628184970536
5930 -4408.048607674809
5931 -4399.985997693229
5932 -4393.640775918703
5933 -4385.564627942163
5934 -4379.006383455324
5935 -4371.051913198062
5936 -4364.83088883632
5937 -4357.240689746417
5938 -4351.593115517806
5939 -4344.551182901901
5940 -4339.716976886302
5941 -4333.224779703187
5942 -4328.790246229245
5943 -4322.980738034192
5944 -4319.169635281707
5945 -4314.117979746678
5946 -4311.010595825587
5947 -4306.70723222248
5948 -4304.232040568808
5949 -4300.769318389672
5950 -4299.352409298163
5951 -4296.59797027523
5952 -4295.816860510181
5953 -4293.969772350643
5954 -4294.366791516441
5955 -4293.475172966677
5956 -4294.846807341417
5957 -4295.192696251501
5958 -4297.721189825641
5959 -4298.877083298538
5960 -4301.574131082657
5961 -4303.887209465556
5962 -4307.184457186695
5963 -4310.41597949047
5964 -4314.245978858086
5965 -4318.848810724472
5966 -4323.378154648894
5967 -4328.752828717837
5968 -4333.836845047038
5969 -4339.723664368345
5970 -4347.160441563236
5971 -4353.136615766849
5972 -4361.0182590041
5973 -4367.237636411051
5974 -4375.250599416422
5975 -4381.526174453228
5976 -4389.354397867212
5977 -4395.184712514735
5978 -4403.26773044015
5979 -4409.372231740988
5980 -4416.900809722067
5981 -4422.424026680304
5982 -4429.678888337789
5983 -4434.752179924015
5984 -4441.43183425529
5985 -4445.716886731416
5986 -4451.702552880944
5987 -4455.518698028243
5988 -4460.758075433949
5989 -4464.073440965869
5990 -4468.662671898915
5991 -4471.312330375538
5992 -4475.375031927291
5993 -4477.233971545871
5994 -4480.554263677955
5995 -4481.838714196669
5996 -4484.50695834376
5997 -4485.200746097073
5998 -4487.42103610803
5999 -4487.515267019817
6000 -4488.892592948146
6001 -4488.242352611943
6002 -4489.151749652108
6003 -4488.121865860636
6004 -4488.549799824065
6005 -4486.8094549206
6006 -4487.020924001758
6007 -4485.311610713452
6008 -4485.233088596177
6009 -4483.377629644353
6010 -4482.770326946035
6011 -4480.260651526314
6012 -4479.422059653749
6013 -4476.676018717761
6014 -4475.546271389397
6015 -4472.603850938718
6016 -4471.395205233037
6017 -4467.022704718363
6018 -4465.773466054296
6019 -4462.60481245576
6020 -4459.700439565038
6021 -4456.423389995602
6022 -4453.751558883325
6023 -4450.188906340637
6024 -4447.092572046926
6025 -4443.324979416226
6026 -4439.884223143123
6027 -4436.002465409584
6028 -4432.415262813589
6029 -4428.372369601464
6030 -4424.553796481873
6031 -4420.306368240221
6032 -4416.165588480886
6033 -4411.73771328462
6034 -4407.429992380197
6035 -4402.864157834412
6036 -4398.025346451154
6037 -4393.363009742701
6038 -4388.677796952628
6039 -4383.766904580844
6040 -4378.67322620304
6041 -4373.780998645692
6042 -4368.730978978097
6043 -4363.585423246335
6044 -4358.187571062146
6045 -4353.113211796109
6046 -4347.541315423632
6047 -4342.377645831863
6048 -4337.117982576912
6049 -4332.149190243787
6050 -4328.703313131384
6051 -4321.249724494515
6052 -4317.961624051653
6053 -4312.81604863883
6054 -4307.500918712582
6055 -4302.559391539318
6056 -4299.478904707797
6057 -4292.743067165767
6058 -4289.927829162816
6059 -4285.31802896475
6060 -4282.734240911422
6061 -4276.984817875625
6062 -4274.775784657224
6063 -4270.953678553561
6064 -4269.217834318855
6065 -4264.679575634125
6066 -4263.399858606257
6067 -4260.634285485931
6068 -4259.95742216249
6069 -4257.016549946537
6070 -4256.906209484069
6071 -4255.34070790319
6072 -4255.676796792923
6073 -4254.373448644486
6074 -4255.397845226906
6075 -4254.892383860198
6076 -4256.455697012914
6077 -4256.741374519408
6078 -4259.741624308214
6079 -4260.461174069736
6080 -4263.126478624652
6081 -4264.589338059212
6082 -4267.602553310346
6083 -4269.289216386878
6084 -4273.077414722211
6085 -4275.055928541124
6086 -4280.641650960793
6087 -4283.10466513807
6088 -4287.23469838256
6089 -4290.017379729616
6090 -4296.286015401432
6091 -4298.89565606995
6092 -4304.942039060232
6093 -4307.472043939928
6094 -4313.414337250329
6095 -4315.777829157397
6096 -4321.315385755925
6097 -4324.773405061493
6098 -4329.795158426759
6099 -4332.543934159175
6100 -4336.831696119812
6101 -4338.749579298072
6102 -4342.468515948793
6103 -4343.768540769306
6104 -4346.678337982137
6105 -4347.159030994386
6106 -4349.267244048365
6107 -4348.971253235693
6108 -4350.285609297653
6109 -4349.367371356336
6110 -4350.096473718841
6111 -4348.527765675248
6112 -4348.72019217
6113 -4346.504633616782
6114 -4346.178977000403
6115 -4343.778774223996
6116 -4343.207091574527
6117 -4340.473117170794
6118 -4340.056403577429
6119 -4336.874297591962
6120 -4335.526219189813
6121 -4332.819324715934
6122 -4331.153357510698
6123 -4328.348106693752
6124 -4326.34688468243
6125 -4323.423149350778
6126 -4321.105911324036
6127 -4318.013319350777
6128 -4315.716739796489
6129 -4312.555176958122
6130 -4310.209873823082
6131 -4307.16327322329
6132 -4304.863452705089
6133 -4301.889982186216
6134 -4299.388632161423
6135 -4295.53308143467
6136 -4294.502619321701
6137 -4290.617044361906
6138 -4288.7531681767
6139 -4284.995650229226
6140 -4283.46805380939
6141 -4280.227820964144
6142 -4279.090638650247
6143 -4276.169860351411
6144 -4275.355537569611
6145 -4272.98875078305
6146 -4272.628516759438
6147 -4270.433282906562
6148 -4270.382159637623
6149 -4268.897649487697
6150 -4269.545557981073
6151 -4268.368457381268
6152 -4269.357440434102
6153 -4268.44123724698
6154 -4269.567089343831
6155 -4269.376250449951
6156 -4271.034135839212
6157 -4270.879689927631
6158 -4273.197875470085
6159 -4273.46565188635
6160 -4276.272055557978
6161 -4276.822334538683
6162 -4279.836470684681
6163 -4280.680492189918
6164 -4284.426491151537
6165 -4285.395390123951
6166 -4289.474132220737
6167 -4290.825309941542
6168 -4293.982331668985
6169 -4296.812419549973
6170 -4300.310446419754
6171 -4303.396977012209
6172 -4307.113734273717
6173 -4310.438195730654
6174 -4314.322667360753
6175 -4318.085097682064
6176 -4322.146752573649
6177 -4325.763423781109
6178 -4329.78617405888
6179 -4333.466367555798
6180 -4337.502154789131
6181 -4341.02209579284
6182 -4345.085417363827
6183 -4348.69381979466
6184 -4352.758445034757
6185 -4356.382850306311
6186 -4361.649451786801
6187 -4363.760108234044
6188 -4368.998653999738
6189 -4370.912517380775
6190 -4376.220547578709
6191 -4378.112696585689
6192 -4383.085056005686
6193 -4384.863548015964
6194 -4389.651155016073
6195 -4391.141241879346
6196 -4395.645063703411
6197 -4396.949065265619
6198 -4401.238375041161
6199 -4402.338678078082
6200 -4406.515229622738
6201 -4407.65056097154
6202 -4411.701617711462
6203 -4412.550429938022
6204 -4416.188735870212
6205 -4416.972621588291
6206 -4420.141747492976
6207 -4420.644763999137
6208 -4422.861802849261
6209 -4423.808014528742
6210 -4425.886591379382
6211 -4425.915663777483
6212 -4427.848610296732
6213 -4428.156445186437
6214 -4429.708691585292
6215 -4429.45669937139
6216 -4430.932071862962
6217 -4430.478467215215
6218 -4431.622019446646
6219 -4430.689195716917
6220 -4431.565260301503
6221 -4430.673814233551
6222 -4431.081143493835
6223 -4429.288216693875
6224 -4429.133338113835
6225 -4427.032925890285
6226 -4425.893006348568
6227 -4423.383906737049
6228 -4421.751786428003
6229 -4419.028026771685
6230 -4416.754537765956
6231 -4413.331513915931
6232 -4410.458230855023
6233 -4405.189078554438
6234 -4401.524857197609
6235 -4395.778874307875
6236 -4392.127337731084
6237 -4386.013454615878
6238 -4381.91290135205
6239 -4375.758136982164
6240 -4371.571468868089
6241 -4365.23248250044
6242 -4360.735125101776
6243 -4354.008642508198
6244 -4349.313672171764
6245 -4342.437984225452
6246 -4337.4435339668
6247 -4330.464680727258
6248 -4325.731406713899
6249 -4318.746779558856
6250 -4313.590630914472
6251 -4306.242461550355
6252 -4300.975333127953
6253 -4293.666166045197
6254 -4288.447069589567
6255 -4281.462126360004
6256 -4276.688888520196
6257 -4269.439141641769
6258 -4264.797564588587
6259 -4258.015647707864
6260 -4253.551933212475
6261 -4247.37963872952
6262 -4245.247753135995
6263 -4239.519162488923
6264 -4236.229669475072
6265 -4231.022868501077
6266 -4229.530510090266
6267 -4224.9680414707
6268 -4223.079816625757
6269 -4220.435701321405
6270 -4219.118666797463
6271 -4216.083300869784
6272 -4216.095677130756
6273 -4213.897798950792
6274 -4214.53515662586
6275 -4213.587911990945
6276 -4215.128188286129
6277 -4215.239656717093
6278 -4217.349318923948
6279 -4217.841302833735
6280 -4221.652048936339
6281 -4222.626602321181
6282 -4225.915495727969
6283 -4227.780998250366
6284 -4231.566109270832
6285 -4234.053071307562
6286 -4238.847841055736
6287 -4241.886853892281
6288 -4246.848184392098
6289 -4250.131101610009
6290 -4255.480446554351
6291 -4259.193094267388
6292 -4264.81436987971
6293 -4268.374324456002
6294 -4276.233374085661
6295 -4279.710930754713
6296 -4284.941808002369
6297 -4290.783542646437
6298 -4295.838573876529
6299 -4300.453532268702
6300 -4304.920049537358
6301 -4308.66701151374
6302 -4312.368243884383
6303 -4314.757921449625
6304 -4318.838973554674
6305 -4319.419236986206
6306 -4322.05066642751
6307 -4322.029192592252
6308 -4323.339277964556
6309 -4322.396301012279
6310 -4322.362851128709
6311 -4320.480260125796
6312 -4319.574991751887
6313 -4316.260145093747
6314 -4315.35711663751
6315 -4311.122347412127
6316 -4309.73344402662
6317 -4304.711853994192
6318 -4302.914375698546
6319 -4298.916057033474
6320 -4295.038638158453
6321 -4290.61694237634
6322 -4288.084282062273
6323 -4283.686851731998
6324 -4280.734810576077
6325 -4276.091772706745
6326 -4273.079678585422
6327 -4268.364727644497
6328 -4265.355714941526
6329 -4260.576287404045
6330 -4257.816308324371
6331 -4251.701859100258
6332 -4249.202506180203
6333 -4244.981365140868
6334 -4241.221681455865
6335 -4237.28981510561
6336 -4234.07685413433
6337 -4230.706531547897
6338 -4228.081692172538
6339 -4225.211122312555
6340 -4223.353127698718
6341 -4220.011378871699
6342 -4219.567274723864
6343 -4216.893122637278
6344 -4216.775621490282
6345 -4214.632992207351
6346 -4214.881818570117
6347 -4213.195158764309
6348 -4213.799149352506
6349 -4212.73705761286
6350 -4213.698741051888
6351 -4213.079062069308
6352 -4214.325592305147
6353 -4214.071863603463
6354 -4215.939901848498
6355 -4215.688179698613
6356 -4217.325871212367
6357 -4217.383414049474
6358 -4219.184419537207
6359 -4219.3819016046
6360 -4221.180465725872
6361 -4221.190260386943
6362 -4222.996453949138
6363 -4222.894716065565
6364 -4224.703984818501
6365 -4224.65494320813
6366 -4226.339234415927
6367 -4226.211747818083
6368 -4228.038134333085
6369 -4227.647674726082
6370 -4228.915766139471
6371 -4228.695518908595
6372 -4229.906137900462
6373 -4229.313828826005
6374 -4230.536657729604
6375 -4229.695355751652
6376 -4230.607030262459
6377 -4229.675047551651
6378 -4230.302500901891
6379 -4229.311040257736
6380 -4229.742298759001
6381 -4228.663335365679
6382 -4229.081189641186
6383 -4228.077612688618
6384 -4228.472736676762
6385 -4227.435227906929
6386 -4227.915847247998
6387 -4227.063344323024
6388 -4227.763151359259
6389 -4227.086132385
6390 -4228.314750154757
6391 -4227.946244851521
6392 -4229.308602374906
6393 -4229.284961478869
6394 -4231.173138673436
6395 -4231.583506254199
6396 -4234.117411831483
6397 -4235.205636711888
6398 -4238.597280782125
6399 -4240.18430289921
6400 -4244.141605462416
6401 -4247.304737131635
6402 -4250.509407276795
6403 -4254.502459461204
6404 -4259.863273031565
6405 -4264.364793023563
6406 -4270.050472668765
6407 -4275.14536132628
6408 -4281.385013201638
6409 -4286.948277982063
6410 -4293.24626241687
6411 -4299.11557697579
6412 -4305.814525332011
6413 -4312.046232743229
6414 -4318.957991594719
6415 -4325.117668222091
6416 -4331.850685722738
6417 -4337.834543518007
6418 -4344.518723095138
6419 -4350.258937038597
6420 -4356.703320949164
6421 -4362.050358866932
6422 -4367.8576145452
6423 -4372.740086630736
6424 -4377.777721086262
6425 -4381.477675277275
6426 -4385.920555532592
6427 -4388.94337146277
6428 -4392.141601554261
6429 -4393.999958760231
6430 -4396.431339381363
6431 -4397.393188661614
6432 -4398.88942914573
6433 -4399.022217161896
6434 -4399.345477752571
6435 -4398.246418527545
6436 -4397.656632081105
6437 -4395.688769588005
6438 -4393.916086916608
6439 -4390.832072995469
6440 -4388.111822289867
6441 -4384.093973305209
6442 -4380.563544646392
6443 -4375.915044154845
6444 -4371.773646946983
6445 -4366.11524167631
6446 -4361.36316437799
6447 -4357.343413328443
6448 -4351.216310429551
6449 -4344.546759929684
6450 -4340.696531411243
6451 -4334.037743325984
6452 -4327.189444012805
6453 -4319.871018672858
6454 -4313.437559068514
6455 -4306.54825949396
6456 -4300.498028576168
6457 -4293.526907520019
6458 -4287.852395778975
6459 -4281.595867387035
6460 -4276.238909511951
6461 -4270.687822732565
6462 -4266.044791051134
6463 -4261.352783982815
6464 -4257.603168705196
6465 -4253.677058302825
6466 -4250.91582357414
6467 -4248.15141562377
6468 -4246.44287898658
6469 -4244.654337580452
6470 -4244.223605399993
6471 -4243.522527879481
6472 -4244.052537251449
6473 -4244.628007471529
6474 -4246.2692081556
6475 -4247.923433397741
6476 -4250.942974496203
6477 -4253.773244223998
6478 -4257.798810054457
6479 -4261.629016078218
6480 -4266.451794311519
6481 -4270.95894282355
6482 -4275.004393568741
6483 -4280.633400105773
6484 -4284.940200595329
6485 -4290.972324011102
6486 -4295.598040432135
6487 -4302.236676103887
6488 -4307.51581963466
6489 -4312.127641493886
6490 -4320.100901237641
6491 -4324.957831980539
6492 -4333.145978955037
6493 -4340.428813522974
6494 -4348.167872869238
6495 -4354.894764560707
6496 -4361.993897280392
6497 -4368.08566942869
6498 -4374.268368104271
6499 -4378.776934566467
6500 -4383.636278808382
6501 -4387.092694709863
6502 -4390.782633974914
6503 -4393.117928834983
6504 -4395.708673342924
6505 -4396.943367860042
6506 -4398.204371215163
6507 -4398.302870340216
6508 -4398.516064492203
6509 -4397.46199938983
6510 -4396.615684179295
6511 -4394.476090816483
6512 -4392.894129136228
6513 -4390.160804231995
6514 -4387.71693184268
6515 -4384.398208349683
6516 -4382.659531426018
6517 -4378.694503503037
6518 -4376.532177228905
6519 -4371.799567605822
6520 -4369.416350038195
6521 -4366.07210135614
6522 -4362.157851099147
6523 -4358.884107701353
6524 -4356.45989082025
6525 -4353.152726303808
6526 -4349.41087017696
6527 -4346.255266629791
6528 -4343.975133768313
6529 -4339.796893455356
6530 -4337.801989142162
6531 -4334.224125676094
6532 -4332.6497210765
6533 -4329.924296552974
6534 -4328.129005303248
6535 -4326.064482584876
6536 -4325.191300093052
6537 -4324.085010979182
6538 -4324.036663582832
6539 -4323.608318162227
6540 -4324.618709307095
6541 -4325.08233974278
6542 -4326.932945043635
6543 -4328.278114250585
6544 -4330.735112060717
6545 -4332.84160410571
6546 -4336.200869467295
6547 -4337.833164664004
6548 -4341.483187310074
6549 -4343.645310089238
6550 -4347.903976062883
6551 -4350.445762649168
6552 -4355.217638127593
6553 -4357.990640149994
6554 -4362.839292526543
6555 -4365.534195907251
6556 -4370.478738795746
6557 -4373.193798401653
6558 -4377.863399419182
6559 -4380.175707614331
6560 -4384.345282969505
6561 -4387.197359843096
6562 -4390.456735271806
6563 -4392.125712317028
6564 -4394.271105174606
6565 -4394.971518166763
6566 -4396.001497950238
6567 -4395.60804845818
6568 -4395.355065824084
6569 -4393.751129943254
6570 -4392.26896187435
6571 -4389.493203554529
6572 -4387.240087566949
6573 -4383.348635753062
6574 -4380.049491938031
6575 -4375.40416457675
6576 -4370.866692230864
6577 -4365.177666740404
6578 -4359.935254107584
6579 -4353.660299627805
6580 -4347.775714326901
6581 -4341.151827478839
6582 -4335.220755941039
6583 -4328.568646779946
6584 -4322.39464810654
6585 -4315.371707134474
6586 -4309.191854347162
6587 -4302.329465249867
6588 -4296.48704395446
6589 -4290.086165583702
6590 -4284.472420966065
6591 -4278.444210426747
6592 -4273.580222717488
6593 -4268.443208250007
6594 -4264.576295469635
6595 -4260.300108241778
6596 -4257.385247964151
6597 -4254.294901422792
6598 -4252.528977545137
6599 -4250.551961816989
6600 -4249.817010576769
6601 -4248.817536942655
6602 -4249.37847218149
6603 -4249.801031124038
6604 -4252.09823592697
6605 -4253.362256404408
6606 -4256.703258262431
6607 -4259.588385176126
6608 -4264.052769467443
6609 -4268.71447920223
6610 -4274.440634848244
6611 -4280.265990339179
6612 -4286.818356865578
6613 -4293.177535338739
6614 -4300.841406468589
6615 -4308.393159426003
6616 -4316.714544550198
6617 -4324.578361031567
6618 -4333.258428312611
6619 -4341.23888571177
6620 -4350.191046701335
6621 -4358.17102763367
6622 -4366.705110056061
6623 -4375.068783474364
6624 -4383.969389854146
6625 -4391.957342034039
6626 -4400.4336326758
6627 -4407.816230523158
6628 -4415.07985768235
6629 -4421.523456370634
6630 -4428.210948895907
6631 -4433.825645177465
6632 -4439.750836249937
6633 -4444.418040539739
6634 -4449.233609352455
6635 -4452.773372530472
6636 -4456.391815568456
6637 -4458.593953340705
6638 -4460.974617677712
6639 -4462.017165434723
6640 -4463.364627257751
6641 -4463.065287970861
6642 -4462.958712645857
6643 -4461.736704270228
6644 -4460.678147781637
6645 -4458.168832619875
6646 -4456.081197760413
6647 -4452.681834599209
6648 -4449.646425052216
6649 -4446.713035849535
6650 -4442.775764007758
6651 -4439.341954358221
6652 -4434.782422789265
6653 -4430.725942841508
6654 -4427.155389934309
6655 -4420.625531763366
6656 -4416.68983335015
6657 -4411.689426567356
6658 -4404.688198602662
6659 -4399.450873357909
6660 -4392.280740169515
6661 -4386.676355356496
6662 -4379.712651006118
6663 -4371.454491365157
6664 -4366.934554404437
6665 -4358.787496303295
6666 -4352.040321440498
6667 -4344.45926415131
6668 -4338.412278494536
6669 -4331.708095034932
6670 -4326.165429126559
6671 -4320.031964086178
6672 -4315.252717092826
6673 -4310.158107875362
6674 -4306.452024008404
6675 -4302.263233538793
6676 -4299.621726020127
6677 -4296.611922747465
6678 -4295.073328286496
6679 -4293.143993454531
6680 -4292.406178616553
6681 -4291.212765376744
6682 -4291.458857751088
6683 -4291.522657298892
6684 -4292.375387354844
6685 -4293.3518266378
6686 -4294.995447383027
6687 -4296.679483002119
6688 -4298.751888176605
6689 -4301.230970296991
6690 -4303.638001072389
6691 -4305.676908774482
6692 -4310.228135074357
6693 -4312.469996247958
6694 -4315.905360471872
6695 -4318.677565582648
6696 -4322.420897231901
6697 -4327.005442987531
6698 -4330.780365780178
6699 -4333.933745514159
6700 -4339.108804893235
6701 -4341.759405534367
6702 -4346.667945542539
6703 -4349.114827043684
6704 -4353.465651785329
6705 -4356.676199357518
6706 -4360.311507611648
6707 -4362.810540714827
6708 -4365.478362857326
6709 -4367.12464089616
6710 -4369.026750389106
6711 -4369.611569143127
6712 -4370.881404696041
6713 -4370.767525254769
6714 -4370.971499467156
6715 -4370.225008213254
6716 -4369.919751710904
6717 -4368.592456139425
6718 -4367.595699613824
6719 -4365.970889487437
6720 -4365.096866082743
6721 -4363.458999549538
6722 -4362.493491694834
6723 -4361.043223799873
6724 -4360.08175547982
6725 -4358.526210421188
6726 -4358.172292807581
6727 -4357.153616411155
6728 -4357.268427765584
6729 -4356.739893193882
6730 -4357.587443813788
6731 -4357.774264161448
6732 -4359.427140489942
6733 -4361.022936492049
6734 -4363.932100659759
6735 -4366.660833989741
6736 -4370.95764821857
6737 -4375.326206766671
6738 -4380.597881635764
6739 -4385.094224752866
6740 -4391.388784145116
6741 -4397.103165971057
6742 -4404.064299250538
6743 -4410.814812626259
6744 -4418.858290722927
6745 -4426.474876664926
6746 -4435.559367426102
6747 -4444.152745359364
6748 -4453.640316980651
6749 -4462.516459547389
6750 -4472.343824474849
6751 -4481.667692126197
6752 -4491.739396353403
6753 -4501.254049828963
6754 -4511.32775133032
6755 -4520.113321335968
6756 -4529.846127307754
6757 -4538.473393534573
6758 -4547.771184626068
6759 -4555.732146202756
6760 -4564.229238089475
6761 -4570.968432881624
6762 -4578.122541987015
6763 -4584.222093948163
6764 -4590.311299292583
6765 -4596.315841425966
6766 -4600.540048891797
6767 -4603.178438833256
6768 -4607.044650291346
6769 -4608.21165913954
6770 -4609.306162191921
6771 -4608.500309920406
6772 -4607.95853874438
6773 -4605.223242066992
6774 -4602.449008397808
6775 -4598.918546140318
6776 -4595.666373322367
6777 -4590.728726678628
6778 -4585.98670372107
6779 -4579.713674651077
6780 -4573.697657674633
6781 -4566.507446269772
6782 -4559.705484109121
6783 -4551.626895146312
6784 -4543.738394312312
6785 -4537.990371682939
6786 -4529.307576223819
6787 -4522.847701448107
6788 -4514.116510730728
6789 -4507.684960349578
6790 -4498.957680762844
6791 -4492.153344636934
6792 -4482.964957205124
6793 -4473.226419956102
6794 -4464.773643737443
6795 -4455.758655277147
6796 -4448.082633540799
6797 -4440.124070235268
6798 -4433.036702141815
6799 -4425.527636286075
6800 -4419.051695920358
6801 -4412.341009105814
6802 -4407.150359822476
6803 -4401.477495202173
6804 -4397.375441056566
6805 -4392.865161141168
6806 -4389.525097917955
6807 -4386.215942014416
6808 -4383.968894509635
6809 -4381.144834169951
6810 -4379.773733493161
6811 -4378.134978881053
6812 -4377.74231379435
6813 -4377.128278715604
6814 -4377.542783101149
6815 -4377.571029302824
6816 -4379.073926617402
6817 -4380.228826971147
6818 -4382.623527354436
6819 -4384.812844752092
6820 -4388.370966669696
6821 -4391.220293962619
6822 -4394.163965689818
6823 -4398.286777397449
6824 -4402.082742191677
6825 -4406.989374310704
6826 -4411.027254321508
6827 -4414.640173511462
6828 -4421.660172652524
6829 -4426.185293231443
6830 -4431.570879725006
6831 -4439.386197300542
6832 -4445.242178393686
6833 -4453.460834722263
6834 -4459.80777670968
6835 -4468.670934597019
6836 -4477.911086470265
6837 -4486.214241771929
6838 -4495.510087179108
6839 -4503.360011105479
6840 -4512.137640579053
6841 -4519.833456565038
6842 -4528.075891866789
6843 -4535.308484604117
6844 -4542.970135958101
6845 -4549.315665889465
6846 -4556.239002361378
6847 -4561.902894661679
6848 -4568.19294594096
6849 -4572.924595198951
6850 -4578.303986003561
6851 -4582.14181104521
6852 -4586.355788993266
6853 -4589.265000905332
6854 -4592.82351119534
6855 -4594.971264337417
6856 -4597.573067208999
6857 -4599.079399567136
6858 -4600.530696689229
6859 -4601.185611101369
6860 -4602.15235691724
6861 -4602.297090623626
6862 -4602.92084374094
6863 -4602.422894474397
6864 -4602.669544244522
6865 -4602.001058969665
6866 -4601.820914539165
6867 -4600.731065309379
6868 -4600.231358986372
6869 -4598.895656251102
6870 -4598.308758560743
6871 -4596.831642542365
6872 -4595.683747172196
6873 -4593.678415737032
6874 -4592.354843421999
6875 -4589.933486584572
6876 -4588.036528170648
6877 -4585.199962228863
6878 -4581.625016867297
6879 -4578.585821858967
6880 -4576.192328787599
6881 -4571.319523916935
6882 -4568.72469950535
6883 -4563.932713740423
6884 -4561.363584395946
6885 -4556.550222427037
6886 -4553.98253165971
6887 -4549.192959156671
6888 -4545.198054592633
6889 -4541.884849399196
6890 -4537.997732487004
6891 -4534.928824522546
6892 -4531.284203320557
6893 -4528.327570164002
6894 -4524.506100737266
6895 -4521.718629794748
6896 -4518.22521024357
6897 -4515.530025113843
6898 -4512.216981775023
6899 -4509.601910561811
6900 -4506.397425186426
6901 -4503.944432622122
6902 -4501.199923187628
6903 -4498.934568874687
6904 -4497.246466496785
6905 -4493.906785624655
6906 -4492.371664540381
6907 -4490.205631148456
6908 -4487.908102188017
6909 -4485.970522356258
6910 -4484.642648373507
6911 -4482.496252062064
6912 -4480.242574735314
6913 -4478.402741258028
6914 -4477.063137520341
6915 -4474.562246082941
6916 -4473.53359315787
6917 -4471.891196415037
6918 -4470.278319150676
6919 -4468.628756191074
6920 -4467.515052685518
6921 -4465.194769251808
6922 -4464.189839359469
6923 -4461.769639833585
6924 -4460.975037341406
6925 -4458.7714654437
6926 -4458.023704998829
6927 -4455.61903403287
6928 -4454.500092670566
6929 -4452.239500372374
6930 -4451.186659203335
6931 -4448.8032837518
6932 -4447.941244651037
6933 -4445.578419548946
6934 -4444.521333599412
6935 -4442.026222303533
6936 -4440.93486133449
6937 -4439.186727868499
6938 -4437.403993001149
6939 -4435.699840965674
6940 -4433.889901967366
6941 -4432.02922906415
6942 -4430.188815833764
6943 -4428.490501595708
6944 -4426.771598105203
6945 -4425.53842221558
6946 -4424.554759482432
6947 -4422.879543143197
6948 -4422.748747340882
6949 -4421.58957089777
6950 -4421.429507955601
6951 -4420.781098626814
6952 -4421.07799326932
6953 -4421.019894350868
6954 -4422.030992839065
6955 -4422.217941548527
6956 -4423.700301427509
6957 -4424.266555563956
6958 -4426.147898166456
6959 -4427.294439224615
6960 -4430.243073052592
6961 -4431.977893807659
6962 -4435.871232154263
6963 -4438.045027375422
6964 -4442.436791103506
6965 -4445.027373775498
6966 -4449.973353859632
6967 -4452.981449557868
6968 -4456.740088470366
6969 -4462.154549474521
6970 -4466.545767612017
6971 -4472.762137888399
6972 -4477.455577302715
6973 -4483.941834134839
6974 -4488.872433160715
6975 -4495.482577634938
6976 -4500.462223592826
6977 -4507.077500476662
6978 -4514.263672438614
6979 -4518.371175952794
6980 -4525.510517962818
6981 -4531.680290851589
6982 -4538.172787172466
6983 -4543.508334059347
6984 -4549.41981742664
6985 -4553.823074892244
6986 -4558.612220208735
6987 -4560.921632503332
6988 -4565.167417843769
6989 -4567.924001912401
6990 -4570.0748185011
6991 -4571.79647198191
6992 -4573.97532199163
6993 -4574.432249753954
6994 -4575.766224579722
6995 -4575.852797372421
6996 -4576.217211838781
6997 -4575.586951345795
6998 -4575.142960194406
6999 -4573.429251531323
7000 -4572.637534573658
7001 -4570.70191063101
7002 -4569.093197318295
7003 -4566.432667450057
7004 -4564.174836691755
7005 -4561.141345869898
7006 -4558.501754073041
7007 -4554.661807942664
7008 -4551.305476694958
7009 -4546.922997099588
7010 -4543.267825977568
7011 -4538.396935312428
7012 -4533.934524146368
7013 -4528.671566073393
7014 -4523.842759986834
7015 -4518.107727942927
7016 -4513.085002375738
7017 -4504.054623271751
7018 -4498.908202570765
7019 -4490.308885153958
7020 -4485.330110768113
7021 -4476.858444827436
7022 -4472.167290216026
7023 -4464.143725844197
7024 -4459.792689313917
7025 -4452.436080273945
7026 -4446.623475738625
7027 -4442.304919286428
7028 -4437.375530833866
7029 -4431.804881796954
7030 -4429.150471086865
7031 -4424.337492142392
7032 -4420.810352557244
7033 -4417.858725065515
7034 -4415.153662742869
7035 -4412.834038465724
7036 -4410.695677537897
7037 -4408.730070112377
7038 -4407.350108013212
7039 -4405.901908518908
7040 -4404.977652990514
7041 -4403.820398251903
7042 -4403.597300384781
7043 -4402.94776001182
7044 -4403.282650414743
7045 -4402.783607234638
7046 -4403.242524425181
7047 -4403.140618976026
7048 -4403.874952575281
7049 -4403.962220199628
7050 -4404.943436216899
7051 -4405.136490301898
7052 -4406.33550158827
7053 -4406.910497034763
7054 -4408.412575694356
7055 -4409.143574229245
7056 -4410.689700053887
7057 -4411.456859947869
7058 -4413.217149218197
7059 -4414.068371533851
7060 -4415.905144294913
7061 -4417.660407551522
7062 -4419.58670533358
7063 -4420.841928635236
7064 -4423.824135083736
7065 -4425.056411104935
7066 -4428.024232549556
7067 -4429.122174912214
7068 -4432.001322928161
7069 -4433.061877015345
7070 -4435.836511715353
7071 -4436.8991564394
7072 -4439.450585836276
7073 -4440.381817510392
7074 -4442.780569278635
7075 -4443.57141227069
7076 -4445.618672410893
7077 -4446.228440344385
7078 -4448.368898225794
7079 -4448.943743254174
7080 -4451.005030156985
7081 -4451.6008524997
7082 -4453.569191717293
7083 -4454.102440280038
7084 -4456.253794003896
7085 -4456.914957890838
7086 -4459.111944122353
7087 -4459.812309516782
7088 -4462.098123606428
7089 -4462.953313681188
7090 -4464.795834107507
7091 -4466.550450802949
7092 -4468.550893801677
7093 -4470.720460040697
7094 -4472.793283062633
7095 -4475.276716947106
7096 -4477.793848737543
7097 -4480.50048172207
7098 -4483.214118382242
7099 -4486.413875930601
7100 -4489.232070476265
7101 -4492.839106902406
7102 -4497.226578857601
7103 -4499.401468902526
7104 -4503.854646398866
7105 -4507.548382690124
7106 -4510.7500857748
7107 -4514.627706660562
7108 -4519.285672426603
7109 -4522.912941106011
7110 -4526.003424856046
7111 -4529.574009364096
7112 -4533.773422796633
7113 -4536.961258466947
7114 -4540.803880323445
7115 -4543.79341256263
7116 -4547.107471748793
7117 -4549.533777506589
7118 -4552.498226224752
7119 -4554.485615409023
7120 -4556.952299403373
7121 -4558.233292477651
7122 -4559.810446264956
7123 -4560.396892084014
7124 -4561.443907437721
7125 -4561.222220041491
7126 -4561.680218471955
7127 -4560.819867323366
7128 -4560.425278137518
7129 -4558.794806318983
7130 -4558.208904623345
7131 -4555.677048846474
7132 -4553.756355963349
7133 -4550.360803628415
7134 -4548.701744490024
7135 -4544.686576617243
7136 -4541.030335299132
7137 -4537.617491084186
7138 -4532.977386256822
7139 -4528.976211978417
7140 -4523.784607728023
7141 -4519.190455032975
7142 -4513.138084686021
7143 -4507.976213728403
7144 -4501.285268050157
7145 -4493.563726764016
7146 -4486.619976794876
7147 -4479.00842647735
7148 -4472.508363171017
7149 -4464.790789257531
7150 -4458.450660520015
7151 -4450.942076664867
7152 -4444.509544220196
7153 -4437.2130169737
7154 -4431.148152124652
7155 -4424.333428884707
7156 -4418.59172028241
7157 -4412.34612182658
7158 -4407.435772010489
7159 -4401.583979419256
7160 -4397.020104238988
7161 -4391.652049141461
7162 -4387.593899370529
7163 -4382.813800469238
7164 -4379.40247474802
7165 -4375.419293961137
7166 -4372.543014855107
7167 -4369.018839374379
7168 -4367.052057081036
7169 -4364.176652409776
7170 -4362.75483075856
7171 -4360.708101151642
7172 -4359.830209266514
7173 -4358.291924118525
7174 -4358.181668859724
7175 -4357.151563934707
7176 -4357.650302686281
7177 -4357.293741135606
7178 -4358.159455506076
7179 -4358.656859022563
7180 -4359.992913984299
7181 -4361.149444570328
7182 -4362.928972653375
7183 -4364.51371539172
7184 -4366.701474226451
7185 -4367.996107464822
7186 -4370.637966823824
7187 -4372.301459021159
7188 -4375.240853023595
7189 -4377.274142645975
7190 -4382.079460984884
7191 -4384.631296303725
7192 -4390.057178800538
7193 -4392.721815223311
7194 -4398.384341734149
7195 -4401.232923850255
7196 -4406.93988931837
7197 -4411.394822040987
7198 -4416.826014766637
7199 -4420.913739286565
7200 -4426.139342262716
7201 -4429.865496223553
7202 -4434.629659053741
7203 -4437.667806092039
7204 -4441.525066884897
7205 -4443.840132848813
7206 -4446.76347568128
7207 -4448.172438047065
7208 -4450.338414365638
7209 -4450.967523595151
7210 -4452.128781396608
7211 -4451.703014310116
7212 -4451.928478391383
7213 -4450.600772461197
7214 -4450.113531999874
7215 -4448.040151150555
7216 -4446.808914508507
7217 -4444.924687895773
7218 -4443.079696074763
7219 -4440.71729529796
7220 -4437.89605672587
7221 -4435.023258215732
7222 -4431.631252786868
7223 -4428.383994931561
7224 -4426.115646082829
7225 -4421.295772561807
7226 -4418.523235866622
7227 -4414.956198376052
7228 -4412.138345242176
7229 -4406.398122809289
7230 -4403.307220077241
7231 -4399.165967479052
7232 -4393.815038640193
7233 -4389.570869452377
7234 -4384.559041279666
7235 -4380.746633069964
7236 -4376.25793335391
7237 -4371.190500183809
7238 -4367.408956916924
7239 -4362.967909317915
7240 -4359.811011446947
7241 -4356.004271066446
7242 -4353.461753853252
7243 -4350.141329339307
7244 -4348.183399090638
7245 -4345.739476810997
7246 -4344.447163244504
7247 -4342.960569059595
7248 -4341.981478615193
7249 -4340.78423981693
7250 -4340.175325003866
7251 -4339.367031397725
7252 -4339.216392701159
7253 -4338.612231751238
7254 -4338.862291627583
7255 -4338.287789980448
7256 -4338.464853207465
7257 -4337.768922339077
7258 -4337.645130691021
7259 -4337.045803234822
7260 -4337.030876453971
7261 -4336.305632475594
7262 -4336.388537911637
7263 -4335.473067489866
7264 -4335.47640139473
7265 -4334.113034246981
7266 -4333.62826921904
7267 -4331.923775577233
7268 -4331.444925119964
7269 -4329.609886550085
7270 -4328.663601148884
7271 -4325.825184917363
7272 -4324.538301769342
7273 -4321.558535782502
7274 -4320.017737040695
7275 -4316.724163204812
7276 -4315.029866489846
7277 -4311.336471971281
7278 -4308.562566330024
7279 -4305.751345980656
7280 -4302.590993819935
7281 -4299.943462884795
7282 -4296.839885823463
7283 -4293.97964050118
7284 -4290.319980907963
7285 -4287.135627134234
7286 -4283.685982886228
7287 -4280.645689890924
7288 -4277.263019036875
7289 -4274.26465617653
7290 -4271.22637022319
7291 -4268.409435438807
7292 -4265.576353424026
7293 -4262.977836771986
7294 -4260.43986858336
7295 -4258.137007402216
7296 -4256.258827862121
7297 -4254.333969003083
7298 -4253.026379864207
7299 -4251.481039699866
7300 -4250.97288137686
7301 -4249.708996165987
7302 -4249.972313996702
7303 -4249.604622176468
7304 -4250.630035108474
7305 -4250.975048763949
7306 -4252.856018594671
7307 -4253.841351128745
7308 -4256.052572710378
7309 -4257.841415085251
7310 -4261.090937427648
7311 -4263.902782220161
7312 -4267.720809495163
7313 -4269.790042511722
7314 -4274.234181452983
7315 -4278.343478466033
7316 -4283.431901136109
7317 -4286.29278758008
7318 -4291.857085629857
7319 -4296.920988565284
7320 -4301.101490112735
7321 -4306.346425732037
7322 -4310.733877349029
7323 -4316.452069002023
7324 -4323.268509813603
7325 -4326.996839685831
7326 -4333.659576857727
7327 -4339.33814171961
7328 -4345.615930146563
7329 -4350.997501179165
7330 -4357.015027116327
7331 -4361.829513455503
7332 -4367.313087632254
7333 -4371.644056122196
7334 -4376.761963982141
7335 -4380.380162914193
7336 -4384.681775378931
7337 -4387.560382033567
7338 -4391.25103096586
7339 -4393.444242317437
7340 -4396.428630046701
7341 -4397.96224856892
7342 -4400.411246659553
7343 -4401.45822023469
7344 -4403.233517565878
7345 -4403.632680282044
7346 -4404.811806871434
7347 -4404.848417581005
7348 -4405.532209676131
7349 -4405.038864133558
7350 -4405.313724190841
7351 -4404.313903266463
7352 -4404.286674880488
7353 -4403.28001968851
7354 -4402.598535678129
7355 -4401.32421509263
7356 -4400.338755813959
7357 -4398.910414270351
7358 -4398.175572812214
7359 -4396.008344635573
7360 -4395.285929462946
7361 -4393.488460561141
7362 -4392.038408275414
7363 -4390.240463941014
7364 -4388.700099947135
7365 -4386.882646087439
7366 -4385.319140655462
7367 -4382.86664345964
7368 -4382.053901877349
7369 -4379.754771193398
7370 -4378.540053291012
7371 -4376.408039416283
7372 -4375.623458420171
7373 -4373.962731001253
7374 -4373.57215367853
7375 -4372.185676621886
7376 -4372.138357299931
7377 -4371.25589535381
7378 -4371.560449473321
7379 -4371.222623751542
7380 -4372.196302470293
7381 -4372.206124628583
7382 -4373.14958467135
7383 -4373.504120811973
7384 -4375.030964555682
7385 -4375.316557929676
7386 -4377.093544652547
7387 -4377.550981354862
7388 -4379.425857414144
7389 -4380.01817646429
7390 -4381.541823278807
7391 -4382.747055030984
7392 -4384.320475032779
7393 -4385.006518711055
7394 -4386.594637443706
7395 -4387.638906581907
7396 -4389.065505875952
7397 -4389.551882262916
7398 -4391.442668912323
7399 -4391.819443680606
7400 -4393.721153931197
7401 -4393.990319085688
7402 -4395.63898268774
7403 -4395.893773559519
7404 -4397.14539045697
7405 -4397.214102671714
7406 -4398.362429757202
7407 -4398.425481382171
7408 -4399.242401409763
7409 -4399.118658545452
7410 -4399.816866277684
7411 -4399.470105078198
7412 -4400.044358738136
7413 -4399.445423837805
7414 -4399.945113138558
7415 -4399.16896753234
7416 -4399.55524249137
7417 -4398.793069839373
7418 -4399.140818270698
7419 -4398.311643713424
7420 -4398.678368851456
7421 -4398.007400130699
7422 -4398.378206710666
7423 -4397.959592334916
7424 -4398.446990223078
7425 -4398.05504351002
7426 -4398.515113549563
7427 -4398.171753350058
7428 -4398.874094666515
7429 -4398.632215035436
7430 -4399.548815248066
7431 -4399.498312032941
7432 -4400.611988590463
7433 -4400.836886959332
7434 -4402.043047079515
7435 -4402.436309455295
7436 -4403.87060934058
7437 -4404.326661535137
7438 -4405.96938883041
7439 -4406.693428991452
7440 -4408.357636659275
7441 -4409.874583588295
7442 -4411.763169344573
7443 -4412.700594508098
7444 -4414.739667952001
7445 -4415.784752271282
7446 -4418.743059689506
7447 -4419.832039129757
7448 -4421.96413850783
7449 -4423.092989587504
7450 -4426.073178107545
7451 -4427.191072438329
7452 -4429.171811395006
7453 -4430.328659830006
7454 -4433.182743091043
7455 -4434.129741159399
7456 -4436.134385292957
7457 -4437.05618200648
7458 -4439.562468275424
7459 -4440.285902889907
7460 -4441.986310721511
7461 -4442.648474990734
7462 -4444.731549951403
7463 -4445.012037154949
7464 -4446.263937812013
7465 -4446.68576328551
7466 -4447.743330684732
7467 -4447.581016290002
7468 -4448.45883430124
7469 -4448.001457006081
7470 -4448.238904631417
7471 -4447.330468842557
7472 -4447.062207556237
7473 -4445.928883449269
7474 -4445.163268674725
7475 -4443.670525161239
7476 -4442.963285398755
7477 -4440.349586561202
7478 -4439.380654123776
7479 -4436.314279335438
7480 -4434.89987416899
7481 -4432.178893112137
7482 -4429.253203955804
7483 -4426.296633069902
7484 -4424.037600758836
7485 -4419.288951899338
7486 -4416.86561366141
7487 -4411.682537010529
7488 -4408.936173727519
7489 -4403.295525958129
7490 -4400.324515077777
7491 -4394.34186100807
7492 -4391.253694161831
7493 -4385.139889405873
7494 -4380.227648890159
7495 -4374.172611331865
7496 -4369.270502201822
7497 -4363.275558119796
7498 -4358.70531652138
7499 -4353.043800578645
7500 -4348.633678367743
7501 -4343.269947475935
7502 -4339.084852256952
7503 -4333.842507663359
7504 -4329.89522558238
7505 -4324.963711714209
7506 -4321.174652246703
7507 -4316.322188309606
7508 -4312.76643812478
7509 -4308.151303535968
7510 -4304.687750856257
7511 -4300.289444477662
7512 -4297.031259579135
7513 -4292.806653513055
7514 -4289.549013435857
7515 -4285.398651152641
7516 -4282.571843460693
7517 -4278.499564789136
7518 -4275.81411442844
7519 -4272.305006270883
7520 -4269.866588524598
7521 -4266.470685891163
7522 -4264.232587929082
7523 -4261.340979207288
7524 -4260.187200481637
7525 -4257.316284448489
7526 -4255.535374808614
7527 -4253.580646981824
7528 -4251.715425213402
7529 -4250.009188842674
7530 -4248.465861402447
7531 -4246.799259049729
7532 -4245.894436812213
7533 -4243.741872265616
7534 -4243.149178127123
7535 -4241.594885152053
7536 -4240.978242895776
7537 -4239.516541035564
7538 -4238.925949091763
7539 -4237.435003072535
7540 -4236.992868666903
7541 -4235.674562038748
7542 -4235.225404135591
7543 -4234.002302908466
7544 -4233.631314500097
7545 -4232.44729348749
7546 -4232.137046863236
7547 -4231.010488051411
7548 -4230.731591309126
7549 -4229.733677291986
7550 -4229.555794958267
7551 -4228.502094593166
7552 -4228.33336310189
7553 -4227.413312665649
7554 -4227.384800057262
7555 -4226.479672858325
7556 -4226.638677743575
7557 -4225.852883774935
7558 -4226.095120488088
7559 -4225.495871518997
7560 -4225.718167876508
7561 -4225.175640049367
7562 -4225.57358147072
7563 -4225.101016646366
7564 -4225.591583485686
7565 -4225.262479783612
7566 -4225.874731437983
7567 -4225.605586589263
7568 -4226.244713982706
7569 -4226.053211794088
7570 -4226.792974552879
7571 -4226.548737278134
7572 -4227.32391094488
7573 -4227.26413086207
7574 -4228.161342408624
7575 -4228.09186922787
7576 -4229.133914708571
7577 -4229.193504184846
7578 -4230.217586352011
7579 -4230.416394803677
7580 -4231.515644932473
7581 -4231.772152896879
7582 -4232.85254533791
7583 -4233.096376901845
7584 -4234.175140769317
7585 -4234.250819363034
7586 -4235.345344526857
7587 -4235.471676604082
7588 -4236.459211647074
7589 -4236.641376907634
7590 -4237.586688882079
7591 -4237.612887497101
7592 -4238.562648574845
7593 -4238.576178565489
7594 -4239.408850181841
7595 -4239.382983001232
7596 -4240.152496016235
7597 -4240.022268597531
7598 -4240.678912669885
7599 -4240.486834355619
7600 -4241.087743458414
7601 -4240.769968642887
7602 -4241.391268062084
7603 -4240.975777911339
7604 -4241.436821641059
7605 -4240.874111649094
7606 -4241.291599771021
7607 -4240.735123480572
7608 -4240.951105442506
7609 -4240.321616059498
7610 -4240.474070522614
7611 -4239.535764781942
7612 -4239.633615661915
7613 -4238.796370048885
7614 -4238.583101777531
7615 -4237.683005546126
7616 -4237.599372540408
7617 -4236.447238153944
7618 -4236.370769266451
7619 -4235.252551565703
7620 -4235.226142258896
7621 -4234.329159272157
7622 -4233.894251684021
7623 -4232.937980141493
7624 -4232.675951002972
7625 -4231.842572920181
7626 -4231.698868692448
7627 -4230.889748808331
7628 -4230.943495601454
7629 -4230.238300336076
7630 -4230.233435030354
7631 -4229.592852606909
7632 -4229.943493126199
7633 -4229.392025679001
7634 -4229.915837445017
7635 -4229.527609734881
7636 -4230.305442468984
7637 -4230.137385714045
7638 -4231.130777593236
7639 -4231.11062998673
7640 -4232.462138357354
7641 -4232.644913201657
7642 -4234.441474422891
7643 -4234.937992429957
7644 -4236.972066189719
7645 -4237.714839896645
7646 -4240.317417172297
7647 -4241.316375704018
7648 -4244.040402945542
7649 -4245.323623116042
7650 -4248.495296387539
7651 -4250.032728576347
7652 -4253.550850037046
7653 -4255.305308774218
7654 -4259.072948128661
7655 -4262.041631144963
7656 -4264.803860851675
7657 -4267.925603608988
7658 -4272.271981584569
7659 -4275.503670284521
7660 -4278.482552742078
7661 -4282.076535713408
7662 -4286.504563159906
7663 -4289.939117739792
7664 -4294.439104947071
7665 -4298.073806771879
7666 -4302.69156980874
7667 -4306.281312145135
7668 -4310.717971949141
7669 -4314.314129032053
7670 -4318.696839849572
7671 -4322.090742261762
7672 -4326.523840433803
7673 -4329.939270396108
7674 -4334.206328614548
7675 -4337.385178539795
7676 -4341.931798092462
7677 -4345.284576305648
7678 -4349.729102093667
7679 -4353.233473812505
7680 -4357.689700027446
7681 -4361.17076963143
7682 -4365.814918925147
7683 -4369.510254388758
7684 -4374.013560025756
7685 -4377.779008516192
7686 -4382.349448622843
7687 -4385.960103728678
7688 -4390.667141219908
7689 -4394.215323800794
7690 -4397.37917253199
7691 -4401.251222486984
7692 -4405.993828152094
7693 -4408.252259839328
7694 -4412.791885056518
7695 -4416.259914587736
7696 -4419.377465100673
7697 -4422.821106541189
7698 -4427.132288885982
7699 -4429.005758712092
7700 -4432.914281397538
7701 -4434.830381057409
7702 -4438.56132596898
7703 -4440.175797113801
7704 -4443.463442703362
7705 -4444.733735002742
7706 -4447.634586191265
7707 -4448.591725937429
7708 -4451.123248760144
7709 -4451.662912575986
7710 -4453.621847767283
7711 -4453.844801859317
7712 -4455.269811289891
7713 -4455.117216577084
7714 -4455.712671696674
7715 -4455.302130721345
7716 -4455.693390541936
7717 -4455.002097093005
7718 -4454.688403483739
7719 -4453.658253577751
7720 -4453.294090886551
7721 -4451.589158376947
7722 -4451.013093941951
7723 -4449.446881664096
7724 -4448.098413546484
7725 -4446.38662838092
7726 -4445.410176691878
7727 -4442.935178192301
7728 -4441.929008608332
7729 -4439.40629606322
7730 -4438.403455013205
7731 -4436.222140211426
7732 -4435.200321362874
7733 -4432.9162062215
7734 -4431.633197043782
7735 -4430.176533908815
7736 -4428.846460197026
7737 -4427.104592665923
7738 -4426.12904967675
7739 -4424.888264592035
7740 -4424.362659223896
7741 -4423.397499709068
7742 -4423.069876008918
7743 -4422.34205430378
7744 -4422.467833816915
7745 -4422.052158433067
7746 -4422.47909448372
7747 -4422.519310192224
7748 -4423.129459532445
7749 -4423.670247559146
7750 -4424.604461069939
7751 -4425.130482952271
7752 -4426.385195270403
7753 -4427.328301387902
7754 -4428.838334809754
7755 -4430.377944522259
7756 -4432.081882902553
7757 -4433.700356349805
7758 -4435.771585669435
7759 -4437.519501673517
7760 -4439.711708915745
7761 -4441.560846564491
7762 -4444.133404111804
7763 -4446.493389747153
7764 -4448.934174713113
7765 -4451.17118063319
7766 -4453.741886178026
7767 -4455.882032710722
7768 -4458.521383363621
7769 -4460.943759699267
7770 -4463.834384654718
7771 -4466.493516914726
7772 -4469.468593223847
7773 -4472.179546619881
7774 -4475.282962354507
7775 -4478.109851951879
7776 -4481.272415571157
7777 -4484.001045802841
7778 -4486.923275243891
7779 -4488.681295330097
7780 -4491.571784617407
7781 -4494.218674986643
7782 -4497.250402283395
7783 -4498.869274911855
7784 -4501.743936694054
7785 -4504.053467158888
7786 -4505.932987243295
7787 -4508.119659555437
7788 -4509.873044712027
7789 -4511.81178365835
7790 -4513.23899949867
7791 -4514.731093430246
7792 -4515.948813025642
7793 -4517.101890314942
7794 -4518.183493146537
7795 -4518.853298462133
7796 -4519.53747186038
7797 -4519.893810597845
7798 -4520.303693001018
7799 -4520.277915835203
7800 -4520.476671074094
7801 -4519.894431243999
7802 -4519.949582629011
7803 -4519.061488194428
7804 -4518.718681066022
7805 -4517.805001410918
7806 -4517.115972472284
7807 -4516.163733943013
7808 -4515.658816367535
7809 -4514.128281141429
7810 -4513.401895437857
7811 -4511.990186372163
7812 -4510.581675208239
7813 -4509.231511525557
7814 -4508.449908919445
7815 -4506.54491517189
7816 -4505.857777358033
7817 -4504.529198341056
7818 -4503.445593753941
7819 -4502.287248552298
7820 -4501.039895183574
7821 -4499.932712990169
7822 -4498.66778834995
7823 -4497.668860968632
7824 -4496.678646226404
7825 -4495.548107619245
7826 -4494.438027529953
7827 -4493.532937501082
7828 -4492.45945859901
7829 -4491.146482649616
7830 -4490.713986424172
7831 -4489.051208206567
7832 -4488.180173762392
7833 -4486.62696212334
7834 -4485.911276425846
7835 -4484.436226092443
7836 -4483.400994513055
7837 -4481.427870171409
7838 -4479.979342994899
7839 -4477.916963758536
7840 -4476.329925831237
7841 -4474.121489902291
7842 -4472.263849222058
7843 -4469.604817405621
7844 -4467.387423062048
7845 -4464.607970141151
7846 -4462.310354089086
7847 -4459.433303283559
7848 -4457.069876905435
7849 -4453.749901348132
7850 -4451.074783798969
7851 -4447.693884097051
7852 -4445.012346544097
7853 -4441.540304925036
7854 -4438.786407974101
7855 -4435.30891578019
7856 -4433.513552458836
7857 -4430.083610997535
7858 -4427.510224338243
7859 -4424.277879491758
7860 -4421.974560507731
7861 -4418.939987921505
7862 -4416.831390684164
7863 -4414.934889759746
7864 -4413.156955297508
7865 -4411.089670360676
7866 -4409.992662016402
7867 -4408.407799481118
7868 -4408.210788021921
7869 -4407.104393903351
7870 -4407.416449655086
7871 -4407.441010086468
7872 -4408.307339854381
7873 -4408.867960652393
7874 -4410.930958572732
7875 -4411.999817871726
7876 -4415.1066424155
7877 -4417.60106570377
7878 -4420.022590391202
7879 -4423.182557898579
7880 -4427.574679191777
7881 -4429.664391180238
7882 -4434.713857921761
7883 -4439.217138668929
7884 -4443.229564960785
7885 -4448.019871792359
7886 -4453.915932717242
7887 -4457.167011713193
7888 -4463.295870189851
7889 -4468.938103731098
7890 -4475.747673101838
7891 -4481.559250364717
7892 -4488.312348667451
7893 -4493.685814456909
7894 -4497.814981216958
7895 -4502.976270656372
7896 -4508.91085378607
7897 -4513.615760005274
7898 -4519.001530432973
7899 -4523.185259899231
7900 -4527.93934505157
7901 -4531.421950296098
7902 -4535.500282378013
7903 -4538.024761505018
7904 -4541.314147320782
7905 -4543.263916860011
7906 -4545.740236458414
7907 -4546.643455554986
7908 -4548.341263596959
7909 -4548.456433817377
7910 -4549.204923607896
7911 -4548.487079133767
7912 -4548.320543968638
7913 -4546.342559611406
7914 -4544.864661490393
7915 -4542.619387786541
7916 -4540.286182931123
7917 -4536.631885872181
7918 -4534.744148925502
7919 -4529.922746014833
7920 -4527.221828264993
7921 -4521.493345088478
7922 -4518.407981642877
7923 -4511.966680917812
7924 -4508.369308914982
7925 -4501.284900208419
7926 -4497.389715114483
7927 -4492.38082995247
7928 -4485.941692911304
7929 -4480.698179829707
7930 -4473.84057532202
7931 -4468.56093022578
7932 -4462.068194858501
7933 -4456.985495942893
7934 -4450.616246257452
7935 -4443.852178335438
7936 -4438.012698934086
7937 -4431.682237083229
7938 -4426.755741874516
7939 -4421.19245924152
7940 -4417.182856997671
7941 -4412.699774839547
7942 -4409.841997649744
7943 -4406.228215693217
7944 -4404.088429527013
7945 -4401.424104512854
7946 -4400.221192083356
7947 -4398.468707904573
7948 -4398.102335898609
7949 -4397.10114873344
7950 -4397.535899888904
7951 -4397.459884736837
7952 -4398.668300103203
7953 -4399.369343586957
7954 -4401.220122859811
7955 -4402.318644784366
7956 -4404.591061833867
7957 -4406.113138920368
7958 -4408.798145216462
7959 -4410.16073158687
7960 -4412.839292416162
7961 -4414.528426501316
7962 -4417.349163758508
7963 -4418.366147876568
7964 -4420.799832779152
7965 -4421.911516096945
7966 -4423.539127546035
7967 -4424.065772929177
7968 -4425.149373759471
7969 -4425.117171524235
7970 -4425.969153621475
7971 -4425.459333343585
7972 -4425.282253218998
7973 -4423.725630844328
7974 -4422.968081626123
7975 -4420.779683375746
7976 -4419.550136728042
7977 -4416.978697788825
7978 -4415.233591482174
7979 -4412.205414189791
7980 -4410.108807030878
7981 -4406.776792535975
7982 -4404.368655283677
7983 -4400.813958513129
7984 -4398.084481187359
7985 -4394.725400795338
7986 -4392.377036890724
7987 -4389.080222067719
7988 -4387.213560465548
7989 -4384.424077091632
7990 -4382.689796569735
7991 -4380.198562263086
7992 -4379.257461697234
7993 -4376.568995526609
7994 -4375.428994293621
7995 -4374.148221250573
7996 -4373.796473768295
7997 -4372.523357061334
7998 -4372.76627752983
7999 -4372.329003844983
8000 -4373.379143282438
8001 -4373.628702341407
8002 -4375.029611702066
8003 -4375.922794850545
8004 -4378.282961172617
8005 -4380.12751820927
8006 -4383.292466716965
8007 -4385.509093180766
8008 -4389.017591912895
8009 -4391.952885788814
8010 -4396.191838964183
8011 -4399.118978809522
8012 -4403.736105687669
8013 -4405.953688161107
8014 -4411.213146020214
8015 -4415.202292047119
8016 -4418.860485428039
8017 -4423.018372689368
8018 -4426.776334919676
8019 -4431.00327843474
8020 -4434.821426626288
8021 -4439.206915697791
8022 -4442.91067932031
8023 -4446.8217507073
8024 -4450.259225201567
8025 -4453.842602089184
8026 -4457.000927964236
8027 -4459.892170828349
8028 -4462.485651327264
8029 -4464.926492982825
8030 -4467.96609435465
8031 -4468.912092685854
8032 -4471.092498663317
8033 -4471.852436975027
