"x-rfile"
"Iteration" "x"
("Iteration" "x")
3013 19.74221057327217
3014 19.17254639406222
3015 18.58313843234151
3016 17.18296029956364
3017 15.50420579817182
3018 14.17497534391837
3019 13.16268962636887
3020 12.01382164846122
3021 10.97014964410526
3022 9.955840613972853
3023 9.093968887086994
3024 8.454706504712846
3025 8.115779730637627
3026 7.753852095920863
3027 7.182409371487978
3028 6.562748318152089
3029 5.666860495208219
3030 4.564632834962055
3031 3.291451530044007
3032 1.777090336558963
3033 -0.05513231141137709
3034 -2.222755989343824
3035 -4.144923881218439
3036 -6.971613567075977
3037 -9.225072973514806
3038 -11.90113763172615
3039 -14.76157381670626
3040 -17.83417003478699
3041 -20.97988420160011
3042 -24.30547121205879
3043 -27.64863319550386
3044 -31.10927596749393
3045 -34.55163989362951
3046 -38.10184708750803
3047 -41.60218858834524
3048 -45.14419315060368
3049 -48.54729068076338
3050 -51.98167279971854
3051 -55.2410677403437
3052 -58.46273764612749
3053 -61.46039987658207
3054 -64.40517715503165
3055 -66.42781707069992
3056 -69.47161395820839
3057 -71.96850122486518
3058 -73.71430621263494
3059 -76.06855091419317
3060 -78.07440988811558
3061 -79.73097378657958
3062 -80.89607983023301
3063 -82.43026372008674
3064 -83.67851224018521
3065 -84.42006009234726
3066 -85.47241189422218
3067 -86.01697239213726
3068 -86.73117928991736
3069 -87.04313075429592
3070 -87.41541749802434
3071 -87.4992466646495
3072 -87.53778551638595
3073 -87.38661251553378
3074 -87.19020720487973
3075 -86.63707493309127
3076 -86.19189593228967
3077 -85.54119555811005
3078 -84.81671663722521
3079 -83.53115914349624
3080 -82.62522369860253
3081 -81.48586052194608
3082 -79.77608289716831
3083 -78.50727614100288
3084 -77.12868390981717
3085 -74.97268819724403
3086 -73.55149181819144
3087 -71.29062002089131
3088 -69.82476351843013
3089 -67.53646685774682
3090 -66.05585987716435
3091 -63.76225611140551
3092 -61.70048088549618
3093 -59.6425976286296
3094 -57.70277857588474
3095 -55.70698584499167
3096 -53.86207922133064
3097 -51.98087249004858
3098 -50.22278693543088
3099 -48.45754478609097
3100 -46.80357834412652
3101 -45.12764073947002
3102 -43.59147664936844
3103 -42.00653470471831
3104 -40.53666687323177
3105 -39.02053708381117
3106 -37.64195425452723
3107 -36.23089397517474
3108 -34.89198164417624
3109 -33.52564814093938
3110 -32.24145217478556
3111 -30.93091645574157
3112 -29.70191144924692
3113 -28.45156780319265
3114 -27.28244474055042
3115 -25.75336784843595
3116 -24.7203240382614
3117 -23.6481316484389
3118 -22.30464777929503
3119 -21.31188713102858
3120 -20.05007274640765
3121 -19.10386084205923
3122 -17.91778247898213
3123 -17.02284563384023
3124 -15.88410869285477
3125 -14.77882986614796
3126 -13.97873490611502
3127 -12.8617536957912
3128 -11.85944150642368
3129 -10.8281700861433
3130 -9.882260413068892
3131 -8.890555656252793
3132 -7.944996872764136
3133 -6.985024640440024
3134 -6.05375534280374
3135 -5.045675123593661
3136 -4.074171453854852
3137 -3.102545336260619
3138 -2.144827362553585
3139 -1.181756672149262
3140 -0.196355773000839
3141 0.7948311824654866
3142 1.783673931256587
3143 2.812840862816877
3144 3.802883686935878
3145 4.946540611538325
3146 5.893490565665253
3147 6.884417920772847
3148 7.858724239882527
3149 9.111528744917621
3150 10.05319773056236
3151 11.12101014842416
3152 12.34831359453314
3153 13.29779477880516
3154 14.29458417995452
3155 15.30996973315006
3156 16.56805799795469
3157 17.55561696028796
3158 18.54671221967555
3159 19.6027440306347
3160 20.67841346427844
3161 21.73414507487081
3162 22.82625031094407
3163 23.91289074370043
3164 25.19352531654757
3165 26.21197458039095
3166 27.25566250118894
3167 28.3065321511116
3168 29.37131427554926
3169 30.40266645433346
3170 31.68530683138045
3171 32.70707319255806
3172 33.76880260880215
3173 34.79889695892703
3174 36.0466924082469
3175 37.02654361665121
3176 38.20064601336187
3177 39.07222158134468
3178 40.1783610766574
3179 41.04842745684252
3180 42.16621295831932
3181 42.96779663610318
3182 44.09818436962671
3183 44.91816171529165
3184 45.96184299813543
3185 46.79144397408336
3186 47.8454396041121
3187 48.61811905061624
3188 49.58880652430318
3189 50.33189118105912
3190 51.29216935892049
3191 52.0028005782592
3192 52.88230690751803
3193 53.53402096366065
3194 54.43663152611018
3195 55.04922632329564
3196 55.84688577143802
3197 56.40682742174424
3198 57.21214526241953
3199 57.80744791732285
3200 58.53922772833015
3201 59.11245252943165
3202 59.88277147008772
3203 60.43125150680151
3204 61.01251181655546
3205 61.67023559327735
3206 62.21964157820407
3207 62.72563023315705
3208 63.30024301744133
3209 63.82030019337866
3210 64.39736641855478
3211 64.92591511033326
3212 65.52796536883113
3213 66.0592989173675
3214 66.62814878156671
3215 67.16275538130748
3216 67.76786170388193
3217 68.27027806755034
3218 68.80728679172802
3219 69.35950773374918
3220 69.92600623160256
3221 70.43863085471968
3222 70.88979506248467
3223 71.45752593104604
3224 72.08649119275432
3225 72.50962479062491
3226 73.15412531602196
3227 73.64163658870737
3228 74.35968883252212
3229 74.85856970556992
3230 75.60224164009054
3231 76.13040376607053
3232 76.94075979627547
3233 77.51420578190317
3234 78.14405691618592
3235 78.97698437226688
3236 79.68028923462883
3237 80.56820644532834
3238 81.28022418140142
3239 82.2285559628112
3240 82.99244218761373
3241 83.98539870105317
3242 84.80850958302814
3243 85.8870333793059
3244 86.74483349525681
3245 87.87576943300449
3246 89.06731611732087
3247 89.93865560396522
3248 91.20337613110735
3249 92.43090348819354
3250 93.7083011034251
3251 94.93361759103638
3252 96.26295317963104
3253 97.59034833463265
3254 98.91960103783862
3255 100.2213271717057
3256 101.6009283830529
3257 102.9277674834401
3258 104.3633433890906
3259 105.7894029236574
3260 107.2787177676844
3261 108.737474811935
3262 110.2935231677057
3263 111.8168349433794
3264 113.4063151081694
3265 114.9663405493032
3266 116.59229187331
3267 118.1427574791356
3268 119.7627218395965
3269 121.3539116209645
3270 123.0127963525823
3271 124.5920998523387
3272 126.2438997000571
3273 127.8386313935069
3274 129.5065635066211
3275 131.0915853227327
3276 132.4230576393705
3277 134.0860286908396
3278 135.7412628223184
3279 136.9949800259319
3280 138.7431810589326
3281 139.9607598570807
3282 141.7049101916873
3283 142.9402363574548
3284 144.6252599598137
3285 145.8349192260338
3286 147.1736073317225
3287 148.4201221777323
3288 149.7370152970098
3289 151.0073721352493
3290 152.2720818268235
3291 153.4644312836348
3292 154.6949605506061
3293 155.8249891949521
3294 156.992058217569
3295 158.085486623658
3296 159.1665349015583
3297 160.1781219033792
3298 161.1958956342685
3299 162.1653425288713
3300 162.8769255868241
3301 163.8754724112229
3302 164.5619566651217
3303 165.4915864545143
3304 166.141987541957
3305 166.9871892164228
3306 167.5588761310847
3307 168.3576172848053
3308 168.9172916920866
3309 169.6279687067821
3310 170.1410069228957
3311 170.7975231340645
3312 171.2726515367779
3313 171.9041198367426
3314 172.496033452196
3315 172.8774681513902
3316 173.498824300027
3317 174.027935094115
3318 174.5817856391613
3319 175.0826829686924
3320 175.6402867125438
3321 176.1531972510842
3322 176.7096986535705
3323 177.2172514098642
3324 177.8007411392755
3325 178.3148913747798
3326 178.8947888159217
3327 179.4279335870636
3328 179.9893689793954
3329 180.4902673958765
3330 181.0689513513665
3331 181.5867306941657
3332 182.1393582581449
3333 182.6382425126113
3334 183.1858558628362
3335 183.6472485214271
3336 184.2003952534903
3337 184.6471067267488
3338 185.1668441723846
3339 185.7456082152319
3340 186.1989381398877
3341 186.7132849092693
3342 187.1434323905002
3343 187.5915481676198
3344 188.0821241766515
3345 188.4857918731574
3346 188.9842696665394
3347 189.3594568462253
3348 189.7929828525991
3349 190.1273596460838
3350 190.5164473603059
3351 190.7611957698074
3352 191.103580522207
3353 191.2756648116983
3354 191.5299940616879
3355 191.6483030279878
3356 191.8204570115981
3357 191.8705080599479
3358 191.9732316526314
3359 191.9609724675249
3360 192.0175020424111
3361 191.9149780668007
3362 191.9683734072581
3363 191.8247833802639
3364 191.7926917053438
3365 191.5582189553911
3366 191.4731304611012
3367 191.2857510355731
3368 191.1431590876146
3369 190.8981939836856
3370 190.693959141803
3371 190.3785508750869
3372 190.1155756229563
3373 189.7345058771315
3374 189.418391119065
3375 189.0023614437253
3376 188.6568946729166
3377 188.3862073998523
3378 188.0122979336905
3379 187.7216959938856
3380 187.3017778361
3381 186.9840851569746
3382 186.5413921050414
3383 186.2214649382511
3384 185.7654633046641
3385 185.2431211016395
3386 184.82262808286
3387 184.3340572208711
3388 183.9270400674353
3389 183.4875808273633
3390 183.1495735760763
3391 182.77118707728
3392 182.4938574613667
3393 182.1849340941423
3394 181.9599098405773
3395 181.7039365298712
3396 181.5163442783144
3397 181.2928046796169
3398 181.1601245640533
3399 180.9651191697389
3400 180.8503306715032
3401 180.6750699311388
3402 180.5743793564688
3403 180.3997332938254
3404 180.3017726238624
3405 180.1287382985336
3406 180.0676616879801
3407 179.8732923546579
3408 179.8047175299021
3409 179.6235899187188
3410 179.5480846487169
3411 179.3631677041037
3412 179.2777027733641
3413 179.0695577603346
3414 178.9690995374288
3415 178.7951845469826
3416 178.6091027260047
3417 178.4387313607379
3418 178.295380227945
3419 178.0987030721284
3420 177.8847541085171
3421 177.7075871748953
3422 177.537580982363
3423 177.2708458043564
3424 177.11809023045
3425 176.8960986531944
3426 176.6385081924895
3427 176.4297295698579
3428 176.135434805781
3429 175.9084964441102
3430 175.692094351733
3431 175.3228542515226
3432 175.1094452573871
3433 174.7375851428585
3434 174.5117010309185
3435 174.1259106082188
3436 173.8798421473288
3437 173.4609429790466
3438 173.2075377828113
3439 172.7664954609912
3440 172.4963711076007
3441 172.0611308372058
3442 171.7829700852707
3443 171.3290701183967
3444 171.0338671965937
3445 170.5622311838591
3446 170.2688266441339
3447 169.7993908189898
3448 169.5092955681532
3449 169.0294532111646
3450 168.7360639241228
3451 168.2690550681953
3452 167.9760279729304
3453 167.5199548853614
3454 167.2404547390154
3455 166.7890879384763
3456 166.5088959498639
3457 166.075745483891
3458 165.803642830873
3459 165.3903994935379
3460 165.1321246404676
3461 164.7409573630625
3462 164.3932526875922
3463 164.1697755888447
3464 163.8671338965493
3465 163.6594696554686
3466 163.3998879249414
3467 163.2180263599185
3468 163.003135897232
3469 162.8522477544927
3470 162.6846405038253
3471 162.5651763084452
3472 162.4483082531213
3473 162.3575235612107
3474 162.2745348216319
3475 162.2041324558672
3476 162.1863006717836
3477 162.1592746668983
3478 162.1673392681657
3479 162.1827105459192
3480 162.238797625302
3481 162.2892404914631
3482 162.3752072478216
3483 162.4466361617337
3484 162.5522385600546
3485 162.640142925311
3486 162.7661457306807
3487 162.8630221791825
3488 163.0008215987459
3489 163.1119306939109
3490 163.2512256078029
3491 163.3640440243901
3492 163.5201820386582
3493 163.637887036119
3494 163.7908126974052
3495 163.8947015263039
3496 164.0460004107582
3497 164.1500617149985
3498 164.315360086949
3499 164.418751942702
3500 164.5636690860385
3501 164.6593924820544
3502 164.7949080645804
3503 164.8643565322834
3504 164.9992095747772
3505 165.0870786224465
3506 165.2271373661627
3507 165.2934320231381
3508 165.4056433071096
3509 165.486464107135
3510 165.593143431773
3511 165.6561664044829
3512 165.7517803349555
3513 165.8065371004265
3514 165.8997800987948
3515 165.9308230967844
3516 166.02094904469
3517 166.0630152675837
3518 166.1407350232986
3519 166.1623960825511
3520 166.2224836338077
3521 166.2329069665091
3522 166.298093225299
3523 166.2995817258054
3524 166.3374915010194
3525 166.3183440608472
3526 166.3481908323465
3527 166.3290732358916
3528 166.3772507896594
3529 166.3529369062933
3530 166.3749168414009
3531 166.3406439427301
3532 166.3763349961875
3533 166.3398397039407
3534 166.3609667210328
3535 166.3369797822009
3536 166.3602768967966
3537 166.3411176115342
3538 166.3693390219397
3539 166.3418340987622
3540 166.3767525100891
3541 166.3731242195154
3542 166.4143789793351
3543 166.4025642391459
3544 166.4304424673897
3545 166.4207849255636
3546 166.4690430740019
3547 166.4819926582097
3548 166.5503637487025
3549 166.5796963483978
3550 166.6720074037426
3551 166.719215843872
3552 166.8171687600532
3553 166.8788994781713
3554 167.0046897105957
3555 167.0785030433735
3556 167.1499769196179
3557 167.2258148590492
3558 167.3653903124622
3559 167.4755107263898
3560 167.6191881822309
3561 167.7240209904347
3562 167.8811787455504
3563 167.9975889604276
3564 168.1504561194568
3565 168.2657306054878
3566 168.4244632881561
3567 168.5465057561923
3568 168.7021798536684
3569 168.8660638868473
3570 169.0212620221222
3571 169.171423586317
3572 169.3156000966217
3573 169.4686358175724
3574 169.6139520282287
3575 169.7616443911693
3576 169.8999987676258
3577 170.0322555130434
3578 170.2013258181955
3579 170.3016725734659
3580 170.477755809859
3581 170.6034930957721
3582 170.7448541260764
3583 170.8832633075779
3584 171.0565642962975
3585 171.1601908200063
3586 171.3510957583511
3587 171.465162244673
3588 171.665251159232
3589 171.7855188818162
3590 171.9934473840814
3591 172.121184978188
3592 172.3437682058835
3593 172.4838557724428
3594 172.6819247707285
3595 172.8500177570537
3596 173.0550133539684
3597 173.2349083638935
3598 173.4503866770519
3599 173.6330045325541
3600 173.8556093644241
3601 174.0465688548862
3602 174.2761156814722
3603 174.4672451842375
3604 174.7114692770342
3605 174.9276239463282
3606 175.1800229980494
3607 175.3934729695684
3608 175.6002481088372
3609 175.8584997493287
3610 176.1313634897552
3611 176.3019749551235
3612 176.590381557281
3613 176.7667673923499
3614 177.0524619219768
3615 177.285715482126
3616 177.4810592571212
3617 177.7289565160124
3618 177.9784754092138
3619 178.1936251208016
3620 178.4258326961852
3621 178.6355883495195
3622 178.8602458222566
3623 179.0520738368978
3624 179.2630246535593
3625 179.4491788947407
3626 179.6444186528738
3627 179.8064906472751
3628 179.9839941720093
3629 180.1376736391806
3630 180.2956496873945
3631 180.4136297403238
3632 180.5438385349044
3633 180.6401281110159
3634 180.7479730893901
3635 180.8164395983692
3636 180.8991557503369
3637 180.9363826719259
3638 181.0017584840304
3639 181.0263867926512
3640 181.0552547908759
3641 181.0518320322797
3642 181.0628424705483
3643 181.0341770434104
3644 181.0215713581384
3645 180.9726644725848
3646 180.9385615568206
3647 180.8648418727543
3648 180.8096456965075
3649 180.7306744021461
3650 180.6591686531347
3651 180.5522450309333
3652 180.4635280243184
3653 180.3446698112584
3654 180.243510259303
3655 180.1125563737828
3656 180.0060807736917
3657 179.8641399079492
3658 179.7413042275124
3659 179.5949030277367
3660 179.4741508282613
3661 179.3295115985592
3662 179.198277196693
3663 179.0395478032907
3664 178.9029674359833
3665 178.7428828405403
3666 178.6180382691372
3667 178.4601725155145
3668 178.3284531677614
3669 178.1684889410063
3670 178.0406478578578
3671 177.8878823447804
3672 177.7655578054304
3673 177.6268909937649
3674 177.5084197749985
3675 177.3784352471681
3676 177.2687574175287
3677 177.1548446155041
3678 177.0711852356486
3679 176.9808281275408
3680 176.9182454375287
3681 176.8365844080916
3682 176.800382173948
3683 176.7651108129599
3684 176.7364302970194
3685 176.7206220581302
3686 176.7239462317888
3687 176.7161592507897
3688 176.7341922571358
3689 176.7439822443019
3690 176.7687668943566
3691 176.7787105818516
3692 176.8091340595091
3693 176.8102642070894
3694 176.8346314604864
3695 176.8416254570971
3696 176.8579045318104
3697 176.8553282005695
3698 176.8568174627099
3699 176.830295440028
3700 176.8116178540072
3701 176.765806287623
3702 176.7247736061141
3703 176.6636507737036
3704 176.613944460501
3705 176.5370127517265
3706 176.4840376123104
3707 176.3802787485257
3708 176.2994190849043
3709 176.2061843402254
3710 176.1257198134691
3711 176.0257283666011
3712 175.9485001948083
3713 175.8545891933986
3714 175.7872963943582
3715 175.7297677841772
3716 175.6694626277727
3717 175.5809560061103
3718 175.547216693779
3719 175.458638077749
3720 175.4025562117363
3721 175.3180004262941
3722 175.3034747262974
3723 175.2447513409256
3724 175.2140063445907
3725 175.1710316451419
3726 175.1595253279966
3727 175.1344949711203
3728 175.1577660584628
3729 175.1611545685638
3730 175.184489731948
3731 175.194878377508
3732 175.2307857238312
3733 175.2468950267747
3734 175.2882450340961
3735 175.3204227542413
3736 175.3696749178517
3737 175.4000416246018
3738 175.4388358259042
3739 175.4799293881777
3740 175.5300808632258
3741 175.5491148538524
3742 175.5902784486756
3743 175.6070161564019
3744 175.6292603208469
3745 175.6387548187954
3746 175.6508537492975
3747 175.6545535811473
3748 175.6558128037213
3749 175.639920504518
3750 175.6293070376492
3751 175.599227220922
3752 175.5774779376655
3753 175.55313137488
3754 175.5127456671574
3755 175.473944362819
3756 175.4475662419552
3757 175.3910032139117
3758 175.3390980024227
3759 175.284877038364
3760 175.2248237103263
3761 175.1565482621813
3762 175.0837429559128
3763 175.0001881457252
3764 174.9231188253627
3765 174.8448669584503
3766 174.767904824115
3767 174.676943860117
3768 174.5950648431933
3769 174.4971605457598
3770 174.4140104577367
3771 174.3212947093469
3772 174.2278577079689
3773 174.1274806121465
3774 174.0381153401418
3775 173.9312827831773
3776 173.843364803405
3777 173.7422546684185
3778 173.6486068559237
3779 173.5350675952589
3780 173.4374286247022
3781 173.3236487762821
3782 173.2172441027221
3783 173.0957804609579
3784 172.9918113456807
3785 172.8720459681283
3786 172.7950316024894
3787 172.670202999224
3788 172.56756533981
3789 172.4893574026014
3790 172.3895168331412
3791 172.3064021622607
3792 172.2181857565209
3793 172.1462780978405
3794 172.0557732398448
3795 171.9957639888924
3796 171.9274120641872
3797 171.8622550698028
3798 171.8109398800406
3799 171.7582423378083
3800 171.7227594468389
3801 171.6927186725948
3802 171.666990265576
3803 171.644356259572
3804 171.6391800578947
3805 171.6191658571403
3806 171.6207157541426
3807 171.6115863105827
3808 171.6183635251751
3809 171.6168454515369
3810 171.6308938859542
3811 171.6287811017029
3812 171.6435702996421
3813 171.6454873225285
3814 171.6577331341927
3815 171.6604571058482
3816 171.673816373972
3817 171.6732185799229
3818 171.6822491812824
3819 171.6836510243978
3820 171.6923322442659
3821 171.6867197831889
3822 171.695057235043
3823 171.6988196905649
3824 171.7069068048846
3825 171.7099700323705
3826 171.7244577660545
3827 171.7317170843183
3828 171.7526109465601
3829 171.76418769422
3830 171.7834206849012
3831 171.7989128870346
3832 171.8259316172556
3833 171.845066233921
3834 171.875629142026
3835 171.9049745904873
3836 171.9337207797349
3837 171.9726925333039
3838 172.0219061994118
3839 172.0695118853706
3840 172.1203466362234
3841 172.1734905000447
3842 172.2240286563214
3843 172.2825745192261
3844 172.3454963380091
3845 172.4050811774279
3846 172.4717734843629
3847 172.5399624541799
3848 172.6123268612731
3849 172.6841581783709
3850 172.7588635881939
3851 172.8366752879402
3852 172.9219510176199
3853 173.0042600840698
3854 173.0900321457757
3855 173.1640177529827
3856 173.232761680408
3857 173.3029692229394
3858 173.3729405236228
3859 173.4426642525542
3860 173.502351278904
3861 173.5678128396784
3862 173.620355895251
3863 173.6694321045278
3864 173.7090393623441
3865 173.7509250708815
3866 173.7829764445065
3867 173.8222788077587
3868 173.8474034593804
3869 173.8719704812149
3870 173.8904375384814
3871 173.9094619732651
3872 173.9213042932874
3873 173.9322284817999
3874 173.9314846581034
3875 173.929047030293
3876 173.9189112808449
3877 173.9108225527791
3878 173.8932362317447
3879 173.8766683734604
3880 173.8558850094097
3881 173.8311967149531
3882 173.8053468880822
3883 173.765399778203
3884 173.7206454333487
3885 173.6730869324167
3886 173.620314242259
3887 173.5741660763961
3888 173.5139808273797
3889 173.45734322575
3890 173.3928110387443
3891 173.3350934060418
3892 173.274746118253
3893 173.2190080190404
3894 173.1529471562069
3895 173.0913271370606
3896 173.0216206162729
3897 172.9625560765504
3898 172.8951962793168
3899 172.841115644245
3900 172.786094649849
3901 172.7396464352537
3902 172.6838898791576
3903 172.6461948539697
3904 172.6027375533772
3905 172.5811790860631
3906 172.548606020713
3907 172.5411456720094
3908 172.5230237506817
3909 172.5190701175952
3910 172.5133254974078
3911 172.5221378666972
3912 172.5240066378341
3913 172.5386236508583
3914 172.5455149697809
3915 172.5665787124458
3916 172.5802611109912
3917 172.6067946937173
3918 172.6258778113785
3919 172.6611967285457
3920 172.6870457381126
3921 172.7243863420076
3922 172.7514855424879
3923 172.7861296657285
3924 172.8177999173713
3925 172.8637481997676
3926 172.8916731915337
3927 172.9381669964652
3928 172.97404648452
3929 173.0180251728547
3930 173.0556292100459
3931 173.0992975252636
3932 173.1314260786435
3933 173.1701843418429
3934 173.1994606732988
3935 173.2331213665178
3936 173.2640131023147
3937 173.2942542112293
3938 173.317435178762
3939 173.3381015864716
3940 173.3486693126443
3941 173.3614762534442
3942 173.3607085742978
3943 173.3654700910679
3944 173.358268187778
3945 173.3604544460858
3946 173.3451602145432
3947 173.3286620006877
3948 173.3002409079714
3949 173.2817771892472
3950 173.2550670586807
3951 173.2279446376415
3952 173.1935742240361
3953 173.1634318684484
3954 173.1313122446706
3955 173.0982832542336
3956 173.0636688995411
3957 173.0237350344478
3958 172.989165730268
3959 172.9397815128384
3960 172.8962913920143
3961 172.8405150336418
3962 172.7964141801481
3963 172.7413679650351
3964 172.6906297125428
3965 172.6263546316216
3966 172.5682278388643
3967 172.5071965044544
3968 172.446465861926
3969 172.3826692780713
3970 172.315344473301
3971 172.2478356573057
3972 172.1838925123086
3973 172.1196266976402
3974 172.0588454094977
3975 172.009222078877
3976 171.942768590389
3977 171.882376997143
3978 171.8361876659197
3979 171.7727149526256
3980 171.718773849979
3981 171.6792900319827
3982 171.6260821038049
3983 171.5900708497194
3984 171.5425894187635
3985 171.5084892211396
3986 171.4634575191604
3987 171.4308975143116
3988 171.3839276350385
3989 171.3502845968393
3990 171.3077184362518
3991 171.2737439924214
3992 171.226339491155
3993 171.1925879104776
3994 171.1427496776945
3995 171.0964421559073
3996 171.0654649590318
3997 171.0179923894498
3998 170.9792989922747
3999 170.9337873812336
4000 170.8918847714561
4001 170.8543532628453
4002 170.8057042372251
4003 170.7651119152703
4004 170.7120024761984
4005 170.6598209158762
4006 170.6272126990075
4007 170.5737603788885
4008 170.5344126578253
4009 170.4865180922274
4010 170.4498405447996
4011 170.4042712525255
4012 170.3688085086237
4013 170.3195977346578
4014 170.2839545682931
4015 170.237650308767
4016 170.2044994014567
4017 170.16090047365
4018 170.1306280861504
4019 170.0906619791615
4020 170.0590701944488
4021 170.0208619120215
4022 169.9964176638318
4023 169.9614911095454
4024 169.9378902280662
4025 169.9098717922699
4026 169.8912203544041
4027 169.8702115633761
4028 169.8529943187643
4029 169.831738030648
4030 169.817208937613
4031 169.7962789080454
4032 169.7779380134676
4033 169.7648418562565
4034 169.7496971363195
4035 169.7265783513601
4036 169.7019740070522
4037 169.6886422978642
4038 169.6612675483782
4039 169.6418977884874
4040 169.6095156553338
4041 169.5768176550966
4042 169.5563230756081
4043 169.5241853116617
4044 169.4890547970505
4045 169.4704682964274
4046 169.4351866451061
4047 169.4089894153226
4048 169.3693829629397
4049 169.3243563290197
4050 169.2955198637479
4051 169.2548080178971
4052 169.2277761797601
4053 169.1893953952212
4054 169.1657650235348
4055 169.1267742221768
4056 169.103601735759
4057 169.0729790871894
4058 169.0515159411247
4059 169.0218927359425
4060 169.0057782098279
4061 168.9762157194303
4062 168.9613484158563
4063 168.9367073272452
4064 168.9216676883576
4065 168.9015876290182
4066 168.8923524884854
4067 168.8879638685904
4068 168.882174402437
4069 168.8795079199741
4070 168.8740677117703
4071 168.8787943273147
4072 168.8741810724269
4073 168.8831581139202
4074 168.8844760283117
4075 168.8952876883249
4076 168.8939958409093
4077 168.9051418586094
4078 168.9057250517804
4079 168.9189143727667
4080 168.9227418177306
4081 168.9352986495273
4082 168.9374781925347
4083 168.9484739122304
4084 168.9566566051637
4085 168.9695328150759
4086 168.9697235172458
4087 168.983088571854
4088 168.9820863601371
4089 168.9906141930973
4090 168.9964425640345
4091 169.0047452140759
4092 169.0046951677838
4093 169.0145329836592
4094 169.0166853020525
4095 169.0265040430849
4096 169.0303674613899
4097 169.038854851311
4098 169.0387503094725
4099 169.0514736633498
4100 169.0491780296721
4101 169.0622781350698
4102 169.0540089139901
4103 169.0741106316003
4104 169.0675298247406
4105 169.0839703119298
4106 169.0900229828365
4107 169.1093128502799
4108 169.112544671781
4109 169.131628674157
4110 169.1287676198674
4111 169.1613967712796
4112 169.160970488111
4113 169.1782324419502
4114 169.1780196190189
4115 169.2012691358833
4116 169.1975275109745
4117 169.2108845213954
4118 169.2065454082253
4119 169.2186286276736
4120 169.2142392065126
4121 169.2228042063512
4122 169.2077964368812
4123 169.2077392817444
4124 169.1884170690454
4125 169.1894446089376
4126 169.1674047552956
4127 169.1609922765894
4128 169.1385082600269
4129 169.1218656654497
4130 169.0939246468068
4131 169.0740218736593
4132 169.0429863107661
4133 169.0320532738007
4134 168.9945032423906
4135 168.9899274616419
4136 168.9657674298983
4137 168.9526485090242
4138 168.9228395122425
4139 168.9227300578013
4140 168.8952430097387
4141 168.9010608770762
4142 168.8844373806558
4143 168.889285850375
4144 168.8763231402385
4145 168.8892972867601
4146 168.8857388593296
4147 168.9071009375347
4148 168.9120062243846
4149 168.9377616463442
4150 168.9472804084617
4151 168.9770005943246
4152 168.9885491456121
4153 169.0323430269249
4154 169.0422422996626
4155 169.0843049290795
4156 169.1055163536184
4157 169.1666202277689
4158 169.1916623069062
4159 169.2423055033427
4160 169.2887633870141
4161 169.3420370581052
4162 169.3764305571976
4163 169.4548706238616
4164 169.4836158470715
4165 169.5442121131167
4166 169.6031282458168
4167 169.6587167675689
4168 169.6974236586356
4169 169.7786416381725
4170 169.8095973363823
4171 169.8669157295015
4172 169.9240899456166
4173 169.9810295751831
4174 170.016759528732
4175 170.0931261117602
4176 170.1183145306384
4177 170.1889817742531
4178 170.2120114005722
4179 170.2611460052441
4180 170.302055090122
4181 170.3470336756859
4182 170.3726600650047
4183 170.4299841667961
4184 170.4485778691547
4185 170.4886539394086
4186 170.5212727131145
4187 170.5617607709788
4188 170.5775301747721
4189 170.6235629998181
4190 170.630321102033
4191 170.6559476128774
4192 170.6653303638892
4193 170.6955286539632
4194 170.6930690718638
4195 170.7161186647575
4196 170.7132151551785
4197 170.7306624779133
4198 170.7265188526011
4199 170.7413817927883
4200 170.7298090544845
4201 170.7419332925645
4202 170.7311154434985
4203 170.7390752576598
4204 170.7236234635462
4205 170.7330979954986
4206 170.7199036755592
4207 170.7254435176114
4208 170.7072997712311
4209 170.7133986616096
4210 170.7000900772305
4211 170.7121983392504
4212 170.7012502146449
4213 170.7127529993708
4214 170.7010529735576
4215 170.7188157044145
4216 170.7134406443089
4217 170.7380541893806
4218 170.742325943414
4219 170.7718043524945
4220 170.7851581070441
4221 170.8153474894677
4222 170.8213182120359
4223 170.8639781026959
4224 170.8706289219355
4225 170.9210512135139
4226 170.9291193646925
4227 170.967917212227
4228 170.9983413653155
4229 171.0415661439926
4230 171.0586711904462
4231 171.1196042005857
4232 171.1386423800549
4233 171.2030170696366
4234 171.2244570438422
4235 171.2908212217107
4236 171.3147491250178
4237 171.3869413145916
4238 171.4087307404909
4239 171.4890926583648
4240 171.5167796469235
4241 171.5943512550467
4242 171.6237082976326
4243 171.7045926565023
4244 171.7522679271642
4245 171.8066817531653
4246 171.8530406957047
4247 171.9076610378432
4248 171.9524865917259
4249 172.0234700975061
4250 172.044267519755
4251 172.1072086674798
4252 172.1262889704439
4253 172.1931230942833
4254 172.2085679847656
4255 172.268755388859
4256 172.2823040991939
4257 172.3389861809645
4258 172.3481320311193
4259 172.3998989279844
4260 172.4077064105832
4261 172.4566196331825
4262 172.4632622011836
4263 172.5028889869417
4264 172.5157314813778
4265 172.550900724215
4266 172.5548708541912
4267 172.5979382509183
4268 172.5976253368796
4269 172.6297705062602
4270 172.6398279331759
4271 172.672134478844
4272 172.6778849959591
4273 172.7218818829743
4274 172.722844990413
4275 172.7549284762325
4276 172.763118705217
4277 172.7959919689886
4278 172.8053052376905
4279 172.8363078072535
4280 172.8472828279974
4281 172.8777568810706
4282 172.8905619246408
4283 172.9219420432917
4284 172.9322710024436
4285 172.9646874122945
4286 172.9762974537058
4287 173.0060123637443
4288 173.0188600204917
4289 173.0483983730232
4290 173.0567013032878
4291 173.0883271847975
4292 173.0964493883301
4293 173.1259158273437
4294 173.1312009167139
4295 173.1595255777171
4296 173.165188219447
4297 173.1963385607355
4298 173.2016533689381
4299 173.2316387397846
4300 173.2327742328258
4301 173.2586610341517
4302 173.2536353682329
4303 173.2768826208071
4304 173.2716881082426
4305 173.2914978729099
4306 173.2878620415801
4307 173.310286170211
4308 173.3009419158082
4309 173.3198878476707
4310 173.3103490650389
4311 173.3304507928749
4312 173.327456861272
4313 173.3467566430618
4314 173.3400141729014
4315 173.3526347850185
4316 173.3419272469378
4317 173.3561385639876
4318 173.3527859094934
4319 173.3697183719409
4320 173.360341162579
4321 173.379961293828
4322 173.3658067001669
4323 173.3842693516311
4324 173.3793295989578
4325 173.3945406335859
4326 173.3817336102843
4327 173.3970002266843
4328 173.3826546967534
4329 173.3977313261999
4330 173.3832003729997
4331 173.3960611355498
4332 173.3812494664249
4333 173.395959085392
4334 173.3818303892062
4335 173.398336315423
4336 173.3825171689779
4337 173.3945071843282
4338 173.3749395942255
4339 173.3895760091944
4340 173.3746410152462
4341 173.3861874288476
4342 173.3716048628372
4343 173.38063038805
4344 173.3613539972332
4345 173.3727108644164
4346 173.3559049286654
4347 173.3656543616825
4348 173.3546911106982
4349 173.3675439341523
4350 173.3505931974483
4351 173.3616126604817
4352 173.3453290596944
4353 173.3608937965138
4354 173.3470028925839
4355 173.3633477873289
4356 173.3522609097105
4357 173.3690710612844
4358 173.3545334194271
4359 173.3665213946922
4360 173.344583459376
4361 173.3561097241877
4362 173.3360621461379
4363 173.3462540432329
4364 173.3291158769731
4365 173.3440628076311
4366 173.3265154968169
4367 173.338574544787
4368 173.3189211552328
4369 173.3315372445804
4370 173.3115938216393
4371 173.3257124334207
4372 173.3100454910198
4373 173.328052932305
4374 173.3127981200686
4375 173.3331647091759
4376 173.3223267638282
4377 173.3430906712287
4378 173.3325222830433
4379 173.3555834039001
4380 173.3517799712261
4381 173.3741124233154
4382 173.3738810359768
4383 173.3965353834874
4384 173.3915067875364
4385 173.4126477319893
4386 173.4107954350163
4387 173.4300941933756
4388 173.4304870791708
4389 173.4539541212752
4390 173.4490131005465
4391 173.4754110060132
4392 173.4671887072561
4393 173.4882614899456
4394 173.4782836113382
4395 173.5006621370426
4396 173.4958891059235
4397 173.513329255161
4398 173.5117060551528
4399 173.5332600081593
4400 173.5292399705496
4401 173.5452687495546
4402 173.5400454198933
4403 173.5533704076902
4404 173.5410818791583
4405 173.558011377692
4406 173.5439797082012
4407 173.5586974315358
4408 173.5453503577018
4409 173.5594458690286
4410 173.5411984090224
4411 173.5465952236415
4412 173.5223198055964
4413 173.5320642018991
4414 173.5097505879073
4415 173.5115910855196
4416 173.4848920954799
4417 173.4845770108945
4418 173.4546929245985
4419 173.4497568937151
4420 173.4140048519389
4421 173.4064986074337
4422 173.3712129786039
4423 173.3596506738752
4424 173.3222338616958
4425 173.3071665872347
4426 173.2703526049907
4427 173.2592557445044
4428 173.2259113466323
4429 173.2183632564065
4430 173.1851835106341
4431 173.1817786419069
4432 173.1561162485927
4433 173.156661286083
4434 173.1387571370742
4435 173.1493780680296
4436 173.1381483515442
4437 173.154802117945
4438 173.1488183927863
4439 173.1715904339781
4440 173.1661042119586
4441 173.1954369230165
4442 173.2032793572707
4443 173.2446561438832
4444 173.2583075971894
4445 173.3001552553054
4446 173.3202319857588
4447 173.3663783925651
4448 173.3852365803689
4449 173.4360586220972
4450 173.4635056685149
4451 173.5197165095304
4452 173.5497861510364
4453 173.6078600602461
4454 173.6442826845148
4455 173.7026407363057
4456 173.7388931412809
4457 173.8025084559163
4458 173.8379921283812
4459 173.9036588114112
4460 173.948684858862
4461 174.0134047570799
4462 174.061133785972
4463 174.1255881912839
4464 174.1742266936767
4465 174.2457297303554
4466 174.293854798378
4467 174.3700187227587
4468 174.4207108718672
4469 174.4979592532788
4470 174.5449415010118
4471 174.6236633112163
4472 174.682676623712
4473 174.7596938065636
4474 174.8019959884653
4475 174.8878964869982
4476 174.9470542769893
4477 175.0163448798508
4478 175.0748828124778
4479 175.1375382358451
4480 175.2007604603029
4481 175.265270014078
4482 175.3244922510386
4483 175.3890864355335
4484 175.4472558245718
4485 175.5121968511449
4486 175.5567887789051
4487 175.6176214551065
4488 175.6671298663
4489 175.7280783494808
4490 175.7684249801171
4491 175.832792181383
4492 175.8578230041719
4493 175.9197971727645
4494 175.9464617497571
4495 175.9961087366684
4496 176.0246333783157
4497 176.0744477046275
4498 176.0919177036775
4499 176.1303786978256
4500 176.1462691538741
4501 176.1815711066686
4502 176.1899562726737
4503 176.2196776100526
4504 176.2219100933924
4505 176.257578304318
4506 176.2627361011479
4507 176.2908078591934
4508 176.2920080828025
4509 176.3180687527565
4510 176.3178305265463
4511 176.3349718982136
4512 176.3399792960722
4513 176.363634782072
4514 176.3634296388552
4515 176.3885737103989
4516 176.3926137807177
4517 176.4203766809611
4518 176.4185406001448
4519 176.4453868159797
4520 176.4418200320804
4521 176.4654945249828
4522 176.4613835606476
4523 176.4807874811681
4524 176.4793670680289
4525 176.4948538192225
4526 176.496184053799
4527 176.5248870451174
4528 176.5188579682832
4529 176.5444853353731
4530 176.541924309451
4531 176.5662382774318
4532 176.5549737590302
4533 176.5790015802052
4534 176.5806907095439
4535 176.6085183199474
4536 176.601341029806
4537 176.628730155666
4538 176.6329307016587
4539 176.6554303829965
4540 176.6554638713741
4541 176.6719887872528
4542 176.6652691200271
4543 176.6891597101319
4544 176.6777934077106
4545 176.6944966701763
4546 176.68394435802
4547 176.6962439344401
4548 176.6815879964195
4549 176.6926871114366
4550 176.6838127268788
4551 176.6918297495106
4552 176.6692087344736
4553 176.6801296895663
4554 176.6608338697309
4555 176.6622873912758
4556 176.6399102960498
4557 176.6436609490775
4558 176.623497518317
4559 176.6239912518528
4560 176.6011526443608
4561 176.6140703988894
4562 176.5990706779265
4563 176.6098052407432
4564 176.5937209916946
4565 176.6080589868567
4566 176.5950035041099
4567 176.6155730561927
4568 176.6168766431096
4569 176.6481207227603
4570 176.6597830145903
4571 176.7054092110675
4572 176.7227137419268
4573 176.7748478094385
4574 176.8005748104962
4575 176.8620634485926
4576 176.8978721568776
4577 176.9643145627624
4578 177.0092638324263
4579 177.089377013497
4580 177.1441583130067
4581 177.2368762613013
4582 177.2990290798629
4583 177.3897399979553
4584 177.4588858053333
4585 177.544487918959
4586 177.6075833747869
4587 177.705949978666
4588 177.7733316046052
4589 177.8600337588021
4590 177.9205072011689
4591 178.0086069563536
4592 178.0600223616968
4593 178.1349665502686
4594 178.1826974218827
4595 178.2461118869481
4596 178.2828725305874
4597 178.3251003531986
4598 178.348638632002
4599 178.3875618379323
4600 178.3919379294793
4601 178.4232670919633
4602 178.4256435251243
4603 178.4513758820487
4604 178.4558092335963
4605 178.4838091191853
4606 178.4812865171436
4607 178.5068491170234
4608 178.5036383759817
4609 178.5284745503864
4610 178.5133161728277
4611 178.5306376818851
4612 178.5185657362842
4613 178.5346863875862
4614 178.5261477926723
4615 178.5485237816665
4616 178.5422681742379
4617 178.5617569841233
4618 178.5576254449899
4619 178.578756751354
4620 178.5716716564874
4621 178.5947376425203
4622 178.5924537837775
4623 178.6085350721229
4624 178.6056781970329
4625 178.6298151264863
4626 178.6301550252126
4627 178.6603540715871
4628 178.662862193069
4629 178.6932153853206
4630 178.7011702679117
4631 178.7265141953508
4632 178.7371456993627
4633 178.7676330794571
4634 178.7782921668424
4635 178.8117280949842
4636 178.8200666195315
4637 178.8396229547333
4638 178.8495057857045
4639 178.8844326897577
4640 178.8846434988822
4641 178.9189117615847
4642 178.9233000248617
4643 178.9642161058576
4644 178.9652632657542
4645 179.0072015829841
4646 179.014530309936
4647 179.0569187184788
4648 179.0593336614324
4649 179.101142444744
4650 179.1112224408725
4651 179.165095157943
4652 179.1990005296906
4653 179.2465002776
4654 179.2938468117778
4655 179.3589270884004
4656 179.385102935955
4657 179.4591431596553
4658 179.5124676099128
4659 179.569546479943
4660 179.6388488910009
4661 179.7172343806258
4662 179.7600849598785
4663 179.8502983689904
4664 179.9136617020079
4665 179.9794062861292
4666 180.0548175141851
4667 180.148457100594
4668 180.1910671499177
4669 180.2811897428556
4670 180.3343073624511
4671 180.3957467219718
4672 180.4581921833713
4673 180.5350010708338
4674 180.5622356422332
4675 180.6310766637257
4676 180.665423639695
4677 180.7142396960361
4678 180.7456422222257
4679 180.786352066137
4680 180.812997480887
4681 180.8436569826719
4682 180.8542681827869
4683 180.8774136670581
4684 180.8800720430122
4685 180.9026607543396
4686 180.90167111919
4687 180.9187755119349
4688 180.9159836825162
4689 180.93270613135
4690 180.9243806094353
4691 180.9378706588418
4692 180.9197225767147
4693 180.9270981892891
4694 180.9066128719593
4695 180.9140015015686
4696 180.8956638512932
4697 180.9014248855809
4698 180.8826100554512
4699 180.8949831620099
4700 180.8803776103187
4701 180.8920437226733
4702 180.8828999976737
4703 180.9018000647216
4704 180.8985517002308
4705 180.9191058957294
4706 180.9177862824112
4707 180.9388790410534
4708 180.940073293349
4709 180.9675619442684
4710 180.973341616121
4711 181.0027303267784
4712 181.0035830549986
4713 181.0444675797362
4714 181.0434769603472
4715 181.0914380173458
4716 181.0976912337944
4717 181.1555627422272
4718 181.1696758345403
4719 181.2352060273421
4720 181.2530934159822
4721 181.3256843571256
4722 181.3486574629564
4723 181.4212417240554
4724 181.4448641878367
4725 181.5168528145291
4726 181.5317292588281
4727 181.598677807621
4728 181.6296868537111
4729 181.6881602236908
4730 181.7042596647292
4731 181.7518881943207
4732 181.7755281538251
4733 181.8176334619991
4734 181.8336987157208
4735 181.865210932461
4736 181.8686866769938
4737 181.9003633706842
4738 181.8920790035546
4739 181.909764491993
4740 181.9029207395901
4741 181.914938897162
4742 181.8976267498523
4743 181.9072679925701
4744 181.8912411850184
4745 181.8948403773937
4746 181.8731159316355
4747 181.8755982135267
4748 181.8541989843919
4749 181.8572015795207
4750 181.8263613556355
4751 181.8301608837131
4752 181.8111250639521
4753 181.8090748183621
4754 181.7889214216773
4755 181.7934586601474
4756 181.7654216923844
4757 181.7688853798874
4758 181.7476664811541
4759 181.7518968282378
4760 181.722713308629
4761 181.7251079287416
4762 181.7057115658161
4763 181.7112061638778
4764 181.6967444907382
4765 181.7036292063341
4766 181.6935268417917
4767 181.7052738863916
4768 181.6925451400872
4769 181.7019897268782
4770 181.6899850608049
4771 181.706768055916
4772 181.7005898565626
4773 181.7272374279407
4774 181.7324619234041
4775 181.7681424357991
4776 181.7776595112065
4777 181.8122617725626
4778 181.8226361709702
4779 181.8598600147347
4780 181.8709044137196
4781 181.9052821259594
4782 181.9153788706886
4783 181.9569883066299
4784 181.9710402185923
4785 182.0087246025251
4786 182.0180629388782
4787 182.0551084503135
4788 182.0566937988033
4789 182.0828248435077
4790 182.0813064923278
4791 182.1011028299155
4792 182.0927901659031
4793 182.1090031186907
4794 182.0917675859648
4795 182.1014274779179
4796 182.0843524424671
4797 182.0877876049285
4798 182.0557718218388
4799 182.0449188521052
4800 182.0089813304105
4801 181.9856780745443
4802 181.9342647526466
4803 181.9065014898491
4804 181.8470753904588
4805 181.8095249512572
4806 181.740653460801
4807 181.6816852465348
4808 181.5979524589978
4809 181.5327435922983
4810 181.4728893379718
4811 181.3925903787379
4812 181.2812037832594
4813 181.2300324641112
4814 181.1095847672856
4815 181.047830432622
4816 180.9206033590841
4817 180.847570958171
4818 180.7105961218633
4819 180.6328674680522
4820 180.4868016852553
4821 180.4123731381639
4822 180.2569231376188
4823 180.130034119688
4824 179.9801300012595
4825 179.8659061577606
4826 179.7310353350367
4827 179.6200784427391
4828 179.4899285238966
4829 179.3807832990941
4830 179.2558463287457
4831 179.1549188627648
4832 179.0426987914567
4833 178.9519499981306
4834 178.8446801410237
4835 178.754480428533
4836 178.6487211673816
4837 178.5606041331983
4838 178.4638225484919
4839 178.3760010851331
4840 178.27302386782
4841 178.1890476804127
4842 178.0882050094293
4843 178.0045557942476
4844 177.908416560352
4845 177.8335238813587
4846 177.7481322816527
4847 177.6793796538075
4848 177.6161783807391
4849 177.539897563621
4850 177.4533148487322
4851 177.4116643679057
4852 177.3294559655148
4853 177.2833257935967
4854 177.1979308927085
4855 177.1539699190998
4856 177.0617956239383
4857 177.0115533360942
4858 176.9147012143843
4859 176.8688013873197
4860 176.771882152409
4861 176.6965216653195
4862 176.6262772900006
4863 176.5498569189895
4864 176.4575006680947
4865 176.4158742922885
4866 176.3285932078013
4867 176.2538105380217
4868 176.1871528637022
4869 176.1010940090047
4870 175.9976294690917
4871 175.9398160402577
4872 175.8298484318844
4873 175.7678672065762
4874 175.6448183949405
4875 175.580837917046
4876 175.4503792725644
4877 175.3743044433687
4878 175.2331480843727
4879 175.1571150045163
4880 175.0119644131713
4881 174.9358761504789
4882 174.786028027559
4883 174.7040074542428
4884 174.5469964858608
4885 174.4599023193004
4886 174.3065076126739
4887 174.2219825253048
4888 174.0686149970978
4889 173.9867393472515
4890 173.829503841011
4891 173.7103328962651
4892 173.6079977321387
4893 173.4794640236158
4894 173.3383663673001
4895 173.264709830768
4896 173.1294825386014
4897 173.0161731308661
4898 172.9300659797249
4899 172.816987328053
4900 172.6996571870511
4901 172.6401701446806
4902 172.5346907287371
4903 172.4782472975265
4904 172.3740584592194
4905 172.3266652431161
4906 172.2395204423513
4907 172.1918123361773
4908 172.1109165698892
4909 172.0771135489218
4910 171.9982793480523
4911 171.9668739933113
4912 171.9238254849046
4913 171.8907595997076
4914 171.855709976666
4915 171.8361089780293
4916 171.8049148150739
4917 171.792270278943
4918 171.7711108045559
4919 171.7681844589397
4920 171.7585375727391
4921 171.7714652764707
4922 171.7765687238803
4923 171.8003465367021
4924 171.8204243164416
4925 171.8628946586606
4926 171.8918324269507
4927 171.9403498878325
4928 171.9746220531565
4929 172.032791712295
4930 172.0780985002602
4931 172.1345947788598
4932 172.1812278415352
4933 172.2401260420813
4934 172.2846378977513
4935 172.3423652895941
4936 172.3916332909811
4937 172.4497778383061
4938 172.4928807929425
4939 172.5477904018834
4940 172.5886090028411
4941 172.6384478358975
4942 172.6724150059929
4943 172.7175743040156
4944 172.7438654345598
4945 172.7827982440019
4946 172.7879940561845
4947 172.8067081251628
4948 172.7998465784465
4949 172.8001937678412
4950 172.7804381207118
4951 172.7649622564267
4952 172.7256197626012
4953 172.6992683171339
4954 172.646292303493
4955 172.6059744067107
4956 172.5412833430948
4957 172.4885373173211
4958 172.4141056208251
4959 172.3486068133964
4960 172.2626747656486
4961 172.1801206080046
4962 172.0921548770718
4963 172.0064249639946
4964 171.9051328510072
4965 171.8213304312734
4966 171.7267554117045
4967 171.6436360945052
4968 171.551020104178
4969 171.4715589695185
4970 171.3832951670645
4971 171.3179466202228
4972 171.2444241606854
4973 171.1885000086968
4974 171.1274916200746
4975 171.0871814565122
4976 171.0432748369105
4977 171.016613352482
4978 170.9885819557156
4979 170.9750311478284
4980 170.9618225977522
4981 170.964561337852
4982 170.9672225690348
4983 170.9796683663303
4984 171.0046564677021
4985 171.0408422166344
4986 171.0646684526423
4987 171.1376356851378
4988 171.1760956529232
4989 171.2688576742691
4990 171.3134189323679
4991 171.4128225524841
4992 171.4998200398311
4993 171.6060191371421
4994 171.6920409670488
4995 171.7901201813162
4996 171.8741159400979
4997 171.9657403135591
4998 172.0514654449199
4999 172.1442383151508
5000 172.2265098452951
5001 172.3133489007676
5002 172.3803202950434
5003 172.4508868754905
5004 172.5119599710758
5005 172.5838921675162
5006 172.6392821398013
5007 172.7047616720874
5008 172.757190352509
5009 172.8195696479199
5010 172.863711851445
5011 172.9223656096106
5012 172.9611224683782
5013 173.0011898190273
5014 173.046298096004
5015 173.0812595380428
5016 173.1112644154955
5017 173.1466413090256
5018 173.181364030512
5019 173.2188919026121
5020 173.2567888938884
5021 173.2958236426771
5022 173.3345178160624
5023 173.3893836072384
5024 173.4141671211688
5025 173.477985351648
5026 173.5229389203263
5027 173.5891215932079
5028 173.6404050682452
5029 173.7109812508839
5030 173.7711614378134
5031 173.8530217618867
5032 173.9194430240468
5033 174.0109505348571
5034 174.0879531551645
5035 174.1816357141932
5036 174.2584633532965
5037 174.3603315637143
5038 174.4440786781871
5039 174.5453582482003
5040 174.6366675235535
5041 174.7441177930852
5042 174.8315391367797
5043 174.9417886503755
5044 175.0339699739059
5045 175.1461301272028
5046 175.2373449869652
5047 175.3497894685514
5048 175.444076118407
5049 175.5609586612026
5050 175.6603909048017
5051 175.7769633324347
5052 175.8743052023096
5053 175.9948222693301
5054 176.0925574325374
5055 176.2092610284434
5056 176.3053928006989
5057 176.4171580522736
5058 176.5165284676902
5059 176.6353786865202
5060 176.7313394202715
5061 176.84739726648
5062 176.9658940107063
5063 177.0731157713193
5064 177.1594776522421
5065 177.264798524584
5066 177.3479509802372
5067 177.4461113872151
5068 177.5253438566168
5069 177.6242012190766
5070 177.6977463286988
5071 177.7941449147301
5072 177.8665227372397
5073 177.9633559468307
5074 178.035106471141
5075 178.125172188796
5076 178.1866205391804
5077 178.2686396211195
5078 178.326071096089
5079 178.4024458994224
5080 178.4499667009649
5081 178.5151460550896
5082 178.5526252054925
5083 178.6126225380222
5084 178.6447921882657
5085 178.6940963600217
5086 178.7233297248023
5087 178.7658230620093
5088 178.7817090955768
5089 178.817659581618
5090 178.8297339565872
5091 178.8562937387938
5092 178.8557106072071
5093 178.8752030047702
5094 178.8758134304619
5095 178.8930852604025
5096 178.8918002899298
5097 178.9165199070621
5098 178.917953145559
5099 178.9377697718459
5100 178.9335862848585
5101 178.9498529574424
5102 178.9445856355893
5103 178.9598942177808
5104 178.9558050554294
5105 178.9709598382633
5106 178.9665658757338
5107 178.9857824323708
5108 178.9850509238048
5109 179.0009039332043
5110 178.9979333309099
5111 179.0133091387649
5112 179.0110918582881
5113 179.0245906386096
5114 179.0264753200901
5115 179.0555321757796
5116 179.0648301675272
5117 179.0968460175304
5118 179.114091051484
5119 179.1535240549325
5120 179.1789987839297
5121 179.2242085604676
5122 179.2590849927303
5123 179.3156080082379
5124 179.3546959222614
5125 179.4170188632306
5126 179.457684833061
5127 179.5247255566351
5128 179.5668009213007
5129 179.6286650506042
5130 179.6803208434951
5131 179.7459050663983
5132 179.7910737081478
5133 179.8522100682292
5134 179.8957885676543
5135 179.9585124426254
5136 179.9955356074314
5137 180.0490894737102
5138 180.0770896843899
5139 180.1246549324229
5140 180.1516450107925
5141 180.1925313103362
5142 180.2056635923319
5143 180.242274206816
5144 180.253751631144
5145 180.279853255762
5146 180.289592398504
5147 180.3123110869331
5148 180.3122887777812
5149 180.3319681195436
5150 180.3291194388461
5151 180.3381046205381
5152 180.3325220406628
5153 180.3401632246446
5154 180.333521581544
5155 180.3462145282102
5156 180.3333891605513
5157 180.3395147526792
5158 180.324001164715
5159 180.3248852606627
5160 180.3079446812702
5161 180.3067626311568
5162 180.2791900248864
5163 180.2741474782377
5164 180.2502694872946
5165 180.2459729301902
5166 180.2276008880129
5167 180.2216243544459
5168 180.2064721546849
5169 180.2097725131048
5170 180.195019161039
5171 180.2054011238246
5172 180.1968540475322
5173 180.2077088407604
5174 180.2011970257075
5175 180.2130167543108
5176 180.2101848504531
5177 180.2224989072356
5178 180.221541808736
5179 180.2339994328306
5180 180.2310435714677
5181 180.2412874142247
5182 180.2405008910454
5183 180.2482392003017
5184 180.2431100431758
5185 180.2516793068048
5186 180.2408361180692
5187 180.2359450585367
5188 180.2208199077606
5189 180.2265017310075
5190 180.2093765784842
5191 180.2085240720329
5192 180.1885301986593
5193 180.1813490964927
5194 180.1638382282639
5195 180.1586760049248
5196 180.1323874924886
5197 180.1236266671418
5198 180.0950174192591
5199 180.0763738850381
5200 180.048256402745
5201 180.0393370004118
5202 180.0136181248664
5203 180.0008829977018
5204 179.972660249149
5205 179.9641726546557
5206 179.9364322752801
5207 179.9232951642397
5208 179.8952231070898
5209 179.878917204271
5210 179.8478392950499
5211 179.8309368970981
5212 179.8006845586945
5213 179.7815521528968
5214 179.7449316919958
5215 179.7263398562174
5216 179.6852236485896
5217 179.6579896438952
5218 179.6117890490574
5219 179.5798544619552
5220 179.5274354689206
5221 179.5065991440565
5222 179.4466731917209
5223 179.4073314200769
5224 179.3637740434961
5225 179.3214774867139
5226 179.2779001711352
5227 179.2273188631972
5228 179.1804985208866
5229 179.1308433108518
5230 179.0815767728186
5231 179.0277026799784
5232 178.9791954371508
5233 178.9253312909825
5234 178.877035015564
5235 178.8329335057744
5236 178.7890842309183
5237 178.7505011690477
5238 178.7103512459646
5239 178.6766372723641
5240 178.6419659074199
5241 178.6236906363598
5242 178.5985338954034
5243 178.579266563804
5244 178.5568078591706
5245 178.5480192835949
5246 178.5303373218362
5247 178.5238408857905
5248 178.5057219889501
5249 178.4988922138227
5250 178.4830526160936
5251 178.4828425733543
5252 178.4680654115621
5253 178.4727309241059
5254 178.4587191558981
5255 178.4618301047518
5256 178.4518071649108
5257 178.455113841263
5258 178.4468127891754
5259 178.4497210083931
5260 178.4340515612156
5261 178.4326581437684
5262 178.4124792998678
5263 178.4121224163247
5264 178.379981013871
5265 178.3625230310415
5266 178.3223749172254
5267 178.2997338866602
5268 178.2657578780482
5269 178.2211714666323
5270 178.1624100276241
5271 178.1339511777088
5272 178.065187687489
5273 178.0082119025856
5274 177.9557558389478
5275 177.8863372575973
5276 177.8256913391425
5277 177.7491147627338
5278 177.6799565932283
5279 177.5924451013709
5280 177.5177657539794
5281 177.4246338396069
5282 177.3069512269979
5283 177.2412883064269
5284 177.1167917189096
5285 177.0105361948275
5286 176.8859787514764
5287 176.7813485801003
5288 176.6597226077686
5289 176.55291697659
5290 176.4285620682226
5291 176.3199467503565
5292 176.1928430010399
5293 176.0782358594726
5294 175.9505650442612
5295 175.8416426563078
5296 175.7190436089858
5297 175.6103188327245
5298 175.4912868352583
5299 175.3851979329925
5300 175.2670253546003
5301 175.166479744589
5302 175.0496431515072
5303 174.9504148575797
5304 174.8385170089259
5305 174.7444528159511
5306 174.6348138104747
5307 174.5436489166607
5308 174.4438819254618
5309 174.3579040960801
5310 174.2651494737618
5311 174.1916338722081
5312 174.1027495471702
5313 174.0268658423353
5314 173.939506375999
5315 173.8903076377518
5316 173.8045713902954
5317 173.7388810970722
5318 173.6773965376112
5319 173.6125003366002
5320 173.5358736827173
5321 173.4799805404824
5322 173.414088035655
5323 173.3581968486259
5324 173.2818530262328
5325 173.2204877646508
5326 173.1443060285537
5327 173.0761647187088
5328 172.9994698257669
5329 172.9296779416626
5330 172.8468321628827
5331 172.7722040720777
5332 172.6787314571112
5333 172.5969316490127
5334 172.5006794986035
5335 172.416098670643
5336 172.3147298406766
5337 172.2207792717188
5338 172.109388364289
5339 172.0095192271345
5340 171.9015115603724
5341 171.8006981759422
5342 171.6783912209372
5343 171.5750268458061
5344 171.4567979066299
5345 171.3840876788296
5346 171.2576039773864
5347 171.1440709227493
5348 171.0584656504489
5349 170.9439185313125
5350 170.8600629987876
5351 170.7503689661915
5352 170.6662547914719
5353 170.5525873036487
5354 170.4738846280628
5355 170.3727165189543
5356 170.2947821432348
5357 170.2327137961232
5358 170.1251867605298
5359 170.0733767195721
5360 169.9769714042843
5361 169.9271063921186
5362 169.8421755013095
5363 169.8009853076971
5364 169.7251084708273
5365 169.6671619722256
5366 169.6194991374382
5367 169.5676171602771
5368 169.5097196551987
5369 169.4797765097253
5370 169.4510929381338
5371 169.4291170805245
5372 169.3951062702452
5373 169.3813624903694
5374 169.3612213691779
5375 169.3558241703409
5376 169.340701813275
5377 169.3324482166185
5378 169.3194840386088
5379 169.3126405715534
5380 169.2998860830989
5381 169.2951693028654
5382 169.2782951084039
5383 169.2701437251053
5384 169.2480027365452
5385 169.2369507411169
5386 169.2083027811877
5387 169.1829243828293
5388 169.1392678105879
5389 169.1060549545127
5390 169.0590176352774
5391 169.0177136134897
5392 168.9659092750204
5393 168.9147562678578
5394 168.849443936108
5395 168.7882386122536
5396 168.7145071432338
5397 168.6471059122581
5398 168.5686717284137
5399 168.4942830943922
5400 168.4068181868764
5401 168.3270637915867
5402 168.2337655302419
5403 168.1484851026741
5404 168.055654130164
5405 167.9749667985895
5406 167.8881496095152
5407 167.8080918696699
5408 167.724573800814
5409 167.6411826788644
5410 167.549534114137
5411 167.4730135418635
5412 167.382763353121
5413 167.2979032976347
5414 167.2111441197146
5415 167.1287781971702
5416 167.0426128723536
5417 166.9616052433673
5418 166.856085712944
5419 166.7823895436387
5420 166.6969190789358
5421 166.613709059242
5422 166.517802286623
5423 166.407741460385
5424 166.3219333874547
5425 166.2376050717909
5426 166.1373781787067
5427 166.0446651432904
5428 165.9421514568577
5429 165.8460884064257
5430 165.7417736627584
5431 165.6433609044797
5432 165.5444132684841
5433 165.4539175641685
5434 165.3594389621508
5435 165.2730952726801
5436 165.1857172171032
5437 165.1051110657386
5438 165.0198586716598
5439 164.9492857192765
5440 164.8814786586396
5441 164.815816768214
5442 164.7630509820093
5443 164.7111573881689
5444 164.6644917049533
5445 164.6411915709267
5446 164.6099360163356
5447 164.5953475967995
5448 164.5808457245572
5449 164.5863488285275
5450 164.5860155835074
5451 164.6070167765687
5452 164.6198545077738
5453 164.6434835691377
5454 164.664792957907
5455 164.6947217210073
5456 164.7193242816593
5457 164.7545967073181
5458 164.7845860053093
5459 164.8180830741295
5460 164.8476535392759
5461 164.8827135649999
5462 164.9080994403556
5463 164.9355826311138
5464 164.9469238448382
5465 164.9633811371986
5466 164.972414984005
5467 164.9897333590937
5468 164.9964626634546
5469 164.9967878928453
5470 164.9899425335624
5471 164.9790569963769
5472 164.9595209199369
5473 164.9425753298787
5474 164.9182908538967
5475 164.8937141429008
5476 164.8643930765369
5477 164.8421981616773
5478 164.8159369725628
5479 164.8021563751217
5480 164.7881274020767
5481 164.7775220869806
5482 164.7674404873243
5483 164.7723715149814
5484 164.7772535912072
5485 164.7858964855131
5486 164.7951997719788
5487 164.8263643431691
5488 164.8582821819194
5489 164.9007829137464
5490 164.9425195930263
5491 165.0039646664641
5492 165.0542241847222
5493 165.1172709847109
5494 165.1702714187941
5495 165.233805800907
5496 165.2876604617489
5497 165.3490928015684
5498 165.4069093731936
5499 165.4745279699709
5500 165.5330396011292
5501 165.5964893812878
5502 165.6504031275815
5503 165.7083851537435
5504 165.756580737372
5505 165.8120380213975
5506 165.8600790972338
5507 165.9120476655189
5508 165.9562538185256
5509 166.0062550174243
5510 166.0443393278147
5511 166.0868994637551
5512 166.1209804566381
5513 166.160100264389
5514 166.1861083924109
5515 166.2195274013567
5516 166.240194771188
5517 166.2596250962167
5518 166.28223481746
5519 166.3018436255406
5520 166.3217701220661
5521 166.3460622689107
5522 166.3704318516345
5523 166.3953670692382
5524 166.4280587505456
5525 166.4559005075076
5526 166.4895907611743
5527 166.5256074201777
5528 166.5698035144921
5529 166.6084830551312
5530 166.6568564634111
5531 166.6977992529241
5532 166.7564185688743
5533 166.8065535227871
5534 166.8715459455299
5535 166.9201144200434
5536 166.9834931030282
5537 167.0375242848832
5538 167.1037220547971
5539 167.1839487607908
5540 167.2257079881473
5541 167.3037538545192
5542 167.366649930801
5543 167.4167941869654
5544 167.4734657411251
5545 167.5375134653302
5546 167.5867673108343
5547 167.6230884898116
5548 167.6638734036487
5549 167.711218182388
5550 167.746502301043
5551 167.7833363910289
5552 167.8096194310575
5553 167.8446086840693
5554 167.8717695998149
5555 167.9023353422269
5556 167.9188784063893
5557 167.9498224500176
5558 167.9616718881953
5559 167.9864509512467
5560 168.0047578475405
5561 168.0342185485124
5562 168.0587295338025
5563 168.0951331405939
5564 168.1218148761683
5565 168.1604476277944
5566 168.2015292313896
5567 168.2569369833689
5568 168.3024335009656
5569 168.361180409568
5570 168.4222343278283
5571 168.4945705561867
5572 168.5664054729597
5573 168.6486317892247
5574 168.7329614064313
5575 168.833500662501
5576 168.9268604785442
5577 169.0307508251504
5578 169.1409251362675
5579 169.2590853485043
5580 169.3721925367539
5581 169.4997595423496
5582 169.6252901091157
5583 169.7605968145782
5584 169.8886071139224
5585 170.030580107254
5586 170.1700259796688
5587 170.3177160593773
5588 170.4638344718279
5589 170.6148212285339
5590 170.7591279841965
5591 170.911771814271
5592 171.0589365490717
5593 171.2125988603078
5594 171.3636458874592
5595 171.5117027408592
5596 171.6529563255592
5597 171.7994994373888
5598 171.9340644503567
5599 172.0697292247446
5600 172.1926064792891
5601 172.3270801776968
5602 172.4398267607794
5603 172.5581538270688
5604 172.6558506813025
5605 172.7597768580329
5606 172.8446089624753
5607 172.9268968511976
5608 172.9949030043917
5609 173.0636019043396
5610 173.1137739905724
5611 173.1543248168766
5612 173.2004194551025
5613 173.2454131886809
5614 173.2728415452287
5615 173.3108393710608
5616 173.3214335014044
5617 173.341408125747
5618 173.3510470596016
5619 173.3685153432833
5620 173.3729617686675
5621 173.3824922783887
5622 173.3844613474339
5623 173.3911543838667
5624 173.394859771887
5625 173.4034945937846
5626 173.4079110781101
5627 173.4196327554948
5628 173.4147447697007
5629 173.4277636307112
5630 173.4369831694673
5631 173.461587601521
5632 173.4738158525908
5633 173.4944797632243
5634 173.5155516232014
5635 173.5449138174237
5636 173.5740865752369
5637 173.6128323542891
5638 173.643588652622
5639 173.6846453470915
5640 173.7132621807127
5641 173.7440793453968
5642 173.7890101507483
5643 173.8170024425719
5644 173.8627311722872
5645 173.8986167840937
5646 173.9474054151005
5647 173.9878096090102
5648 174.0207823802322
5649 174.082325602792
5650 174.1164733779847
5651 174.1670626118693
5652 174.2315387274345
5653 174.2873503923018
5654 174.3623958537821
5655 174.4211705084423
5656 174.4939720946101
5657 174.574537756936
5658 174.6191494996636
5659 174.6959065466388
5660 174.7578560942098
5661 174.8300298109634
5662 174.8923363313452
5663 174.9627551227267
5664 175.0240480033938
5665 175.0849049823662
5666 175.1407368475494
5667 175.1972352870457
5668 175.2496805927956
5669 175.3054344252273
5670 175.3482968542973
5671 175.399118713752
5672 175.4426869916134
5673 175.4920364936299
5674 175.523035927684
5675 175.5626697583572
5676 175.593395228398
5677 175.6292494904135
5678 175.6507174934708
5679 175.6786231447809
5680 175.6906460186149
5681 175.7077222629443
5682 175.7088261557152
5683 175.7159033103839
5684 175.706106416318
5685 175.7079050487014
5686 175.6925831071778
5687 175.6887790222011
5688 175.6592473726853
5689 175.6530014673258
5690 175.6160382514925
5691 175.6054941425256
5692 175.572085153246
5693 175.539025452036
5694 175.5048174649326
5695 175.4875540870621
5696 175.4236923602099
5697 175.402670836868
5698 175.3390012318588
5699 175.3172864937387
5700 175.2593791066692
5701 175.2216269096996
5702 175.1691642309603
5703 175.1392757364367
5704 175.095852892961
5705 175.0779691908933
5706 175.0488471310733
5707 175.0445043530531
5708 175.0309147175615
5709 175.0418184390915
5710 175.0404424563166
5711 175.0572038237818
5712 175.0672180603733
5713 175.1007775289181
5714 175.1145201072642
5715 175.1486472347885
5716 175.1668301882544
5717 175.207408204355
5718 175.2298687685936
5719 175.2726513410869
5720 175.3033184617665
5721 175.3566757954341
5722 175.3846373536768
5723 175.418483468166
5724 175.4480562204056
5725 175.4945547003236
5726 175.5094454262524
5727 175.5592176341462
5728 175.5844572174524
5729 175.6419245961616
5730 175.6750886051304
5731 175.7243636852524
5732 175.7468992038615
5733 175.7961995753145
5734 175.8198811663986
5735 175.8635732916963
5736 175.8851508158235
5737 175.936958350273
5738 175.9565976635675
5739 175.9885335138948
5740 175.999459802467
5741 176.0258039440291
5742 176.0260718221764
5743 176.0486805657331
5744 176.0432633979119
5745 176.0515939038482
5746 176.0290147924377
5747 176.0238907633743
5748 175.998357282467
5749 175.979480649112
5750 175.9387182142771
5751 175.9101048110312
5752 175.8474905358231
5753 175.8050950330603
5754 175.7312944046228
5755 175.6752525018101
5756 175.5893180472178
5757 175.5187388314935
5758 175.4216014740508
5759 175.3425841344616
5760 175.2329293279757
5761 175.1428511596953
5762 175.0249688593058
5763 174.9267613614768
5764 174.8049656970774
5765 174.7023481503011
5766 174.5754839060289
5767 174.4765592584705
5768 174.3544550709436
5769 174.2537188449311
5770 174.1370362194801
5771 174.0434244820049
5772 173.9016479544055
5773 173.8253415152637
5774 173.7310130009772
5775 173.6600688997534
5776 173.5850209705781
5777 173.5359864556758
5778 173.473559888843
5779 173.4328885700974
5780 173.3821263376001
5781 173.3515668079457
5782 173.3148576276377
5783 173.3028273884203
5784 173.2808355551157
5785 173.2876192280563
5786 173.2830640423834
5787 173.30084998277
5788 173.3077564545658
5789 173.3386229755205
5790 173.3539042923636
5791 173.3744652810858
5792 173.4007349597977
5793 173.4449688569709
5794 173.4589784077558
5795 173.5071632647327
5796 173.5478193893222
5797 173.6013373244113
5798 173.6455791116395
5799 173.6990236351248
5800 173.7395237171181
5801 173.7896234726361
5802 173.8244189623228
5803 173.8685862820681
5804 173.9056390478641
5805 173.9587397980169
5806 173.9919165637809
5807 174.0314777080843
5808 174.0678326925541
5809 174.1142003670089
5810 174.1382003780259
5811 174.1792894490874
5812 174.2006448906787
5813 174.2338911498049
5814 174.2508674529827
5815 174.283224264221
5816 174.2978280688177
5817 174.330082164272
5818 174.3400874493883
5819 174.3697753295515
5820 174.3789474020699
5821 174.4100197233532
5822 174.4190860137618
5823 174.4446219567652
5824 174.4512010320342
5825 174.4730234912382
5826 174.4810674340444
5827 174.5024290928239
5828 174.5100333621572
5829 174.5330773385739
5830 174.5411846226114
5831 174.5601359902537
5832 174.5624513451705
5833 174.5866680205559
5834 174.5961385583331
5835 174.6177022542341
5836 174.629409186356
5837 174.6604269749109
5838 174.6687186500387
5839 174.7028332262237
5840 174.7097419701607
5841 174.7375055279672
5842 174.7439829822692
5843 174.7696139113376
5844 174.7768766838695
5845 174.7989149047688
5846 174.8024300099057
5847 174.8199091641991
5848 174.8205055761684
5849 174.8343659841974
5850 174.8351620663617
5851 174.8472317501567
5852 174.8403040072759
5853 174.8515606859931
5854 174.8451824979654
5855 174.8535128861448
5856 174.844251333964
5857 174.8477980701735
5858 174.8388797031271
5859 174.8412788387903
5860 174.835108824778
5861 174.8405583412646
5862 174.8289461238456
5863 174.8384058451544
5864 174.8259986285569
5865 174.8329548545879
5866 174.8222512917458
5867 174.832250092892
5868 174.8199881986624
5869 174.8301660479433
5870 174.8212879236611
5871 174.8297637636438
5872 174.8301144654667
5873 174.8430771329342
5874 174.8334061576224
5875 174.8488063180935
5876 174.8402461179782
5877 174.8481347234259
5878 174.8394336554051
5879 174.8466571086493
5880 174.8372885130355
5881 174.8392722698096
5882 174.8193064152899
5883 174.8169085948888
5884 174.7955480945446
5885 174.7945489110838
5886 174.7691140658606
5887 174.7630522403834
5888 174.7294875912136
5889 174.7248914778411
5890 174.6919165324036
5891 174.6809788669175
5892 174.6444076370639
5893 174.6369039787621
5894 174.5971708928002
5895 174.5877678482293
5896 174.5468588892645
5897 174.5338584761651
5898 174.4910085890607
5899 174.4790265861378
5900 174.433053713423
5901 174.4092310267243
5902 174.3786857655527
5903 174.356724289874
5904 174.3171911552065
5905 174.3020145850801
5906 174.2750292575207
5907 174.267141534203
5908 174.2394828604913
5909 174.2316047156663
5910 174.2161366533313
5911 174.2155965864207
5912 174.2073323331745
5913 174.2165857607792
5914 174.2190745220009
5915 174.2403388187063
5916 174.2530804731865
5917 174.2793423188755
5918 174.3015066721061
5919 174.3376366386633
5920 174.367417398561
5921 174.4150860421726
5922 174.4531760897242
5923 174.5108388899563
5924 174.5547449831181
5925 174.6239816045082
5926 174.6741316599825
5927 174.7455295132017
5928 174.8003521299304
5929 174.8758310582475
5930 174.9348218264203
5931 175.0159750848733
5932 175.0799336830208
5933 175.1692959237249
5934 175.2410450435682
5935 175.3277149188764
5936 175.3967860783261
5937 175.4883023364605
5938 175.5569905262967
5939 175.6477587930052
5940 175.7141898062794
5941 175.800161697585
5942 175.8689892046975
5943 175.9590585941158
5944 176.0268807060185
5945 176.1147381055143
5946 176.1820600581376
5947 176.2685839154659
5948 176.3325156345638
5949 176.412011377066
5950 176.4739323224028
5951 176.5543595262311
5952 176.6104501033719
5953 176.6882083942824
5954 176.7431035292806
5955 176.8140822872782
5956 176.8687122684092
5957 176.9314287082607
5958 176.976914709212
5959 177.0433613440027
5960 177.0816336244401
5961 177.1500872468827
5962 177.1871162881357
5963 177.2500873419763
5964 177.2755886570088
5965 177.3363380952163
5966 177.3617086474499
5967 177.4239828441042
5968 177.4498659119668
5969 177.5075808017996
5970 177.5414429768216
5971 177.5811623660366
5972 177.6036938588201
5973 177.6423157774744
5974 177.6649857478292
5975 177.705351471471
5976 177.7218403307026
5977 177.7515855541293
5978 177.7636188829249
5979 177.799010482589
5980 177.8074163954574
5981 177.8387545636829
5982 177.8445732010947
5983 177.8656163557386
5984 177.8683841775695
5985 177.8906326607801
5986 177.8907680627652
5987 177.905890749634
5988 177.9018420056283
5989 177.917633883425
5990 177.9123612305494
5991 177.9201787598691
5992 177.9181088319207
5993 177.9213728895312
5994 177.9098076382802
5995 177.9042209346879
5996 177.8848967530108
5997 177.8810306494115
5998 177.8632779957472
5999 177.8567942942601
6000 177.8329851839453
6001 177.8283492376972
6002 177.8043291307609
6003 177.7924453007035
6004 177.7627498276891
6005 177.7545795304922
6006 177.7300156702824
6007 177.7202192790446
6008 177.6923924884615
6009 177.6870588575858
6010 177.6587780485833
6011 177.6524616117701
6012 177.6297687841125
6013 177.6307595988342
6014 177.6072366436376
6015 177.6076926105154
6016 177.5881721577453
6017 177.5882471838354
6018 177.5689048309752
6019 177.571298232009
6020 177.5456823561152
6021 177.5498346468709
6022 177.5181404720807
6023 177.5175248734905
6024 177.4820814937605
6025 177.4766676854242
6026 177.4334484382473
6027 177.4292893167328
6028 177.379369684353
6029 177.3734689955638
6030 177.325637537055
6031 177.3188403749067
6032 177.2713162086848
6033 177.2688912193889
6034 177.2281193968694
6035 177.2242322890839
6036 177.1838951269514
6037 177.1861642878412
6038 177.1539798269213
6039 177.1592035985234
6040 177.1325317456757
6041 177.1425086218906
6042 177.1224742935308
6043 177.136953046002
6044 177.1216738530499
6045 177.1366452377121
6046 177.1235655580015
6047 177.1417949251596
6048 177.1409522453289
6049 177.1618123119213
6050 177.163515479953
6051 177.1944884851685
6052 177.1960732671115
6053 177.2289254877316
6054 177.2465665719534
6055 177.279392849138
6056 177.295111672342
6057 177.3417549215087
6058 177.3568852473823
6059 177.4017609198266
6060 177.4258967295488
6061 177.4849449669302
6062 177.5045130847496
6063 177.5578694346604
6064 177.5848825189796
6065 177.6561585916058
6066 177.6831391780694
6067 177.7398995378025
6068 177.7746573061574
6069 177.8452826476497
6070 177.8763656163008
6071 177.9321423041463
6072 177.968481462032
6073 178.0431776227557
6074 178.0773445121763
6075 178.1361028776013
6076 178.1733372910707
6077 178.228451679381
6078 178.2861597782651
6079 178.3383265465098
6080 178.3716204899957
6081 178.4274551305015
6082 178.4638431239355
6083 178.5165734728133
6084 178.5491174718086
6085 178.6033474890222
6086 178.6448340858684
6087 178.6885213126159
6088 178.7133447339917
6089 178.7583392050283
6090 178.7855938119341
6091 178.8203794826175
6092 178.8404450538677
6093 178.8672265738083
6094 178.8754746847233
6095 178.8977567998536
6096 178.8970240252792
6097 178.911222355387
6098 178.8956892865705
6099 178.9069919689131
6100 178.8903844886293
6101 178.9005755161429
6102 178.8793287910406
6103 178.8805895461707
6104 178.8584739920066
6105 178.8533014866221
6106 178.8262263896424
6107 178.8181223012523
6108 178.7881380770594
6109 178.7794081282168
6110 178.7454084977687
6111 178.7335017259554
6112 178.7015076259197
6113 178.6852973740559
6114 178.6516435713887
6115 178.6379521551016
6116 178.6065270576088
6117 178.5929706582382
6118 178.5680830205877
6119 178.5551398788066
6120 178.5244057005566
6121 178.5217565372477
6122 178.4966637845199
6123 178.4955771583968
6124 178.4714545788819
6125 178.4704945582474
6126 178.4479017747664
6127 178.449414358667
6128 178.4297780567753
6129 178.4328746113148
6130 178.4134417966906
6131 178.4204218605969
6132 178.408755491417
6133 178.4179766764546
6134 178.4026568443252
6135 178.4159802245069
6136 178.4045949010526
6137 178.4164366213165
6138 178.4065081658021
6139 178.4173485952369
6140 178.4024370700313
6141 178.4108959475847
6142 178.399578082677
6143 178.4026221455007
6144 178.3891372559621
6145 178.3918350425177
6146 178.3809240534749
6147 178.385378361332
6148 178.3719901240386
6149 178.3768466233581
6150 178.3717645811872
6151 178.382496666731
6152 178.3759369498334
6153 178.3887948748212
6154 178.3835245530371
6155 178.4018806824253
6156 178.40476238667
6157 178.4248574131336
6158 178.4331813641516
6159 178.4558974466155
6160 178.4658780941373
6161 178.4894476773652
6162 178.5018639387753
6163 178.5245150292124
6164 178.5375878506084
6165 178.5648208370444
6166 178.577578290724
6167 178.6064987614126
6168 178.6135095444154
6169 178.6497829198175
6170 178.6531436888733
6171 178.6892716487889
6172 178.6974525792491
6173 178.7368886823159
6174 178.7448891522662
6175 178.7815957136624
6176 178.7869849662563
6177 178.8220513639988
6178 178.8268236522017
6179 178.8621787860259
6180 178.8663233126375
6181 178.8950516256068
6182 178.8992956074147
6183 178.9329842489626
6184 178.9395374193888
6185 178.9681146788565
6186 178.9767042319992
6187 178.9953832370225
6188 179.0071149239821
6189 179.0265428253233
6190 179.0370358173525
6191 179.0591235684667
6192 179.0710547935487
6193 179.0879407684331
6194 179.0963458419904
6195 179.1145652405398
6196 179.1183235650576
6197 179.1338988086806
6198 179.135382867146
6199 179.1507449658469
6200 179.1519315584697
6201 179.164603294666
6202 179.1647783066717
6203 179.1820026407529
6204 179.1798431879038
6205 179.1947849744445
6206 179.1914106703637
6207 179.2046766957133
6208 179.1953825648502
6209 179.2116835177847
6210 179.2003696058323
6211 179.2117261954037
6212 179.2031481576077
6213 179.2230352679037
6214 179.2128244774813
6215 179.2224419628337
6216 179.2118267588433
6217 179.2186850927767
6218 179.2068628053725
6219 179.2133573376769
6220 179.2024740082617
6221 179.2094466323432
6222 179.1928765570956
6223 179.1946026645288
6224 179.1736850985065
6225 179.1738209447041
6226 179.1460321821982
6227 179.143599238512
6228 179.1171667140751
6229 179.1135320991036
6230 179.0785720275352
6231 179.0721582423984
6232 179.0384263440995
6233 179.0299050699838
6234 179.00010831994
6235 178.9960600806532
6236 178.9671062080471
6237 178.9615981133576
6238 178.9386384167186
6239 178.9405682823829
6240 178.9182384654586
6241 178.9190808294404
6242 178.9008270142573
6243 178.9097835355553
6244 178.8989525559979
6245 178.9081871713885
6246 178.9008128307119
6247 178.916776645017
6248 178.9138083782086
6249 178.9319107450312
6250 178.9325807145791
6251 178.9583193438898
6252 178.9675698685122
6253 178.995935756054
6254 179.0113823706834
6255 179.0457207813164
6256 179.0643897217658
6257 179.1017893328935
6258 179.1243242925364
6259 179.1678269354935
6260 179.192461308495
6261 179.2380789863394
6262 179.2596224200796
6263 179.31489995484
6264 179.3480814364419
6265 179.4007835777274
6266 179.4242179612644
6267 179.4813145514489
6268 179.5164284152923
6269 179.5605516214925
6270 179.5941301392094
6271 179.6398609295899
6272 179.6551280397708
6273 179.6995136791701
6274 179.7121349660037
6275 179.7548890853455
6276 179.7607368040113
6277 179.7942605860128
6278 179.7973640930178
6279 179.8205681425945
6280 179.8289837246452
6281 179.850322321005
6282 179.8519484998156
6283 179.8681425831094
6284 179.8598556098083
6285 179.8726624333059
6286 179.8629391878736
6287 179.8684515599646
6288 179.8522490897087
6289 179.8508466559756
6290 179.8285608056066
6291 179.8205426414357
6292 179.7954680487491
6293 179.7893090793027
6294 179.7453155671327
6295 179.732032653401
6296 179.6999357815663
6297 179.6756723746165
6298 179.639173173706
6299 179.6054273246816
6300 179.5659464777874
6301 179.5344137693177
6302 179.4975289518549
6303 179.4649979254638
6304 179.4105412844072
6305 179.3897487145453
6306 179.336156205105
6307 179.2989523437302
6308 179.255455920019
6309 179.2168547520461
6310 179.1600706590521
6311 179.1403888166194
6312 179.0849617146962
6313 179.0524236090871
6314 179.0091949952723
6315 178.9731900260626
6316 178.92563453335
6317 178.8868170452317
6318 178.8398517139796
6319 178.8120775432545
6320 178.7543143126284
6321 178.7306835267576
6322 178.6832358805995
6323 178.6543437644262
6324 178.6038308808488
6325 178.5774890725138
6326 178.5306123174672
6327 178.5064403364561
6328 178.456234023107
6329 178.4302014024105
6330 178.3814514557913
6331 178.3439708495883
6332 178.2969667409977
6333 178.2721386504444
6334 178.2042523209141
6335 178.173924451679
6336 178.1025821987875
6337 178.0712861512082
6338 177.9954051152704
6339 177.9592398098482
6340 177.8778889081303
6341 177.8244124790657
6342 177.7718594007948
6343 177.7096381709487
6344 177.653757674322
6345 177.5960880274274
6346 177.5396359681343
6347 177.4803300746533
6348 177.4230767704455
6349 177.3617336591146
6350 177.3048351375838
6351 177.2452716739008
6352 177.1874837200085
6353 177.1486713594357
6354 177.0619999980877
6355 177.0244701188726
6356 176.9668041660725
6357 176.923617553194
6358 176.8601367735268
6359 176.8172488448708
6360 176.7513207722786
6361 176.7041196477409
6362 176.6341000126708
6363 176.5894822288016
6364 176.515197957244
6365 176.468459802542
6366 176.3973950568189
6367 176.3529537197809
6368 176.2573718536093
6369 176.2193149675118
6370 176.1574195167694
6371 176.098677142408
6372 176.0422113144124
6373 176.0106523740764
6374 175.9423219947143
6375 175.9207610617983
6376 175.8613669513444
6377 175.8464068045022
6378 175.7971285167625
6379 175.788374258662
6380 175.7492286597879
6381 175.7513951284825
6382 175.7309114313539
6383 175.7370998349566
6384 175.7239770150175
6385 175.7403121449511
6386 175.7352010023956
6387 175.7582685893986
6388 175.761078132055
6389 175.7869235485329
6390 175.7933105617216
6391 175.8226200914993
6392 175.8353547445781
6393 175.865426019687
6394 175.8775406535212
6395 175.909008642555
6396 175.9233355309665
6397 175.9552591637744
6398 175.9664486516173
6399 175.9984469749798
6400 176.0034659303857
6401 176.0306762800712
6402 176.0260735751948
6403 176.0415949266871
6404 176.0287335443489
6405 176.0376100495196
6406 176.0125064100975
6407 176.0146815140557
6408 175.9806874984502
6409 175.9639138446712
6410 175.9176585449678
6411 175.8879010164048
6412 175.8298187052568
6413 175.7899220245755
6414 175.724298367081
6415 175.6710731336303
6416 175.5950130042611
6417 175.5275373529254
6418 175.4405760436576
6419 175.3677873942841
6420 175.2735310301696
6421 175.1932106731763
6422 175.0985307978675
6423 175.0193110630938
6424 174.9206783308577
6425 174.8368149140957
6426 174.733957441142
6427 174.654015266481
6428 174.555726254667
6429 174.4720983948412
6430 174.378259035091
6431 174.3035774372751
6432 174.2130902650284
6433 174.1478604538972
6434 174.0672632706039
6435 174.0120631416692
6436 173.9396789112357
6437 173.8892179838554
6438 173.8292281518937
6439 173.7914634816708
6440 173.7421530852974
6441 173.7160964548066
6442 173.6748442196681
6443 173.6526976438032
6444 173.620138378178
6445 173.6146371862213
6446 173.590588950763
6447 173.5820652276111
6448 173.5645457090742
6449 173.5641696518601
6450 173.5496977544194
6451 173.5542234974627
6452 173.5546502244368
6453 173.576607181839
6454 173.5842047432876
6455 173.6095413108214
6456 173.622749587215
6457 173.6527889361378
6458 173.6696541272182
6459 173.7022592788854
6460 173.7193273229782
6461 173.7483361373151
6462 173.767298583403
6463 173.7980041821587
6464 173.8146290949102
6465 173.8482600634683
6466 173.8635937911245
6467 173.8935145764059
6468 173.904787368615
6469 173.9295313004076
6470 173.9372239713055
6471 173.9530850948199
6472 173.9543651473643
6473 173.9664446785914
6474 173.9613035602068
6475 173.9719327909799
6476 173.9590431893624
6477 173.9632669614973
6478 173.9450793330209
6479 173.937953246989
6480 173.9082158903438
6481 173.887080620329
6482 173.8624270661726
6483 173.8379552905571
6484 173.8056625151534
6485 173.7761778448687
6486 173.7371708127872
6487 173.6955956986222
6488 173.6554925663212
6489 173.6311460285952
6490 173.5618192061759
6491 173.5359923446891
6492 173.4625564068954
6493 173.4055052933566
6494 173.3298919227107
6495 173.2790435806413
6496 173.2106214311955
6497 173.1635114905282
6498 173.1029558552032
6499 173.0614699365005
6500 172.9972320865789
6501 172.9557405808058
6502 172.9027811369542
6503 172.8692410182747
6504 172.8227458833586
6505 172.7923402201479
6506 172.7537770687037
6507 172.7306125641635
6508 172.6933877230583
6509 172.6727893600644
6510 172.6386784583347
6511 172.6182523270005
6512 172.5873921988109
6513 172.5758563879638
6514 172.5511585285269
6515 172.5412562529792
6516 172.5193009278379
6517 172.5172767943891
6518 172.4972432629755
6519 172.5011895838079
6520 172.4880190720394
6521 172.4970509704844
6522 172.4946246951844
6523 172.5078254572945
6524 172.5016370328842
6525 172.5124470387527
6526 172.5109605701065
6527 172.52427132142
6528 172.5181780458629
6529 172.5333113222287
6530 172.52964261357
6531 172.5434420696741
6532 172.5323606999762
6533 172.5449135558466
6534 172.531350768812
6535 172.5346754062055
6536 172.5140440818346
6537 172.504785403127
6538 172.4741221642871
6539 172.4570893898232
6540 172.4238808729916
6541 172.3959852801206
6542 172.3561499719368
6543 172.3296722210283
6544 172.2851101074062
6545 172.2538549341268
6546 172.2084676041542
6547 172.1857087352872
6548 172.1406560740165
6549 172.1194395486696
6550 172.0706197416327
6551 172.0492696078491
6552 171.9987259781771
6553 171.9816020705117
6554 171.9364146393869
6555 171.9168487783045
6556 171.8691187150071
6557 171.8569751095317
6558 171.8119206896949
6559 171.7996853114604
6560 171.759007289734
6561 171.7352264344644
6562 171.690155596362
6563 171.6723932413683
6564 171.6326855105979
6565 171.6161821964324
6566 171.5831765415439
6567 171.570941935091
6568 171.5424777418652
6569 171.5356438380591
6570 171.5063026372712
6571 171.4987001622033
6572 171.477877427531
6573 171.4759371875536
6574 171.4587618106763
6575 171.4588503379582
6576 171.4424503166689
6577 171.4452712569981
6578 171.4368134736984
6579 171.4419039456915
6580 171.4371511367507
6581 171.4464549391797
6582 171.4504113213424
6583 171.4674776609006
6584 171.4776695295315
6585 171.5019612369687
6586 171.5125955483489
6587 171.5398565240192
6588 171.5611139733075
6589 171.5956710336353
6590 171.6188142406083
6591 171.6613052022839
6592 171.6836997385
6593 171.724668581317
6594 171.7493204750569
6595 171.7886268738717
6596 171.816372252121
6597 171.8567204020876
6598 171.8819428316846
6599 171.9250462456605
6600 171.9425200674117
6601 171.9741184841304
6602 171.9873257868744
6603 172.010946561414
6604 172.0215308532011
6605 172.040612565534
6606 172.043120114331
6607 172.0474149787511
6608 172.0373144444915
6609 172.0430841167269
6610 172.0216894818964
6611 172.0076576800279
6612 171.976026873634
6613 171.9490680140906
6614 171.9027687902164
6615 171.8631214767341
6616 171.8086061216618
6617 171.762594754569
6618 171.6984962335521
6619 171.6335810677054
6620 171.5603541445907
6621 171.49870003455
6622 171.4192421527636
6623 171.3412543833572
6624 171.2565070786322
6625 171.1801766082792
6626 171.0856125745958
6627 171.0033405107291
6628 170.9122218509202
6629 170.824390474047
6630 170.7306536991017
6631 170.6492727538003
6632 170.5545867564189
6633 170.4680753409031
6634 170.3734898766263
6635 170.293064447961
6636 170.2018829450265
6637 170.1190850482916
6638 170.0317621810034
6639 169.9544954574783
6640 169.8708009063762
6641 169.8040438052173
6642 169.7288507818911
6643 169.6667767284324
6644 169.5998898106913
6645 169.5508043858715
6646 169.4899262990384
6647 169.4486339072758
6648 169.3972634299197
6649 169.3761157868764
6650 169.3342136559009
6651 169.3201439793898
6652 169.2872667981742
6653 169.2732581705672
6654 169.2499055585365
6655 169.2447916457654
6656 169.2192419424764
6657 169.2164566698026
6658 169.1979472074018
6659 169.1998485765695
6660 169.1810618912752
6661 169.1763169891593
6662 169.153620136253
6663 169.1406411439517
6664 169.1127658654448
6665 169.0952338258077
6666 169.0584195305927
6667 169.0423565828291
6668 169.005223730324
6669 168.9816977283404
6670 168.9399240241885
6671 168.9133985752401
6672 168.8609245363293
6673 168.8257320749999
6674 168.7722195236213
6675 168.7336714006069
6676 168.6759739656723
6677 168.6402794564335
6678 168.584931572053
6679 168.5461470195449
6680 168.4920383302367
6681 168.4606611168784
6682 168.4095212700719
6683 168.371172256957
6684 168.3339564969844
6685 168.2968477701329
6686 168.2560412478107
6687 168.2203075565641
6688 168.1796521185454
6689 168.1349287150925
6690 168.0932889799199
6691 168.0726510507166
6692 168.0065463653669
6693 167.9803758473316
6694 167.9322014928185
6695 167.9049518739106
6696 167.8464039377033
6697 167.7850607973414
6698 167.724125525497
6699 167.6909740849241
6700 167.6016631964097
6701 167.5661752997761
6702 167.4732103685501
6703 167.4331095781868
6704 167.3387962544982
6705 167.2691328853506
6706 167.1766079960105
6707 167.1166911662835
6708 167.0401458724878
6709 166.9899475042816
6710 166.9257735783121
6711 166.8904936562998
6712 166.8353553868301
6713 166.8092615980903
6714 166.7721735656453
6715 166.7669159306807
6716 166.7417358510289
6717 166.7475082715099
6718 166.7416956081952
6719 166.7601524021999
6720 166.7712490709537
6721 166.8073238006003
6722 166.8325598792017
6723 166.881965525781
6724 166.9194038855863
6725 166.9804011426067
6726 167.027334322879
6727 167.0945608073707
6728 167.1211603201464
6729 167.1906383287017
6730 167.2439378652129
6731 167.2929149872793
6732 167.3543412551946
6733 167.4328624543533
6734 167.4885275249747
6735 167.5612790223834
6736 167.6077321589444
6737 167.6713847259306
6738 167.7105150761907
6739 167.7557208635374
6740 167.7756730025712
6741 167.8040068593975
6742 167.8096734602543
6743 167.8227904031496
6744 167.8076499575496
6745 167.8055024053504
6746 167.7807385159028
6747 167.764315819421
6748 167.7223039152842
6749 167.6934223384812
6750 167.6354587596568
6751 167.5861634406982
6752 167.5107075231186
6753 167.4500180046406
6754 167.3641972637706
6755 167.2915831202531
6756 167.197389791745
6757 167.112056142815
6758 167.0073758898225
6759 166.9246896634484
6760 166.8167847746166
6761 166.7258418252017
6762 166.6155487404768
6763 166.5235874004135
6764 166.4070951986262
6765 166.2825089041962
6766 166.1731905482649
6767 166.0815515414613
6768 165.9575866177018
6769 165.8769372399714
6770 165.7809249496159
6771 165.6829400257701
6772 165.6042263231536
6773 165.5356517631202
6774 165.4530423121332
6775 165.4101922940849
6776 165.3522895079397
6777 165.3139563903688
6778 165.2658866028524
6779 165.2408424812577
6780 165.203804252202
6781 165.1860316466014
6782 165.1618605742382
6783 165.1556302915104
6784 165.1428176853851
6785 165.1496345414052
6786 165.1498881320529
6787 165.1642126735428
6788 165.1813226672944
6789 165.2094412839809
6790 165.24156648934
6791 165.2787192055537
6792 165.3179745337811
6793 165.3852211818354
6794 165.4376270397225
6795 165.5166391267175
6796 165.5721613857771
6797 165.6543278026863
6798 165.7164433063459
6799 165.795079140534
6800 165.8554013509035
6801 165.9278360606608
6802 165.9829371988797
6803 166.0627284656715
6804 166.1188867464656
6805 166.1897592681084
6806 166.2445042452563
6807 166.3103408178988
6808 166.3580936704055
6809 166.412099784999
6810 166.4511267768486
6811 166.4962771804426
6812 166.5233256397057
6813 166.5586099236689
6814 166.577782322655
6815 166.6115666553101
6816 166.6204866012653
6817 166.6417817162315
6818 166.6509913834086
6819 166.6706019745226
6820 166.6709597219138
6821 166.6887072066204
6822 166.6913145764886
6823 166.71299216312
6824 166.7142546953492
6825 166.7347694349907
6826 166.7303175660363
6827 166.7573033075089
6828 166.754001841587
6829 166.7703433317886
6830 166.776486448976
6831 166.7888526982713
6832 166.7887365360995
6833 166.8165446054879
6834 166.8204561034654
6835 166.8526119053209
6836 166.8647647466252
6837 166.8963646854185
6838 166.9157681238353
6839 166.9531880052643
6840 166.9767314527926
6841 167.0195600286132
6842 167.0572266846799
6843 167.1124953600674
6844 167.1549743694171
6845 167.2170865229382
6846 167.2635538962491
6847 167.3249073249569
6848 167.3738035847016
6849 167.444771178288
6850 167.4954013353222
6851 167.5645468147714
6852 167.6220324487914
6853 167.6943361141312
6854 167.747337206118
6855 167.8177362468335
6856 167.871691041919
6857 167.9374772880063
6858 167.9652547044241
6859 168.0374068294994
6860 168.0615788692151
6861 168.1335861904928
6862 168.1603448121482
6863 168.2297248111473
6864 168.2552737705016
6865 168.2953130536245
6866 168.323644615183
6867 168.3655540277365
6868 168.3889854669741
6869 168.4223987693389
6870 168.4382719174012
6871 168.4676952080821
6872 168.4805069745112
6873 168.5074278424744
6874 168.5090933180007
6875 168.5248216174854
6876 168.5175826859115
6877 168.525380555936
6878 168.5123545665745
6879 168.5225043890456
6880 168.5055460559799
6881 168.5039785450014
6882 168.4775810429455
6883 168.4665569157236
6884 168.4364156752358
6885 168.4100633322236
6886 168.3726431227455
6887 168.3423555861964
6888 168.2925567908466
6889 168.2686425915724
6890 168.2176869214689
6891 168.1879473691566
6892 168.1294116950554
6893 168.0994447300292
6894 168.0376995191823
6895 168.0018917090699
6896 167.936379363426
6897 167.9063735559918
6898 167.850047934267
6899 167.8247901450711
6900 167.7725754965608
6901 167.7499140823929
6902 167.7062867505114
6903 167.6939040416645
6904 167.6685842839375
6905 167.6529224281472
6906 167.6321217484806
6907 167.6371473892766
6908 167.6248174017826
6909 167.6367634201146
6910 167.639489619658
6911 167.6618117401956
6912 167.6741621069503
6913 167.6987522275963
6914 167.7200845032399
6915 167.7689568699262
6916 167.7964758277027
6917 167.84720710553
6918 167.9091448969384
6919 167.9646300893895
6920 168.0134217036926
6921 168.1008220545147
6922 168.1483923365359
6923 168.2406688342876
6924 168.294922016404
6925 168.3993527282495
6926 168.4558074840719
6927 168.5588756910665
6928 168.6222069945892
6929 168.7292497612288
6930 168.7914125135173
6931 168.8994291424312
6932 168.9583787885812
6933 169.0628435260562
6934 169.1184339724803
6935 169.2182209859932
6936 169.2774332741428
6937 169.3470546845537
6938 169.4370525593806
6939 169.5052128043047
6940 169.5930428846873
6941 169.6544858699927
6942 169.7357785164416
6943 169.797534144443
6944 169.8722003408024
6945 169.9342915475858
6946 170.0053515937401
6947 170.0862820976372
6948 170.1273977563008
6949 170.2018116562297
6950 170.2566459185259
6951 170.3102907933169
6952 170.3644389328788
6953 170.4291646138045
6954 170.4585506796094
6955 170.517053948079
6956 170.5541009839898
6957 170.5929061229991
6958 170.6303006996547
6959 170.664838640559
6960 170.6983771481945
6961 170.7306344823826
6962 170.7571634048815
6963 170.7836671628578
6964 170.8031534531582
6965 170.8297461881662
6966 170.8479935358817
6967 170.8689754752839
6968 170.8775496744276
6969 170.9028510433383
6970 170.9038573030895
6971 170.9238320263412
6972 170.9214740256743
6973 170.9414405166971
6974 170.9391562688528
6975 170.9564875027932
6976 170.9507686967666
6977 170.9658274313651
6978 170.9607828433944
6979 170.9702058697954
6980 170.9663187374441
6981 170.9750543532718
6982 170.9664654847121
6983 170.9715396061314
6984 170.9660432482852
6985 170.9755395769113
6986 170.9694409656162
6987 170.9782019209323
6988 170.9708521918699
6989 170.9820823861507
6990 170.9723909527697
6991 170.9821447667454
6992 170.9754501550108
6993 170.9827579429642
6994 170.9805714500198
6995 170.9871535129828
6996 170.9833376659714
6997 170.9909935766449
6998 170.9840583727484
6999 171.000016275212
7000 170.9939449304516
7001 171.0036228147217
7002 170.9974165440764
7003 171.0088993434648
7004 171.0082825288169
7005 171.0252419817625
7006 171.0178198439678
7007 171.027980889235
7008 171.0241336436198
7009 171.0389572420381
7010 171.0386203926169
7011 171.0538815367327
7012 171.0483746986216
7013 171.0614585852786
7014 171.0587543812753
7015 171.0747007993884
7016 171.0733168049669
7017 171.100925444156
7018 171.0997152961893
7019 171.1292996061151
7020 171.1275279605723
7021 171.1584219265657
7022 171.1589344133764
7023 171.1902438514588
7024 171.1903952081143
7025 171.2205802948172
7026 171.2281962340203
7027 171.2539612742605
7028 171.2630727445401
7029 171.2944062996861
7030 171.2979784904561
7031 171.3262339398802
7032 171.3300597362653
7033 171.3562755879052
7034 171.3676748134644
7035 171.3917648775233
7036 171.4039477469506
7037 171.4307653840821
7038 171.4413683317447
7039 171.4641329908747
7040 171.4770898079752
7041 171.5042347961431
7042 171.5182187975724
7043 171.5457247609814
7044 171.5616013618844
7045 171.5918025918439
7046 171.6072542567184
7047 171.6435936670186
7048 171.6567664370702
7049 171.6905705269878
7050 171.6997214057367
7051 171.7300647060744
7052 171.7425210052736
7053 171.773778775115
7054 171.7838969904433
7055 171.8135764989964
7056 171.8245585380401
7057 171.8536864993835
7058 171.8686679766196
7059 171.9031139435198
7060 171.9182523611366
7061 171.9583794586545
7062 171.9701857020462
7063 172.0076893279543
7064 172.0397967771841
7065 172.0776447337853
7066 172.1122714664443
7067 172.1527003294523
7068 172.1936624461895
7069 172.2338065180259
7070 172.2791837231811
7071 172.3237780253769
7072 172.3699638525669
7073 172.4174488856254
7074 172.4636792021894
7075 172.5114157105947
7076 172.5536641729678
7077 172.6018946940765
7078 172.6462231460867
7079 172.6921910494008
7080 172.7324641233535
7081 172.776904701753
7082 172.8186232185197
7083 172.8621056850665
7084 172.9017412617864
7085 172.9418106010789
7086 172.9787872114977
7087 173.0171133360756
7088 173.0503679171191
7089 173.0856678027328
7090 173.1030917307294
7091 173.1542280101627
7092 173.1693376496665
7093 173.2191229966141
7094 173.239410275153
7095 173.2887730729024
7096 173.3060446190449
7097 173.3504564916601
7098 173.3668441071854
7099 173.4110490481701
7100 173.4252945460105
7101 173.46013765675
7102 173.4773896752212
7103 173.5002413005398
7104 173.5156665629123
7105 173.5425915656951
7106 173.5480627643747
7107 173.5703248761243
7108 173.5750650984088
7109 173.5947163987612
7110 173.5964136468649
7111 173.6064398951474
7112 173.60154536631
7113 173.6119294588763
7114 173.6091184016513
7115 173.6122341349756
7116 173.6113708398186
7117 173.6163663156
7118 173.6123773682969
7119 173.6178320583731
7120 173.6134899176361
7121 173.6197848240978
7122 173.6145818296887
7123 173.6197758054484
7124 173.6164846201028
7125 173.6258573791229
7126 173.6223600318058
7127 173.6339307596939
7128 173.6337645405847
7129 173.6464141327993
7130 173.6454334944065
7131 173.6592019661265
7132 173.6625092989281
7133 173.6813729974172
7134 173.6848337905782
7135 173.7055296482866
7136 173.714433185288
7137 173.7343141770321
7138 173.7442449031429
7139 173.7650841920597
7140 173.7828717757844
7141 173.8069534433907
7142 173.8285946265884
7143 173.8573543304523
7144 173.8830023777095
7145 173.9284957646422
7146 173.9605529177019
7147 174.0091037831598
7148 174.0475460136489
7149 174.1028758229791
7150 174.1477617350713
7151 174.2071307463638
7152 174.2601787330107
7153 174.3309173229473
7154 174.3909526340565
7155 174.4632299320762
7156 174.5282405611034
7157 174.6101784788736
7158 174.6774958273343
7159 174.7579951990287
7160 174.8270076505723
7161 174.9108414447541
7162 174.9794757960061
7163 175.0633940053698
7164 175.1340179206834
7165 175.2148435012681
7166 175.2864961874291
7167 175.3657643821739
7168 175.427276193972
7169 175.5024994417819
7170 175.5641724185973
7171 175.6327856123199
7172 175.6850688521334
7173 175.7486459023763
7174 175.7952433059239
7175 175.8518327371813
7176 175.8921322220864
7177 175.9445637315739
7178 175.9713863943368
7179 176.0216672174503
7180 176.0469769849191
7181 176.0938635861654
7182 176.111443393926
7183 176.1550337366085
7184 176.1733775615151
7185 176.211066275915
7186 176.2328612864699
7187 176.2730681145439
7188 176.2947133984987
7189 176.3318265785922
7190 176.3566996604028
7191 176.3883945719807
7192 176.4093351230042
7193 176.4389474397141
7194 176.462190535963
7195 176.4908387789797
7196 176.5059933808629
7197 176.534827710081
7198 176.5449423668245
7199 176.5679264605582
7200 176.5764566038986
7201 176.6026214383286
7202 176.610005802554
7203 176.6276148798298
7204 176.6331563055833
7205 176.6459766857792
7206 176.6444212265097
7207 176.6464108625086
7208 176.6355851513984
7209 176.6311749076615
7210 176.6222270712501
7211 176.6198852307724
7212 176.6020046627848
7213 176.5919341593123
7214 176.5699667843028
7215 176.5569313105
7216 176.5313312281489
7217 176.5192417115628
7218 176.496760494332
7219 176.4833494094033
7220 176.4588550666727
7221 176.445833364895
7222 176.4174392174512
7223 176.4089163422836
7224 176.3824646808667
7225 176.3712327365347
7226 176.3473268830344
7227 176.3436879434186
7228 176.3261092529817
7229 176.326329980079
7230 176.3091987112426
7231 176.309699128719
7232 176.2908105391506
7233 176.2947544499833
7234 176.2856520838056
7235 176.29059307284
7236 176.2799147986099
7237 176.288847506757
7238 176.2877153376651
7239 176.2986892105072
7240 176.2946299338935
7241 176.3043171387536
7242 176.2941823211771
7243 176.2961835780634
7244 176.2830022255537
7245 176.2847852024602
7246 176.2724957432158
7247 176.2734361006849
7248 176.2563620025086
7249 176.249934040005
7250 176.2268157168788
7251 176.2158412286004
7252 176.1934752293774
7253 176.1807174575152
7254 176.1543064978175
7255 176.1384095668846
7256 176.1072229314393
7257 176.0865973880308
7258 176.0555927478885
7259 176.044969092177
7260 176.0055662415273
7261 175.98363036308
7262 175.9534853957852
7263 175.9311791711988
7264 175.9034242899509
7265 175.8797137473917
7266 175.8464774522408
7267 175.8210228596784
7268 175.7864645290115
7269 175.7640828226919
7270 175.7301715466096
7271 175.7073832859913
7272 175.6756111300921
7273 175.6617703650105
7274 175.6355966366052
7275 175.6248079916978
7276 175.6004675513137
7277 175.596072354832
7278 175.5725835256384
7279 175.5770611135876
7280 175.5653526405075
7281 175.5777797457317
7282 175.5796091651478
7283 175.5972761046306
7284 175.5944626364285
7285 175.6122870901663
7286 175.6244964995292
7287 175.6532472486311
7288 175.6689330723154
7289 175.7016327350196
7290 175.726295715006
7291 175.7635998795971
7292 175.7890195626158
7293 175.8298000758978
7294 175.8615277174089
7295 175.9058149529774
7296 175.9383629419223
7297 175.9847189607447
7298 176.0226833852703
7299 176.0657985628465
7300 176.1042022342467
7301 176.16896782514
7302 176.185925464285
7303 176.2464005047385
7304 176.2745795919555
7305 176.3238105946147
7306 176.3479021959412
7307 176.3845327016258
7308 176.3952954515252
7309 176.422257883419
7310 176.4251843093348
7311 176.4403473408685
7312 176.4343241356052
7313 176.4427454997805
7314 176.4257546887629
7315 176.4225950851204
7316 176.3968557205331
7317 176.389757991886
7318 176.3590042314088
7319 176.3448111914119
7320 176.3189022356743
7321 176.2980360417778
7322 176.2670193175539
7323 176.2468215665714
7324 176.2002427948244
7325 176.1856357144026
7326 176.1361031804876
7327 176.1070573725898
7328 176.0532751674037
7329 176.0223094232958
7330 175.9706521832009
7331 175.9397974285537
7332 175.8890414188664
7333 175.858966351143
7334 175.8058676084836
7335 175.7752029794688
7336 175.727036525506
7337 175.6976251743653
7338 175.6518035051768
7339 175.6313878056049
7340 175.5894251206332
7341 175.5753353105512
7342 175.5395388911318
7343 175.5270184697272
7344 175.4975235741978
7345 175.4957995611135
7346 175.4761812513574
7347 175.479956456497
7348 175.4653175709295
7349 175.4720510673791
7350 175.4624819158598
7351 175.4709802042247
7352 175.4633996643169
7353 175.4704786422038
7354 175.4730778343233
7355 175.4849675115292
7356 175.487849584843
7357 175.503307563488
7358 175.501653443994
7359 175.5257417470694
7360 175.527571550243
7361 175.5494009894913
7362 175.5578278785097
7363 175.5802334477365
7364 175.5927124933113
7365 175.6152347101018
7366 175.6240863558423
7367 175.651122651033
7368 175.6439262621965
7369 175.6624424545439
7370 175.65224074669
7371 175.6728075043796
7372 175.6623455019136
7373 175.6767667501483
7374 175.6661690850817
7375 175.6745595649009
7376 175.6604942366644
7377 175.6653204396945
7378 175.6510530118156
7379 175.6556565190638
7380 175.6410552187778
7381 175.6448308176423
7382 175.6306913799777
7383 175.6355379586565
7384 175.6216569392526
7385 175.6324433265505
7386 175.6251849755475
7387 175.633338049448
7388 175.6283144307597
7389 175.638317354855
7390 175.6317634067527
7391 175.6409662822127
7392 175.633052819994
7393 175.6469440747109
7394 175.641731128129
7395 175.662750887982
7396 175.6550411012386
7397 175.6758155413656
7398 175.6734261687831
7399 175.6960374156455
7400 175.695279269587
7401 175.7192674228069
7402 175.7240793867418
7403 175.7508795236396
7404 175.7568799537448
7405 175.7836004737016
7406 175.7940198419921
7407 175.8274851019736
7408 175.8327937180715
7409 175.8707782936604
7410 175.8787487185633
7411 175.9227199009166
7412 175.9341365649746
7413 175.9813212530672
7414 175.9950902817286
7415 176.0462318071862
7416 176.0621367132353
7417 176.1143708493882
7418 176.1302825684776
7419 176.185076819915
7420 176.2028835518834
7421 176.2430611931028
7422 176.2866685987259
7423 176.3314889451262
7424 176.3563735151891
7425 176.4010474018927
7426 176.4269676166508
7427 176.4736415529919
7428 176.5013851290377
7429 176.5554899538704
7430 176.5868610858175
7431 176.6456333577118
7432 176.678074258627
7433 176.7350167614431
7434 176.7681095528369
7435 176.8275167844446
7436 176.859327610087
7437 176.9178307730648
7438 176.9507541713912
7439 177.0047095831853
7440 177.0354170942359
7441 177.1117122060687
7442 177.1374265765635
7443 177.185573403399
7444 177.2094759607219
7445 177.2527786712937
7446 177.2903822650147
7447 177.3273378939091
7448 177.3416433369663
7449 177.3773798389933
7450 177.3967532868817
7451 177.4283116972398
7452 177.4352591029474
7453 177.4629984038195
7454 177.4747799840097
7455 177.503362962613
7456 177.5023290799201
7457 177.5254727007594
7458 177.5310904256093
7459 177.5546452238835
7460 177.55321667355
7461 177.576974658292
7462 177.5804172681084
7463 177.6020820863919
7464 177.600492077973
7465 177.6266168685895
7466 177.6185988942224
7467 177.6375474220111
7468 177.6344676399313
7469 177.6514792923732
7470 177.6462773616393
7471 177.660681004681
7472 177.6535898857568
7473 177.6633894692825
7474 177.6541090910204
7475 177.6648115505607
7476 177.6519492950579
7477 177.6667030021716
7478 177.6525202587037
7479 177.6671951481297
7480 177.6555456197478
7481 177.6679603082292
7482 177.6557915998008
7483 177.6644783338661
7484 177.6521877716711
7485 177.6638006304111
7486 177.6452487313435
7487 177.6591048512426
7488 177.6445797328013
7489 177.6562951959212
7490 177.6415119113165
7491 177.6553145303644
7492 177.6447675437501
7493 177.6635059443628
7494 177.6595499160339
7495 177.6791018893811
7496 177.6798507295524
7497 177.6970326408893
7498 177.6985215922569
7499 177.7188638637142
7500 177.7283530390656
7501 177.7502621754192
7502 177.7590331141697
7503 177.7813934614161
7504 177.789529112786
7505 177.8126368870247
7506 177.8191869318962
7507 177.8389063186357
7508 177.8415107355951
7509 177.8629337158865
7510 177.8649724355988
7511 177.8834345385761
7512 177.8865041913498
7513 177.9076750494834
7514 177.9069253927725
7515 177.9245720660359
7516 177.9213004845108
7517 177.9352424609664
7518 177.9294128988895
7519 177.9412784060185
7520 177.9345485933041
7521 177.9456452100019
7522 177.9356775958378
7523 177.9430155455527
7524 177.9335288199859
7525 177.9376621589062
7526 177.9167687438438
7527 177.9221222873354
7528 177.9007773126349
7529 177.8992947699132
7530 177.8724445471009
7531 177.8660627473609
7532 177.8394278290561
7533 177.8192914219555
7534 177.7873099815524
7535 177.7761378190058
7536 177.7407209716957
7537 177.7276797490451
7538 177.6916629316296
7539 177.6733788043612
7540 177.6292062492845
7541 177.6048415121716
7542 177.5570922068987
7543 177.5303812825034
7544 177.4812989117884
7545 177.4490894370724
7546 177.3963839377494
7547 177.3645306894485
7548 177.3127943668984
7549 177.2787310910825
7550 177.2228876771892
7551 177.1872239231213
7552 177.1306951410737
7553 177.0936517870073
7554 177.0360488194629
7555 177.0021594613643
7556 176.9436522855032
7557 176.9096319876674
7558 176.8540175313622
7559 176.8195192317552
7560 176.7639245935003
7561 176.7274285608266
7562 176.6718507271734
7563 176.6395465369231
7564 176.5862896955223
7565 176.5510854041784
7566 176.4949619243313
7567 176.4592740996406
7568 176.3995051418022
7569 176.3604245457215
7570 176.2981294926714
7571 176.2580811426795
7572 176.1949039026667
7573 176.1507355365377
7574 176.0848089686746
7575 176.0403180642851
7576 175.9695139877295
7577 175.9218205470845
7578 175.8509674125387
7579 175.80362261296
7580 175.7298323308703
7581 175.6782308413849
7582 175.605204170275
7583 175.5515947522417
7584 175.4739316936456
7585 175.4175802827181
7586 175.3376145487947
7587 175.2794008543
7588 175.1965073549957
7589 175.1378858301491
7590 175.0574272348317
7591 175.0010129217924
7592 174.9197818933808
7593 174.8635915966346
7594 174.7830833440432
7595 174.7269927148718
7596 174.64454426634
7597 174.5913943281154
7598 174.5121912402215
7599 174.4585944529986
7600 174.3807341685287
7601 174.3033632762862
7602 174.2266204534866
7603 174.1790850795202
7604 174.1062309085642
7605 174.0336728431128
7606 173.9631886697856
7607 173.9187628488386
7608 173.8192590217069
7609 173.7731232277436
7610 173.703611866867
7611 173.6273068990692
7612 173.5531063448198
7613 173.5049341946702
7614 173.4050736243769
7615 173.3574022718537
7616 173.2855336940447
7617 173.2056797869101
7618 173.1275409031737
7619 173.0464839965231
7620 172.9713543134732
7621 172.9169201976067
7622 172.8104901438618
7623 172.7562313792687
7624 172.6512493181857
7625 172.5963028278086
7626 172.4891276856714
7627 172.43344431892
7628 172.3259000091169
7629 172.2718190627743
7630 172.164431030104
7631 172.113039337901
7632 172.0097728612388
7633 171.9638208899163
7634 171.8595051620187
7635 171.8137316787823
7636 171.7137289961682
7637 171.6729070717934
7638 171.5799300469786
7639 171.5411402735833
7640 171.455678936888
7641 171.423579680892
7642 171.3420628701871
7643 171.3118091923163
7644 171.2375331220163
7645 171.2111420427075
7646 171.1382461085684
7647 171.113587856794
7648 171.0435643357766
7649 171.0198664020265
7650 170.9552854148839
7651 170.9324622282763
7652 170.8725336083006
7653 170.8500252408804
7654 170.7873876670293
7655 170.7521236310223
7656 170.7110944877016
7657 170.6737065222515
7658 170.6126356733778
7659 170.5787458730013
7660 170.539914509022
7661 170.5021887247239
7662 170.443938348999
7663 170.4129581104808
7664 170.3594664631484
7665 170.3246582720181
7666 170.2730932053858
7667 170.2318254135674
7668 170.1736693980187
7669 170.1314025325587
7670 170.0711507702446
7671 170.0301327205136
7672 169.9681341612529
7673 169.9250675104825
7674 169.8680236491039
7675 169.8262671388266
7676 169.7667354993235
7677 169.731558888711
7678 169.6794032487217
7679 169.6429881798892
7680 169.5900613345825
7681 169.5582457562105
7682 169.5086220730989
7683 169.4816591308077
7684 169.4335419985011
7685 169.4054411127083
7686 169.3676561704057
7687 169.3459383906987
7688 169.304072162411
7689 169.2855648287322
7690 169.2557197801721
7691 169.2296523908807
7692 169.1918788881289
7693 169.1795312365995
7694 169.1363713962176
7695 169.1165211519905
7696 169.0850023369007
7697 169.0694921999884
7698 169.0264101695576
7699 169.0146231433514
7700 168.9729669696714
7701 168.9612063324668
7702 168.9112457059028
7703 168.897006522788
7704 168.849393063134
7705 168.8370306266378
7706 168.7913608528734
7707 168.7780045505577
7708 168.7319008034255
7709 168.7194424144962
7710 168.6705495274974
7711 168.6584712273548
7712 168.6091985243681
7713 168.6001156419502
7714 168.5623097596059
7715 168.5425482910331
7716 168.5065774895927
7717 168.4964498739802
7718 168.4505067511923
7719 168.4403793937323
7720 168.402239137625
7721 168.3799121462334
7722 168.3432302348668
7723 168.3316546610043
7724 168.2934460850359
7725 168.2901314008773
7726 168.2673711295201
7727 168.2609077862058
7728 168.2405101903886
7729 168.2421248279629
7730 168.2244237990562
7731 168.2266790809063
7732 168.2161835376861
7733 168.2310375498608
7734 168.2296293223488
7735 168.2451725209624
7736 168.2518968312861
7737 168.2674416809467
7738 168.2746705639842
7739 168.294593945085
7740 168.304997796606
7741 168.3266809341531
7742 168.342798914532
7743 168.3682473051555
7744 168.3878724011646
7745 168.4158070867375
7746 168.4401575344058
7747 168.4702477005289
7748 168.4989355138743
7749 168.5302306739285
7750 168.561647777703
7751 168.5945054422396
7752 168.6266013938824
7753 168.6646411985387
7754 168.7011725910958
7755 168.735857945702
7756 168.7741810487948
7757 168.8093693492542
7758 168.848429496729
7759 168.8814106116739
7760 168.9208286242304
7761 168.958136708303
7762 168.9950068598566
7763 169.0305283277181
7764 169.0659256847621
7765 169.099030503073
7766 169.1360395758566
7767 169.1663520251365
7768 169.2010602185072
7769 169.2309888524613
7770 169.2626635401353
7771 169.291824529343
7772 169.3200142160008
7773 169.3471333172345
7774 169.3750786717656
7775 169.3997075942943
7776 169.4266489732464
7777 169.4541362133036
7778 169.4814479043986
7779 169.4952542522775
7780 169.521598327137
7781 169.5470159484448
7782 169.5653693954353
7783 169.5775538602109
7784 169.6007524346027
7785 169.6185803395077
7786 169.6278098332424
7787 169.6487327095838
7788 169.657003838042
7789 169.6825301737198
7790 169.6913035807814
7791 169.715940147437
7792 169.7268457777661
7793 169.7575860717739
7794 169.7660058889129
7795 169.7936377818459
7796 169.806287455972
7797 169.8331083614167
7798 169.8442843036772
7799 169.8694769870598
7800 169.8786974536732
7801 169.9020427562748
7802 169.9088379133564
7803 169.9303869531096
7804 169.939625440308
7805 169.9547847185632
7806 169.965823128657
7807 169.9836743355706
7808 169.9920150156643
7809 170.014763465301
7810 170.020060162438
7811 170.0369916563333
7812 170.0458625694537
7813 170.0622590695327
7814 170.0657059663735
7815 170.0870230657119
7816 170.0928748501469
7817 170.112938185979
7818 170.1351272759597
7819 170.1586020549255
7820 170.1868107580693
7821 170.2085678395046
7822 170.2364273225215
7823 170.2574345132042
7824 170.2878014609465
7825 170.3124765840329
7826 170.3458272795177
7827 170.3722319511022
7828 170.4025342183317
7829 170.4375955649091
7830 170.4587551339987
7831 170.4910011032125
7832 170.5172531540106
7833 170.5500041845611
7834 170.5671680714451
7835 170.5981836192708
7836 170.6177700023241
7837 170.6428358085346
7838 170.6623031148172
7839 170.6879427662202
7840 170.7087043562647
7841 170.7277272468743
7842 170.7472987615662
7843 170.7669933211112
7844 170.7834855662279
7845 170.8097957177795
7846 170.8264232435379
7847 170.8517512520224
7848 170.8767715885956
7849 170.903612030955
7850 170.9317213718216
7851 170.9638135357733
7852 171.0011619382316
7853 171.0391445298097
7854 171.0780940573093
7855 171.1174445478188
7856 171.1477538080801
7857 171.1985234880235
7858 171.2442831813761
7859 171.2974014507921
7860 171.3486228840014
7861 171.4117790439709
7862 171.4605416921718
7863 171.5026476516217
7864 171.5537450553109
7865 171.6179319674073
7866 171.6662557592172
7867 171.7347281809184
7868 171.7699299165855
7869 171.8372602923815
7870 171.8916287759582
7871 171.9617763231376
7872 171.9995421389049
7873 172.0731824175258
7874 172.1255857547104
7875 172.1755131050486
7876 172.2309766016588
7877 172.2987586414917
7878 172.3268334796514
7879 172.3915975837816
7880 172.4335613491404
7881 172.4765586480577
7882 172.5217472984097
7883 172.5773732940181
7884 172.5971147376585
7885 172.6445305320252
7886 172.6687891570829
7887 172.6988536941077
7888 172.7205705184099
7889 172.7547604980992
7890 172.7677206449947
7891 172.7940664143618
7892 172.794927430562
7893 172.8056618835488
7894 172.7956314566399
7895 172.8036774498733
7896 172.7838580164644
7897 172.7784821155316
7898 172.7541686831382
7899 172.7398040973764
7900 172.7053571953233
7901 172.6846019674394
7902 172.6506539247665
7903 172.6259384228886
7904 172.5855305344956
7905 172.5593923671183
7906 172.512028484368
7907 172.4772722357368
7908 172.4292287283306
7909 172.3931216251925
7910 172.3399227756977
7911 172.3135302327461
7912 172.2547531449148
7913 172.2134241959552
7914 172.1506868359289
7915 172.1217349529417
7916 172.0555435915524
7917 172.0160223120997
7918 171.9674230584728
7919 171.920153938342
7920 171.8714201101377
7921 171.8300840950338
7922 171.7852513808534
7923 171.7471001295809
7924 171.7041633083876
7925 171.6688045312791
7926 171.6290676642965
7927 171.6078105897074
7928 171.5588255440884
7929 171.5381326766335
7930 171.496266490835
7931 171.4866122636814
7932 171.4545807374802
7933 171.4482438799789
7934 171.4233572235185
7935 171.4169622593791
7936 171.3920402791591
7937 171.3954749745327
7938 171.3776114976458
7939 171.3772400186512
7940 171.3607310632838
7941 171.3647998180387
7942 171.3472566950243
7943 171.348846332474
7944 171.3342962559575
7945 171.3354538715031
7946 171.3196427797913
7947 171.3198728191937
7948 171.3032151634701
7949 171.300946460946
7950 171.281990515972
7951 171.2809580624802
7952 171.2600108947114
7953 171.2548475744601
7954 171.2388332400683
7955 171.2356423244587
7956 171.2142843109779
7957 171.2080476231283
7958 171.185625160057
7959 171.170048662403
7960 171.1373857165754
7961 171.1225750891811
7962 171.0861953683888
7963 171.076526235175
7964 171.0400385964192
7965 171.0041317471252
7966 170.9692211954452
7967 170.9246369678331
7968 170.8783804815386
7969 170.825982495492
7970 170.7561315426477
7971 170.726301522269
7972 170.6480567932085
7973 170.5913171049397
7974 170.5162151745985
7975 170.461395460547
7976 170.3896067205175
7977 170.3433436470448
7978 170.2807730602722
7979 170.2421037017771
7980 170.189390562819
7981 170.1602217040581
7982 170.1211318345996
7983 170.1053989217224
7984 170.069903376808
7985 170.059871553197
7986 170.0356186518152
7987 170.0362884360356
7988 170.0232255235973
7989 170.0279893620724
7990 170.0174061635732
7991 170.0265474278401
7992 170.0160211410569
7993 170.0226930538904
7994 170.0167807025354
7995 170.0246854866218
7996 170.0243264532282
7997 170.0376670594107
7998 170.0300200319007
7999 170.0393531590556
8000 170.0296921050539
8001 170.0428206403198
8002 170.0305509709634
8003 170.0339567635067
8004 170.0168991454638
8005 170.0201836109698
8006 169.9987255315199
8007 169.9920916667236
8008 169.9527549035726
8009 169.9328268927248
8010 169.8844914075588
8011 169.8485469404733
8012 169.7832037968361
8013 169.7502734114685
8014 169.6783173499474
8015 169.6243978985468
8016 169.5654896724575
8017 169.499308286782
8018 169.4351326350822
8019 169.3591956450642
8020 169.289742808115
8021 169.2066291788977
8022 169.131901515954
8023 169.0416816583561
8024 168.9675695867763
8025 168.872276602376
8026 168.7934318868055
8027 168.6945177668022
8028 168.6188953991058
8029 168.5195031596369
8030 168.4033379780109
8031 168.3423436970973
8032 168.2266270246099
8033 168.1329225735764
8034 168.0243840273831
8035 167.9414540381231
8036 167.8463517096512
8037 167.7705514920166
8038 167.6799532479857
8039 167.6126504777602
8040 167.525889486575
8041 167.4609946775646
8042 167.3813150673412
8043 167.3395372764522
8044 167.2582834214104
8045 167.2032697828596
8046 167.1505435300875
8047 167.091648942644
8048 167.0362801850077
8049 166.9865648981087
8050 166.9343701345998
8051 166.8834605454443
8052 166.829511986784
8053 166.791970615242
8054 166.7263305693266
8055 166.6958229696366
8056 166.6374749099754
8057 166.609177554709
8058 166.5593600711987
8059 166.5339730544609
8060 166.4867580883246
8061 166.4573864173957
8062 166.4166226758277
8063 166.3921876549627
8064 166.3595777181927
8065 166.3355373841669
8066 166.3017351045118
8067 166.284076631984
8068 166.2520633686933
8069 166.2390458572527
8070 166.2090825975006
8071 166.1962823325671
8072 166.1675354511562
8073 166.1568429490846
8074 166.1302035916539
8075 166.1242717744801
8076 166.1010429872392
8077 166.0954313436145
8078 166.07445941445
8079 166.0706316164764
8080 166.0521612341153
8081 166.0488445332599
8082 166.0308847399505
8083 166.0266245652684
8084 166.0110537064346
8085 166.0165779267325
8086 166.0065268382733
8087 166.008458621292
8088 165.9960278843395
8089 166.0071945140405
8090 166.0046718933876
8091 166.0157692190182
8092 166.0077640716971
8093 166.0143966429669
8094 166.0071324295213
8095 166.0149404749511
8096 166.0085190592913
8097 166.0212681121903
8098 166.0128911446852
8099 166.0203198779437
8100 166.0084749429809
8101 166.0186182369378
8102 166.0018757305476
8103 166.0094562853738
8104 165.9961581363463
8105 165.9946326581535
8106 165.9729989564771
8107 165.9697826599136
8108 165.9440139897543
8109 165.9412630371638
8110 165.9077690933178
8111 165.8996286972495
8112 165.8614183038941
8113 165.8421371350797
8114 165.811884969731
8115 165.7853648683251
8116 165.7430985842958
8117 165.7239095463615
8118 165.6820370951504
8119 165.6595636527183
8120 165.6218085477582
8121 165.5991400268103
8122 165.5638905210032
8123 165.5507900514966
8124 165.5150306727228
8125 165.4967611300075
8126 165.4682782239327
8127 165.4557800868484
8128 165.4237112396765
8129 165.4148975373579
8130 165.3827131219048
8131 165.3708546366185
8132 165.3448304193419
8133 165.3334256347612
8134 165.3044698116432
8135 165.2969766552114
8136 165.271235180897
8137 165.2652587812312
8138 165.2425885553309
8139 165.2396707708697
8140 165.2168998650984
8141 165.2176825903007
8142 165.1990639285177
8143 165.2030871765767
8144 165.1801898666129
8145 165.1859737481172
8146 165.1694475815132
8147 165.1693487243699
8148 165.1441459541048
8149 165.1472337869041
8150 165.1178168127343
8151 165.1108183163813
8152 165.0718758071657
8153 165.0573222357433
8154 165.0184188726591
8155 164.994467850912
8156 164.9396716052495
8157 164.910419167612
8158 164.8519956309736
8159 164.8255598025031
8160 164.7519150408442
8161 164.707545031918
8162 164.6335678341161
8163 164.6011485178773
8164 164.5209721140349
8165 164.4632734053433
8166 164.4035516720212
8167 164.3332013608024
8168 164.2467447781977
8169 164.2067966063455
8170 164.1164668822684
8171 164.0728157082812
8172 163.9814964523235
8173 163.942333016798
8174 163.8552766114052
8175 163.8174143394039
8176 163.7372450149172
8177 163.7031160153091
8178 163.6306825190184
8179 163.6036690368687
8180 163.5393553153013
8181 163.5217515610587
8182 163.4660893859311
8183 163.4544020959462
8184 163.4080173605649
8185 163.4060085580874
8186 163.3753470149379
8187 163.3792925545893
8188 163.361476862236
8189 163.3758035404863
8190 163.3697386680026
8191 163.3900822113822
8192 163.4023733325525
8193 163.4411900681421
8194 163.450464488767
8195 163.4944727552945
8196 163.5086156753777
8197 163.5660329361534
8198 163.5833642591984
8199 163.6448851823904
8200 163.6640710821183
8201 163.7264351771268
8202 163.7486216925724
8203 163.8109953606857
8204 163.8304966096009
8205 163.8899374206893
8206 163.9071798353505
8207 163.9635077986359
8208 163.9772833059865
8209 164.027470557176
8210 164.0345952694933
8211 164.0727799668504
8212 164.0751534889875
8213 164.1067073243712
8214 164.1045302663639
8215 164.1282206174007
8216 164.1209746657658
8217 164.1452041368239
8218 164.1283358542102
8219 164.139427082419
8220 164.1210073234203
8221 164.1246673062008
8222 164.0979125466582
8223 164.0913459413178
8224 164.0639666903036
8225 164.0570833438975
8226 164.0184715361842
8227 164.0203302382437
8228 163.9822773063099
8229 163.9704511795732
8230 163.9366147665326
8231 163.9226535295805
8232 163.8766397435512
8233 163.8729305776613
8234 163.8348577768535
8235 163.8188382275167
8236 163.7873693295898
8237 163.7739555032147
8238 163.7356700150047
8239 163.7336737422759
8240 163.7006381906875
8241 163.6920348303716
8242 163.6630323573323
8243 163.6557113877598
8244 163.6242926477962
8245 163.6242589662819
8246 163.5995185074583
8247 163.5941551522553
8248 163.5717356845521
