"cx-rfile"
"Iteration" "cx"
("Iteration" "cx")
1 2.072110042560706
2 1.867876487513021
3 1.420858428967112
4 1.14553911282116
5 0.8602766596006637
6 0.6468453996953808
7 0.4961237134653355
8 0.3925390211192244
9 0.2883313951951993
10 0.1960248394083893
11 0.1112621516387802
12 0.04460158462101586
13 -0.007102838993573249
14 -0.04499757047705571
15 -0.07232615213018491
16 -0.08801598745095979
17 -0.09751674463986389
18 -0.1012991446111684
19 -0.1014118335295258
20 -0.0990864790246359
21 -0.09456950051270141
22 -0.08976161070597433
23 -0.08416221917008551
24 -0.0782115237849224
25 -0.07296148373341245
26 -0.0680055315527268
27 -0.06355461914554421
28 -0.05962561674227153
29 -0.05629473041537
30 -0.05395971724186342
31 -0.05199174810028855
32 -0.05079673625076832
33 -0.05009930664962913
34 -0.04992825224205562
35 -0.05018570371737764
36 -0.05077855413221839
37 -0.05196877861063345
38 -0.05334064795711257
39 -0.05524864874138263
40 -0.05745936825117645
41 -0.05986791851819713
42 -0.06237554955639264
43 -0.06516103425739031
44 -0.06770071277764377
45 -0.07054240259297855
46 -0.07343764316077436
47 -0.07608120552071213
48 -0.0788072129431031
49 -0.08120300104815543
50 -0.08368702766895643
51 -0.08629305454395024
52 -0.08829882063963282
53 -0.09108659822794576
54 -0.09365869191534967
55 -0.09617514472549511
56 -0.09893846999682407
57 -0.1010140923329359
58 -0.1032998016742773
59 -0.1053669476697365
60 -0.1068834187475448
61 -0.1086903945547282
62 -0.1099927993080502
63 -0.111363822914232
64 -0.112625040784245
65 -0.1136825700690543
66 -0.1147319097304217
67 -0.1158880299529457
68 -0.1169737521055405
69 -0.1181339786278874
70 -0.1192196712642295
71 -0.1203517785319493
72 -0.1213926269531316
73 -0.1224802684361023
74 -0.1234719192218888
75 -0.1245041438512673
76 -0.1254426084240788
77 -0.1264210895191661
78 -0.1273078062968077
79 -0.1282361579851394
80 -0.1290755632616616
81 -0.1299547168514386
82 -0.1307490462836492
83 -0.1315770192065633
84 -0.1323288765131581
85 -0.1331204004572334
86 -0.1338294905640027
87 -0.1343831842112946
88 -0.135131433105856
89 -0.1356842205982054
90 -0.1364381595406957
91 -0.1369876931198319
92 -0.1375093971369029
93 -0.1380919165689616
94 -0.1386278404087608
95 -0.1392176318501974
96 -0.1397502767884606
97 -0.1403357473266028
98 -0.1408556518643323
99 -0.1414271404853486
100 -0.1419228295040041
101 -0.1424667662208819
102 -0.1429358472109573
103 -0.1434570002654731
104 -0.1439005255713425
105 -0.1443864587587312
106 -0.1447986817752845
107 -0.1452610841171768
108 -0.1456446542685794
109 -0.1460723800146085
110 -0.1464292146797235
111 -0.146836918263011
112 -0.1471713957189801
113 -0.1475528813362979
114 -0.1478635284537323
115 -0.1482203747178777
116 -0.1485079222673825
117 -0.1488420280504268
118 -0.1491089229212356
119 -0.1494224328082182
120 -0.1496683941205786
121 -0.1499665335035559
122 -0.1502022422589285
123 -0.1504886730552176
124 -0.150703807803204
125 -0.1509762872673768
126 -0.1511763366519672
127 -0.1514310956221761
128 -0.1516166090700232
129 -0.1518545908881654
130 -0.1520236116335127
131 -0.152247231138321
132 -0.1524045395504044
133 -0.1526152683027639
134 -0.1527610425134654
135 -0.152958653888737
136 -0.1530903416650086
137 -0.1532731603712984
138 -0.153395333940183
139 -0.1535700893361587
140 -0.1536802959024705
141 -0.1538429617627998
142 -0.1539414448946128
143 -0.1540936842047925
144 -0.1541839585955724
145 -0.1543248765191517
146 -0.1544042908272172
147 -0.1545377251117805
148 -0.1546106412857153
149 -0.1547356169262873
150 -0.154802916807163
151 -0.1549240261312293
152 -0.1549833282189
153 -0.1550982071524816
154 -0.1551522812898329
155 -0.1552633069109081
156 -0.1553121405924762
157 -0.1554168209375747
158 -0.1554636879417632
159 -0.1556023864263455
160 -0.1556338107296294
161 -0.1557583919317398
162 -0.1557835184563829
163 -0.1559048078095506
164 -0.1559299144790635
165 -0.1560501421846053
166 -0.1560750681901033
167 -0.1561977290235491
168 -0.1562497866672262
169 -0.1563359056526342
170 -0.1564007816911627
171 -0.1565195522824716
172 -0.1565745407167971
173 -0.1566650934589612
174 -0.1567380866729296
175 -0.1568641571189251
176 -0.1569258369407295
177 -0.1570522152101034
178 -0.1571139435922751
179 -0.1572410642688481
180 -0.1573039203805421
181 -0.1574035648982442
182 -0.1574850639373895
183 -0.1576290569048078
184 -0.1577057855636063
185 -0.1578474915893225
186 -0.1579222087503295
187 -0.1580662160334677
188 -0.1581075538901501
189 -0.1582714310062722
190 -0.1583570374173882
191 -0.1584773965515713
192 -0.158584179576257
193 -0.1587499937208602
194 -0.1588070874908644
195 -0.1589897946626888
196 -0.1590488370218322
197 -0.1592401050901133
198 -0.1593023216722687
199 -0.1594972192624344
200 -0.1595589880382153
201 -0.1597131309979299
202 -0.1598442278202779
203 -0.1599907556937926
204 -0.1600684090967409
205 -0.1602320457302396
206 -0.1603192405343951
207 -0.1604909441086536
208 -0.1605863221167093
209 -0.1607609123493866
210 -0.1608573461570497
211 -0.16103204613848
212 -0.1611330503491156
213 -0.161302679523118
214 -0.1614024304212523
215 -0.1615735016779262
216 -0.1616733420935017
217 -0.161841981841822
218 -0.1619412008975015
219 -0.1621089847634621
220 -0.1622062968397512
221 -0.1623710992427145
222 -0.1624672078033635
223 -0.1626330755886174
224 -0.1627273926903142
225 -0.1628892989499475
226 -0.1629821550914771
227 -0.1631436511213727
228 -0.1632351054815016
229 -0.163391549281529
230 -0.1634806530072514
231 -0.1636360691240874
232 -0.1637201424969595
233 -0.1638716101236252
234 -0.1639518263600244
235 -0.1640983960808236
236 -0.1641731530490597
237 -0.1643176966043874
238 -0.1643882948777441
239 -0.1645266172001396
240 -0.1645914806431142
241 -0.1647186471479622
242 -0.1647780599903526
243 -0.1648989310469528
244 -0.1649483152911901
245 -0.1650632240471424
246 -0.1651043332076062
247 -0.1652138487046953
248 -0.1652484306811814
249 -0.1653469687182063
250 -0.1653747764755366
251 -0.1654683810791217
252 -0.1654905099073783
253 -0.1655761557528241
254 -0.1655928918286503
255 -0.1656733794546705
256 -0.1656844576127994
257 -0.1657606170135253
258 -0.1657678584976614
259 -0.1658376108629903
260 -0.1658405873209637
261 -0.1659062523529525
262 -0.1659067157956033
263 -0.1659634744231413
264 -0.1659607658019482
265 -0.1660172911889826
266 -0.1660116910865394
267 -0.1660668850788501
268 -0.166058656554007
269 -0.1661115684960275
270 -0.1661019729480576
271 -0.1661519291822078
272 -0.1661390565036489
273 -0.1661872204695128
274 -0.166173429075851
275 -0.1662212042255303
276 -0.1662032854214772
277 -0.1662468684297986
278 -0.1662301143481093
279 -0.1662798264868572
280 -0.1662595330532388
281 -0.1663066159633764
282 -0.1662876993887921
283 -0.1663354306777543
284 -0.166317671233961
285 -0.1663635360238646
286 -0.1663474478739795
287 -0.1663946987398978
288 -0.1663784982323847
289 -0.1664266351121148
290 -0.1664125028304892
291 -0.1664609063315042
292 -0.1664501720594193
293 -0.1665029523438813
294 -0.1664934395413596
295 -0.1665481063277004
296 -0.1665428213713432
297 -0.1665966851208564
298 -0.1665955605613721
299 -0.1666528577747916
300 -0.1666687349324808
301 -0.1667232117695849
302 -0.1667263576736564
303 -0.1667879757892371
304 -0.1667928745724399
305 -0.1668527169156872
306 -0.1668614654886248
307 -0.1669459472403928
308 -0.166952832924331
309 -0.1670163577592464
310 -0.1670224388512552
311 -0.167092576103692
312 -0.1670986498306791
313 -0.1671871265047107
314 -0.1671908987649041
315 -0.1672638405476338
316 -0.1672701844950391
317 -0.1673431381270726
318 -0.1673500546012268
319 -0.1674267716797524
320 -0.1674583874532966
321 -0.1675303357184224
322 -0.1675405790080316
323 -0.167619437615706
324 -0.1676328625700203
325 -0.1677144966709948
326 -0.1677283126919724
327 -0.167836712071328
328 -0.1678490778158995
329 -0.1679295404546862
330 -0.1679469723162171
331 -0.1680342346053627
332 -0.1680534785963124
333 -0.1681417493113177
334 -0.1681644392076766
335 -0.1682521143980386
336 -0.1682768234064617
337 -0.168365904509461
338 -0.1683922276702097
339 -0.1684811004692216
340 -0.1685089470998784
341 -0.1685920489895089
342 -0.1686217612397409
343 -0.168704517997699
344 -0.1687312132954253
345 -0.1688133636833279
346 -0.1688402074908335
347 -0.1689242924805845
348 -0.1689512225204179
349 -0.1690333860796678
350 -0.1690592908449219
351 -0.1691409477973222
352 -0.1691675343101159
353 -0.1692487979682621
354 -0.1692763503471565
355 -0.1693591816352512
356 -0.1693867844827019
357 -0.1694702291459424
358 -0.169497245238735
359 -0.1695810288554889
360 -0.1696103189724033
361 -0.169693656548482
362 -0.1697224482762894
363 -0.1698075620488237
364 -0.1698369785951132
365 -0.1699230175487024
366 -0.1699529347453544
367 -0.1700379877483517
368 -0.1700706903218495
369 -0.1701600439034236
370 -0.1701893039283843
371 -0.1702778324153516
372 -0.170306851731715
373 -0.1703971690376724
374 -0.1704250092148785
375 -0.1705141499762044
376 -0.1705426091176778
377 -0.1706272191617784
378 -0.1706571645457776
379 -0.170740761663101
380 -0.1707705906147531
381 -0.1708545041308503
382 -0.1708801662376427
383 -0.1709645099932798
384 -0.1709914993609109
385 -0.171074212810335
386 -0.1710996034433984
387 -0.1711827149356155
388 -0.1712083466198782
389 -0.1712926070307692
390 -0.171317247961985
391 -0.1713992606871194
392 -0.1714257994848268
393 -0.1715107511978669
394 -0.1715324660415681
395 -0.1716159987087502
396 -0.1716392442016406
397 -0.171724696227948
398 -0.1717475161551418
399 -0.1718311038721019
400 -0.1718582110635112
401 -0.1719420990881728
402 -0.1719651345932173
403 -0.1720486197710624
404 -0.1720719490527906
405 -0.172153780139979
406 -0.1721760473416567
407 -0.1722574029320193
408 -0.1722800326371238
409 -0.1723594372078403
410 -0.1723832798048981
411 -0.172459915125427
412 -0.1724857615527239
413 -0.1725605343226169
414 -0.1725847925749187
415 -0.1726592225545142
416 -0.1726846321488757
417 -0.1727603393585011
418 -0.172784167514115
419 -0.1728576799477721
420 -0.1728805996877462
421 -0.172956906696701
422 -0.172978751072152
423 -0.1730542340354629
424 -0.1730733754012103
425 -0.1731496799705599
426 -0.17317056186428
427 -0.1732455794214798
428 -0.17326639884145
429 -0.1733431004469174
430 -0.1733638161889629
431 -0.1734402752726225
432 -0.1734593588646089
433 -0.1735350754751734
434 -0.1735547343341851
435 -0.1736327501113975
436 -0.1736523930874886
437 -0.1737299649321165
438 -0.17374757239323
439 -0.1738222899727071
440 -0.1738421518700999
441 -0.1739141674653287
442 -0.1739327447712322
443 -0.1740038650451793
444 -0.1740215590964634
445 -0.1740907932999802
446 -0.1741096786823897
447 -0.1741751586216545
448 -0.1741953475209681
449 -0.1742620466944502
450 -0.1742800108008754
451 -0.1743458939999634
452 -0.1743649146169952
453 -0.1744280440524621
454 -0.1744469613224104
455 -0.174508758708604
456 -0.174529826240847
457 -0.1745917284585581
458 -0.1746101902813025
459 -0.1746741995162548
460 -0.1746898043605395
461 -0.1747544498160442
462 -0.1747697860791243
463 -0.1748368400759244
464 -0.1748511960177225
465 -0.1749195181659573
466 -0.1749325794361245
467 -0.1749993303648238
468 -0.1750122780853759
469 -0.1750822104359856
470 -0.1750926768126922
471 -0.1751639147641943
472 -0.1751730646966131
473 -0.1752455341840374
474 -0.1752502262334391
475 -0.1753235567020191
476 -0.1753270483375567
477 -0.1754010841490714
478 -0.1754029218882195
479 -0.1754764768033851
480 -0.1754778606822224
481 -0.1755490048510898
482 -0.1755519746354047
483 -0.1756198674498065
484 -0.1756233258330767
485 -0.1756926292917782
486 -0.175696080790771
487 -0.1757627232052389
488 -0.1757661531815887
489 -0.1758332383209424
490 -0.1758378452245328
491 -0.1759011724592028
492 -0.1759042139487679
493 -0.1759700312493204
494 -0.1759745727962017
495 -0.1760383465394865
496 -0.1760434969358654
497 -0.1761064386354056
498 -0.1761127908188216
499 -0.1761730309719652
500 -0.1761812237633221
501 -0.1762421790494395
502 -0.1762499042057543
503 -0.1763094522180958
504 -0.1763166941140585
505 -0.1763792615282597
506 -0.1763841570527185
507 -0.1764449957720811
508 -0.1764471164823224
509 -0.1765095813051806
510 -0.1765142779863788
511 -0.1765756641076409
512 -0.1765775899229153
513 -0.1766407559657001
514 -0.1766412870811646
515 -0.1767006842708694
516 -0.1767020611559809
517 -0.1767635231650501
518 -0.1767615321768
519 -0.176821945906211
520 -0.1768203480111177
521 -0.1768813316708743
522 -0.1768787303309253
523 -0.1769378080362866
524 -0.1769318008707995
525 -0.1769926302374924
526 -0.1769898109962098
527 -0.1770474677603307
528 -0.1770451491113579
529 -0.177102504485889
530 -0.1771010710757173
531 -0.1771565079236108
532 -0.1771574074071642
533 -0.177212171897818
534 -0.1772122558827935
535 -0.1772659226043184
536 -0.1772661401951425
537 -0.1773201683021376
538 -0.1773209013711996
539 -0.1773729924314129
540 -0.1773720894555693
541 -0.1774258116794501
542 -0.1774262314810087
543 -0.1774785771531233
544 -0.1774785200605225
545 -0.1775306551360865
546 -0.1775307918261184
547 -0.1775817759169367
548 -0.1775801096841625
549 -0.1776317188134044
550 -0.1776288304329064
551 -0.1776821813667893
552 -0.1776755081336233
553 -0.1777278750977396
554 -0.1777215594938494
555 -0.1777750589726462
556 -0.1777652077285427
557 -0.1778211515618905
558 -0.1778094077603915
559 -0.1778646561671534
560 -0.1778547661405352
561 -0.1779099421436587
562 -0.1778999175260121
563 -0.1779546821415986
564 -0.1779439625925301
565 -0.1779956653926515
566 -0.1779885906669352
567 -0.1780388214280643
568 -0.1780330880131969
569 -0.1780825545074759
570 -0.1780767488804193
571 -0.178123668653982
572 -0.178119357814696
573 -0.1781666779612797
574 -0.1781590543413408
575 -0.1782062632958826
576 -0.1782021097421412
577 -0.1782481144342561
578 -0.178241934793124
579 -0.1782857545887424
580 -0.1782838643523533
581 -0.1783294874427841
582 -0.1783227804609134
583 -0.178366718485413
584 -0.1783633689789877
585 -0.1784095882679626
586 -0.1784002634734505
587 -0.1784469388765768
588 -0.1784378817486483
589 -0.1784845564828366
590 -0.1784705898937082
591 -0.1785179131365421
592 -0.1785091085770956
593 -0.1785563297802725
594 -0.1785429494052328
595 -0.1785870762894906
596 -0.1785804286720001
597 -0.178625045696259
598 -0.1786156583976513
599 -0.1786583753000175
600 -0.1786513742318268
601 -0.1786952879101481
602 -0.178684484744003
603 -0.1787285318636325
604 -0.1787212380891348
605 -0.1787641782239425
606 -0.178752358650396
607 -0.1787953595547371
608 -0.1787876067786449
609 -0.1788314690620702
610 -0.178821494498081
611 -0.1788642798186977
612 -0.1788554041501683
613 -0.1788991674873356
614 -0.1788891059301422
615 -0.178931430140966
616 -0.1789215663336274
617 -0.1789650488653582
618 -0.1789528590506071
619 -0.1789970118499902
620 -0.1789858066670331
621 -0.1790302521851927
622 -0.1790162789878573
623 -0.1790583656050007
624 -0.1790472055041444
625 -0.1790896017424966
626 -0.1790760411139502
627 -0.1791172154814867
628 -0.1791072510897177
629 -0.1791460199481519
630 -0.1791334593698374
631 -0.1791704880845779
632 -0.179161267256743
633 -0.1791985465334326
634 -0.1791875063846713
635 -0.1792221921666756
636 -0.1792146051337932
637 -0.1792501390572405
638 -0.1792399237958686
639 -0.1792744174685371
640 -0.1792666152712159
641 -0.1793021104688447
642 -0.1792912245424814
643 -0.179329210350664
644 -0.1793197849286886
645 -0.1793560796994131
646 -0.1793459966303331
647 -0.1793834482847766
648 -0.1793746505608478
649 -0.1794128698571446
650 -0.179399894691886
651 -0.1794406843585016
652 -0.179428152860704
653 -0.1794684762770734
654 -0.1794532598903669
655 -0.1794947573149538
656 -0.1794771520159236
657 -0.1795194678036905
658 -0.1795021900189254
659 -0.1795455687130499
660 -0.1795264817528335
661 -0.1795695954323484
662 -0.1795493873445198
663 -0.1795913956168393
664 -0.1795732633129284
665 -0.1796143685018271
666 -0.1795952778226821
667 -0.179636033721132
668 -0.1796179935639269
669 -0.1796584111462519
670 -0.1796388324744266
671 -0.1796786407173311
672 -0.179658873010664
673 -0.1797016153839791
674 -0.1796793952719658
675 -0.1797184208787345
676 -0.1797034841138327
677 -0.179740400686174
678 -0.1797234106320863
679 -0.1797583185658081
680 -0.1797459313292536
681 -0.1797799833717706
682 -0.1797669603154395
683 -0.1798015757089202
684 -0.1797892863393405
685 -0.1798254646160112
686 -0.1798119419775779
687 -0.1798466381124227
688 -0.1798303239488723
689 -0.1798718659249386
690 -0.1798513628353779
691 -0.1798929287812973
692 -0.1798744192147872
693 -0.1799163483570174
694 -0.1798970820553042
695 -0.1799360149221731
696 -0.1799161765451822
697 -0.1799576379894665
698 -0.1799359566935408
699 -0.1799760164104913
700 -0.1799559560929269
701 -0.1799967646680328
702 -0.1799764442354301
703 -0.1800152610887527
704 -0.1799930980884661
705 -0.1800341827611996
706 -0.1800136989756889
707 -0.1800484002461918
708 -0.1800298339034627
709 -0.1800639200288443
710 -0.1800464437736513
711 -0.1800808188357972
712 -0.1800635114717431
713 -0.1800970266111044
714 -0.180081591843244
715 -0.1801138697059286
716 -0.1800969287194089
717 -0.1801297245419672
718 -0.1801157521514705
719 -0.1801468786370392
720 -0.1801305886473517
721 -0.1801658693324486
722 -0.1801478803540901
723 -0.1801820327316455
724 -0.1801670911746173
725 -0.1802017708203112
726 -0.180184064421531
727 -0.1802166267462418
728 -0.1802008284195337
729 -0.1802361202108464
730 -0.1802178218196609
731 -0.1802533930452664
732 -0.1802341546529493
733 -0.1802720376743518
734 -0.1802509977606345
735 -0.1802873916845899
736 -0.1802642416993092
737 -0.1803070854488231
738 -0.1802813415289728
739 -0.1803188580003391
740 -0.1802952682435041
741 -0.1803321708148106
742 -0.1803110640214639
743 -0.180343644505703
744 -0.1803239809441523
745 -0.1803610841480449
746 -0.1803375447891357
747 -0.1803722954537436
748 -0.1803530253767017
749 -0.1803875123334422
750 -0.1803651241760777
751 -0.180398258130634
752 -0.1803763444572009
753 -0.1804142029956609
754 -0.1803910568921794
755 -0.1804242098494343
756 -0.1804061604354623
757 -0.180440912718108
758 -0.1804210777174172
759 -0.1804525654757725
760 -0.1804345681650892
761 -0.1804675699579796
762 -0.1804486905096037
763 -0.1804821645288404
764 -0.1804629319541632
765 -0.1804988311745628
766 -0.180476568105587
767 -0.1805136446303061
768 -0.1804886387750643
769 -0.1805318240544521
770 -0.1805036890732581
771 -0.1805427523674344
772 -0.18051868586686
773 -0.1805568453016689
774 -0.180533134061895
775 -0.1805689558049594
776 -0.1805462797860094
777 -0.1805818781424406
778 -0.1805577359230662
779 -0.1805920801861486
780 -0.1805681634048094
781 -0.1806034027266267
782 -0.1805784726202659
783 -0.1806140431145339
784 -0.1805885930057647
785 -0.1806268538748448
786 -0.1806006753019689
787 -0.1806351499297771
788 -0.1806114729029332
789 -0.1806478228973663
790 -0.1806260594410151
791 -0.180657495562402
792 -0.1806347142377436
793 -0.1806700727097503
794 -0.1806462128435646
795 -0.1806795581995432
796 -0.1806566962541135
797 -0.1806925760332412
798 -0.1806695780074598
799 -0.1807038892394585
800 -0.1806795635103274
801 -0.1807172341812571
802 -0.18069221261962
803 -0.1807252322348389
804 -0.1807031957878296
805 -0.1807391412748166
806 -0.1807163774726751
807 -0.180748864428985
808 -0.1807262904475174
809 -0.1807615356051469
810 -0.1807389131899924
811 -0.1807731112912059
812 -0.1807468593327379
813 -0.1807841185749476
814 -0.1807607544095989
815 -0.1807936652826101
816 -0.1807660602236358
817 -0.1808056284710461
818 -0.1807773943527389
819 -0.1808113923146061
820 -0.1807851566169895
821 -0.1808220540216964
822 -0.1807955833449585
823 -0.1808292484042961
824 -0.1808045926954787
825 -0.1808399951290846
826 -0.1808134735303681
827 -0.1808489706307715
828 -0.1808228928296317
829 -0.1808599105608953
830 -0.1808334973568446
831 -0.1808683173505714
832 -0.1808411491042318
833 -0.1808815998788907
834 -0.1808528646643883
835 -0.1808876873581582
836 -0.180864132134287
837 -0.1808989009083361
838 -0.1808751418699967
839 -0.1809061541188423
840 -0.1808827687880064
841 -0.1809159157442355
842 -0.180893228319603
843 -0.180921819587329
844 -0.1808999416543075
845 -0.1809327285843899
846 -0.1809047102096717
847 -0.1809391308202657
848 -0.1809112329472861
849 -0.1809494181194814
850 -0.1809194569434548
851 -0.1809556709313613
852 -0.1809259981116186
853 -0.1809635088631941
854 -0.1809348351281728
855 -0.18096859939871
856 -0.1809406023893328
857 -0.1809778685108117
858 -0.1809482846382702
859 -0.1809854765595696
860 -0.180956962805501
861 -0.1809973503544914
862 -0.1809663235539586
863 -0.1810072406548714
864 -0.1809743498168453
865 -0.1810204794606109
866 -0.18098402875145
867 -0.1810269210536488
868 -0.1809972569609994
869 -0.1810376962374977
870 -0.181006042330057
871 -0.1810451631420776
872 -0.1810178330026547
873 -0.1810534922093289
874 -0.1810250355064171
875 -0.1810617702436238
876 -0.1810346705696326
877 -0.1810686382999165
878 -0.1810397779315611
879 -0.1810743869379389
880 -0.1810450295237227
881 -0.1810806088069315
882 -0.1810490896585169
883 -0.1810823562827779
884 -0.18105534729643
885 -0.1810882020577233
886 -0.1810606648661097
887 -0.1810897575929244
888 -0.1810623545751585
889 -0.1810942950522002
890 -0.1810662746570245
891 -0.1811006959679624
892 -0.1810709228068565
893 -0.1811067931960811
894 -0.181076403573598
895 -0.1811151877999577
896 -0.1810811893233294
897 -0.1811239331264388
898 -0.1810885915375811
899 -0.1811297675518825
900 -0.1810976793904546
901 -0.1811412965401214
902 -0.1811064650247869
903 -0.1811481107902966
904 -0.1811165452954477
905 -0.1811592065535317
906 -0.1811259535316265
907 -0.1811671766163965
908 -0.1811384206639361
909 -0.1811771220138497
910 -0.1811478710136109
911 -0.1811825765981382
912 -0.1811546643547662
913 -0.1811912456040894
914 -0.1811613455174865
915 -0.1811910792792533
916 -0.1811679131638951
917 -0.1811979379115455
918 -0.1811724890240503
919 -0.1811984893849328
920 -0.1811768506727178
921 -0.1812031116915438
922 -0.181178376593297
923 -0.1812053263744396
924 -0.1811824167225372
925 -0.1812116411504402
926 -0.1811841081515466
927 -0.1812122429361463
928 -0.1811853403859337
929 -0.1812183918457102
930 -0.1811883165508948
931 -0.1812185391696496
932 -0.1811923215917247
933 -0.1812249009634297
934 -0.1811984097014141
935 -0.1812284877811081
936 -0.1812024879722022
937 -0.1812372560330328
938 -0.1812090711872309
939 -0.1812443091546668
940 -0.1812166945383895
941 -0.1812567357725822
942 -0.1812251897005201
943 -0.1812622416125844
944 -0.1812322546249574
945 -0.1812732408998854
946 -0.1812396319504185
947 -0.1812757901131653
948 -0.1812482894904799
949 -0.1812846838412395
950 -0.1812547127339146
951 -0.1812863042715598
952 -0.1812616792968906
953 -0.1812925117624792
954 -0.1812656402584537
955 -0.1812927875514329
956 -0.1812701059584885
957 -0.1812989323629336
958 -0.1812750128154091
959 -0.1813016377852953
960 -0.181276558550529
961 -0.1813076432890192
962 -0.1812788832120008
963 -0.1813052595483367
964 -0.1812832632263215
965 -0.1813101351310088
966 -0.1812858370966711
967 -0.1813108629894378
968 -0.1812895814425165
969 -0.1813162720195871
970 -0.1812918297287376
971 -0.1813186041452438
972 -0.1812949912437809
973 -0.1813253651999464
974 -0.1812993351454256
975 -0.1813298184893605
976 -0.1813022241131672
977 -0.1813386053468239
978 -0.1813078660493957
979 -0.1813392553158046
980 -0.1813130427177367
981 -0.1813464254359352
982 -0.1813196166265972
983 -0.1813495399260147
984 -0.1813236015038935
985 -0.1813545827786437
986 -0.1813300473013789
987 -0.1813606202313093
988 -0.1813336597512469
989 -0.1813657523592197
990 -0.1813394212231783
991 -0.1813680247076921
992 -0.1813406526026572
993 -0.1813763312184171
994 -0.1813441022283994
995 -0.1813742301520257
996 -0.1813475013591855
997 -0.181379790856715
998 -0.1813505731498015
999 -0.1813817014630063
1000 -0.1813533312155151
1001 -0.1813856159540421
1002 -0.18135729105059
1003 -0.1813875939692152
1004 -0.1813598450984834
1005 -0.1813941447223155
1006 -0.1813634506449968
1007 -0.1813939816854256
1008 -0.1813639467231962
1009 -0.1814005066232664
1010 -0.1813690883914977
1011 -0.1814009700434743
1012 -0.1813744336629489
1013 -0.1814060438432916
1014 -0.1813787386552825
1015 -0.1814090520760042
1016 -0.1813830215085193
1017 -0.1814139607235221
1018 -0.1813882687702343
1019 -0.18141781019224
1020 -0.1813898439075796
1021 -0.181423617921313
1022 -0.181393911998656
1023 -0.1814229425300613
1024 -0.1813941992362942
1025 -0.1814304890201891
1026 -0.1813972016527871
1027 -0.1814297980921455
1028 -0.1814012245324738
1029 -0.1814340277839947
1030 -0.1814030788636057
1031 -0.1814326687193677
1032 -0.1814065974112651
1033 -0.1814389409179332
1034 -0.1814085948933229
1035 -0.1814409964478169
1036 -0.1814112783334502
1037 -0.1814472251237045
1038 -0.1814151217707983
1039 -0.1814511968969212
1040 -0.1814181760619126
1041 -0.1814571897706358
1042 -0.1814239418105079
1043 -0.1814566680622499
1044 -0.1814285480890317
1045 -0.1814613105302439
1046 -0.1814355387787523
1047 -0.181462426530343
1048 -0.1814377580458293
1049 -0.1814661813927603
1050 -0.1814410476029307
1051 -0.1814686550777929
1052 -0.1814428529821946
1053 -0.1814731076975816
1054 -0.1814465565168177
1055 -0.1814749773031499
1056 -0.1814473575648192
1057 -0.1814776728675069
1058 -0.1814494165155025
1059 -0.1814780885052772
1060 -0.1814548963331326
1061 -0.1814808619070332
1062 -0.1814581145802419
1063 -0.1814817529068271
1064 -0.1814574949709828
1065 -0.1814833038359684
1066 -0.1814598035120106
1067 -0.1814852706357868
1068 -0.181457795709254
1069 -0.1814863838611624
1070 -0.1814597280865504
1071 -0.1814901533866911
1072 -0.1814593188682499
1073 -0.1814940379758812
1074 -0.1814615292602969
1075 -0.1814952638157724
1076 -0.1814646267067705
1077 -0.1814980625015158
1078 -0.1814691731265416
1079 -0.1815004799573801
1080 -0.1814721358954861
1081 -0.1815024716866448
1082 -0.1814752051585719
1083 -0.1815053347628737
1084 -0.1814800699188675
1085 -0.1815107373237956
1086 -0.1814831483092844
1087 -0.1815119595197341
1088 -0.1814859910655275
1089 -0.1815181766389478
1090 -0.1814893687973955
1091 -0.1815165893779149
1092 -0.1814919045681952
1093 -0.1815204849701199
1094 -0.1814937247909841
1095 -0.1815192518570963
1096 -0.1814965682133713
1097 -0.1815210949826516
1098 -0.1814971422102912
1099 -0.1815234089451001
1100 -0.1814981633698013
1101 -0.1815248231471147
1102 -0.1815003520202867
1103 -0.1815267226116453
1104 -0.1814977409644996
1105 -0.1815291226406122
1106 -0.1814975513141187
1107 -0.1815285050580861
1108 -0.1814987067009512
1109 -0.1815309336370848
1110 -0.181501564393885
1111 -0.1815318614622476
1112 -0.1815042477580515
1113 -0.1815352152956861
1114 -0.1815038093415361
1115 -0.1815374377640595
1116 -0.1815077724382433
1117 -0.1815409459932053
1118 -0.1815111464724291
1119 -0.1815442381912702
1120 -0.181513498837586
1121 -0.1815495826326377
1122 -0.1815148656697367
1123 -0.1815500478329038
1124 -0.1815221143074682
1125 -0.1815528406995093
1126 -0.181524485878074
1127 -0.1815555799598919
1128 -0.1815269957408033
1129 -0.1815598871591958
1130 -0.1815293548244509
1131 -0.1815602771043879
1132 -0.1815308248234303
1133 -0.1815637194760024
1134 -0.1815308641497658
1135 -0.1815640457424767
1136 -0.181531412667934
1137 -0.181563604451233
1138 -0.1815301219301851
1139 -0.1815609362767091
1140 -0.181530789808927
1141 -0.1815602045773178
1142 -0.1815315234850153
1143 -0.1815593655723159
1144 -0.1815329694678406
1145 -0.1815602788172542
1146 -0.1815328207514554
1147 -0.1815630818725722
1148 -0.1815371555761964
1149 -0.1815675963129889
1150 -0.1815402065587992
1151 -0.1815729002154499
1152 -0.1815425432512201
1153 -0.1815773234975874
1154 -0.1815445632340652
1155 -0.1815791188297859
1156 -0.1815494332773999
1157 -0.1815813856994852
1158 -0.1815533104069996
1159 -0.1815843890546592
1160 -0.1815550369485191
1161 -0.1815846614047149
1162 -0.1815566940740002
1163 -0.1815878184105701
1164 -0.1815586808916147
1165 -0.1815896247024143
1166 -0.1815583973066877
1167 -0.1815910379423447
1168 -0.1815563863427473
1169 -0.1815924785502279
1170 -0.1815554050692187
1171 -0.1815879488229606
1172 -0.1815565339112231
1173 -0.1815875280601462
1174 -0.1815561377753124
1175 -0.1815840767734901
1176 -0.1815560430222437
1177 -0.1815836132491917
1178 -0.1815549448134924
1179 -0.1815816170708256
1180 -0.1815566198651772
1181 -0.181584084861481
1182 -0.1815573254089092
1183 -0.1815839181860256
1184 -0.1815588281329093
1185 -0.1815902452892443
1186 -0.1815615650854371
1187 -0.1815902477889837
1188 -0.1815652070052385
1189 -0.1815951247901292
1190 -0.1815684974845687
1191 -0.181599010605946
1192 -0.1815747241805239
1193 -0.1816033294140804
1194 -0.1815756041729864
1195 -0.1816061119776386
1196 -0.1815801910747408
1197 -0.1816131985333231
1198 -0.1815813631077929
1199 -0.1816144042271222
1200 -0.1815835840321769
1201 -0.1816176520186721
1202 -0.1815802412012461
1203 -0.1816151899281944
1204 -0.1815821455480305
1205 -0.1816150142917859
1206 -0.1815786344666546
1207 -0.1816118478007533
1208 -0.1815793762028764
1209 -0.1816117131604036
1210 -0.1815766936832044
1211 -0.1816099991987909
1212 -0.181578728092795
1213 -0.1816093662709922
1214 -0.1815773765277401
1215 -0.1816073882632367
1216 -0.1815789933894281
1217 -0.1816094396152033
1218 -0.1815780231417044
1219 -0.1816068932379616
1220 -0.1815828470553377
1221 -0.1816084247100073
1222 -0.1815846717064334
1223 -0.181610943506185
1224 -0.18158876571264
1225 -0.1816140261973724
1226 -0.1815911950645863
1227 -0.1816183009418149
1228 -0.1815957106612571
1229 -0.1816227877656541
1230 -0.1815974196369289
1231 -0.1816256289836497
1232 -0.1815978637440089
1233 -0.181628376708507
1234 -0.181598693264765
1235 -0.18162810494351
1236 -0.1816005019847274
1237 -0.1816307761414475
1238 -0.1816012018889118
1239 -0.1816307662759566
1240 -0.1816035700139823
1241 -0.1816319058578931
1242 -0.181603586240184
1243 -0.1816327525727578
1244 -0.1816036120113071
1245 -0.1816344576741321
1246 -0.1816030759952224
1247 -0.1816323009423004
1248 -0.1816015648712378
1249 -0.1816327218278085
1250 -0.181601897111539
1251 -0.181630491074226
1252 -0.1816051166295022
1253 -0.1816310020316989
1254 -0.1816054813140374
1255 -0.1816287398891448
1256 -0.1816073453288418
1257 -0.1816308162214433
1258 -0.1816067463961211
1259 -0.1816295941085867
1260 -0.1816076696844235
1261 -0.1816328373135523
1262 -0.1816063255778088
1263 -0.1816315411494141
1264 -0.1816064417982601
1265 -0.1816356133958719
1266 -0.1816048200302746
1267 -0.1816335188872261
1268 -0.1816078708496395
1269 -0.1816365641485936
1270 -0.1816097362867036
1271 -0.1816361771894945
1272 -0.1816113031527735
1273 -0.1816395443726149
1274 -0.1816100514454669
1275 -0.181640208746585
1276 -0.1816119856808716
1277 -0.1816426096382295
1278 -0.1816107175632675
1279 -0.1816439366675084
1280 -0.1816111137185091
1281 -0.1816449758316805
1282 -0.1816121735659759
1283 -0.1816450609618789
1284 -0.1816175137907003
1285 -0.1816471962907924
1286 -0.1816195848197149
1287 -0.1816465527026479
1288 -0.1816223853398708
1289 -0.1816480470893757
1290 -0.1816211180058282
1291 -0.1816502909075273
1292 -0.1816245906778171
1293 -0.1816520647916977
1294 -0.1816265347717687
1295 -0.1816516738898571
1296 -0.1816269798695689
1297 -0.1816560111462339
1298 -0.1816273336779157
1299 -0.1816549972025295
1300 -0.1816291333649648
1301 -0.181654884510161
1302 -0.1816257697908507
1303 -0.1816518887402944
1304 -0.1816263105581219
1305 -0.1816511041885534
1306 -0.1816203736397454
1307 -0.1816496284961546
1308 -0.1816195911200403
1309 -0.1816482456503291
1310 -0.1816151347523552
1311 -0.1816480123760782
1312 -0.1816158961384305
1313 -0.1816518673766447
1314 -0.1816135415869478
1315 -0.1816490021608539
1316 -0.1816168727007892
1317 -0.1816516105881243
1318 -0.1816178870659989
1319 -0.1816530272801878
1320 -0.1816207559817652
1321 -0.1816553792449149
1322 -0.1816232219906344
1323 -0.1816587308891645
1324 -0.1816286538301105
1325 -0.1816652280527987
1326 -0.1816303468913426
1327 -0.1816667158003136
1328 -0.1816332372855184
1329 -0.1816691259780627
1330 -0.1816349606531112
1331 -0.181669037847637
1332 -0.1816388609809392
1333 -0.1816705804790661
1334 -0.1816388943765421
1335 -0.1816708381866638
1336 -0.1816420204771562
1337 -0.1816726007992152
1338 -0.1816395378927395
1339 -0.1816721332879774
1340 -0.1816391226314402
1341 -0.1816707120703601
1342 -0.1816363413424872
1343 -0.1816675098799681
1344 -0.181631640402086
1345 -0.1816652737710438
1346 -0.1816293998355179
1347 -0.1816630621513624
1348 -0.181628674442209
1349 -0.1816603769361325
1350 -0.1816282808044073
1351 -0.1816588937562874
1352 -0.1816275082669629
1353 -0.1816577885555844
1354 -0.1816278161103428
1355 -0.1816605758066725
1356 -0.1816284556009333
1357 -0.1816623901091977
1358 -0.1816312569903627
1359 -0.1816662435466048
1360 -0.181631073202771
1361 -0.1816705257453404
1362 -0.1816350538265244
1363 -0.1816701401907481
1364 -0.1816387277160811
1365 -0.1816742556369031
1366 -0.1816436871533081
1367 -0.1816774448882046
1368 -0.1816470677605136
1369 -0.1816798649365508
1370 -0.1816478632757469
1371 -0.1816798295931338
1372 -0.1816477360359708
1373 -0.1816804030041028
1374 -0.1816481832505724
1375 -0.181679048711085
1376 -0.1816432571247981
1377 -0.1816806199934365
1378 -0.1816432485529946
1379 -0.1816766372368956
1380 -0.1816420366439684
1381 -0.1816759666080872
1382 -0.1816424627714434
1383 -0.181672765211526
1384 -0.1816434308172189
1385 -0.1816724453460826
1386 -0.1816394098918688
1387 -0.1816701738181863
1388 -0.1816409794760916
1389 -0.1816709325655328
1390 -0.1816396751704563
1391 -0.1816686203429447
1392 -0.1816387338331582
1393 -0.1816731054171929
1394 -0.1816399307999537
1395 -0.1816710099754014
1396 -0.1816451178309206
1397 -0.1816760695631987
1398 -0.181646883342512
1399 -0.1816756192858749
1400 -0.1816497882904087
1401 -0.1816785644853113
1402 -0.1816509756426057
1403 -0.1816782227781847
1404 -0.1816516615366979
1405 -0.1816831994826433
1406 -0.1816530041555563
1407 -0.1816816672117014
1408 -0.1816514879252777
1409 -0.1816843521459289
1410 -0.1816514577539236
1411 -0.181682824393662
1412 -0.1816532913095613
1413 -0.1816838923015739
1414 -0.1816537345638531
1415 -0.1816831627393662
1416 -0.1816533461035419
1417 -0.1816823226703085
1418 -0.1816528559832618
1419 -0.1816812067466671
1420 -0.1816520302431058
1421 -0.1816810989706034
1422 -0.1816535898278807
1423 -0.1816809600866151
1424 -0.181652182846962
1425 -0.1816816815872524
1426 -0.1816526140190697
1427 -0.1816805943788364
1428 -0.1816554449831311
1429 -0.1816813585495509
1430 -0.1816571705333686
1431 -0.1816825437367318
1432 -0.1816579624565859
1433 -0.1816836453257858
1434 -0.181658007347775
1435 -0.1816852915634929
1436 -0.1816581038474722
1437 -0.1816855520192813
1438 -0.1816593368683276
1439 -0.1816860683278757
1440 -0.1816564023006334
1441 -0.1816868691132507
1442 -0.1816546980526949
1443 -0.181684147101433
1444 -0.1816565000989744
1445 -0.1816839444280585
1446 -0.1816545459529165
1447 -0.181682670891349
1448 -0.1816534554332992
1449 -0.1816829443177757
1450 -0.1816538682540538
1451 -0.1816839055593002
1452 -0.1816549083130465
1453 -0.1816851099524272
1454 -0.1816533050290119
1455 -0.1816843534495317
1456 -0.1816542974993915
1457 -0.1816867347183698
1458 -0.1816519969661213
1459 -0.1816840673970844
1460 -0.1816560032807232
1461 -0.181687431429965
1462 -0.1816562981482558
1463 -0.1816871243383044
1464 -0.1816597593159584
1465 -0.181690161108245
1466 -0.1816616054904099
1467 -0.1816910856138558
1468 -0.181663036329148
1469 -0.1816941829388623
1470 -0.1816615040411781
1471 -0.1816928302175848
1472 -0.1816622146104699
1473 -0.1816956874938118
1474 -0.1816617832162902
1475 -0.1816907478297367
1476 -0.1816655394347573
1477 -0.1816927402485299
1478 -0.181662893074435
1479 -0.181690235004967
1480 -0.1816651081694893
1481 -0.1816902916348873
1482 -0.1816617523598715
1483 -0.1816891063314797
1484 -0.1816617738013843
1485 -0.1816907601088145
1486 -0.1816600982712676
1487 -0.1816893160660312
1488 -0.1816600430085824
1489 -0.1816930172345236
1490 -0.1816585306916261
1491 -0.1816882178620411
1492 -0.181662796830317
1493 -0.1816900158878668
1494 -0.1816627850319597
1495 -0.1816894082677512
1496 -0.1816639271457703
1497 -0.1816904309017929
1498 -0.1816648943450959
1499 -0.1816906257098353
1500 -0.1816650196077803
1501 -0.1816927238689543
1502 -0.1816664321671859
1503 -0.181694699504939
1504 -0.1816667522687866
1505 -0.1816977468818665
1506 -0.1816676364852498
1507 -0.1816966587277715
1508 -0.181668680828526
1509 -0.1816967171620912
1510 -0.1816679805907007
1511 -0.181695521663199
1512 -0.1816678945157881
1513 -0.1816944766806547
1514 -0.1816661495367247
1515 -0.1816928157431021
1516 -0.1816652479830768
1517 -0.1816929825492072
1518 -0.1816634512382305
1519 -0.1816903790030305
1520 -0.1816615395145527
1521 -0.181689807978735
1522 -0.1816606827204916
1523 -0.1816873754221874
1524 -0.181662420147332
1525 -0.181690066999502
1526 -0.1816637026195216
1527 -0.1816873789725987
1528 -0.1816651574042774
1529 -0.1816904087547555
1530 -0.1816647725000398
1531 -0.1816921204859543
1532 -0.1816675564018427
1533 -0.1816946856160733
1534 -0.1816700457906777
1535 -0.1816966227137404
1536 -0.181670091862956
1537 -0.1817009713800828
1538 -0.1816694018958744
1539 -0.1816992070897401
1540 -0.1816721416844842
1541 -0.1817002544770573
1542 -0.1816704357063321
1543 -0.1816975762669204
1544 -0.1816692157124509
1545 -0.1816994275251994
1546 -0.1816685694994748
1547 -0.1816983038372004
1548 -0.1816689935131634
1549 -0.181699820282153
1550 -0.1816675235278061
1551 -0.1816964888379964
1552 -0.1816641792893218
1553 -0.1816954109428879
1554 -0.1816643822805824
1555 -0.1816896742592258
1556 -0.181664421961477
1557 -0.1816898698388889
1558 -0.1816646859370026
1559 -0.1816872787686732
1560 -0.18166616576126
1561 -0.181689625177591
1562 -0.1816675010416722
1563 -0.1816919671494646
1564 -0.1816689439947029
1565 -0.1816956984110738
1566 -0.1816712459958674
1567 -0.1816953969018431
1568 -0.1816705264548924
1569 -0.1817009775165483
1570 -0.1816732413873097
1571 -0.1817022232385726
1572 -0.1816748864506389
1573 -0.1817061491150668
1574 -0.1816770048630847
1575 -0.181705024612803
1576 -0.1816784674260619
1577 -0.1817097953989159
1578 -0.1816772311093779
1579 -0.1817089022875424
1580 -0.181675853689762
1581 -0.1817120581343754
1582 -0.1816743577118067
1583 -0.1817083928346763
1584 -0.1816700459097375
1585 -0.1817087677736307
1586 -0.1816673416377753
1587 -0.1817003570893853
1588 -0.181667010846948
1589 -0.1816982025545008
1590 -0.1816671575514806
1591 -0.181695092221495
1592 -0.1816670092703158
1593 -0.1816938162519209
1594 -0.1816662294458099
1595 -0.181691279552984
1596 -0.1816658438079945
1597 -0.1816932524352268
1598 -0.1816665963148298
1599 -0.1816938778506561
1600 -0.1816681175081569
1601 -0.1816946651960434
1602 -0.181668641968214
1603 -0.1816938030251057
1604 -0.1816744333648079
1605 -0.181697773906987
1606 -0.1816770189832212
1607 -0.1816997775438837
1608 -0.1816790285655612
1609 -0.1817026560153151
1610 -0.1816796968432108
1611 -0.1817047578571804
1612 -0.1816807539555511
1613 -0.1817074589612211
1614 -0.1816802125799363
1615 -0.1817089320820282
1616 -0.1816778763040677
1617 -0.1817120092129469
1618 -0.1816771435112984
1619 -0.1817112849242992
1620 -0.1816769638895366
1621 -0.1817102643831525
1622 -0.1816770380769002
1623 -0.181708570831499
1624 -0.1816760824092982
1625 -0.1817066008130722
1626 -0.1816736541670341
1627 -0.1817040688602425
1628 -0.1816706591103804
1629 -0.1817004514467298
1630 -0.1816678049737891
1631 -0.181697856607291
1632 -0.1816649258116816
1633 -0.1816974001411293
1634 -0.181665167414135
1635 -0.181692443263723
1636 -0.1816645716565694
1637 -0.1816923829498792
1638 -0.181663302664085
1639 -0.1816918360789138
1640 -0.1816648447591079
1641 -0.1816932970614343
1642 -0.1816680372366945
1643 -0.1816968758563416
1644 -0.1816696087342212
1645 -0.1816999685139085
1646 -0.1816709912345867
1647 -0.1817028273560068
1648 -0.181671154896353
1649 -0.1817075428911448
1650 -0.1816738558490168
1651 -0.1817073996156006
1652 -0.1816763817499659
1653 -0.1817114019593116
1654 -0.1816776376576531
1655 -0.1817103765082568
1656 -0.1816790105551128
1657 -0.1817120467680174
1658 -0.1816768653949012
1659 -0.1817107820046413
1660 -0.1816785132729239
1661 -0.1817122345193287
1662 -0.1816766492658176
1663 -0.181709902927138
1664 -0.1816734493049456
1665 -0.1817121962897828
1666 -0.1816738305688346
1667 -0.1817078040674845
1668 -0.1816746693687913
1669 -0.1817065334239527
1670 -0.1816743259454155
1671 -0.1817035567052134
1672 -0.1816749233022827
1673 -0.1817044804535852
1674 -0.1816746424591705
1675 -0.1817033871417399
1676 -0.1816764676432517
1677 -0.1817047782111926
1678 -0.1816748057500819
1679 -0.1817025157685973
1680 -0.181673527272592
1681 -0.1817049420744955
1682 -0.1816726113256863
1683 -0.1817028961335732
1684 -0.1816749099604962
1685 -0.1817036752992503
1686 -0.1816744188647269
1687 -0.1817016839170039
1688 -0.1816754426277413
1689 -0.1817021748595816
1690 -0.1816751413980893
1691 -0.1817023114561774
1692 -0.1816757996270979
1693 -0.1817059657036011
1694 -0.1816738494884491
1695 -0.1817051245545383
1696 -0.1816730564057506
1697 -0.1817078912298989
1698 -0.1816709215833997
1699 -0.1817047570478114
1700 -0.1816735736896032
1701 -0.1817061544684985
1702 -0.1816744573920692
1703 -0.1817042788145349
1704 -0.1816757295373788
1705 -0.1817066475055494
1706 -0.1816755218766874
1707 -0.1817073104466498
1708 -0.1816792009617454
1709 -0.1817109161433808
1710 -0.1816790901490646
1711 -0.1817098233829941
1712 -0.1816801486565533
1713 -0.1817127759552178
1714 -0.1816801202720655
1715 -0.1817089723445927
1716 -0.1816830885491861
1717 -0.1817090887684104
1718 -0.1816815204856982
1719 -0.1817050416970026
1720 -0.1816815142809432
1721 -0.1817038184299908
1722 -0.181678577378158
1723 -0.1817025861153138
1724 -0.1816779750397688
1725 -0.1817001621885544
1726 -0.1816741622397546
1727 -0.1816967738644575
1728 -0.1816710099924149
1729 -0.1816985118063601
1730 -0.1816698706474943
1731 -0.1816949065722186
1732 -0.1816712121673948
1733 -0.1816966584111501
1734 -0.1816702874392095
1735 -0.1816977815091998
1736 -0.1816754705432346
1737 -0.1817024524361615
1738 -0.1816753689371928
1739 -0.1817056258815856
1740 -0.1816800337457374
1741 -0.1817116465546361
1742 -0.1816817858986679
1743 -0.181714197031968
1744 -0.1816836550226344
1745 -0.1817188700363457
1746 -0.1816825888369405
1747 -0.181716815887142
1748 -0.1816861021954975
1749 -0.1817178089701714
1750 -0.1816841323704137
1751 -0.1817180111701888
1752 -0.1816867691011171
1753 -0.1817171973187562
1754 -0.1816841260786699
1755 -0.1817153518929709
1756 -0.1816863323399391
1757 -0.1817145976766772
1758 -0.1816835179885852
1759 -0.1817098143111781
1760 -0.1816802651687344
1761 -0.1817079175160861
1762 -0.1816767124291649
1763 -0.1817011181858494
1764 -0.1816765546632359
1765 -0.1816990026924661
1766 -0.1816732013232747
1767 -0.1816978433208478
1768 -0.1816747067414622
1769 -0.1816988781626734
1770 -0.1816743683897648
1771 -0.1817003252541694
1772 -0.1816757383777379
1773 -0.1817016130230999
1774 -0.1816769420310581
1775 -0.1817048958795809
1776 -0.1816769252194602
1777 -0.1817071379869069
1778 -0.181676495229399
1779 -0.1817075466718363
1780 -0.1816805728476754
1781 -0.181710280457003
1782 -0.1816808213448744
1783 -0.1817108232490544
1784 -0.1816836222437576
1785 -0.1817166951169179
1786 -0.1816851829114933
1787 -0.1817162227925686
1788 -0.1816859342901717
1789 -0.1817186833178301
1790 -0.181684156733161
1791 -0.181716011769042
1792 -0.1816837800318907
1793 -0.1817156780474413
1794 -0.1816817327527759
1795 -0.1817091472621104
1796 -0.1816812188992994
1797 -0.1817073840790757
1798 -0.1816807981128061
1799 -0.1817042837788481
1800 -0.1816800347712234
1801 -0.1817027677158057
1802 -0.1816765945668648
1803 -0.1817000391185365
1804 -0.1816770780481051
1805 -0.1816996097922227
1806 -0.1816745269733787
1807 -0.1816993485437945
1808 -0.1816741900845035
1809 -0.1817029671074944
1810 -0.1816739773563935
1811 -0.1817016146042165
1812 -0.1816760453299701
1813 -0.1817064859144538
1814 -0.181678085173767
1815 -0.181704408081882
1816 -0.1816803694152456
1817 -0.1817091306678091
1818 -0.1816797725069587
1819 -0.1817109788831498
1820 -0.1816831560209295
1821 -0.1817142811704382
1822 -0.1816817332636588
1823 -0.1817148611018665
1824 -0.1816813419949048
1825 -0.1817182359687065
1826 -0.1816810127854132
1827 -0.1817149324455638
1828 -0.1816829865095377
1829 -0.181714632027494
1830 -0.1816799109827697
1831 -0.1817103916188781
1832 -0.1816811709664875
1833 -0.1817100877672633
1834 -0.181678527680178
1835 -0.1817073163776022
1836 -0.1816795234419155
1837 -0.1817090065968169
1838 -0.1816779149955268
1839 -0.1817052850784463
1840 -0.1816786228424944
1841 -0.1817064405237931
1842 -0.181676885800249
1843 -0.18170185029929
1844 -0.1816791151707558
1845 -0.1817046900982576
1846 -0.1816805463147612
1847 -0.1817039480981762
1848 -0.1816825268819356
1849 -0.1817072438132069
1850 -0.1816835008306979
1851 -0.1817104638765355
1852 -0.1816863240903999
1853 -0.1817134274172349
1854 -0.1816879823711657
1855 -0.1817163968047525
1856 -0.1816860104827399
1857 -0.1817186211302366
1858 -0.1816863888674689
1859 -0.1817150550903073
1860 -0.1816852810302431
1861 -0.1817141994345921
1862 -0.1816856982351569
1863 -0.1817111133448914
1864 -0.1816838387851134
1865 -0.1817104883649221
1866 -0.1816818568039538
1867 -0.1817081129396901
1868 -0.1816814557658906
1869 -0.1817075222547767
1870 -0.1816796729023432
1871 -0.1817063540992706
1872 -0.1816774631761194
1873 -0.1817067335634899
1874 -0.1816775669292527
1875 -0.1817024741600026
1876 -0.1816788973003084
1877 -0.1817053777996529
1878 -0.1816802107953625
1879 -0.1817045974829208
1880 -0.1816826056522097
1881 -0.1817084296777842
1882 -0.1816823519365615
1883 -0.1817094039142084
1884 -0.1816853945454268
1885 -0.1817133172867446
1886 -0.1816847333982421
1887 -0.1817117874402769
1888 -0.1816846826385169
1889 -0.1817134025677025
1890 -0.1816833393902211
1891 -0.1817097582080699
1892 -0.1816826233576268
1893 -0.1817093321450105
1894 -0.1816832140980071
1895 -0.1817084880333522
1896 -0.1816818691629045
1897 -0.181708708416753
1898 -0.1816810976779557
1899 -0.1817101821413424
1900 -0.1816811061881806
1901 -0.1817104965173349
1902 -0.1816790301662886
1903 -0.1817087074962474
1904 -0.1816766995312056
1905 -0.1817116503647288
1906 -0.1816783445593519
1907 -0.1817082236569682
1908 -0.1816801681549857
1909 -0.181709393373828
1910 -0.1816817452466838
1911 -0.1817101468987714
1912 -0.1816837600894712
1913 -0.1817114313042722
1914 -0.1816831120457579
1915 -0.181712106867215
1916 -0.1816855936557601
1917 -0.1817131147444372
1918 -0.1816834516133483
1919 -0.1817136811536083
1920 -0.1816813841293126
1921 -0.1817142490585708
1922 -0.1816796015143631
1923 -0.1817117818747366
1924 -0.1816812829314923
1925 -0.1817110831768081
1926 -0.1816782078698938
1927 -0.1817086582352747
1928 -0.1816795975401181
1929 -0.1817078682351507
1930 -0.1816786561927614
1931 -0.1817074801444784
1932 -0.1816788525350698
1933 -0.1817082391310272
1934 -0.1816768790056442
1935 -0.1817052494415622
1936 -0.1816761895687457
1937 -0.1817088767552907
1938 -0.181674437381792
1939 -0.1817063539360243
1940 -0.1816781951524887
1941 -0.1817071908636649
1942 -0.1816789669876838
1943 -0.1817071058912668
1944 -0.1816829468984963
1945 -0.1817119390891803
1946 -0.181685143491386
1947 -0.1817118369988239
1948 -0.1816878734013731
1949 -0.1817162606918953
1950 -0.1816895427975862
1951 -0.181717893917324
1952 -0.1816872979067582
1953 -0.1817211260369842
1954 -0.181685928356735
1955 -0.1817175098965939
1956 -0.1816850649024612
1957 -0.1817187717224763
1958 -0.1816840167235571
1959 -0.1817178248029265
1960 -0.1816819808354074
1961 -0.181717690266685
1962 -0.1816798536539191
1963 -0.1817163081571553
1964 -0.1816780960407763
1965 -0.1817145410941825
1966 -0.1816765033783252
1967 -0.1817114645304708
1968 -0.1816716242121778
1969 -0.181710536591018
1970 -0.1816714535728421
1971 -0.1817060937976538
1972 -0.1816710694767258
1973 -0.1817047306374214
1974 -0.1816725374860051
1975 -0.1817020679120838
1976 -0.181670623720898
1977 -0.1817028754719653
1978 -0.1816755748663327
1979 -0.1817059087390019
1980 -0.1816769307336746
1981 -0.181707248062524
1982 -0.1816808931204072
1983 -0.1817099994733857
1984 -0.1816798871622618
1985 -0.1817131498657806
1986 -0.1816820588288461
1987 -0.181711843652259
1988 -0.1816848753525613
1989 -0.1817141627125871
1990 -0.1816876189155848
1991 -0.181716643562029
1992 -0.1816889056279285
1993 -0.1817204246483701
1994 -0.1816894504164353
1995 -0.181721854648506
1996 -0.181690960952083
1997 -0.181724254405267
1998 -0.1816877844539623
1999 -0.1817235403496875
2000 -0.1816851794775643
2001 -0.1817224091834369
2002 -0.1816832417036362
2003 -0.1817164007266488
2004 -0.1816811342444373
2005 -0.1817139101139788
2006 -0.1816774886432793
2007 -0.1817085545071008
2008 -0.1816769504781608
2009 -0.1817074878385818
2010 -0.1816745027344216
2011 -0.1817070891924767
2012 -0.181675665048469
2013 -0.1817074970275303
2014 -0.1816739626115761
2015 -0.1817038444171942
2016 -0.1816719972827761
2017 -0.181704797685691
2018 -0.1816720733988879
2019 -0.1817018712245985
2020 -0.1816759819660405
2021 -0.1817037198815751
2022 -0.1816781195169683
2023 -0.1817054218924347
2024 -0.1816828456305233
2025 -0.1817102493916077
2026 -0.1816852812448572
2027 -0.1817135715286989
2028 -0.1816882035946428
2029 -0.1817155397823373
2030 -0.181687767001762
2031 -0.1817172461814172
2032 -0.1816890105032187
2033 -0.1817198623865136
2034 -0.1816883728483394
2035 -0.1817162008237166
2036 -0.1816877826773048
2037 -0.1817157616517383
2038 -0.181686432343497
2039 -0.1817151667332262
2040 -0.1816866448051378
2041 -0.1817130887203436
2042 -0.1816835926245469
2043 -0.181712421062664
2044 -0.1816829870100715
2045 -0.1817093756619977
2046 -0.181680714228197
2047 -0.1817099981895258
2048 -0.1816792219537539
2049 -0.1817105743982318
2050 -0.1816770785202461
2051 -0.1817079250402582
2052 -0.1816798631548854
2053 -0.1817098379578439
2054 -0.1816795189177137
2055 -0.1817085493338308
2056 -0.1816821040795206
2057 -0.1817102464971092
2058 -0.1816804812640634
2059 -0.1817091157204642
2060 -0.1816838947648783
2061 -0.1817131200364748
2062 -0.1816824947797135
2063 -0.1817105883078561
2064 -0.1816825614828779
2065 -0.1817135036351307
2066 -0.1816835962108513
2067 -0.1817113271857346
2068 -0.1816857516810405
2069 -0.1817135676160576
2070 -0.1816840559440646
2071 -0.1817119714554007
2072 -0.1816867225138133
2073 -0.1817142661083441
2074 -0.1816843855716956
2075 -0.1817113475188375
2076 -0.1816837327687256
2077 -0.1817136920970328
2078 -0.1816847361729739
2079 -0.181714447576006
2080 -0.1816833180355127
2081 -0.1817160769572049
2082 -0.1816840516855468
2083 -0.1817139948147491
2084 -0.1816848543007195
2085 -0.1817152706839984
2086 -0.181685275983751
2087 -0.181713784519509
2088 -0.1816830133593715
2089 -0.1817146311788136
2090 -0.1816823725113892
2091 -0.1817139856921452
2092 -0.1816818236875798
2093 -0.1817157066822219
2094 -0.181682188182369
2095 -0.1817127296846916
2096 -0.1816801454667017
2097 -0.1817127283227899
2098 -0.1816799549130764
2099 -0.1817084505944607
2100 -0.1816795882589379
2101 -0.1817075768052688
2102 -0.1816801832345328
2103 -0.1817038525888393
2104 -0.1816791841265017
2105 -0.1817055944734577
2106 -0.181678583520284
2107 -0.1817051645390172
2108 -0.181680408352042
2109 -0.1817071116855327
2110 -0.181682011655375
2111 -0.1817080423903621
2112 -0.1816820979667021
2113 -0.1817113738115493
2114 -0.1816840332120787
2115 -0.1817088351979649
2116 -0.1816867783487656
2117 -0.1817108129975922
2118 -0.1816866849919075
2119 -0.1817099147345832
2120 -0.1816879810942644
2121 -0.1817128663493849
2122 -0.1816879265411649
2123 -0.1817143222094926
2124 -0.1816894693455259
2125 -0.1817180935596082
2126 -0.1816889845745794
2127 -0.1817168560411887
2128 -0.18168769272622
2129 -0.1817200623609191
2130 -0.1816866920015994
2131 -0.1817154221905979
2132 -0.181686569770226
2133 -0.1817141882429393
2134 -0.1816849848731058
2135 -0.1817112160724322
2136 -0.1816838711819186
2137 -0.1817100691866264
2138 -0.18168270486282
2139 -0.1817096867622684
2140 -0.1816827634022894
2141 -0.1817108478030804
2142 -0.1816824557826091
2143 -0.1817101218208813
2144 -0.1816802152352407
2145 -0.1817088125224682
2146 -0.1816787978816676
2147 -0.1817050011531406
2148 -0.1816796717952925
2149 -0.1817043185000614
2150 -0.1816799781952151
2151 -0.1817024613496789
2152 -0.1816808236723807
2153 -0.1817033986588724
2154 -0.1816799777939364
2155 -0.1817040773472733
2156 -0.1816822319347509
2157 -0.1817071117733028
2158 -0.1816847330529159
2159 -0.1817100805480268
2160 -0.1816830985150003
2161 -0.1817152385754902
2162 -0.1816831762858947
2163 -0.1817152588537891
2164 -0.1816863076645465
2165 -0.1817174607820427
2166 -0.1816881929364748
2167 -0.1817173676138978
2168 -0.1816891977524978
2169 -0.1817189200988017
2170 -0.1816886690058506
2171 -0.1817174678903299
2172 -0.1816885446317335
2173 -0.1817202274589969
2174 -0.1816880047812743
2175 -0.1817161324575364
2176 -0.1816839810745574
2177 -0.1817165661805319
2178 -0.1816815741641203
2179 -0.1817089858759877
2180 -0.1816802378753096
2181 -0.1817093736402686
2182 -0.1816797280257395
2183 -0.1817046296818173
2184 -0.181679736629372
2185 -0.1817076176002382
2186 -0.1816804734349934
2187 -0.1817061630990838
2188 -0.181681430429474
2189 -0.1817081380283689
2190 -0.1816829138616194
2191 -0.1817084455644809
2192 -0.1816819928742291
2193 -0.1817122763262341
2194 -0.1816834585251927
2195 -0.1817093311135143
2196 -0.1816862901097332
2197 -0.1817157522394966
2198 -0.1816887315032303
2199 -0.1817163807326909
2200 -0.1816912458554138
2201 -0.1817210128243077
2202 -0.1816927372449803
2203 -0.1817190201680312
2204 -0.1816925264037161
2205 -0.1817229065461834
2206 -0.1816925792354279
2207 -0.1817216715961193
2208 -0.1816892426436199
2209 -0.1817209073718707
2210 -0.1816867459234536
2211 -0.1817152153874411
2212 -0.1816843957975714
2213 -0.1817132751497432
2214 -0.1816821670927871
2215 -0.1817091982687769
2216 -0.1816801055958976
2217 -0.1817067090275351
2218 -0.1816781790655943
2219 -0.1817049625776976
2220 -0.181676326599106
2221 -0.1817056670105072
2222 -0.1816758989375003
2223 -0.1817033039825763
2224 -0.1816728898736694
2225 -0.1817045932549218
2226 -0.1816742365994708
2227 -0.1817029878346706
2228 -0.1816776979964014
2229 -0.1817053577887092
2230 -0.1816795376852713
2231 -0.1817056454455053
2232 -0.1816822165359561
2233 -0.1817099463519028
2234 -0.181685777561613
2235 -0.1817117324381806
2236 -0.1816878216585558
2237 -0.1817172511328984
2238 -0.1816881810134041
2239 -0.1817171841633135
2240 -0.1816890164540988
2241 -0.1817213469562002
2242 -0.1816885973318625
2243 -0.1817164619983402
2244 -0.181689783346716
2245 -0.1817158995226543
2246 -0.1816878651403754
2247 -0.1817116183027297
2248 -0.18168541591876
2249 -0.1817100703817254
2250 -0.1816834357595142
2251 -0.1817081603433554
2252 -0.1816818936700999
2253 -0.1817073872040493
2254 -0.1816817420536305
2255 -0.1817064152498211
2256 -0.1816794803190368
2257 -0.1817100379364622
2258 -0.1816794868691048
2259 -0.1817079889743596
2260 -0.1816826823473834
2261 -0.1817104968050753
2262 -0.1816835666685316
2263 -0.1817098893368498
2264 -0.1816844883402902
2265 -0.1817117190799952
2266 -0.1816857335885035
2267 -0.1817123642729514
2268 -0.1816863212795997
2269 -0.1817144802620933
2270 -0.1816860820290636
2271 -0.1817156332204474
2272 -0.1816863372419147
2273 -0.1817203968491977
2274 -0.1816867703757829
2275 -0.1817190046968234
2276 -0.1816902430651336
2277 -0.1817205366282297
2278 -0.1816891661498782
2279 -0.18171733266007
2280 -0.1816895854668297
2281 -0.1817159861320251
2282 -0.1816881595916801
2283 -0.1817131793258578
2284 -0.1816882286279368
2285 -0.1817139368009004
2286 -0.1816857557270283
2287 -0.1817122300689988
2288 -0.1816833197026567
2289 -0.1817110301340072
2290 -0.1816816648487126
2291 -0.1817076498215873
2292 -0.1816816381530674
2293 -0.1817084574001556
2294 -0.1816803103167773
2295 -0.1817085263033582
2296 -0.1816821664690875
2297 -0.181709174095466
2298 -0.1816808720788102
2299 -0.1817109748281495
2300 -0.1816826008993745
2301 -0.1817124625414205
2302 -0.1816848058495248
2303 -0.1817132709579977
2304 -0.1816837579993774
2305 -0.1817162494169957
2306 -0.1816835323037094
2307 -0.1817131997103913
2308 -0.1816848282733896
2309 -0.1817138656463411
2310 -0.1816848420815711
2311 -0.1817134964132262
2312 -0.181684181860362
2313 -0.181713243268794
2314 -0.1816831031043543
2315 -0.1817110444993641
2316 -0.1816818943096477
2317 -0.1817112435142473
2318 -0.1816802713357672
2319 -0.1817098768719258
2320 -0.1816786099724107
2321 -0.1817105129452188
2322 -0.1816768347412688
2323 -0.1817101329088001
2324 -0.1816808598398616
2325 -0.1817108990415516
2326 -0.1816807425868434
2327 -0.1817100191460186
2328 -0.1816826501635991
2329 -0.1817125619317317
2330 -0.1816826897497797
2331 -0.1817146150355011
2332 -0.181682956770833
2333 -0.1817172277143064
2334 -0.1816838910196855
2335 -0.1817190999446967
2336 -0.1816838315654311
2337 -0.1817213084871713
2338 -0.1816838730285516
2339 -0.1817213074982822
2340 -0.1816848369345916
2341 -0.1817204853137048
2342 -0.1816822869476827
2343 -0.1817189597881924
2344 -0.1816820984448859
2345 -0.1817171587272731
2346 -0.1816782936282372
2347 -0.1817169159926217
2348 -0.1816790766717832
2349 -0.1817126384986461
2350 -0.1816754746102818
2351 -0.1817122495516184
2352 -0.1816749079412271
2353 -0.1817114445004284
2354 -0.1816726250200401
2355 -0.1817088271669962
2356 -0.1816762644418144
2357 -0.1817075416079266
2358 -0.1816757049448857
2359 -0.1817059670710997
2360 -0.1816775643985347
2361 -0.1817080269354232
2362 -0.1816801128607624
2363 -0.181709655040652
2364 -0.1816842500172524
2365 -0.1817149470468819
2366 -0.1816867514849388
2367 -0.1817185045088686
2368 -0.1816894434206926
2369 -0.181723156930553
2370 -0.1816910539258599
2371 -0.1817230894652529
2372 -0.1816936905280662
2373 -0.1817258545400356
2374 -0.1816945206196956
2375 -0.1817239917087229
2376 -0.1816948269167288
2377 -0.1817236978074495
2378 -0.1816906035534601
2379 -0.18172121911412
2380 -0.1816910944397921
2381 -0.1817209631420812
2382 -0.1816852939951529
2383 -0.1817157119775774
2384 -0.1816819674756341
2385 -0.1817137532951352
2386 -0.1816766495797117
2387 -0.1817070100401488
2388 -0.181675893902578
2389 -0.1817056491466982
2390 -0.181673178196899
2391 -0.1817010223510787
2392 -0.1816738994096038
2393 -0.1817001172687079
2394 -0.181672189081303
2395 -0.1816999308311538
2396 -0.1816751966946953
2397 -0.181702242410317
2398 -0.1816751876497265
2399 -0.1817020458895832
2400 -0.1816780382827691
2401 -0.1817083466831589
2402 -0.1816797938761718
2403 -0.1817075563273172
2404 -0.1816860872798517
2405 -0.1817134541454808
2406 -0.1816893623291156
2407 -0.1817144922683648
2408 -0.1816942580212046
2409 -0.1817195614346226
2410 -0.1816920582882468
2411 -0.1817188133187189
2412 -0.1816935367032233
2413 -0.1817213484299351
2414 -0.1816917104112994
2415 -0.1817190193103444
2416 -0.1816903107462071
2417 -0.1817188613547881
2418 -0.1816861081197301
2419 -0.181712108126673
2420 -0.1816856868617822
2421 -0.1817133009403697
2422 -0.1816840688648381
2423 -0.1817091236093203
2424 -0.1816828235817309
2425 -0.1817092698964611
2426 -0.1816788124118131
2427 -0.1817071620807396
2428 -0.1816795482328998
2429 -0.1817083388175381
2430 -0.1816785048064414
2431 -0.1817070747689047
2432 -0.1816776920994353
2433 -0.1817101870007772
2434 -0.1816797516661358
2435 -0.1817063442845951
2436 -0.1816795979481735
2437 -0.1817081749848875
2438 -0.181681498486355
2439 -0.1817061664987169
2440 -0.1816840134110339
2441 -0.181709590522739
2442 -0.1816858891429093
2443 -0.1817120304891208
2444 -0.1816890565823314
2445 -0.1817159978146788
2446 -0.1816887506975966
2447 -0.1817160868212619
2448 -0.1816887080055855
2449 -0.181720418822005
2450 -0.1816907245042261
2451 -0.1817150625559067
2452 -0.181691209519067
2453 -0.1817169260962705
2454 -0.181689983102522
2455 -0.1817134164668757
2456 -0.1816883714018904
2457 -0.1817139930996445
2458 -0.1816872732776796
2459 -0.1817113603058154
2460 -0.1816856434401764
2461 -0.1817141034718177
2462 -0.1816845241038069
2463 -0.1817111993188381
2464 -0.1816817795475478
2465 -0.1817164826791183
2466 -0.1816830009478189
2467 -0.1817143034488108
2468 -0.1816833915309621
2469 -0.1817151531973796
2470 -0.1816839106132496
2471 -0.1817137860020569
2472 -0.1816849933983186
2473 -0.1817150003304761
2474 -0.1816849984784187
2475 -0.1817140537602235
2476 -0.1816847883170247
2477 -0.1817148887019112
2478 -0.1816845640611518
2479 -0.1817141457152606
2480 -0.1816821820257159
2481 -0.1817140990752572
2482 -0.1816819544344794
2483 -0.1817113785144417
2484 -0.1816843011923116
2485 -0.1817094705954391
2486 -0.1816823026933848
2487 -0.1817080185245848
2488 -0.1816826348155633
2489 -0.1817072691123005
2490 -0.1816829799415893
2491 -0.1817072946846782
2492 -0.1816827120173589
2493 -0.1817080872595455
2494 -0.1816843515008545
2495 -0.1817099632400787
2496 -0.1816807271811959
2497 -0.1817110494257549
2498 -0.1816824397699006
2499 -0.1817116656518263
2500 -0.1816835771430052
2501 -0.1817129054930373
2502 -0.1816841461242951
2503 -0.1817136298163432
2504 -0.1816867027685
2505 -0.1817163481024844
2506 -0.1816874092824295
2507 -0.1817175812147169
2508 -0.1816866147789155
2509 -0.1817190893055435
2510 -0.1816878697408689
2511 -0.1817197620592139
2512 -0.1816876552886313
2513 -0.1817207090192375
2514 -0.1816868440451808
2515 -0.1817194547081961
2516 -0.1816873396948216
2517 -0.1817174165760164
2518 -0.1816885013791585
2519 -0.1817141108254731
2520 -0.1816856458538945
2521 -0.1817111869928984
2522 -0.1816833862127125
2523 -0.1817106317021324
2524 -0.1816817194380834
2525 -0.1817086266433979
2526 -0.1816795483035128
2527 -0.1817066014682343
2528 -0.1816786892663976
2529 -0.1817083200271784
2530 -0.1816770592777779
2531 -0.181705347175051
2532 -0.1816802665133184
2533 -0.1817069739688696
2534 -0.1816806037949882
2535 -0.1817072051732494
2536 -0.1816819423569946
2537 -0.1817101437469649
2538 -0.181681466260505
2539 -0.1817125280970887
2540 -0.1816864047284167
2541 -0.1817159876510202
2542 -0.1816877328890957
2543 -0.1817168560073716
2544 -0.1816873541576945
2545 -0.1817204402460485
2546 -0.1816874670710471
2547 -0.1817176834418243
2548 -0.1816906153476297
2549 -0.1817181982094701
2550 -0.1816896773750732
2551 -0.1817170260276744
2552 -0.1816915091199991
2553 -0.1817162298452378
2554 -0.1816897717331306
2555 -0.1817138485272474
2556 -0.181689195642774
2557 -0.1817141437594405
2558 -0.1816850470179826
2559 -0.1817101630557324
2560 -0.1816849269830564
2561 -0.1817113573799332
2562 -0.181681493128158
2563 -0.1817066867721957
2564 -0.181682572267692
2565 -0.1817057696765203
2566 -0.1816813922299474
2567 -0.181704776532571
2568 -0.1816824889667877
2569 -0.1817052110998955
2570 -0.1816817394256591
2571 -0.1817061131392769
2572 -0.1816824538338849
2573 -0.1817081229863103
2574 -0.1816839474709692
2575 -0.1817098215560567
2576 -0.1816821467660596
2577 -0.1817141534075164
2578 -0.1816830903169563
2579 -0.1817133512454058
2580 -0.181685397041157
2581 -0.1817158573699348
2582 -0.1816879785429503
2583 -0.1817155575348513
2584 -0.1816897698231943
2585 -0.1817155208314095
2586 -0.1816892854676536
2587 -0.1817136787689269
2588 -0.1816895057446219
2589 -0.1817124586063532
2590 -0.1816867460217632
2591 -0.1817111992783387
2592 -0.1816839480012879
2593 -0.1817110114101351
2594 -0.1816807474728871
2595 -0.1817069332829165
2596 -0.1816804316298534
2597 -0.1817080876469283
2598 -0.1816788952594053
2599 -0.1817067675239668
2600 -0.1816806297607956
2601 -0.1817082377308475
2602 -0.1816808242552282
2603 -0.1817098749991759
2604 -0.1816814128758095
2605 -0.1817119520294594
2606 -0.1816817683555751
2607 -0.1817143819677797
2608 -0.1816825954192742
2609 -0.1817164943010265
2610 -0.18168285737629
2611 -0.1817153242875862
2612 -0.181685849533464
2613 -0.1817163372959621
2614 -0.1816850504348837
2615 -0.1817180008722624
2616 -0.181687968751002
2617 -0.1817168135192702
2618 -0.1816870979604314
2619 -0.1817180007979238
2620 -0.1816883541422167
2621 -0.1817164658798733
2622 -0.1816866261913989
2623 -0.1817149374016537
2624 -0.1816835790126948
2625 -0.1817136962356074
2626 -0.1816820819248529
2627 -0.1817079317921712
2628 -0.1816825748867881
2629 -0.1817082236192883
2630 -0.1816803127800543
2631 -0.1817064757978891
2632 -0.1816810326063989
2633 -0.1817075824369014
2634 -0.1816794161387955
2635 -0.1817073702116561
2636 -0.1816807494798031
2637 -0.1817098215203244
2638 -0.1816803016494447
2639 -0.181707964498556
2640 -0.1816796811816789
2641 -0.1817096214220102
2642 -0.1816800611550132
2643 -0.1817089826564715
2644 -0.1816822101599616
2645 -0.1817098357148734
2646 -0.1816837808110968
2647 -0.1817125955238075
2648 -0.1816854177144727
2649 -0.1817167845193929
2650 -0.1816870626229369
2651 -0.1817184894636084
2652 -0.1816852149735032
2653 -0.1817205256477732
2654 -0.1816880954521871
2655 -0.1817210381367774
2656 -0.1816865247724359
2657 -0.1817205599298838
2658 -0.1816854048436481
2659 -0.1817177692907913
2660 -0.1816861114160717
2661 -0.1817175666775744
2662 -0.1816852377687979
2663 -0.1817144377497566
2664 -0.1816819913890025
2665 -0.1817118002039181
2666 -0.1816793279252159
2667 -0.1817103759230392
2668 -0.1816784492841143
2669 -0.1817082911982498
2670 -0.1816766276743284
2671 -0.1817079404120036
2672 -0.1816732172674657
2673 -0.1817069788765302
2674 -0.1816732319272513
2675 -0.1817062029638693
2676 -0.1816757215169947
2677 -0.1817057944091187
2678 -0.181677147811193
2679 -0.1817068970554934
2680 -0.1816794497958629
2681 -0.1817097689694913
2682 -0.1816802841390642
2683 -0.1817119637971015
2684 -0.1816820504875094
2685 -0.1817155753073964
2686 -0.1816834038208011
2687 -0.1817182887661772
2688 -0.1816840565844698
2689 -0.1817205791781237
2690 -0.1816840389608823
2691 -0.1817186227251075
2692 -0.1816874595341948
2693 -0.1817202413849902
2694 -0.1816883254669748
2695 -0.1817198331781185
2696 -0.1816913248054216
2697 -0.1817193319542368
2698 -0.1816902848574639
2699 -0.1817175786606255
2700 -0.1816880054529251
2701 -0.1817156957897653
2702 -0.1816848992495796
2703 -0.181712319801762
2704 -0.1816831164505221
2705 -0.1817147673879247
2706 -0.1816819095286177
2707 -0.181711082826889
2708 -0.1816825840432579
2709 -0.1817125541550418
2710 -0.1816829821755055
2711 -0.1817115668194057
2712 -0.1816833766123827
2713 -0.1817123429012223
2714 -0.1816840678790867
2715 -0.1817131630175085
2716 -0.1816850891936954
2717 -0.1817147745914684
2718 -0.1816842546526102
2719 -0.1817135266533068
2720 -0.1816834227652903
2721 -0.1817164774818529
2722 -0.1816837142964331
2723 -0.1817123642119345
2724 -0.1816852886737309
2725 -0.1817138013090183
2726 -0.1816841765223894
2727 -0.1817110106810703
2728 -0.1816844465385904
2729 -0.1817130821588656
2730 -0.1816817720726629
2731 -0.1817104286676514
2732 -0.1816803966868113
2733 -0.1817111195646756
2734 -0.1816789354132646
2735 -0.1817089221514842
2736 -0.1816772191311557
2737 -0.1817118833513224
2738 -0.1816765574988712
2739 -0.1817082473956109
2740 -0.1816810795014654
2741 -0.1817096042657313
2742 -0.1816795497943752
2743 -0.1817097369234478
2744 -0.1816830530447572
2745 -0.1817119031779227
2746 -0.1816849097604578
2747 -0.181713285411657
2748 -0.1816864133591318
2749 -0.1817171123593943
2750 -0.181689468716552
2751 -0.1817165273576268
2752 -0.1816890323625344
2753 -0.1817199633797388
2754 -0.1816893496965332
2755 -0.181717813707388
2756 -0.1816908960702168
2757 -0.1817183363542618
2758 -0.1816910485452883
2759 -0.1817154427484361
2760 -0.1816897403423193
2761 -0.1817150999172826
2762 -0.1816863990349188
2763 -0.1817108168229222
2764 -0.1816831336081647
2765 -0.1817107336453724
2766 -0.1816791890798341
2767 -0.1817079272353975
2768 -0.181676002902486
2769 -0.1817090196181408
2770 -0.1816753380318437
2771 -0.1817045118716137
2772 -0.1816759046854824
2773 -0.1817049963696537
2774 -0.1816770455418691
2775 -0.1817048761567902
2776 -0.1816783852348727
2777 -0.181705969649224
2778 -0.1816771573539949
2779 -0.1817084037315974
2780 -0.1816825912010756
2781 -0.1817130180798474
2782 -0.1816836225194743
2783 -0.181716169162401
2784 -0.1816841359188954
2785 -0.1817204296374104
2786 -0.1816850949475557
2787 -0.1817180348681158
2788 -0.1816900359739203
2789 -0.1817215786951074
2790 -0.1816917657993864
2791 -0.1817225865340182
2792 -0.1816958068304287
2793 -0.1817224607171017
2794 -0.1816944127643248
2795 -0.1817226035260331
2796 -0.1816940846180156
2797 -0.1817216595238885
2798 -0.1816916935375565
2799 -0.1817170241241317
2800 -0.1816870111263492
2801 -0.1817145563606438
2802 -0.1816822855278143
2803 -0.1817081067293681
2804 -0.1816813221405139
2805 -0.1817074088349199
2806 -0.1816793384740907
2807 -0.1817029707920511
2808 -0.1816794854887157
2809 -0.1817047626786578
2810 -0.1816778986492955
2811 -0.1817021571277903
2812 -0.1816779549772019
2813 -0.1817046697543641
2814 -0.181677888140716
2815 -0.181702748023281
2816 -0.1816772658664515
2817 -0.1817078046725041
2818 -0.181677543393142
2819 -0.1817084738590402
2820 -0.1816833293295019
2821 -0.1817130794388823
2822 -0.1816880734517486
2823 -0.1817152606758391
2824 -0.1816936330529376
2825 -0.181718099814928
2826 -0.1816956213313586
2827 -0.181718445671091
2828 -0.1816972558341976
2829 -0.1817200977635949
2830 -0.1816964962355112
2831 -0.1817176712368043
2832 -0.1816931790321507
2833 -0.1817179516444632
2834 -0.1816893268949112
2835 -0.18171269680579
2836 -0.1816898027458369
2837 -0.1817124086107342
2838 -0.1816869087024981
2839 -0.1817092629104823
2840 -0.1816850890119633
2841 -0.1817072447341553
2842 -0.1816818320712194
2843 -0.1817065138555049
2844 -0.1816814609307039
2845 -0.1817051562492818
2846 -0.1816784062698343
2847 -0.1817045669318095
2848 -0.1816771718404926
2849 -0.1817062960549871
2850 -0.1816765188380383
2851 -0.1817050353495566
2852 -0.1816797476566918
2853 -0.1817067094110183
2854 -0.1816798306544697
2855 -0.181708758804912
2856 -0.1816827491616366
2857 -0.1817109876593899
2858 -0.1816838078630394
2859 -0.1817129601414564
2860 -0.1816859514402821
2861 -0.18171337831405
2862 -0.1816858518002384
2863 -0.1817156220560699
2864 -0.1816873662840419
2865 -0.1817163901825687
2866 -0.1816851685182998
2867 -0.1817119063097063
2868 -0.1816858167713774
2869 -0.1817118089798465
2870 -0.1816847366210097
2871 -0.1817093982242346
2872 -0.1816845745700127
2873 -0.1817096966776123
2874 -0.1816813128212624
2875 -0.1817095713529526
2876 -0.1816828635924087
2877 -0.1817110735731815
2878 -0.1816819973855108
2879 -0.1817099944308271
2880 -0.1816807294795039
2881 -0.1817132757289711
2882 -0.1816805122657707
2883 -0.1817092675138847
2884 -0.1816830866699607
2885 -0.1817135295984851
2886 -0.1816828708346343
2887 -0.1817134317907649
2888 -0.1816865397138007
2889 -0.1817180639505489
2890 -0.1816870798387241
2891 -0.1817201545145076
2892 -0.1816911910592645
2893 -0.181722278654168
2894 -0.1816903421628241
2895 -0.1817198585268043
2896 -0.1816894423888168
2897 -0.1817209489434983
2898 -0.1816881650144734
2899 -0.1817147759162692
2900 -0.1816899520822552
2901 -0.1817148247875948
2902 -0.1816883025519295
2903 -0.1817091782445075
2904 -0.181687188227197
2905 -0.1817089742511646
2906 -0.1816852149037867
2907 -0.1817053437897905
2908 -0.1816837687714113
2909 -0.1817073339157965
2910 -0.1816816654405047
2911 -0.1817063725155799
2912 -0.1816792450199351
2913 -0.1817079116869696
2914 -0.1816786869236536
2915 -0.1817052888231404
2916 -0.1816818514341076
2917 -0.181709057754136
2918 -0.1816809521264184
2919 -0.1817088897149453
2920 -0.1816841220821363
2921 -0.1817123923045764
2922 -0.1816826893617359
2923 -0.1817125004021407
2924 -0.1816850744190327
2925 -0.1817161723692747
2926 -0.1816855143216644
2927 -0.1817147731372451
2928 -0.181685813954125
2929 -0.1817177990507174
2930 -0.1816854237633582
2931 -0.181714682009016
2932 -0.1816885455482093
2933 -0.1817159020831496
2934 -0.1816878104595246
2935 -0.1817124799874622
2936 -0.1816889039024449
2937 -0.1817121891088799
2938 -0.1816850647462378
2939 -0.1817082073079096
2940 -0.1816855401556387
2941 -0.1817077544473341
2942 -0.1816819075880706
2943 -0.1817042818398965
2944 -0.1816786813855108
2945 -0.1817059917638363
2946 -0.1816764322427281
2947 -0.1817023093785463
2948 -0.1816809271539524
2949 -0.1817066956628385
2950 -0.1816805846513181
2951 -0.181707751245352
2952 -0.1816841386770421
2953 -0.1817107366437352
2954 -0.1816846680096392
2955 -0.1817123146167452
2956 -0.1816875934530802
2957 -0.1817179501229032
2958 -0.1816890282541287
2959 -0.1817183343701881
2960 -0.1816889831066167
2961 -0.1817211677192766
2962 -0.1816889948248884
2963 -0.1817193080634004
2964 -0.1816885109060276
2965 -0.1817187829711662
2966 -0.1816883269465714
2967 -0.181716373874648
2968 -0.1816869938103386
2969 -0.1817167961560092
2970 -0.1816840528623947
2971 -0.1817127020250011
2972 -0.1816814241127776
2973 -0.181712658591761
2974 -0.1816806599519864
2975 -0.1817078877382456
2976 -0.1816765132345418
2977 -0.1817092397821834
2978 -0.181675227995846
2979 -0.1817036721103217
2980 -0.1816768354225143
2981 -0.1817049149068887
2982 -0.1816773948248286
2983 -0.1817044961860873
2984 -0.1816787789540382
2985 -0.1817095253159685
2986 -0.1816817705923859
2987 -0.1817119157836601
2988 -0.1816840145038513
2989 -0.1817167512752149
2990 -0.1816864828467354
2991 -0.1817177853875139
2992 -0.1816846860234919
2993 -0.1817196336949771
2994 -0.1816857405371673
2995 -0.181716905853078
2996 -0.181687647504393
2997 -0.1817192886993656
2998 -0.1816885395215471
2999 -0.1817171695987526
3000 -0.1816876547653415
3001 -0.1817180277745588
3002 -0.181687219751845
3003 -0.1817161964735917
3004 -0.1816862753177773
3005 -0.1817169474635226
3006 -0.1816823458973824
3007 -0.1817124839088395
3008 -0.1816779117292948
3009 -0.1817131920540643
3010 -0.1816762779333553
3011 -0.1817059167691391
3012 -0.1816747534169556
3013 -0.1817069273017048
3014 -0.1816751171022231
3015 -0.1817023249289117
3016 -0.1816764714071558
3017 -0.1817061106184313
3018 -0.1816772537290552
3019 -0.1817060010327182
3020 -0.1816791181589369
3021 -0.181711395867295
3022 -0.1816821259813873
3023 -0.1817122285713697
3024 -0.1816809597907767
3025 -0.1817183704576711
3026 -0.1816831991389577
3027 -0.1817159364249532
3028 -0.1816854698049121
3029 -0.1817188312813948
3030 -0.1816888445699835
3031 -0.181718948672959
3032 -0.1816898288941895
3033 -0.1817230186481923
3034 -0.1816918318533569
3035 -0.181722550414086
3036 -0.1816912980908963
3037 -0.1817253081629661
3038 -0.1816894957371853
3039 -0.1817212324752698
3040 -0.1816838086541768
3041 -0.1817208923647335
3042 -0.1816821504381599
3043 -0.1817143740383712
3044 -0.1816787622889826
3045 -0.181713272370332
3046 -0.1816780657831802
3047 -0.1817075912872955
3048 -0.1816753762914358
3049 -0.1817088799894168
3050 -0.1816761583638817
3051 -0.1817063097037111
3052 -0.1816745714855708
3053 -0.1817072231703441
3054 -0.1816766282317695
3055 -0.1817066459743448
3056 -0.181673764579394
3057 -0.1817087897968085
3058 -0.1816774657873449
3059 -0.1817061658567708
3060 -0.1816804629279802
3061 -0.1817105324788762
3062 -0.1816860144558554
3063 -0.1817111721058961
3064 -0.1816877229502274
3065 -0.1817122251222265
3066 -0.181690776321829
3067 -0.181713412150869
3068 -0.1816903147480738
3069 -0.181715000279388
3070 -0.1816930573352178
3071 -0.1817149679700198
3072 -0.1816896314695219
3073 -0.181716892570218
3074 -0.1816886781332785
3075 -0.1817142732584865
3076 -0.1816872638932272
3077 -0.1817153920623194
3078 -0.18168843095243
3079 -0.1817145122478468
3080 -0.181685544769921
3081 -0.1817141510240337
3082 -0.1816852531953161
3083 -0.1817136651624541
3084 -0.181684486767379
3085 -0.1817153443426375
3086 -0.181684890940728
3087 -0.181713429381491
3088 -0.1816816684591496
3089 -0.1817152781345177
3090 -0.181682561784675
3091 -0.1817111132458795
3092 -0.1816815070553697
3093 -0.1817106266108962
3094 -0.1816822918289807
3095 -0.1817080363713
3096 -0.18168333967238
3097 -0.1817088113303737
3098 -0.181681715851598
3099 -0.181709336155589
3100 -0.1816857871726087
3101 -0.181712074471891
3102 -0.1816852864433595
3103 -0.181710728016809
3104 -0.1816837785989234
3105 -0.1817130327091966
3106 -0.1816831563753315
3107 -0.181708681596524
3108 -0.181684949208298
3109 -0.1817077458728694
3110 -0.1816831704705562
3111 -0.1817058365662508
3112 -0.1816827289542242
3113 -0.1817069328706441
3114 -0.1816816562151188
3115 -0.1817082744226886
3116 -0.181682569599336
3117 -0.18171264186398
3118 -0.1816809771148543
3119 -0.1817150557829632
3120 -0.1816826660534797
3121 -0.1817190676097737
3122 -0.1816827901121315
3123 -0.1817169823783194
3124 -0.1816852540509946
3125 -0.1817196887572406
3126 -0.1816850466756109
3127 -0.1817177008831956
3128 -0.1816877511726822
3129 -0.1817186816447497
3130 -0.1816874435052052
3131 -0.1817168287106632
3132 -0.181686551666853
3133 -0.1817175069116402
3134 -0.181688450851428
3135 -0.1817149447918433
3136 -0.1816862678925648
3137 -0.1817165230046769
3138 -0.1816842636985034
3139 -0.1817106226726503
3140 -0.1816833296565824
3141 -0.1817092758702295
3142 -0.1816836883786708
3143 -0.1817054842369121
3144 -0.1816824474738854
3145 -0.1817050096976392
3146 -0.1816812436328563
3147 -0.1817035086045469
3148 -0.181679797238605
3149 -0.1817052052115561
3150 -0.1816799901535266
3151 -0.1817046467229427
3152 -0.1816776419899222
3153 -0.1817073631783316
3154 -0.1816797243444234
3155 -0.1817087583693972
3156 -0.181680424924786
3157 -0.1817116795245891
3158 -0.181680898487467
3159 -0.1817126404831113
3160 -0.1816837371977537
3161 -0.1817168221928193
3162 -0.1816860051787322
3163 -0.1817204127074419
3164 -0.1816888807745816
3165 -0.1817218015172327
3166 -0.1816906773578841
3167 -0.1817245084473279
3168 -0.1816911273109622
3169 -0.1817253976238491
3170 -0.1816922435168705
3171 -0.1817220781493048
3172 -0.1816919776761371
3173 -0.1817195812606068
3174 -0.1816911373883374
3175 -0.1817169821589361
3176 -0.1816896547251921
3177 -0.1817135165255253
3178 -0.1816863035836206
3179 -0.1817110763477426
3180 -0.1816834301721235
3181 -0.1817075664374763
3182 -0.1816805419813372
3183 -0.1817033235236998
3184 -0.1816767838556
3185 -0.1817019626276803
3186 -0.1816736367791128
3187 -0.1816980528332766
3188 -0.1816731673323191
3189 -0.1816965877009564
3190 -0.1816734195351256
3191 -0.1816993082996347
3192 -0.1816743602137189
3193 -0.1817030823312132
3194 -0.1816769444637504
3195 -0.1817064525278831
3196 -0.1816799848349975
3197 -0.1817108776423385
3198 -0.1816835243775911
3199 -0.1817131226358497
3200 -0.1816830906506398
3201 -0.1817165894862057
3202 -0.1816855771410893
3203 -0.1817174608390462
3204 -0.1816881478389528
3205 -0.1817202481432719
3206 -0.1816914927856433
3207 -0.1817206002310075
3208 -0.1816917409033308
3209 -0.1817206280910768
3210 -0.1816928172055849
3211 -0.1817225092666775
3212 -0.1816923929624856
3213 -0.1817220986613023
3214 -0.1816923238591263
3215 -0.1817198196078591
3216 -0.1816886775531088
3217 -0.1817185609634618
3218 -0.1816855858134764
3219 -0.1817147260003903
3220 -0.1816850624313071
3221 -0.1817099641330979
3222 -0.1816828599525895
3223 -0.1817073497623293
3224 -0.1816824342560745
3225 -0.181706754194238
3226 -0.18167961924108
3227 -0.1817045048101765
3228 -0.181679612222416
3229 -0.181704940272683
3230 -0.1816779349262677
3231 -0.1817062382836845
3232 -0.1816771073281169
3233 -0.1817052694307464
3234 -0.1816767361887631
3235 -0.181705663001939
3236 -0.1816788380227413
3237 -0.1817080142794816
3238 -0.1816838721994032
3239 -0.1817112533100293
3240 -0.1816874418227904
3241 -0.1817142491904266
3242 -0.1816895035880124
3243 -0.1817174714866379
3244 -0.1816913622432132
3245 -0.1817181055160986
3246 -0.1816915558133814
3247 -0.1817193440593495
3248 -0.1816892067225926
3249 -0.1817198360831928
3250 -0.1816879737058034
3251 -0.181715991033908
3252 -0.1816875852471117
3253 -0.1817153134841804
3254 -0.1816857316675055
3255 -0.1817117216019072
3256 -0.1816850149644233
3257 -0.1817118242372603
3258 -0.1816840221336108
3259 -0.1817113608316372
3260 -0.1816827614878188
3261 -0.1817097071334838
3262 -0.1816814789825467
3263 -0.1817083251523318
3264 -0.1816782724476197
3265 -0.18170823200223
3266 -0.1816789339045536
3267 -0.1817032533168837
3268 -0.1816797945559168
3269 -0.1817045331145652
3270 -0.1816805691627021
3271 -0.181706114732757
3272 -0.1816827740781918
3273 -0.1817070622245568
3274 -0.1816842105214819
3275 -0.1817087189521493
3276 -0.181684404872616
3277 -0.1817102645186142
3278 -0.1816861143792714
3279 -0.1817117268137401
3280 -0.1816849551631321
3281 -0.1817133140865228
3282 -0.1816856882844563
3283 -0.1817110373294144
3284 -0.181685584441707
3285 -0.1817114629749505
3286 -0.1816860319231723
3287 -0.1817107510410566
3288 -0.1816847194165774
3289 -0.1817106405618316
3290 -0.1816817050100449
3291 -0.1817119793392172
3292 -0.1816818128985935
3293 -0.1817120526165667
3294 -0.1816803294794773
3295 -0.1817123137117441
3296 -0.1816778333879985
3297 -0.181712412470956
3298 -0.1816794250549312
3299 -0.1817118092732553
3300 -0.181681254945588
3301 -0.1817113776103653
3302 -0.181682692991878
3303 -0.181710776027952
3304 -0.1816844563109911
3305 -0.181711862082041
3306 -0.1816848595153199
3307 -0.1817156624646908
3308 -0.1816861853869443
3309 -0.1817164032135149
3310 -0.1816870473232896
3311 -0.1817188945942637
3312 -0.1816861990001004
3313 -0.1817178901870298
3314 -0.1816865711405263
3315 -0.1817155999771985
3316 -0.1816882401981626
3317 -0.1817135171070947
3318 -0.1816859510855287
3319 -0.1817127335937924
3320 -0.1816849385863091
3321 -0.1817102349807462
3322 -0.1816822567453359
3323 -0.1817096446428104
3324 -0.1816805068881882
3325 -0.1817081522884617
3326 -0.1816792373002173
3327 -0.1817096282855384
3328 -0.1816770542556681
3329 -0.1817108432550038
3330 -0.181675922236965
3331 -0.1817087920791952
3332 -0.1816774637480442
3333 -0.1817099251345345
3334 -0.1816791128823582
3335 -0.1817103917455971
3336 -0.1816812593332491
3337 -0.1817118745947081
3338 -0.1816816395124106
3339 -0.1817141841571661
3340 -0.1816852413137165
3341 -0.1817169399488846
3342 -0.1816867668401518
3343 -0.1817178367522014
3344 -0.1816867851329995
3345 -0.1817200265856205
3346 -0.1816880272351958
3347 -0.1817187568354574
3348 -0.1816880841813572
3349 -0.1817192780020879
3350 -0.1816862070834349
3351 -0.181716493180652
3352 -0.1816844625526504
3353 -0.1817124100655197
3354 -0.1816807190084517
3355 -0.1817090035772545
3356 -0.1816795627505554
3357 -0.1817106743318059
3358 -0.181679179777166
3359 -0.1817086569523775
3360 -0.1816746987964871
3361 -0.1817092882513897
3362 -0.1816733993097415
3363 -0.181707505016712
3364 -0.1816742885374586
3365 -0.1817092123075489
3366 -0.1816756032832235
3367 -0.1817073766791654
3368 -0.1816772259697675
3369 -0.1817080736353676
3370 -0.181679971329188
3371 -0.1817104634268978
3372 -0.1816825376556727
3373 -0.1817143668574459
3374 -0.1816851187314265
3375 -0.1817149779395893
3376 -0.1816853541683729
3377 -0.1817185259446368
3378 -0.181686192128707
3379 -0.1817170133094789
3380 -0.1816875921672114
3381 -0.1817177641078006
3382 -0.181687538440937
3383 -0.1817157714813205
3384 -0.1816868668953525
3385 -0.1817173526362247
3386 -0.1816862716696084
3387 -0.1817163984174635
3388 -0.1816842277384865
3389 -0.1817168741266487
3390 -0.1816831506331567
3391 -0.1817141424465371
3392 -0.1816799821507309
3393 -0.1817146746102341
3394 -0.1816788093699064
3395 -0.1817093738565348
3396 -0.1816779878581355
3397 -0.1817090100385142
3398 -0.1816768827297337
3399 -0.1817064139135535
3400 -0.1816784217621114
3401 -0.1817079728859462
3402 -0.1816795050859279
