"x-rfile"
"Iteration" "x"
("Iteration" "x")
7590 -1628.399596276493
7591 -1631.494967187672
7592 -1632.223753675812
7593 -1634.325921813391
7594 -1635.309582972203
7595 -1636.756781617649
7596 -1637.477057828035
7597 -1639.084861914852
7598 -1640.416127719186
7599 -1642.437580142925
7600 -1644.548840993966
7601 -1647.550109610909
7602 -1651.029172093815
7603 -1656.182001492904
7604 -1660.315463735828
7605 -1665.711437853919
7606 -1670.24704283492
7607 -1675.748758787247
7608 -1681.166001342598
7609 -1687.616766237924
7610 -1693.10242767781
7611 -1699.701820552566
7612 -1706.269060560262
7613 -1712.798811834828
7614 -1719.608700008024
7615 -1727.448239322852
7616 -1733.976391287258
7617 -1741.863037884391
7618 -1749.76905185924
7619 -1758.532208255199
7620 -1767.124323261382
7621 -1776.359435306307
7622 -1783.41883509524
7623 -1793.819035060611
7624 -1801.27877057808
7625 -1809.773207042847
7626 -1818.050188520107
7627 -1826.927869192925
7628 -1835.318863871336
7629 -1841.597584320109
7630 -1850.719391964581
7631 -1857.063651921585
7632 -1863.542265034833
7633 -1873.213018413691
7634 -1879.059569381582
7635 -1888.022487979024
7636 -1893.220987734015
7637 -1901.314899943659
7638 -1905.962094322461
7639 -1911.18903538916
7640 -1917.902997882716
7641 -1922.365016334161
7642 -1926.573585750172
7643 -1931.108496126228
7644 -1935.213993664992
7645 -1939.596719766975
7646 -1943.606182971275
7647 -1947.845183684977
7648 -1951.695340835184
7649 -1955.847730850325
7650 -1959.553996370278
7651 -1963.6023488347
7652 -1967.268157796778
7653 -1971.209376828646
7654 -1974.77941075391
7655 -1978.642797538567
7656 -1982.157868170576
7657 -1987.482528687189
7658 -1990.489976322779
7659 -1995.176944620458
7660 -1997.802571465987
7661 -2002.058902321112
7662 -2004.348791754792
7663 -2008.167541064775
7664 -2010.196087981345
7665 -2013.599940758163
7666 -2015.268292905904
7667 -2018.285357651238
7668 -2019.694021542059
7669 -2022.248525220566
7670 -2023.314412000148
7671 -2025.378359687051
7672 -2026.150562348188
7673 -2027.742485572875
7674 -2028.245885822408
7675 -2029.18468799167
7676 -2029.86323429256
7677 -2030.503277789205
7678 -2030.70982913246
7679 -2031.418889916634
7680 -2031.397048661291
7681 -2031.838709005256
7682 -2031.779779691336
7683 -2032.198485803342
7684 -2032.0738604842
7685 -2032.429158089956
7686 -2032.350283392336
7687 -2032.710808148915
7688 -2032.661041153212
7689 -2033.085864809551
7690 -2033.074396049683
7691 -2033.55827948025
7692 -2033.628635687605
7693 -2034.166194212433
7694 -2034.31808549428
7695 -2034.864645877645
7696 -2035.07349545689
7697 -2035.73216884475
7698 -2035.96765934855
7699 -2036.600632821193
7700 -2036.853104875677
7701 -2037.540908020933
7702 -2037.778467593994
7703 -2038.435166177307
7704 -2038.648273721474
7705 -2039.276147345825
7706 -2039.587072792626
7707 -2040.097625274578
7708 -2040.130383120585
7709 -2040.663215183372
7710 -2040.540931744327
7711 -2040.85653950271
7712 -2040.584282985799
7713 -2040.691210028479
7714 -2040.228411564675
7715 -2040.072182123641
7716 -2039.426109945991
7717 -2038.971440851956
7718 -2038.130982290622
7719 -2037.672184766482
7720 -2036.248816313872
7721 -2035.622975506346
7722 -2033.886473848898
7723 -2033.088071155151
7724 -2031.590780228856
7725 -2029.948661723492
7726 -2028.303523793905
7727 -2026.428708575917
7728 -2024.656074410599
7729 -2022.568755630139
7730 -2020.651884020373
7731 -2018.463513335988
7732 -2016.526316316802
7733 -2014.210059332932
7734 -2011.467175046787
7735 -2009.286697266004
7736 -2006.682193463574
7737 -2004.678117032559
7738 -2002.187971542136
7739 -2000.32695998901
7740 -1998.076038042925
7741 -1996.375050820725
7742 -1994.337381812636
7743 -1992.95376411413
7744 -1991.162843698451
7745 -1990.031866987746
7746 -1988.490821758081
7747 -1987.594695184904
7748 -1986.325949461366
7749 -1985.70660213773
7750 -1984.673048047004
7751 -1984.513680365051
7752 -1983.695098294516
7753 -1983.566448822514
7754 -1983.086321243028
7755 -1983.130657168837
7756 -1982.734779270299
7757 -1982.998071706659
7758 -1982.75756566882
7759 -1983.101633751535
7760 -1982.963810316271
7761 -1983.405617547482
7762 -1983.343611397274
7763 -1983.845302128729
7764 -1983.841730515508
7765 -1984.331204487032
7766 -1984.253276642329
7767 -1984.681845562337
7768 -1984.568690913003
7769 -1984.882970506739
7770 -1984.55345397802
7771 -1984.711483302921
7772 -1984.256692265604
7773 -1984.219850725566
7774 -1983.519015673752
7775 -1983.230836468742
7776 -1982.221416068407
7777 -1981.684893026348
7778 -1980.416060432641
7779 -1979.561753281824
7780 -1978.039944376941
7781 -1976.939959787309
7782 -1975.086234080969
7783 -1973.708936085386
7784 -1971.620007320034
7785 -1970.047428464159
7786 -1967.816135744369
7787 -1966.012339886688
7788 -1963.595684689436
7789 -1961.650763879027
7790 -1959.032147547783
7791 -1956.934764118658
7792 -1954.25749406559
7793 -1952.136194881956
7794 -1949.374787986226
7795 -1947.204787101056
7796 -1944.5484921374
7797 -1942.50957146559
7798 -1939.921650704331
7799 -1937.993542200156
7800 -1935.587870323471
7801 -1933.865096497708
7802 -1931.628482312526
7803 -1930.170857498227
7804 -1928.226559618226
7805 -1927.044000685098
7806 -1925.381958927789
7807 -1924.472872548903
7808 -1923.122967863227
7809 -1922.499434108783
7810 -1921.456869993804
7811 -1921.1384734234
7812 -1920.384972930126
7813 -1920.305644368331
7814 -1919.827867780252
7815 -1920.038632522689
7816 -1919.760221039016
7817 -1920.173682262782
7818 -1920.095833255744
7819 -1920.651666512426
7820 -1920.762163131915
7821 -1921.463913209807
7822 -1921.65095233805
7823 -1922.377168936861
7824 -1922.595506219612
7825 -1923.36000650867
7826 -1923.585387697164
7827 -1924.2716656461
7828 -1924.409973515836
7829 -1924.984155059884
7830 -1924.990974598901
7831 -1925.394431918202
7832 -1925.22008876362
7833 -1925.457636211683
7834 -1925.023386550468
7835 -1925.016108709019
7836 -1924.324153417752
7837 -1924.020982343087
7838 -1922.995014384922
7839 -1922.392306441969
7840 -1921.118580213687
7841 -1920.224649171157
7842 -1918.67675452439
7843 -1917.559114445971
7844 -1915.724235001459
7845 -1914.272059393418
7846 -1912.133758835239
7847 -1910.464770296524
7848 -1908.141930323364
7849 -1906.182927398449
7850 -1903.620072218587
7851 -1901.498286110708
7852 -1898.832315066321
7853 -1896.612955587853
7854 -1893.814500230831
7855 -1891.460248724244
7856 -1888.643390547652
7857 -1886.201551745405
7858 -1883.3279632687
7859 -1880.937677007314
7860 -1878.120950612024
7861 -1875.810221995854
7862 -1873.118782735542
7863 -1871.031326955802
7864 -1868.498196600411
7865 -1866.571020150899
7866 -1864.29940304823
7867 -1862.546999358171
7868 -1860.485839992444
7869 -1858.994666746632
7870 -1857.250502681473
7871 -1856.075336490512
7872 -1854.612162915253
7873 -1853.759520692667
7874 -1852.634488861116
7875 -1852.151608013098
7876 -1851.371753161312
7877 -1851.211090790672
7878 -1850.753133727512
7879 -1850.868664546058
7880 -1850.696235106894
7881 -1851.170851750438
7882 -1851.294250322197
7883 -1852.060646530371
7884 -1852.42491010561
7885 -1853.443214318552
7886 -1854.028881919704
7887 -1855.258727911596
7888 -1856.013884698921
7889 -1857.345025273661
7890 -1858.214767925207
7891 -1859.644943940614
7892 -1860.521165627276
7893 -1861.930712009643
7894 -1862.785406126726
7895 -1864.495118399313
7896 -1865.11601628756
7897 -1866.295511338424
7898 -1867.027466116216
7899 -1867.902179950598
7900 -1868.188033635866
7901 -1868.753117830174
7902 -1868.619680614215
7903 -1868.872517861186
7904 -1868.351868111677
7905 -1868.109014880642
7906 -1867.210633210548
7907 -1866.729882363576
7908 -1865.378380807027
7909 -1864.498162552585
7910 -1862.817504192057
7911 -1861.532129404029
7912 -1859.468973243132
7913 -1857.827835610753
7914 -1855.387876208029
7915 -1853.391290342816
7916 -1850.644280510728
7917 -1848.341581718636
7918 -1845.338677666098
7919 -1842.804753672244
7920 -1839.609596286193
7921 -1836.831080952763
7922 -1833.445334085423
7923 -1830.475505354529
7924 -1827.061194777359
7925 -1824.094040468489
7926 -1820.617607504894
7927 -1817.726612846782
7928 -1814.27466850273
7929 -1811.385386614122
7930 -1808.142795857886
7931 -1805.45793146735
7932 -1802.412179971684
7933 -1799.267126536844
7934 -1796.667568874693
7935 -1794.713408291974
7936 -1792.34927326385
7937 -1790.164828669061
7938 -1788.32554753851
7939 -1787.16731997273
7940 -1785.682462642362
7941 -1784.924552494536
7942 -1783.649829749644
7943 -1783.445544336504
7944 -1782.874351799134
7945 -1783.152763602348
7946 -1783.115666537671
7947 -1783.940096815315
7948 -1784.398239226077
7949 -1785.509797932697
7950 -1786.404246138067
7951 -1787.918652492231
7952 -1789.245803601008
7953 -1791.183261619991
7954 -1792.837842698046
7955 -1795.064192621055
7956 -1797.010385824585
7957 -1799.455495488252
7958 -1801.555631334282
7959 -1804.07287137305
7960 -1806.236573565404
7961 -1808.762409656107
7962 -1810.828078824999
7963 -1813.978756889123
7964 -1815.809777446329
7965 -1817.935128218516
7966 -1819.49849102413
7967 -1821.771544270034
7968 -1822.883048065492
7969 -1824.29088640507
7970 -1825.341524846351
7971 -1826.256199392652
7972 -1826.499260488328
7973 -1826.988315179109
7974 -1826.784701604107
7975 -1826.810179388308
7976 -1826.142595677662
7977 -1825.660715832855
7978 -1824.51155846037
7979 -1823.658207771882
7980 -1822.076787622295
7981 -1820.761545715438
7982 -1818.769048674387
7983 -1817.040711006127
7984 -1814.658234465512
7985 -1812.62806682002
7986 -1809.959043853099
7987 -1807.57931675432
7988 -1804.660705077169
7989 -1802.116813772334
7990 -1798.986058107778
7991 -1796.360725549208
7992 -1793.177209066355
7993 -1790.445183522952
7994 -1787.175160070081
7995 -1784.516432017806
7996 -1781.325748032424
7997 -1778.751775946946
7998 -1775.645587519998
7999 -1773.228282762445
8000 -1770.321409216965
8001 -1768.14074871686
8002 -1765.518325250145
8003 -1763.676303402545
8004 -1761.409858023881
8005 -1759.836045287078
8006 -1757.899422070105
8007 -1756.764378364185
8008 -1755.23299001404
8009 -1754.506952461765
8010 -1753.43310160897
8011 -1753.199497572205
8012 -1752.624267038358
8013 -1752.8666735924
8014 -1752.770660226674
8015 -1753.439727371151
8016 -1753.850646053593
8017 -1754.992421806067
8018 -1755.785479196443
8019 -1757.322298407636
8020 -1758.559078851086
8021 -1760.509939716471
8022 -1762.021075830388
8023 -1764.21814241435
8024 -1766.030993935727
8025 -1768.509398566614
8026 -1770.534184419994
8027 -1773.120419926551
8028 -1775.169996046194
8029 -1777.790926718898
8030 -1779.942295068198
8031 -1782.527060505275
8032 -1784.655475571156
8033 -1787.113367221996
8034 -1788.979696437159
8035 -1791.245338541924
8036 -1792.94709974086
8037 -1794.89023017596
8038 -1796.282173797817
8039 -1797.787927015698
8040 -1798.823966744929
8041 -1800.049083033376
8042 -1800.693327549082
8043 -1801.563159326438
8044 -1801.761072696917
8045 -1802.194549528537
8046 -1801.94526457523
8047 -1801.968357090006
8048 -1801.25393325175
8049 -1800.81413046671
8050 -1799.729023920304
8051 -1798.910462162435
8052 -1797.332753595152
8053 -1796.114463324039
8054 -1794.222329947884
8055 -1792.69865208465
8056 -1790.46102343029
8057 -1788.663504692364
8058 -1786.287267574121
8059 -1784.242193466628
8060 -1781.590508936848
8061 -1779.388839492712
8062 -1776.614708324217
8063 -1774.345968594879
8064 -1771.511241479908
8065 -1769.264150922446
8066 -1766.449415068548
8067 -1764.275577459799
8068 -1761.590843364584
8069 -1759.609471165636
8070 -1757.155475011552
8071 -1755.373823197378
8072 -1753.124740354851
8073 -1751.563593013397
8074 -1749.640795668872
8075 -1748.401244234428
8076 -1746.754385010085
8077 -1745.847030340184
8078 -1744.655896309512
8079 -1744.193248128644
8080 -1743.405335717369
8081 -1743.392354434148
8082 -1743.046648120356
8083 -1743.448782786711
8084 -1743.521193383222
8085 -1744.36444636489
8086 -1744.895574820264
8087 -1746.154393360169
8088 -1747.063968943567
8089 -1748.657828002313
8090 -1749.894414727257
8091 -1751.876407040373
8092 -1753.373920869287
8093 -1755.650866361397
8094 -1757.321729250294
8095 -1759.719635524336
8096 -1761.628481456182
8097 -1764.158166925367
8098 -1766.184163004673
8099 -1768.804050947285
8100 -1770.883128668643
8101 -1773.356650414703
8102 -1775.275987412995
8103 -1777.690891754593
8104 -1779.478518495906
8105 -1781.734074263667
8106 -1783.318663015636
8107 -1785.295368925211
8108 -1786.636234339811
8109 -1788.211412513403
8110 -1789.149912081113
8111 -1790.359622736998
8112 -1791.007572193547
8113 -1791.832737479506
8114 -1792.071605997626
8115 -1792.521176522619
8116 -1792.367464478483
8117 -1792.408732400308
8118 -1791.816677807203
8119 -1791.451950241065
8120 -1790.513485716409
8121 -1789.771826151899
8122 -1788.352098963272
8123 -1787.279329184954
8124 -1785.528719774302
8125 -1784.107906072084
8126 -1782.085461227805
8127 -1780.357697044224
8128 -1778.066730544981
8129 -1776.127665710417
8130 -1773.633356089947
8131 -1771.575484835084
8132 -1769.041219531436
8133 -1766.902251182895
8134 -1764.326217540696
8135 -1762.233384656316
8136 -1759.652572259722
8137 -1757.590915964506
8138 -1755.161678193144
8139 -1753.2848900463
8140 -1751.045634631368
8141 -1749.37476846759
8142 -1747.436256562233
8143 -1746.137899977238
8144 -1744.482271798427
8145 -1743.504511916781
8146 -1742.204309834127
8147 -1741.571666312782
8148 -1740.666899130465
8149 -1740.416227740748
8150 -1739.902202995703
8151 -1740.079901735444
8152 -1739.949676142666
8153 -1740.553380917451
8154 -1740.815649182317
8155 -1741.825150821662
8156 -1742.513124814381
8157 -1743.901670656242
8158 -1744.910069008103
8159 -1746.591992587663
8160 -1747.920513566834
8161 -1749.829909828884
8162 -1751.440891111216
8163 -1753.64333550682
8164 -1755.431519602522
8165 -1757.725059489685
8166 -1759.590902238818
8167 -1761.960520356194
8168 -1763.855638525389
8169 -1766.162300247417
8170 -1767.902329132051
8171 -1770.037033250219
8172 -1771.597238009223
8173 -1773.486115522523
8174 -1774.796349073295
8175 -1776.446335387309
8176 -1777.455162641783
8177 -1778.756820135234
8178 -1779.423372608973
8179 -1780.338472290893
8180 -1780.586581384566
8181 -1781.074665466108
8182 -1780.887585274616
8183 -1780.982813977206
8184 -1780.409165877401
8185 -1780.130791020243
8186 -1779.103068620563
8187 -1778.419334351704
8188 -1777.051152630152
8189 -1776.05167061228
8190 -1774.358432713998
8191 -1773.086098060746
8192 -1771.056654799472
8193 -1769.508927707731
8194 -1767.232064094138
8195 -1765.472626339831
8196 -1762.983723666754
8197 -1761.101255955312
8198 -1758.521561471432
8199 -1756.537586870275
8200 -1753.922390268212
8201 -1751.897997954887
8202 -1749.363246660526
8203 -1747.437014737075
8204 -1744.972033249463
8205 -1743.261097805997
8206 -1741.026007023408
8207 -1739.491133960978
8208 -1737.508957980733
8209 -1736.192131902537
8210 -1734.513966294459
8211 -1733.506479138737
8212 -1732.104898527791
8213 -1731.408819361017
8214 -1730.348843274639
8215 -1730.021072815478
8216 -1729.375000727454
8217 -1729.387387275754
8218 -1729.13406167661
8219 -1729.524624308801
8220 -1729.643774910729
8221 -1730.473517893324
8222 -1730.960247039975
8223 -1732.050201153193
8224 -1732.847033897006
8225 -1734.300990474631
8226 -1735.452064124038
8227 -1737.168262534244
8228 -1738.574317363063
8229 -1740.501500942023
8230 -1742.043348180521
8231 -1744.142325986581
8232 -1745.830647790987
8233 -1747.944083680172
8234 -1749.613653565548
8235 -1751.679234237125
8236 -1753.261566757075
8237 -1755.225236331617
8238 -1756.641050517099
8239 -1758.410094579723
8240 -1759.630900639705
8241 -1761.151495806887
8242 -1762.085306438681
8243 -1763.292660150408
8244 -1763.911830438669
8245 -1764.78394790266
8246 -1765.03003889305
8247 -1765.574807065584
8248 -1765.467211366023
8249 -1765.580452291782
8250 -1765.104522915072
8251 -1764.929458920932
8252 -1764.049615254896
8253 -1763.528516854953
8254 -1762.308879362258
8255 -1761.434573695997
8256 -1759.919056900796
8257 -1758.754011463361
8258 -1756.966395434811
8259 -1755.600269806357
8260 -1753.599700335656
8261 -1752.028895800146
8262 -1750.453601336672
8263 -1748.630360768503
8264 -1746.329160245847
8265 -1744.524650140406
8266 -1742.223608089265
8267 -1740.4201727733
8268 -1738.160266444975
8269 -1736.429567551248
8270 -1734.337028677413
8271 -1732.803347292766
8272 -1730.890599958683
8273 -1729.594061005536
8274 -1727.870570668518
8275 -1726.851305084607
8276 -1725.403460199691
8277 -1724.644309631059
8278 -1723.502722234123
8279 -1723.018563254728
8280 -1722.152105901653
8281 -1721.988708566921
8282 -1721.460982362426
8283 -1721.605519785673
8284 -1721.368122206993
8285 -1721.7850126448
8286 -1721.846462373602
8287 -1722.513764187815
8288 -1722.812122725647
8289 -1723.741619603547
8290 -1724.343785544599
8291 -1725.479331137841
8292 -1726.262608071979
8293 -1727.576729267221
8294 -1728.547615543018
8295 -1730.07629778485
8296 -1731.189875606591
8297 -1732.805191252993
8298 -1734.028350063438
8299 -1735.696152400033
8300 -1736.917804259949
8301 -1738.530090957915
8302 -1739.743666039793
8303 -1741.347498199647
8304 -1742.433985427314
8305 -1743.862900268216
8306 -1744.778313933301
8307 -1746.051601064055
8308 -1746.793310346186
8309 -1747.817119345682
8310 -1748.342544315517
8311 -1749.150046934647
8312 -1749.385596438667
8313 -1749.925516619422
8314 -1749.905000638114
8315 -1750.19788065366
8316 -1749.881981405609
8317 -1749.876718343261
8318 -1749.28146794784
8319 -1749.03159243239
8320 -1748.348802198043
8321 -1747.798635903263
8322 -1746.673287710256
8323 -1746.231470875597
8324 -1744.799249964211
8325 -1743.844179989567
8326 -1742.697929753195
8327 -1741.488730298981
8328 -1740.194248947424
8329 -1738.83950439534
8330 -1737.505196817401
8331 -1736.034024716773
8332 -1734.641082291262
8333 -1733.158441544025
8334 -1731.778858958361
8335 -1730.284108067303
8336 -1728.391535861826
8337 -1727.581830501384
8338 -1725.785675699676
8339 -1724.656116063363
8340 -1723.09981565978
8341 -1722.245057435546
8342 -1721.277811505596
8343 -1720.54445243687
8344 -1719.501521955635
8345 -1719.063037041528
8346 -1718.444679147891
8347 -1718.223461656243
8348 -1717.667501353316
8349 -1717.756007858488
8350 -1717.454153797063
8351 -1717.727972390093
8352 -1717.689907424881
8353 -1718.258386193056
8354 -1718.374419512484
8355 -1719.14133523788
8356 -1719.419920418097
8357 -1720.39964233016
8358 -1721.012502086347
8359 -1721.855606410459
8360 -1722.708801785
8361 -1724.042121372393
8362 -1724.928434032831
8363 -1726.312621062102
8364 -1727.233358002007
8365 -1728.64617146075
8366 -1729.613478786375
8367 -1731.051965033469
8368 -1731.935072192039
8369 -1733.359478199795
8370 -1734.18784431957
8371 -1735.516704678251
8372 -1736.225422691134
8373 -1737.430801209146
8374 -1738.002434094768
8375 -1739.029866322913
8376 -1739.407090441535
8377 -1740.112616952409
8378 -1740.32062179667
8379 -1741.041807670319
8380 -1741.016832286386
8381 -1741.429797621411
8382 -1741.224513383568
8383 -1741.432445809177
8384 -1740.957919964692
8385 -1741.005383852062
8386 -1740.248034402482
8387 -1739.977150026273
8388 -1739.238719548735
8389 -1738.721717850417
8390 -1737.5563934153
8391 -1737.143691010396
8392 -1735.742262978493
8393 -1734.864461567324
8394 -1733.765600948819
8395 -1732.654158372181
8396 -1731.485841870224
8397 -1730.311236538501
8398 -1729.081944753683
8399 -1727.783632900152
8400 -1726.518058237866
8401 -1725.215858360356
8402 -1723.593938658761
8403 -1722.877378864497
8404 -1721.207939525632
8405 -1720.23304991902
8406 -1719.150754629845
8407 -1718.233967375199
8408 -1716.976578781701
8409 -1716.359368263398
8410 -1715.566135698162
8411 -1715.062827783392
8412 -1714.235127092194
8413 -1714.195396440314
8414 -1713.607537564415
8415 -1713.673798080401
8416 -1713.357318227537
8417 -1713.643647574348
8418 -1713.493309098317
8419 -1714.033338269792
8420 -1714.042525070973
8421 -1714.825781476698
8422 -1714.996651964988
8423 -1715.950832170785
8424 -1716.254064630839
8425 -1717.395680612193
8426 -1717.843215252569
8427 -1719.125348148614
8428 -1719.63248629209
8429 -1721.031564911845
8430 -1721.633455477811
8431 -1723.057529622363
8432 -1724.045732540693
8433 -1725.375721798249
8434 -1726.23710671189
8435 -1727.165751346146
8436 -1728.030049154527
8437 -1729.255523838857
8438 -1729.923953836083
8439 -1730.978382446969
8440 -1731.513069077901
8441 -1732.418312519869
8442 -1732.611592606507
8443 -1733.361234715007
8444 -1733.564934386595
8445 -1734.013063642612
8446 -1734.041198595668
8447 -1734.420438925297
8448 -1734.190773259016
8449 -1734.368696481997
8450 -1733.982621858429
8451 -1733.972426606037
8452 -1733.451127161734
8453 -1733.200210822532
8454 -1732.53555758038
8455 -1732.08203989428
8456 -1731.278530414543
8457 -1730.661459755854
8458 -1729.750999121999
8459 -1728.972253188084
8460 -1727.980179006474
8461 -1727.089962464762
8462 -1726.034878693804
8463 -1725.090741963618
8464 -1724.01357918336
8465 -1723.04965763274
8466 -1721.603400170721
8467 -1721.067344968156
8468 -1719.619570697763
8469 -1718.803803157006
8470 -1717.85201754067
8471 -1717.068550292074
8472 -1715.902036447958
8473 -1715.547943173159
8474 -1714.454344445586
8475 -1714.229830014882
8476 -1713.304180197303
8477 -1713.211171410834
8478 -1712.432888776308
8479 -1712.417052112233
8480 -1711.835353622915
8481 -1711.961269237912
8482 -1711.508656422543
8483 -1711.77784435542
8484 -1711.566759586797
8485 -1711.979478618109
8486 -1711.981566016848
8487 -1712.512440119449
8488 -1712.661327974279
8489 -1713.304009983598
8490 -1713.543060669996
8491 -1714.247958994359
8492 -1714.634028491909
8493 -1715.388849056093
8494 -1715.835863411348
8495 -1716.589119929688
8496 -1717.081748221372
8497 -1718.06482354094
8498 -1718.312461708211
8499 -1719.343273051691
8500 -1719.796358132352
8501 -1720.725397919246
8502 -1721.12045436034
8503 -1721.947152957221
8504 -1722.110871599307
8505 -1722.840007279352
8506 -1723.047209394781
8507 -1723.615354430128
8508 -1723.600359926638
8509 -1724.011146953798
8510 -1723.92130022536
8511 -1724.14395903184
8512 -1723.870373350615
8513 -1723.963656408462
8514 -1723.570195826706
8515 -1723.490134077531
8516 -1722.895082170364
8517 -1722.795176732024
8518 -1722.002604860213
8519 -1721.805661267857
8520 -1720.843893299547
8521 -1720.403877551066
8522 -1719.647390676973
8523 -1719.057505427356
8524 -1718.221432821767
8525 -1717.584311638066
8526 -1716.402082322314
8527 -1716.06396893607
8528 -1714.880180917752
8529 -1714.316619628463
8530 -1713.477549414062
8531 -1712.943742588094
8532 -1711.933387617884
8533 -1711.552055165747
8534 -1710.702956856439
8535 -1710.4937871103
8536 -1709.763575683797
8537 -1709.724358618049
8538 -1709.129565647797
8539 -1709.211898559185
8540 -1708.754914990978
8541 -1708.992841296257
8542 -1708.665728001937
8543 -1709.048245275622
8544 -1708.827281905539
8545 -1709.348268063539
8546 -1709.31551983324
8547 -1709.839284592173
8548 -1709.952597715217
8549 -1710.66674354247
8550 -1710.701448121021
8551 -1711.418827608573
8552 -1711.49235523174
8553 -1712.270635524928
8554 -1712.346854920122
8555 -1713.145286127233
8556 -1713.204665436307
8557 -1713.957145145363
8558 -1714.096895920804
8559 -1714.608372706342
8560 -1714.666400104435
8561 -1715.207241562891
8562 -1715.166487337626
8563 -1715.587799567734
8564 -1715.453677762748
8565 -1715.788416254701
8566 -1715.550547096444
8567 -1715.775089714816
8568 -1715.405866700071
8569 -1715.558683995672
8570 -1715.188490714297
8571 -1715.227400645865
8572 -1714.727915240099
8573 -1714.736383123992
8574 -1714.306392769463
8575 -1714.272083703445
8576 -1713.70333572578
8577 -1713.721465924362
8578 -1713.067152385062
8579 -1712.92857722006
8580 -1712.405729019217
8581 -1712.210973160599
8582 -1711.62406469502
8583 -1711.436098045029
8584 -1710.868869351337
8585 -1710.680762057
8586 -1710.137143739242
8587 -1709.921658430036
8588 -1709.263305170385
8589 -1709.232581748041
8590 -1708.582555643407
8591 -1708.449575019866
8592 -1707.846506146891
8593 -1707.739937810677
8594 -1707.228818938236
8595 -1707.192503032056
8596 -1706.701564633593
8597 -1706.694620765671
8598 -1706.214989972409
8599 -1706.253702003316
8600 -1705.814713125084
8601 -1705.87980385602
8602 -1705.453557646599
8603 -1705.589977004858
8604 -1705.16460635222
8605 -1705.273194537681
8606 -1704.920369373879
8607 -1705.084083008702
8608 -1704.743746204045
8609 -1704.973617886478
8610 -1704.678216062082
8611 -1704.943185102322
8612 -1704.715841508007
8613 -1705.036350748016
8614 -1704.882429340892
8615 -1705.403703438771
8616 -1705.309124665466
8617 -1705.879031427713
8618 -1705.938532395881
8619 -1706.476761320236
8620 -1706.637881372941
8621 -1707.383586146126
8622 -1707.676205363676
8623 -1708.439395764254
8624 -1708.751056965822
8625 -1709.610727965421
8626 -1710.044898706149
8627 -1711.000853507916
8628 -1711.256267494459
8629 -1712.304778588176
8630 -1712.845768652359
8631 -1713.833653034382
8632 -1714.106179569661
8633 -1715.144483091445
8634 -1715.655762053941
8635 -1716.644248431208
8636 -1716.854164773555
8637 -1717.706287701046
8638 -1718.007615797948
8639 -1718.754751833412
8640 -1718.794260716087
8641 -1719.290018016521
8642 -1719.144625946775
8643 -1719.409351972306
8644 -1718.985635662972
8645 -1718.979258397264
8646 -1718.316007876848
8647 -1718.086551325875
8648 -1717.176391193956
8649 -1716.698299336708
8650 -1715.568346435761
8651 -1714.921058872105
8652 -1713.650798734481
8653 -1712.897065570304
8654 -1711.540149130936
8655 -1710.6501900141
8656 -1709.164043711313
8657 -1708.163894093391
8658 -1706.685569220388
8659 -1705.712411308652
8660 -1704.215650069436
8661 -1703.296878186239
8662 -1701.869413463256
8663 -1701.049291152436
8664 -1699.757349329969
8665 -1699.11279348419
8666 -1698.089620228159
8667 -1697.681883372101
8668 -1696.884541407936
8669 -1696.764640338395
8670 -1696.28917921315
8671 -1696.492076579612
8672 -1696.343638830175
8673 -1696.827887445426
8674 -1696.95355899853
8675 -1697.789880950219
8676 -1698.278541338481
8677 -1699.391127707746
8678 -1700.157654146342
8679 -1701.583303626559
8680 -1702.581748815839
8681 -1704.223506030949
8682 -1705.426099069879
8683 -1707.179066765974
8684 -1708.398855712677
8685 -1710.213274185544
8686 -1711.485129727708
8687 -1713.259040402315
8688 -1714.467314365707
8689 -1716.184333424429
8690 -1717.264304541481
8691 -1718.865449089421
8692 -1719.728660826597
8693 -1721.080213230322
8694 -1721.75338312057
8695 -1722.84644079846
8696 -1723.284395577538
8697 -1724.090891317563
8698 -1724.17049773997
8699 -1724.673310953702
8700 -1724.42003565943
8701 -1724.570283996687
8702 -1723.969900854335
8703 -1723.79746027342
8704 -1722.901501425516
8705 -1722.421697363198
8706 -1721.223022617159
8707 -1720.453323886549
8708 -1719.070050910063
8709 -1718.107578556012
8710 -1716.54646263117
8711 -1715.413098681909
8712 -1713.720310406401
8713 -1712.506646705023
8714 -1710.801198645693
8715 -1709.554069140933
8716 -1707.865992830654
8717 -1706.704312199988
8718 -1705.118487763805
8719 -1704.071615884569
8720 -1702.647183118404
8721 -1701.777976726164
8722 -1700.559000147034
8723 -1699.922313119894
8724 -1698.953373212695
8725 -1698.573719136677
8726 -1697.877157855503
8727 -1697.813212067112
8728 -1697.375081874261
8729 -1697.621269436649
8730 -1697.478018759559
8731 -1698.008804730689
8732 -1698.174115546784
8733 -1698.962391233116
8734 -1699.395810578648
8735 -1700.414045644353
8736 -1701.068380281549
8737 -1702.29431935177
8738 -1702.7920567317
8739 -1704.197902190098
8740 -1705.148429794691
8741 -1706.250585314096
8742 -1707.313400398627
8743 -1708.467874634454
8744 -1709.606602392274
8745 -1710.78471543352
8746 -1711.964680303061
8747 -1713.527184208234
8748 -1714.47077455485
8749 -1715.828596727238
8750 -1716.560542280884
8751 -1717.735576433938
8752 -1718.262383821651
8753 -1719.184318601963
8754 -1719.463507303617
8755 -1720.189633190916
8756 -1720.236313314936
8757 -1720.709494207923
8758 -1720.50300258397
8759 -1720.776722941029
8760 -1720.34653134418
8761 -1720.403546376373
8762 -1719.788438931396
8763 -1719.616893118009
8764 -1718.988462290966
8765 -1718.648030420887
8766 -1717.915324263966
8767 -1717.3865143351
8768 -1716.561337104852
8769 -1715.893891500036
8770 -1714.972059408519
8771 -1714.231654250969
8772 -1713.274903758784
8773 -1712.479049075004
8774 -1711.496015984288
8775 -1710.660187741962
8776 -1709.385099652164
8777 -1708.956515207524
8778 -1707.702555742828
8779 -1707.00056903524
8780 -1705.846444679077
8781 -1705.288134816521
8782 -1704.261610932399
8783 -1703.863710297885
8784 -1702.969334052725
8785 -1702.700826656687
8786 -1701.924059787126
8787 -1701.836286650312
8788 -1701.256968784234
8789 -1701.300963347467
8790 -1700.857953403136
8791 -1701.043239080375
8792 -1700.716105211527
8793 -1701.033904520316
8794 -1700.880179600086
8795 -1701.352951639002
8796 -1701.365749776628
8797 -1701.841656085745
8798 -1701.992225600101
8799 -1702.679323365625
8800 -1702.800318369219
8801 -1703.603681600716
8802 -1703.808127307461
8803 -1704.745530385706
8804 -1704.989098298472
8805 -1705.928893755774
8806 -1706.221848985478
8807 -1707.23073999879
8808 -1707.536981996768
8809 -1708.571969736739
8810 -1708.892150505694
8811 -1709.939866077333
8812 -1710.247712303334
8813 -1711.293557010433
8814 -1711.553887037547
8815 -1712.525967864134
8816 -1712.747569905895
8817 -1713.625224991338
8818 -1713.983341052671
8819 -1714.605361876761
8820 -1714.886377750015
8821 -1715.448257259225
8822 -1715.65768292921
8823 -1716.194130768742
8824 -1716.281846910739
8825 -1716.723425923046
8826 -1716.718159750598
8827 -1717.099100129349
8828 -1716.968976320436
8829 -1717.279741629921
8830 -1717.062919679759
8831 -1717.28039799092
8832 -1716.969136534293
8833 -1717.130606322776
8834 -1716.650047271509
8835 -1716.706852048683
8836 -1716.128260235066
8837 -1716.143626532716
8838 -1715.443420252514
8839 -1715.401138168218
8840 -1714.628786612849
8841 -1714.548265765339
8842 -1713.736475362668
8843 -1713.626379668779
8844 -1712.774672639764
8845 -1712.660475453748
8846 -1711.806682702456
8847 -1711.705473260324
8848 -1710.833049804612
8849 -1710.732283007449
8850 -1709.884856190267
8851 -1709.68364499575
8852 -1709.102205709645
8853 -1708.961490020167
8854 -1708.307121680601
8855 -1708.370660585905
8856 -1707.79497635339
8857 -1707.823410591678
8858 -1707.419461969755
8859 -1707.506036178034
8860 -1707.158580374516
8861 -1707.406396527728
8862 -1707.163482982107
8863 -1707.50269630517
8864 -1707.346102443247
8865 -1707.788830501169
8866 -1707.803040009666
8867 -1708.290322868703
8868 -1708.408141349071
8869 -1708.953242287218
8870 -1709.20923969087
8871 -1709.854413872187
8872 -1710.213018741951
8873 -1710.918217182703
8874 -1711.343736454488
8875 -1712.108713245284
8876 -1712.669887043714
8877 -1713.452132459039
8878 -1714.060361403763
8879 -1714.875848844158
8880 -1715.478981627402
8881 -1716.315975028218
8882 -1716.945858017315
8883 -1718.037438231315
8884 -1718.345923946064
8885 -1719.432247375006
8886 -1719.946797890571
8887 -1720.695298314761
8888 -1721.192912406641
8889 -1722.126538239835
8890 -1722.310242655097
8891 -1723.135539820419
8892 -1723.413145555035
8893 -1723.931142361374
8894 -1724.060685544871
8895 -1724.577319894671
8896 -1724.437885951223
8897 -1724.74814949537
8898 -1724.467708761707
8899 -1724.632663939353
8900 -1724.096794311019
8901 -1723.979009722324
8902 -1723.387396175226
8903 -1723.077489252851
8904 -1722.144993378008
8905 -1721.876719417901
8906 -1720.743428035761
8907 -1720.068325314783
8908 -1719.133093061954
8909 -1718.27478150245
8910 -1716.888764115993
8911 -1715.989679887226
8912 -1714.547150657545
8913 -1713.642952917151
8914 -1712.237530796879
8915 -1711.332468325758
8916 -1709.979058327382
8917 -1709.141340130262
8918 -1707.922060526231
8919 -1707.256780042168
8920 -1706.153515481742
8921 -1705.662020639059
8922 -1704.711341322771
8923 -1704.465824612608
8924 -1703.733442474439
8925 -1703.66941081931
8926 -1703.211646361432
8927 -1703.41578697443
8928 -1703.212659357794
8929 -1703.708645541246
8930 -1703.809760588842
8931 -1704.609100896305
8932 -1704.970854276192
8933 -1706.078688872733
8934 -1706.701108097102
8935 -1708.080256664273
8936 -1708.9444011026
8937 -1710.500554445813
8938 -1711.515439037364
8939 -1713.277993224049
8940 -1714.431008525661
8941 -1716.299141025606
8942 -1717.498430179428
8943 -1719.364206494659
8944 -1720.538711880362
8945 -1722.338840979018
8946 -1723.462468912029
8947 -1725.143373345202
8948 -1726.136716075554
8949 -1727.60350186802
8950 -1728.374644549368
8951 -1729.633339983251
8952 -1730.121918958958
8953 -1731.09293813812
8954 -1731.309890079319
8955 -1731.94344447646
8956 -1731.845779902744
8957 -1732.135031509406
8958 -1731.747462264708
8959 -1731.725388458947
8960 -1730.99868614833
8961 -1730.680367771251
8962 -1729.665570431595
8963 -1729.036205066031
8964 -1727.734604427267
8965 -1726.866037558993
8966 -1725.376224436739
8967 -1724.294851534616
8968 -1722.619739231031
8969 -1721.403393916517
8970 -1720.136999122707
8971 -1718.759128444803
8972 -1716.897483255275
8973 -1715.583667765665
8974 -1713.775968058031
8975 -1712.479424595488
8976 -1710.756140699747
8977 -1709.610682934918
8978 -1708.111973813815
8979 -1707.17864072215
8980 -1705.870702909306
8981 -1705.184233912301
8982 -1704.137004703839
8983 -1703.720139483288
8984 -1702.950763719144
8985 -1702.841820050901
8986 -1702.401732334117
8987 -1702.550338972224
8988 -1702.356552495118
8989 -1702.8034158695
8990 -1702.883566842694
8991 -1703.618251955496
8992 -1703.953468421158
8993 -1704.922285712505
8994 -1705.462327846145
8995 -1706.375882848729
8996 -1707.105110284898
8997 -1708.443444455846
8998 -1708.921744511495
8999 -1710.368054143224
9000 -1710.946372689738
9001 -1712.531719720524
9002 -1713.14497871743
9003 -1714.711598982003
9004 -1715.686558861737
9005 -1717.161072035657
9006 -1718.029638194065
9007 -1719.360814190266
9008 -1720.083702898868
9009 -1721.255524629443
9010 -1721.837377436941
9011 -1722.83376350952
9012 -1723.213362493477
9013 -1724.022608060166
9014 -1724.180917532824
9015 -1724.803320363957
9016 -1724.779685824585
9017 -1725.194749755493
9018 -1725.016651425157
9019 -1725.252355149577
9020 -1724.885350642489
9021 -1725.002268853894
9022 -1724.446540387822
9023 -1724.365353291455
9024 -1723.786825129827
9025 -1723.52050702063
9026 -1722.696660035222
9027 -1722.520154767317
9028 -1721.512953108127
9029 -1721.247268445634
9030 -1720.149545123794
9031 -1719.779202307178
9032 -1718.566660167532
9033 -1717.864425579913
9034 -1716.915926199046
9035 -1716.110816031016
9036 -1714.782149188097
9037 -1714.325628241422
9038 -1713.030698868042
9039 -1712.223573285503
9040 -1710.951950976818
9041 -1710.189166911938
9042 -1709.285622276738
9043 -1708.497110649154
9044 -1707.367893822421
9045 -1706.763155713602
9046 -1705.720871968383
9047 -1705.441221524804
9048 -1704.450903883467
9049 -1704.034001719113
9050 -1703.202639753003
9051 -1702.919803499961
9052 -1702.382914294037
9053 -1702.263306335495
9054 -1701.748274159616
9055 -1701.808284480929
9056 -1701.488018763336
9057 -1701.728353331368
9058 -1701.508080045353
9059 -1701.901206017242
9060 -1701.825850612976
9061 -1702.43151752602
9062 -1702.584950702803
9063 -1703.278316723879
9064 -1703.378902603798
9065 -1704.294662374685
9066 -1704.694151623869
9067 -1705.48082945398
9068 -1706.036462354751
9069 -1707.162839446577
9070 -1707.474972399923
9071 -1708.718881673223
9072 -1709.409770900815
9073 -1710.350328313931
9074 -1711.107256541042
9075 -1712.381547994614
9076 -1712.802952625746
9077 -1714.101828579849
9078 -1714.826284456832
9079 -1716.033373681206
9080 -1716.405210882228
9081 -1717.587540109008
9082 -1718.200405204326
9083 -1719.235969915786
9084 -1719.699010333602
9085 -1720.344574275828
9086 -1720.668570469955
9087 -1721.396332711568
9088 -1721.51302365467
9089 -1721.904631862211
9090 -1721.821977854366
9091 -1722.06798957269
9092 -1721.696759660813
9093 -1721.758276924805
9094 -1721.195626936716
9095 -1721.028222860766
9096 -1720.404070878356
9097 -1719.939705042709
9098 -1718.950368502162
9099 -1718.618102437642
9100 -1717.38291653788
9101 -1716.916125316542
9102 -1715.500451376801
9103 -1714.940608349576
9104 -1713.404739034109
9105 -1712.751635040709
9106 -1711.159905749564
9107 -1710.108023935421
9108 -1708.559444939654
9109 -1707.916672653714
9110 -1706.388681213053
9111 -1705.379751374925
9112 -1704.010388479071
9113 -1703.187333609792
9114 -1702.013998989354
9115 -1701.364794518042
9116 -1700.365196086373
9117 -1699.931995552941
9118 -1699.109427332572
9119 -1698.884384998663
9120 -1698.284877247274
9121 -1698.328292060254
9122 -1698.012556390517
9123 -1698.287091059673
9124 -1698.205831979896
9125 -1698.67640720083
9126 -1698.825590355159
9127 -1699.667456092617
9128 -1699.995603182741
9129 -1701.01984578871
9130 -1701.308668264129
9131 -1702.612739811887
9132 -1703.339210458776
9133 -1704.423471344373
9134 -1705.350958976402
9135 -1706.9543694656
9136 -1707.898786036173
9137 -1709.509449336652
9138 -1710.458730504263
9139 -1712.100612367231
9140 -1713.074698216122
9141 -1714.635491430003
9142 -1715.496197336469
9143 -1716.896705861649
9144 -1717.636696434388
9145 -1718.865725468777
9146 -1719.391866788447
9147 -1720.431386722284
9148 -1720.725226772562
9149 -1721.463611827743
9150 -1721.503198436562
9151 -1721.976268841421
9152 -1721.763396468391
9153 -1721.905061493459
9154 -1721.419510836091
9155 -1721.248663615933
9156 -1720.488867080894
9157 -1720.076932792764
9158 -1719.020221454587
9159 -1718.339828214664
9160 -1717.040350192119
9161 -1716.159046982021
9162 -1715.069938827005
9163 -1713.955947253575
9164 -1712.280717786606
9165 -1711.493063865315
9166 -1709.63274296147
9167 -1708.291442250483
9168 -1706.46671671543
9169 -1705.65329276188
9170 -1703.737350892754
9171 -1702.491575658844
9172 -1700.780254873434
9173 -1699.634284703421
9174 -1698.106966646836
9175 -1697.219532591651
9176 -1695.916483384733
9177 -1695.256347117291
9178 -1694.18477213316
9179 -1693.775400841868
9180 -1692.975670741494
9181 -1692.817200704319
9182 -1692.31317368049
9183 -1692.445947307615
9184 -1692.259587192228
9185 -1692.673491115529
9186 -1692.788755138899
9187 -1693.51307744775
9188 -1693.839466937612
9189 -1694.772177017373
9190 -1695.135777461918
9191 -1696.299378960686
9192 -1697.101545091056
9193 -1698.086383727184
9194 -1699.104378343898
9195 -1700.247695612452
9196 -1701.429354434015
9197 -1702.662886282834
9198 -1703.92447505022
9199 -1705.660795592368
9200 -1706.846072513387
9201 -1708.519515333015
9202 -1709.58973919161
9203 -1711.145194210391
9204 -1712.074496198476
9205 -1713.479633863525
9206 -1714.245006719614
9207 -1715.451729968418
9208 -1716.007108754263
9209 -1717.058303716112
9210 -1717.39789693117
9211 -1718.191019715493
9212 -1718.292379463566
9213 -1718.896689414996
9214 -1718.747612800647
9215 -1719.083939145603
9216 -1718.714194828113
9217 -1718.828960165485
9218 -1718.335716057875
9219 -1718.234651477105
9220 -1717.454792313348
9221 -1717.323746576935
9222 -1716.298990199295
9223 -1715.767771706875
9224 -1714.864842087504
9225 -1714.107205264305
9226 -1713.118228543539
9227 -1712.217174377798
9228 -1711.158348468492
9229 -1710.148684220226
9230 -1709.033043794815
9231 -1707.957329529073
9232 -1706.406691563293
9233 -1705.773943088675
9234 -1704.240503347925
9235 -1703.265282409683
9236 -1701.894585317145
9237 -1701.044912053633
9238 -1699.781160848789
9239 -1699.044819033129
9240 -1697.933389129979
9241 -1697.401218882228
9242 -1696.434641030676
9243 -1696.094348235935
9244 -1695.327981369952
9245 -1695.200436239489
9246 -1694.666637190926
9247 -1694.78526062655
9248 -1694.453295829722
9249 -1694.763130194335
9250 -1694.630236793059
9251 -1695.167194114404
9252 -1695.240898848562
9253 -1695.871798158581
9254 -1696.203612004587
9255 -1697.185740008651
9256 -1697.636078246151
9257 -1698.456508249324
9258 -1699.143403629579
9259 -1700.404955124735
9260 -1700.898395189568
9261 -1702.289689097806
9262 -1703.172583783187
9263 -1704.577054547852
9264 -1705.142388960462
9265 -1706.672623013258
9266 -1707.634759111061
9267 -1709.068702261452
9268 -1710.000107022006
9269 -1711.359393276779
9270 -1712.179356366614
9271 -1713.455718388065
9272 -1714.155549323903
9273 -1715.286700977209
9274 -1715.85207604994
9275 -1716.86446247654
9276 -1717.27003414295
9277 -1718.101060581509
9278 -1718.32825008465
9279 -1718.969103949951
9280 -1718.985534424769
9281 -1719.418132541221
9282 -1719.186304897741
9283 -1719.410201051056
9284 -1718.98455126105
9285 -1719.059911147054
9286 -1718.353251709054
9287 -1718.161379823307
9288 -1717.280445253956
9289 -1717.093081359724
9290 -1715.987288395875
9291 -1715.366431583413
9292 -1714.411876331121
9293 -1713.636259817571
9294 -1712.214433090604
9295 -1711.711981128111
9296 -1710.178143167674
9297 -1709.593034158468
9298 -1707.932494878779
9299 -1707.293125302308
9300 -1705.560922665773
9301 -1704.475257252927
9302 -1702.899519391832
9303 -1701.891332737579
9304 -1700.388335604744
9305 -1699.558583965559
9306 -1698.210056466319
9307 -1697.591171912992
9308 -1696.432771871207
9309 -1695.951244645913
9310 -1695.048162375923
9311 -1694.807188300213
9312 -1694.120807674111
9313 -1694.133643032449
9314 -1693.684087562248
9315 -1693.960184435677
9316 -1693.771183658729
9317 -1694.253253619909
9318 -1694.35010726855
9319 -1695.1050154693
9320 -1695.45131858367
9321 -1696.488616124027
9322 -1696.82951471283
9323 -1698.114256451587
9324 -1698.887727393394
9325 -1700.30364074452
9326 -1700.869601101619
9327 -1702.516209453714
9328 -1703.649047537577
9329 -1705.378279415967
9330 -1706.585326160394
9331 -1707.878852578851
9332 -1709.206556527861
9333 -1711.060397335287
9334 -1712.265514770737
9335 -1714.037247828079
9336 -1715.114964689586
9337 -1716.729710061054
9338 -1717.666761290924
9339 -1719.063220837706
9340 -1719.803947047488
9341 -1720.950752117072
9342 -1721.418084810289
9343 -1722.289694951559
9344 -1722.473339217414
9345 -1723.081027428859
9346 -1722.992926774916
9347 -1723.288531581351
9348 -1722.908931376062
9349 -1722.894838933081
9350 -1722.239857769981
9351 -1721.973694240493
9352 -1721.071417070625
9353 -1720.544719360877
9354 -1719.638983812453
9355 -1718.845584837046
9356 -1717.470879903473
9357 -1716.52002443066
9358 -1715.37423558628
9359 -1714.22209371753
9360 -1712.979006083926
9361 -1711.693444271644
9362 -1709.944410393611
9363 -1709.150957982544
9364 -1707.300737169654
9365 -1706.097268172123
9366 -1704.440554112207
9367 -1703.37796411592
9368 -1701.897214010037
9369 -1700.982425248435
9370 -1699.686268603304
9371 -1699.012501396847
9372 -1697.950512063822
9373 -1697.505014490803
9374 -1696.73487480285
9375 -1696.622120698569
9376 -1696.071592436793
9377 -1696.249840954379
9378 -1696.012778526565
9379 -1696.45960123583
9380 -1696.50227784467
9381 -1697.223247850274
9382 -1697.553948418557
9383 -1698.534620623828
9384 -1699.090663280035
9385 -1700.043835763435
9386 -1700.849052294217
9387 -1702.334971932462
9388 -1702.922853010445
9389 -1704.647720189563
9390 -1705.818627255756
9391 -1707.105147627706
9392 -1708.426459122549
9393 -1710.251384038742
9394 -1711.532435555651
9395 -1713.319604093124
9396 -1714.52290649088
9397 -1716.223511950901
9398 -1717.287189737494
9399 -1718.848510123483
9400 -1719.748844336389
9401 -1721.118106786296
9402 -1721.828810017224
9403 -1722.954088695931
9404 -1723.424045460328
9405 -1724.326293011208
9406 -1724.538329465982
9407 -1725.195327663269
9408 -1725.113815278222
9409 -1725.476691339012
9410 -1725.173820987202
9411 -1725.284689755269
9412 -1724.705442045304
9413 -1724.665529047348
9414 -1723.853768996017
9415 -1723.482566487229
9416 -1722.679322571036
9417 -1722.056068669499
9418 -1720.788369630978
9419 -1720.341043066646
9420 -1718.850246896973
9421 -1718.259961287778
9422 -1716.641480349211
9423 -1715.962959545951
9424 -1714.229923616116
9425 -1713.535515593527
9426 -1711.787691767689
9427 -1710.674224324993
9428 -1709.436797010812
9429 -1708.261846876321
9430 -1706.651723998
9431 -1705.684070935875
9432 -1704.230902266486
9433 -1703.464754271241
9434 -1702.27194605089
9435 -1701.742711024692
9436 -1700.735736616426
9437 -1700.404679468665
9438 -1699.603897667489
9439 -1699.516954363506
9440 -1698.971887250273
9441 -1699.177378746239
9442 -1698.884209720893
9443 -1699.342604813671
9444 -1699.307267156959
9445 -1699.974880207317
9446 -1700.155374796904
9447 -1700.870603340816
9448 -1701.320205928383
9449 -1702.457549059754
9450 -1702.766428924518
9451 -1704.106156253683
9452 -1704.871399456329
9453 -1705.949255571067
9454 -1706.915245028612
9455 -1708.07415193041
9456 -1709.151860210362
9457 -1710.778538789455
9458 -1711.384137279952
9459 -1713.077048128731
9460 -1714.137089486584
9461 -1715.710512181164
9462 -1716.653532181752
9463 -1718.174506613943
9464 -1719.048996189362
9465 -1720.411079553068
9466 -1721.083209124364
9467 -1722.285253897171
9468 -1722.779684976688
9469 -1723.772025847464
9470 -1724.112606624688
9471 -1724.952572586075
9472 -1724.955125393557
9473 -1725.619430981479
9474 -1725.588406530269
9475 -1725.975774787538
9476 -1725.756397409413
9477 -1725.935384969685
9478 -1725.503342629411
9479 -1725.483767432859
9480 -1724.98130222545
9481 -1724.71748963891
9482 -1723.842711403073
9483 -1723.599251641569
9484 -1722.552709807766
9485 -1722.179888227945
9486 -1720.969307365862
9487 -1720.530191173174
9488 -1719.164988326516
9489 -1718.624967479186
9490 -1717.125751193142
9491 -1716.525884177288
9492 -1714.980229735248
9493 -1714.356148406441
9494 -1712.756227569639
9495 -1711.746301436285
9496 -1710.655257812324
9497 -1709.721994735743
9498 -1708.278503231601
9499 -1707.544946506264
9500 -1706.300563910569
9501 -1705.746365898759
9502 -1704.687606570731
9503 -1704.378991321061
9504 -1703.547182575773
9505 -1703.411119735462
9506 -1702.783718583236
9507 -1702.898448687508
9508 -1702.509198522921
9509 -1702.845032751933
9510 -1702.691677286382
9511 -1703.243305737236
9512 -1703.24461197321
9513 -1704.039395585138
9514 -1704.38148334965
9515 -1705.372869258152
9516 -1705.666882998602
9517 -1706.87692536688
9518 -1707.601020334711
9519 -1708.612683340027
9520 -1709.511351666187
9521 -1710.989001344133
9522 -1711.5750886736
9523 -1713.172242374341
9524 -1714.242962654525
9525 -1715.443378874507
9526 -1716.570676448449
9527 -1718.2131067424
9528 -1719.202988322558
9529 -1720.772036117017
9530 -1721.640040690646
9531 -1723.061720155749
9532 -1723.812469058699
9533 -1725.049307798416
9534 -1725.585014612324
9535 -1726.628592955421
9536 -1726.983535787394
9537 -1727.838392663662
9538 -1727.952639456757
9539 -1728.537404059551
9540 -1728.414694623166
9541 -1728.788836672546
9542 -1728.397644896683
9543 -1728.491133037791
9544 -1728.006454170336
9545 -1727.849594611701
9546 -1727.057320008042
9547 -1726.694822077522
9548 -1725.929396198849
9549 -1725.32324311507
9550 -1724.128333500617
9551 -1723.660141367304
9552 -1722.280020452252
9553 -1721.334926342055
9554 -1720.271082562615
9555 -1719.193769892288
9556 -1718.05199169707
9557 -1716.858166183619
9558 -1715.693358076078
9559 -1714.459296127128
9560 -1712.873892860879
9561 -1711.80912633759
9562 -1710.362519219163
9563 -1709.449231569156
9564 -1708.178253409362
9565 -1707.427262829757
9566 -1706.343572392258
9567 -1705.815967886459
9568 -1704.913734543006
9569 -1704.608152292934
9570 -1703.948148146014
9571 -1703.907491869466
9572 -1703.496937854463
9573 -1703.689918445547
9574 -1703.522412662801
9575 -1703.965134639541
9576 -1704.032652925157
9577 -1704.708917084807
9578 -1705.02167643679
9579 -1705.948973006766
9580 -1706.443343632513
9581 -1707.32666152185
9582 -1708.049600311004
9583 -1709.386612447234
9584 -1709.848525599145
9585 -1711.33497797167
9586 -1712.225934618179
9587 -1713.369797294632
9588 -1714.41984333812
9589 -1716.03537600647
9590 -1716.993339874607
9591 -1718.552697764772
9592 -1719.425226062158
9593 -1720.869443749065
9594 -1721.654583441296
9595 -1722.972961972298
9596 -1723.599724491339
9597 -1724.7760082792
9598 -1725.214460455425
9599 -1726.166629838206
9600 -1726.397050544651
9601 -1727.205767207723
9602 -1727.252138567706
9603 -1727.809255118421
9604 -1727.619469379715
9605 -1727.9667036119
9606 -1727.555805133499
9607 -1727.686373305706
9608 -1727.091210716387
9609 -1727.032750109547
9610 -1726.36017541338
9611 -1726.066292933672
9612 -1725.028831193298
9613 -1724.561545206438
9614 -1723.657510001016
9615 -1722.976989530164
9616 -1721.658989281674
9617 -1721.20384610076
9618 -1719.763975108864
9619 -1719.236274976352
9620 -1717.762785477026
9621 -1717.164166560016
9622 -1715.623890941573
9623 -1714.64826620005
9624 -1713.191354729004
9625 -1712.301568365764
9626 -1710.96111949339
9627 -1710.168010700467
9628 -1709.001864695475
9629 -1708.362677907891
9630 -1707.329565239248
9631 -1706.873950865544
9632 -1706.04454119495
9633 -1705.815176183441
9634 -1705.151457460114
9635 -1705.108855040127
9636 -1704.697251047456
9637 -1704.852732297538
9638 -1704.657539504259
9639 -1705.039931263743
9640 -1705.039090873654
9641 -1705.635153626745
9642 -1705.824337506415
9643 -1706.487567996017
9644 -1706.896484543847
9645 -1707.950102729246
9646 -1708.5129650505
9647 -1709.413618720358
9648 -1710.160238992701
9649 -1711.471965651285
9650 -1711.960377361022
9651 -1713.384208151967
9652 -1714.267011902325
9653 -1715.688624653055
9654 -1716.220506249586
9655 -1717.748003262858
9656 -1718.623480114981
9657 -1720.077153279943
9658 -1720.859900877746
9659 -1722.154380692515
9660 -1722.817120472613
9661 -1724.000120388918
9662 -1724.517091678967
9663 -1725.517673500462
9664 -1725.837631617143
9665 -1726.676711091878
9666 -1726.807360980462
9667 -1727.431056978729
9668 -1727.3634632976
9669 -1727.743434813022
9670 -1727.456816179568
9671 -1727.642840305165
9672 -1727.118152076631
9673 -1727.108890559311
9674 -1726.363195392075
9675 -1726.121111187759
9676 -1725.360194351643
9677 -1724.860176259081
9678 -1723.741040977207
9679 -1723.141269176155
9680 -1722.184489153857
9681 -1721.344142634851
9682 -1719.945629264242
9683 -1719.434751331476
9684 -1717.908910952537
9685 -1716.968846789907
9686 -1715.842924214885
9687 -1714.829030938732
9688 -1713.280670432829
9689 -1712.396857270262
9690 -1710.973900882573
9691 -1710.178322271575
9692 -1708.884519746568
9693 -1708.216022491169
9694 -1707.11130599939
9695 -1706.648727331549
9696 -1705.669125926288
9697 -1705.37026719805
9698 -1704.62384976919
9699 -1704.52538304323
9700 -1703.960491391395
9701 -1704.106622580158
9702 -1703.787097137865
9703 -1704.148608039518
9704 -1704.081257195929
9705 -1704.699003201632
9706 -1704.895635862124
9707 -1705.728119593603
9708 -1706.071425654259
9709 -1707.101863688504
9710 -1707.42214464738
9711 -1708.676813080728
9712 -1709.456802977265
9713 -1710.463239555381
9714 -1711.428941090378
9715 -1712.91534019191
9716 -1713.519076480583
9717 -1715.15600410289
9718 -1716.242910701321
9719 -1717.808082375162
9720 -1718.830745711131
9721 -1720.335093063944
9722 -1721.307996847287
9723 -1722.701670893467
9724 -1723.546260956371
9725 -1724.845024814633
9726 -1725.553309764528
9727 -1726.662421605116
9728 -1727.13268103593
9729 -1728.071448413333
9730 -1728.36746600621
9731 -1729.101772016863
9732 -1729.169723655573
9733 -1729.694419079388
9734 -1729.54272988356
9735 -1729.853228113738
9736 -1729.437475340763
9737 -1729.504938752855
9738 -1728.960673638639
9739 -1728.776860540356
9740 -1727.888622863074
9741 -1727.510459429615
9742 -1726.672061845203
9743 -1726.042151222437
9744 -1724.769328101869
9745 -1724.348481132859
9746 -1722.914402164627
9747 -1722.030786138662
9748 -1720.896303180532
9749 -1719.824503288941
9750 -1718.615868099059
9751 -1717.487177837162
9752 -1715.858628941185
9753 -1715.211909282615
9754 -1713.58526712305
9755 -1712.58989563104
9756 -1711.107414575878
9757 -1710.255680055067
9758 -1708.953419599463
9759 -1708.271971092936
9760 -1707.159450561854
9761 -1706.680258561211
9762 -1705.797498315118
9763 -1705.543729887479
9764 -1704.878556802984
9765 -1704.847604056633
9766 -1704.420495187227
9767 -1704.62012716393
9768 -1704.420833024714
9769 -1704.893663429233
9770 -1704.942625442792
9771 -1705.667954927184
9772 -1705.920599138885
9773 -1706.839700227584
9774 -1707.292275342788
9775 -1708.137213177145
9776 -1708.822426418269
9777 -1710.128273367086
9778 -1710.624101956188
9779 -1712.09458085737
9780 -1713.051717031277
9781 -1714.601103746823
9782 -1715.172864317428
9783 -1716.779253863627
9784 -1717.831393560393
9785 -1719.382020299626
9786 -1720.345669213028
9787 -1721.811658155341
9788 -1722.668674313276
9789 -1724.002208377051
9790 -1724.686596007628
9791 -1725.837962789425
9792 -1726.341143977418
9793 -1727.31957205546
9794 -1727.614427375651
9795 -1728.396245943608
9796 -1728.490338730884
9797 -1729.038497265996
9798 -1728.907077487588
9799 -1729.219682057618
9800 -1728.836435974227
9801 -1728.90302875412
9802 -1728.29133226073
9803 -1728.137019317388
9804 -1727.280870721917
9805 -1727.09945524716
9806 -1726.001875565562
9807 -1725.426370930559
9808 -1724.224069925185
9809 -1723.793095258242
9810 -1722.366745035546
9811 -1721.507258474868
9812 -1720.404535109344
9813 -1719.407220029835
9814 -1717.854503809062
9815 -1717.222055702162
9816 -1715.55165280228
9817 -1714.516565070789
9818 -1712.93681915436
9819 -1711.989180584961
9820 -1710.512852529922
9821 -1709.693909093482
9822 -1708.358848783704
9823 -1707.689061497731
9824 -1706.520833042852
9825 -1706.022131076668
9826 -1705.11880268911
9827 -1704.858907303786
9828 -1704.106676403158
9829 -1704.073858773249
9830 -1703.576020997462
9831 -1703.739565987197
9832 -1703.478579102509
9833 -1703.872720775033
9834 -1703.826303907016
9835 -1704.457106611263
9836 -1704.656242715269
9837 -1705.324240755628
9838 -1705.696717062315
9839 -1706.741160881965
9840 -1707.276388701879
9841 -1708.154527942109
9842 -1708.894516781436
9843 -1710.264523210024
9844 -1710.74226065553
9845 -1712.174869811289
9846 -1713.120304008129
9847 -1714.221034751611
9848 -1715.234989654246
9849 -1716.73430336991
9850 -1717.682595755416
9851 -1719.108567148849
9852 -1719.932345735943
9853 -1721.22138236455
9854 -1721.906810817465
9855 -1723.061426519412
9856 -1723.565857335697
9857 -1724.49244540701
9858 -1724.834852323782
9859 -1725.611556373113
9860 -1725.711475761
9861 -1726.277974990808
9862 -1726.145260781683
9863 -1726.493364325799
9864 -1726.141625785754
9865 -1726.261302479557
9866 -1725.690419626401
9867 -1725.592054192369
9868 -1724.943079513665
9869 -1724.634477892815
9870 -1723.619707389412
9871 -1723.096356014127
9872 -1722.196722223831
9873 -1721.441321671089
9874 -1720.1209252564
9875 -1719.619178719251
9876 -1718.137844209051
9877 -1717.536647263816
9878 -1715.995986765261
9879 -1714.975468507799
9880 -1713.834074940283
9881 -1712.769195583832
9882 -1711.227359867167
9883 -1710.267342470242
9884 -1708.858426554872
9885 -1708.055220087981
9886 -1706.799679174661
9887 -1706.183130988943
9888 -1705.094593663051
9889 -1704.664275337301
9890 -1703.718694264783
9891 -1703.519615596312
9892 -1702.802137981188
9893 -1702.812207340201
9894 -1702.308120814904
9895 -1702.548399656059
9896 -1702.244766121324
9897 -1702.685335704752
9898 -1702.593327167286
9899 -1703.289532402878
9900 -1703.281992404151
9901 -1704.225019017001
9902 -1704.570072880124
9903 -1705.413329738266
9904 -1705.994982726681
9905 -1707.221892120633
9906 -1707.622886371182
9907 -1709.033322509878
9908 -1709.554269702089
9909 -1711.038300620268
9910 -1711.630510949208
9911 -1713.227450236865
9912 -1714.216408633229
9913 -1715.70748080441
9914 -1716.675009688375
9915 -1718.082335661269
9916 -1718.945818242359
9917 -1720.234046877388
9918 -1720.957307531486
9919 -1722.112197789992
9920 -1722.658317618507
9921 -1723.683814859522
9922 -1724.027788521843
9923 -1724.885993880951
9924 -1725.049824669184
9925 -1725.693615945497
9926 -1725.677620092082
9927 -1726.082596021294
9928 -1725.851533588732
9929 -1726.074863843507
9930 -1725.647428116859
9931 -1725.674938350289
9932 -1725.01393017739
9933 -1724.928629220309
9934 -1724.042686175017
9935 -1723.633865911125
9936 -1722.839104345515
9937 -1722.236794157828
9938 -1721.049976889398
9939 -1720.625116611587
9940 -1719.28528290633
9941 -1718.775964435434
9942 -1717.310049806326
9943 -1716.73239367794
9944 -1715.207362235286
9945 -1714.22229314325
9946 -1713.151724329591
9947 -1712.153877003056
9948 -1710.770094043633
9949 -1709.93501421
9950 -1708.711188918846
9951 -1708.01540531997
9952 -1706.915455323139
9953 -1706.372675779416
9954 -1705.439885603564
9955 -1705.12843134739
9956 -1704.407568666639
9957 -1704.305853052823
9958 -1703.816146612222
9959 -1703.943405122029
9960 -1703.649933100704
9961 -1703.969578338201
9962 -1703.91491903945
9963 -1704.376936251089
9964 -1704.524396423504
9965 -1705.336176411538
9966 -1705.470275374477
9967 -1706.490259010606
9968 -1707.007981248883
9969 -1707.920832060941
9970 -1708.620597825832
9971 -1709.63028964
9972 -1710.470094938817
9973 -1711.607164444957
9974 -1712.568839764418
9975 -1714.173490064668
9976 -1714.745556995532
9977 -1716.370303577974
9978 -1717.304536672242
9979 -1718.868904121691
9980 -1719.739398269239
9981 -1721.150476860016
9982 -1721.849007682969
9983 -1723.119194271415
9984 -1723.671913329187
9985 -1724.73847592722
9986 -1725.138864714154
9987 -1726.016605222496
9988 -1726.205851179489
9989 -1726.877078343771
9990 -1726.86619435649
9991 -1727.311016390976
9992 -1727.080625332808
9993 -1727.307930187869
9994 -1726.83401380546
9995 -1726.811057530462
9996 -1726.25168278826
9997 -1725.989425061661
9998 -1725.062831350657
9999 -1724.839606556225
10000 -1723.716407247947
10001 -1723.071450479555
10002 -1722.117248712322
10003 -1721.272373344694
10004 -1720.24002659931
10005 -1719.251237193545
10006 -1718.146430993733
10007 -1717.067931286064
10008 -1715.546831409748
10009 -1714.890146081421
10010 -1713.321378684229
10011 -1712.34903988526
10012 -1710.889429603029
10013 -1709.994098462961
10014 -1708.660176504683
10015 -1707.92719511974
10016 -1706.787258686815
10017 -1706.273415288348
10018 -1705.296566017124
10019 -1704.965415445484
10020 -1704.19101710203
10021 -1704.097540865179
10022 -1703.576956803702
10023 -1703.715629949771
10024 -1703.451774478781
10025 -1703.82251803707
10026 -1703.791288356968
10027 -1704.405350264854
10028 -1704.475841727412
10029 -1705.318691018684
10030 -1705.78345019216
10031 -1706.563979003497
10032 -1707.229424544402
10033 -1708.170218675718
10034 -1709.026393181102
10035 -1710.089375834775
10036 -1711.136333559758
10037 -1712.290175103255
10038 -1713.400520624539
10039 -1714.606727677738
10040 -1715.757479531689
10041 -1717.392247949839
10042 -1718.066224301888
10043 -1719.722978814748
10044 -1720.765121450054
10045 -1722.24574731777
10046 -1723.076652899468
10047 -1724.378795508747
10048 -1725.015217569706
10049 -1726.126304532716
10050 -1726.526677586756
10051 -1727.386198868229
10052 -1727.570587332623
10053 -1728.219004433619
10054 -1728.115954607102
10055 -1728.501671625768
10056 -1728.173267669796
10057 -1728.36393683791
10058 -1727.806216466133
10059 -1727.743022775981
10060 -1727.123026853245
10061 -1726.813102744899
10062 -1725.778609742194
10063 -1725.486716010397
10064 -1724.208509229231
10065 -1723.504549211196
10066 -1722.438693172
10067 -1721.505071186239
10068 -1720.334874582365
10069 -1719.287752071481
10070 -1718.048306346817
10071 -1716.866249129182
10072 -1715.141362677337
10073 -1714.449637930447
10074 -1712.637255986801
10075 -1711.513706532329
10076 -1709.858652852136
10077 -1708.884764368066
10078 -1707.366293103288
10079 -1706.547156542212
10080 -1705.231407211956
10081 -1704.609260730324
10082 -1703.503391271892
10083 -1703.111538029986
10084 -1702.252386436744
10085 -1702.097308811872
10086 -1701.472732391032
10087 -1701.603509618508
10088 -1701.257666145504
10089 -1701.613048987693
10090 -1701.540807786209
10091 -1702.128944378165
10092 -1702.299058412827
10093 -1702.944129643358
10094 -1703.369520877061
10095 -1704.47558036594
10096 -1704.795460989986
10097 -1706.055029288435
10098 -1706.527543450072
10099 -1708.031765184758
10100 -1708.597458741046
10101 -1710.186576727778
10102 -1710.841932896034
10103 -1712.512372211433
10104 -1713.621572975514
10105 -1714.860183414573
10106 -1716.014426142959
10107 -1717.631596497713
10108 -1718.637028255715
10109 -1720.132438413632
10110 -1720.953009382765
10111 -1722.291759969744
10112 -1722.935273141255
10113 -1724.102831910562
10114 -1724.546936342216
10115 -1725.443834189185
10116 -1725.666404462382
10117 -1726.362791215149
10118 -1726.336501984372
10119 -1726.798483543687
10120 -1726.53774898164
10121 -1726.776612812687
10122 -1726.386440162086
10123 -1726.357353296976
10124 -1725.692237528064
10125 -1725.590840931811
10126 -1724.70972015848
10127 -1724.250117457175
10128 -1723.394630667124
10129 -1722.690233371265
10130 -1721.742300121139
10131 -1720.889373104389
10132 -1719.798476834374
10133 -1718.843144646067
10134 -1717.695475647021
10135 -1716.585308481542
10136 -1715.361216415645
10137 -1714.185657144681
10138 -1712.531748026826
10139 -1711.851150965086
10140 -1710.179687024027
10141 -1709.136693294156
10142 -1707.611623040478
10143 -1706.741423821866
10144 -1705.350815499076
10145 -1704.669002919601
10146 -1703.498718795939
10147 -1703.009723269183
10148 -1702.049226440226
10149 -1701.784311073469
10150 -1701.044557743056
10151 -1701.010557282428
10152 -1700.51058446073
10153 -1700.719255976662
10154 -1700.451667053656
10155 -1700.873496290752
10156 -1700.75943940885
10157 -1701.414179315652
10158 -1701.595623338257
10159 -1702.490397687452
10160 -1702.652110139097
10161 -1703.757409965298
10162 -1704.34584701886
10163 -1705.290183831318
10164 -1706.07567891311
10165 -1707.144425934324
10166 -1708.110679987515
10167 -1709.633945840077
10168 -1710.228452476553
10169 -1711.826871595353
10170 -1712.83187236518
10171 -1714.369527794576
10172 -1715.338453911801
10173 -1716.830075369676
10174 -1717.70899524884
10175 -1719.098702002962
10176 -1719.852767422258
10177 -1721.07597971325
10178 -1721.661637103711
10179 -1722.726241938461
10180 -1723.104459467173
10181 -1723.936953785101
10182 -1724.133701089462
10183 -1724.778786054349
10184 -1724.717992405551
10185 -1725.126433565395
10186 -1724.842557069634
10187 -1725.024081629105
10188 -1724.504461746791
10189 -1724.561019017664
10190 -1723.821042613219
10191 -1723.539066957165
10192 -1722.582626058415
10193 -1722.309600999057
10194 -1721.12019011854
10195 -1720.469344391155
10196 -1719.489015830457
10197 -1718.63403623965
10198 -1717.17968255079
10199 -1716.586470878656
10200 -1714.999583125204
10201 -1714.314998762484
10202 -1712.648144224835
10203 -1711.524688936491
10204 -1710.345622669129
10205 -1709.205697248014
10206 -1707.616870343214
10207 -1706.619784966264
10208 -1705.175841442337
10209 -1704.377178564246
10210 -1703.133507369307
10211 -1702.521764377595
10212 -1701.493326781448
10213 -1701.104840895637
10214 -1700.312382553821
10215 -1700.152827129268
10216 -1699.595908654737
10217 -1699.708510678133
10218 -1699.36737309881
10219 -1699.750691739217
10220 -1699.673235757336
10221 -1700.259207391802
10222 -1700.425632073599
10223 -1701.242582279448
10224 -1701.436751715476
10225 -1702.485957076382
10226 -1703.129686945741
10227 -1704.058740935159
10228 -1704.898822242945
10229 -1706.361114746291
10230 -1706.940489976462
10231 -1708.529687551704
10232 -1709.599293530654
10233 -1710.767950855773
10234 -1711.935795190561
10235 -1713.577672763518
10236 -1714.695399787902
10237 -1716.26871420195
10238 -1717.242545265449
10239 -1718.696971300586
10240 -1719.55271380843
10241 -1720.88003439089
10242 -1721.548934903772
10243 -1722.674849054209
10244 -1723.15751070502
10245 -1724.106581793292
10246 -1724.403222054375
10247 -1725.118156043787
10248 -1725.185702069552
10249 -1725.69488489989
10250 -1725.480656578977
10251 -1725.771604401723
10252 -1725.303179745296
10253 -1725.330020037763
10254 -1724.614213530454
10255 -1724.530640204487
10256 -1723.572588799163
10257 -1723.127278525293
10258 -1722.005271251862
10259 -1721.651626426042
10260 -1720.306114075125
10261 -1719.501497186563
10262 -1718.394880222515
10263 -1717.387234977112
10264 -1716.157230984864
10265 -1714.98531188129
10266 -1713.2653330941
10267 -1712.562342239061
10268 -1710.78454748429
10269 -1709.657161742896
10270 -1707.991323223427
10271 -1706.981500744927
10272 -1705.479486981018
10273 -1704.630118382524
10274 -1703.292871885322
10275 -1702.642132137128
10276 -1701.537614622022
10277 -1701.103160287671
10278 -1700.248558070429
10279 -1700.056772631462
10280 -1699.497044006672
10281 -1699.585669012866
10282 -1699.229685973775
10283 -1699.567393978419
10284 -1699.470167568049
10285 -1700.077741547746
10286 -1700.242374219904
10287 -1701.100028963909
10288 -1701.514450857643
10289 -1702.363155427982
10290 -1703.064135992342
10291 -1704.411822762323
10292 -1704.902111023134
10293 -1706.437484874679
10294 -1707.475062481276
10295 -1708.697505559504
10296 -1709.900305437999
10297 -1711.665388713802
10298 -1712.431498213949
10299 -1714.277989620198
10300 -1715.487540912674
10301 -1717.22846604557
10302 -1718.344641358015
10303 -1719.949400855465
10304 -1720.905979619217
10305 -1722.350056619466
10306 -1723.130911169645
10307 -1724.361866820924
10308 -1724.922497383345
10309 -1725.90205457252
10310 -1726.236787607506
10311 -1726.934424592079
10312 -1727.050159953515
10313 -1727.507116172218
10314 -1727.344948992034
10315 -1727.543273281611
10316 -1727.13167008958
10317 -1727.058408229518
10318 -1726.40600417743
10319 -1726.218069241241
10320 -1725.286838256626
10321 -1724.698654361193
10322 -1723.545577697888
10323 -1723.100762098264
10324 -1721.701892252459
10325 -1720.792625523285
10326 -1719.691920081078
10327 -1718.559321565981
10328 -1717.333853366301
10329 -1716.113839601063
10330 -1714.379600420412
10331 -1713.653606084474
10332 -1711.857369319212
10333 -1710.708927881906
10334 -1709.03460596605
10335 -1708.017934882197
10336 -1706.468465400309
10337 -1705.632004326279
10338 -1704.280731240257
10339 -1703.633594411662
10340 -1702.461383868917
10341 -1702.06532312837
10342 -1701.179707867855
10343 -1701.072223456353
10344 -1700.429399463166
10345 -1700.56047909808
10346 -1700.199386040026
10347 -1700.601374402925
10348 -1700.494842443378
10349 -1701.147475456396
10350 -1701.30348160637
10351 -1702.179576212348
10352 -1702.576725190228
10353 -1703.429097266152
10354 -1704.083738615708
10355 -1705.429571150898
10356 -1705.883821145184
10357 -1707.430924599822
10358 -1708.404670254409
10359 -1709.63054686731
10360 -1710.759631856559
10361 -1712.481872713144
10362 -1713.223082939566
10363 -1715.036982557414
10364 -1716.237695224775
10365 -1717.973831508155
10366 -1719.036199542566
10367 -1720.632358420262
10368 -1721.553993455264
10369 -1722.969218176325
10370 -1723.729033146869
10371 -1724.926732964081
10372 -1725.465885121394
10373 -1726.437132237298
10374 -1726.754634422312
10375 -1727.489616828143
10376 -1727.586750466955
10377 -1728.037211266053
10378 -1727.88307963897
10379 -1728.049132008214
10380 -1727.646630990146
10381 -1727.628069198969
10382 -1726.981629333536
10383 -1726.880382531166
10384 -1725.958625736065
10385 -1725.515962139342
10386 -1724.628121043625
10387 -1723.888987424754
10388 -1722.579281214184
10389 -1722.098822589243
10390 -1720.596085807726
10391 -1719.965781619835
10392 -1718.326689810427
10393 -1717.643464671813
10394 -1715.900269704014
10395 -1715.179199136809
10396 -1713.401660727042
10397 -1712.224078218801
10398 -1710.5515290771
10399 -1709.491359036027
10400 -1707.98678727788
10401 -1707.11456716628
10402 -1705.807623528555
10403 -1705.109755215988
10404 -1704.009227876361
10405 -1703.493527574972
10406 -1702.607340080542
10407 -1702.336229853391
10408 -1701.676647506765
10409 -1701.642735422855
10410 -1701.221122859976
10411 -1701.450701407198
10412 -1701.276448991741
10413 -1701.74360690596
10414 -1701.787255105528
10415 -1702.491875420575
10416 -1702.602912479535
10417 -1703.586112707085
10418 -1704.095622767508
10419 -1704.975520727326
10420 -1705.682665041086
10421 -1706.694472837227
10422 -1707.540958886071
10423 -1708.650853705768
10424 -1709.659626446535
10425 -1711.220139361979
10426 -1711.832676046202
10427 -1713.545319190737
10428 -1714.562317772405
10429 -1716.197842131781
10430 -1717.112413198604
10431 -1718.59185919242
10432 -1719.398674164557
10433 -1720.790699333582
10434 -1721.47223832484
10435 -1722.702112453921
10436 -1723.175975676575
10437 -1724.18562998579
10438 -1724.466087647495
10439 -1725.298711535243
10440 -1725.345015306083
10441 -1725.933279628157
10442 -1725.780624589108
10443 -1726.124250855391
10444 -1725.705794262282
10445 -1725.803738838716
10446 -1725.262763148303
10447 -1725.117969128692
10448 -1724.185308306523
10449 -1723.874214455273
10450 -1723.02661730909
10451 -1722.391121439969
10452 -1721.05389328505
10453 -1720.579275472093
10454 -1719.067363922105
10455 -1718.474929205427
10456 -1716.776477506747
10457 -1716.094979857728
10458 -1714.311851740022
10459 -1713.59672300416
10460 -1711.736761872852
10461 -1710.517645010568
10462 -1709.248690869217
10463 -1707.990803918691
10464 -1706.353287560651
10465 -1705.309891971771
10466 -1703.835288167679
10467 -1702.961741384489
10468 -1701.666752828797
10469 -1701.047457367685
10470 -1699.990719611287
10471 -1699.574534146474
10472 -1698.784009969412
10473 -1698.665639986153
10474 -1698.119828079438
10475 -1698.259164168085
10476 -1697.982558169949
10477 -1698.3735211215
10478 -1698.359830959884
10479 -1698.991333517944
10480 -1699.056634376486
10481 -1699.972847499149
10482 -1700.389764217025
10483 -1701.239491226168
10484 -1701.9433446479
10485 -1703.235827493868
10486 -1703.739339333001
10487 -1705.188106215977
10488 -1705.796087493812
10489 -1707.384745643359
10490 -1708.071531378041
10491 -1709.788755650771
10492 -1710.909305399635
10493 -1712.562806347946
10494 -1713.601134558133
10495 -1715.160210925447
10496 -1716.06739547837
10497 -1717.476448115825
10498 -1718.226579092414
10499 -1719.455179924002
10500 -1720.007033955591
10501 -1721.058317332725
10502 -1721.380227780611
10503 -1722.202997905521
10504 -1722.311764870922
10505 -1722.875632629804
10506 -1722.736346955033
10507 -1723.038109389682
10508 -1722.657855764396
10509 -1722.704896725048
10510 -1722.084926876664
10511 -1721.920633406953
10512 -1721.234910104473
10513 -1720.778051886376
10514 -1719.670066376985
10515 -1719.271395938795
10516 -1717.908332588358
10517 -1717.056584521073
10518 -1715.965767573238
10519 -1714.866553703942
10520 -1713.68033752541
10521 -1712.466353125807
10522 -1711.232722106751
10523 -1709.967314897589
10524 -1708.669017694259
10525 -1707.373675749016
10526 -1705.646635178895
10527 -1704.498010386996
10528 -1702.919242431465
10529 -1701.952516308774
10530 -1700.531365902972
10531 -1699.730107276058
10532 -1698.462881572071
10533 -1697.935296379125
10534 -1696.887880877496
10535 -1696.625611422227
10536 -1695.805594266234
10537 -1695.800808609193
10538 -1695.248159784966
10539 -1695.494763547973
10540 -1695.23753262475
10541 -1695.741867791975
10542 -1695.739697636765
10543 -1696.486896547732
10544 -1696.727004327206
10545 -1697.711006697393
10546 -1697.931747008752
10547 -1699.153047268091
10548 -1699.837525105695
10549 -1700.88277714946
10550 -1701.818551971497
10551 -1703.288203373342
10552 -1703.893186374509
10553 -1705.499485277209
10554 -1706.562255350253
10555 -1707.758261734327
10556 -1708.878788524826
10557 -1710.548290367816
10558 -1711.57529205469
10559 -1713.137755788459
10560 -1714.070680958396
10561 -1715.446894880915
10562 -1716.223543951399
10563 -1717.385380421814
10564 -1717.961945562859
10565 -1718.934093167711
10566 -1719.325788313117
10567 -1720.092293395198
10568 -1720.250316111743
10569 -1720.80359869073
10570 -1720.710557792823
10571 -1721.04308396799
10572 -1720.718108257251
10573 -1720.809834473615
10574 -1720.258884135176
10575 -1720.130590147949
10576 -1719.526838496514
10577 -1719.199789374408
10578 -1718.203782570703
10579 -1717.684397260304
10580 -1716.800972285939
10581 -1716.040986788996
10582 -1714.72672340234
10583 -1714.215883455826
10584 -1712.708192728695
10585 -1712.105536482681
10586 -1710.470191549383
10587 -1709.810745592522
10588 -1708.115763009122
10589 -1707.421416924993
10590 -1705.702359555878
10591 -1704.598094644721
10592 -1703.0349466219
10593 -1702.100301163239
10594 -1700.718273679073
10595 -1699.938425567101
10596 -1698.729009893513
10597 -1698.105946429819
10598 -1697.109985227996
10599 -1696.706014665028
10600 -1695.934102206165
10601 -1695.803420185782
10602 -1695.287885148867
10603 -1695.354748646156
10604 -1695.092588479607
10605 -1695.440798327121
10606 -1695.430939907831
10607 -1696.016484270075
10608 -1696.231492170993
10609 -1697.066102790619
10610 -1697.455651310671
10611 -1698.522260157885
10612 -1699.111709835802
10613 -1700.065692420783
10614 -1700.875126016734
10615 -1702.31026795616
10616 -1703.215015418987
10617 -1704.318711637702
10618 -1705.385994553344
10619 -1707.016666854547
10620 -1708.026349276182
10621 -1709.678757708054
10622 -1710.651080465603
10623 -1712.211553823265
10624 -1713.117497094074
10625 -1714.611426827729
10626 -1715.415888591801
10627 -1716.758732944443
10628 -1717.410559028884
10629 -1718.580214513308
10630 -1719.037283027108
10631 -1719.997982298255
10632 -1720.25624990839
10633 -1720.993101029271
10634 -1720.998556314667
10635 -1721.470440469441
10636 -1721.228164826413
10637 -1721.506937791044
10638 -1721.006998972181
10639 -1721.048308940517
10640 -1720.310114007551
10641 -1720.063621029709
10642 -1719.112887075155
10643 -1718.6372710972
10644 -1717.717454056164
10645 -1716.993866005665
10646 -1715.623184646576
10647 -1715.111744183417
10648 -1713.549482999929
10649 -1712.945574134548
10650 -1711.187421860246
10651 -1710.473358061604
10652 -1708.661983672607
10653 -1707.468419218618
10654 -1706.178004283978
10655 -1704.939513020441
10656 -1703.19665260272
10657 -1702.10746002547
10658 -1700.555475252374
10659 -1699.662835451373
10660 -1698.30574562168
10661 -1697.633865421664
10662 -1696.461172375614
10663 -1696.029050981302
10664 -1695.11888853781
10665 -1694.919033175857
10666 -1694.236029071739
10667 -1694.318465942566
10668 -1693.948479620754
10669 -1694.305420620482
10670 -1694.224359836684
10671 -1694.843027724493
10672 -1694.997408054095
10673 -1695.89420342502
10674 -1696.292857604917
10675 -1697.400807793907
10676 -1698.05648637542
10677 -1699.32071404938
10678 -1700.133630483862
10679 -1701.168028980628
10680 -1702.206038813332
10681 -1703.7937923548
10682 -1704.864600835866
10683 -1706.035756617153
10684 -1707.227933711175
10685 -1708.881813895461
10686 -1709.952241149223
10687 -1711.45822464235
10688 -1712.472402151457
10689 -1713.859759282038
10690 -1714.738232696085
10691 -1716.021844626863
10692 -1716.665844793651
10693 -1717.727930015387
10694 -1718.218987104728
10695 -1719.073459266294
10696 -1719.292336159305
10697 -1719.892888095192
10698 -1719.852181725417
10699 -1720.203684466656
10700 -1719.92646463292
10701 -1720.027539254595
10702 -1719.44699764551
10703 -1719.318409831526
10704 -1718.531186583977
10705 -1718.201435293703
10706 -1717.203938117624
10707 -1716.658836692558
10708 -1715.428145698074
10709 -1714.987021927988
10710 -1713.569623108843
10711 -1712.670817264152
10712 -1711.503265467955
10713 -1710.400593161116
10714 -1709.170936651022
10715 -1707.938865679782
10716 -1706.684102710619
10717 -1705.418270603708
10718 -1704.132757906277
10719 -1702.845368414308
10720 -1701.118903636214
10721 -1700.044396255394
10722 -1698.518063956831
10723 -1697.624924711995
10724 -1696.266957506494
10725 -1695.566638263282
10726 -1694.415170708568
10727 -1693.934261275477
10728 -1692.982911687207
10729 -1692.739041677698
10730 -1692.027187336961
10731 -1692.027481170744
10732 -1691.559729233362
10733 -1691.822707952838
10734 -1691.54627904042
10735 -1692.036971858539
10736 -1692.00921094861
10737 -1692.712734433956
10738 -1692.903824937897
10739 -1693.808878113141
10740 -1694.203973010625
10741 -1695.045148215449
10742 -1695.68396090554
10743 -1696.944433344862
10744 -1697.671294541433
10745 -1698.713972811092
10746 -1699.59578683289
10747 -1701.046245816056
10748 -1701.926736285479
10749 -1703.380317435003
10750 -1704.259610011724
10751 -1705.692665782391
10752 -1706.57418755096
10753 -1707.948507097846
10754 -1708.700321650553
10755 -1709.980399392678
10756 -1710.656686286007
10757 -1711.808501193941
10758 -1712.352945219346
10759 -1713.346138509227
10760 -1713.717264664157
10761 -1714.537967095907
10762 -1714.742526419538
10763 -1715.353928297822
10764 -1715.303947320512
10765 -1715.70904051202
10766 -1715.430445182903
10767 -1715.588690316694
10768 -1715.099982660494
10769 -1715.060067985361
10770 -1714.330652744394
10771 -1714.082130915701
10772 -1713.143112408598
10773 -1712.710232583023
10774 -1711.541793215017
10775 -1711.237931578265
10776 -1709.827585542404
10777 -1709.003235466259
10778 -1707.840083838549
10779 -1706.838678573238
10780 -1705.195512877578
10781 -1704.577667073052
10782 -1702.861316957051
10783 -1701.845028633665
10784 -1700.573236882857
10785 -1699.484192381984
10786 -1697.853535773713
10787 -1696.910814733524
10788 -1695.403476133308
10789 -1694.596803929887
10790 -1693.293719365246
10791 -1692.692182063233
10792 -1691.614412814776
10793 -1691.228359664177
10794 -1690.396838184681
10795 -1690.252532850599
10796 -1689.649075506901
10797 -1689.791169400871
10798 -1689.473137188313
10799 -1689.854832708348
10800 -1689.801049197226
10801 -1690.452648724311
10802 -1690.673225592395
10803 -1691.598446313825
10804 -1692.049798820459
10805 -1693.193178665078
10806 -1693.873495856916
10807 -1695.246960371282
10808 -1696.142216093331
10809 -1697.704956179976
10810 -1698.714340911275
10811 -1700.388675927171
10812 -1701.536133674788
10813 -1702.854527473875
10814 -1704.126281618244
10815 -1705.992757106353
10816 -1707.174762645857
10817 -1708.946497425547
10818 -1710.058189971038
10819 -1711.716093763699
10820 -1712.690112648511
10821 -1714.210481743581
10822 -1714.98810792317
10823 -1716.288434233878
10824 -1716.860641925385
10825 -1717.890557739991
10826 -1718.198414418079
10827 -1718.969348540661
10828 -1719.00277993296
10829 -1719.476240094461
10830 -1719.203307494574
10831 -1719.359774092661
10832 -1718.819057287477
10833 -1718.688006803791
10834 -1717.839850032621
10835 -1717.432865756103
10836 -1716.287344903682
10837 -1715.64592784919
10838 -1714.297600592706
10839 -1713.432243825403
10840 -1711.901106314343
10841 -1711.242555294581
10842 -1709.471713238936
10843 -1708.264166621102
10844 -1706.934959947585
10845 -1705.556886596629
10846 -1703.688403940909
10847 -1702.421371194207
10848 -1700.570778556958
10849 -1699.382920431685
10850 -1697.692106654588
10851 -1696.66189045608
10852 -1695.169775540142
10853 -1694.329996511838
10854 -1693.053436438439
10855 -1692.499551681142
10856 -1691.49446452084
10857 -1691.221376598372
10858 -1690.505876970033
10859 -1690.530679025935
10860 -1690.110446138813
10861 -1690.460549843169
10862 -1690.377661322059
10863 -1691.016396154067
10864 -1691.262853548089
10865 -1692.217049104129
10866 -1692.723661316707
10867 -1693.953494183318
10868 -1694.738201816587
10869 -1696.207517086833
10870 -1697.183859004607
10871 -1698.803186819914
10872 -1699.953189817117
10873 -1701.692547297264
10874 -1702.91323305468
10875 -1704.751238011239
10876 -1705.991248267378
10877 -1707.833639860566
10878 -1709.057385249833
10879 -1710.796360821812
10880 -1711.929156198193
10881 -1713.523323662432
10882 -1714.527019616909
10883 -1715.988430636002
10884 -1716.790265511788
10885 -1718.049516031765
10886 -1718.629460824626
10887 -1719.587593497985
10888 -1719.876689940253
10889 -1720.552751931673
10890 -1720.52701076532
10891 -1720.918422470579
10892 -1720.611487701955
10893 -1720.708008320299
10894 -1720.117349142667
10895 -1719.961692143438
10896 -1719.117966396657
10897 -1718.779435553555
10898 -1717.766892354887
10899 -1717.185392205709
10900 -1715.953666851172
10901 -1715.177753712599
10902 -1713.831626550798
10903 -1712.954863167901
10904 -1711.854475765481
10905 -1710.855119924084
10906 -1709.294234218304
10907 -1708.670883672405
10908 -1707.086690264095
10909 -1706.063972914685
10910 -1704.532607830525
10911 -1703.579234483758
10912 -1702.170991891814
10913 -1701.390549598048
10914 -1700.12523143898
10915 -1699.504288275411
10916 -1698.401278314
10917 -1697.976460872224
10918 -1697.099738089504
10919 -1696.83658261199
10920 -1696.20390561418
10921 -1696.166444077767
10922 -1695.733225528046
10923 -1695.926243517757
10924 -1695.674633743755
10925 -1696.041225761361
10926 -1695.975647083903
10927 -1696.522059119805
10928 -1696.616842125554
10929 -1697.301555916672
10930 -1697.553668859665
10931 -1698.224152981032
10932 -1698.615804507705
10933 -1699.588100102253
10934 -1699.839266876844
10935 -1701.006406120166
10936 -1701.594948690334
10937 -1702.51012305859
10938 -1703.16081378364
10939 -1704.4254401094
10940 -1705.049530897596
10941 -1706.283907711282
10942 -1706.822701848463
10943 -1707.949599317262
10944 -1708.426919529798
10945 -1709.492397677212
10946 -1709.888415984363
10947 -1710.850828183346
10948 -1711.144764823205
10949 -1711.993465126577
10950 -1712.15336356512
10951 -1712.870657922328
10952 -1712.903511702649
10953 -1713.464856039044
10954 -1713.379662240972
10955 -1713.727831988046
10956 -1713.518626446329
10957 -1713.774751945861
10958 -1713.355787791982
10959 -1713.440922301191
10960 -1712.871050048152
10961 -1712.721732050511
10962 -1711.97938697789
10963 -1711.668735244639
10964 -1710.727048274415
10965 -1710.224675005742
10966 -1709.406411002234
10967 -1708.731596003369
10968 -1707.468422271927
10969 -1706.683555277397
10970 -1705.680206410673
10971 -1704.708695176705
10972 -1703.205647985059
10973 -1702.576532909108
10974 -1700.987084440496
10975 -1699.941149138852
10976 -1698.374940005232
10977 -1697.745836781164
10978 -1696.166938418572
10979 -1695.204135684546
10980 -1693.753182047847
10981 -1692.905661783012
10982 -1691.603347658815
10983 -1690.916141007157
10984 -1689.79646034116
10985 -1689.285764042708
10986 -1688.355252460993
10987 -1688.069054973518
10988 -1687.376513636294
10989 -1687.276862607178
10990 -1686.774040782832
10991 -1686.928960700831
10992 -1686.664594912351
10993 -1687.041133476834
10994 -1687.016055750956
10995 -1687.6170143271
10996 -1687.827111589113
10997 -1688.667864258045
10998 -1689.084844821747
10999 -1690.095870037357
11000 -1690.664474663814
11001 -1691.847852658639
11002 -1692.282976027748
11003 -1693.628056536358
11004 -1694.503481612475
11005 -1695.924874294912
11006 -1696.475531039137
11007 -1698.003877414789
11008 -1698.978566542813
11009 -1700.431377241226
11010 -1701.302686678179
11011 -1702.674383121135
11012 -1703.38118663769
11013 -1704.596617676763
11014 -1705.126782777092
11015 -1706.163439578076
11016 -1706.497919121166
11017 -1707.302862807941
11018 -1707.392752394881
11019 -1707.980034863346
11020 -1707.799350693305
11021 -1708.154163796961
11022 -1707.71068990547
11023 -1707.770652493982
11024 -1707.055943843456
11025 -1706.879366110858
11026 -1705.907872460284
11027 -1705.474074937285
11028 -1704.303366009733
11029 -1703.666908901108
11030 -1702.271022074313
11031 -1701.808265840292
11032 -1700.212542805311
11033 -1699.197946771262
11034 -1697.942514851749
11035 -1696.701055581885
11036 -1695.370121324391
11037 -1694.057161926381
11038 -1692.682533919288
11039 -1691.340133214945
11040 -1689.490732892827
11041 -1688.263124720284
11042 -1686.597711201914
11043 -1685.526495691756
11044 -1684.037191481418
11045 -1683.176231502289
11046 -1681.906302809835
11047 -1681.26323488374
11048 -1680.214410465719
11049 -1679.829299527505
11050 -1679.030553098766
11051 -1678.922194290967
11052 -1678.350909456382
11053 -1678.490107465506
11054 -1678.229118523037
11055 -1678.624836731301
11056 -1678.584948275846
11057 -1679.251685885944
11058 -1679.492734452415
11059 -1680.40772961617
11060 -1680.84276035544
11061 -1681.699709997871
11062 -1682.407239343183
11063 -1683.730088056512
11064 -1684.54036192096
11065 -1685.618101676558
11066 -1686.594744453787
11067 -1688.088904505644
11068 -1689.157203337362
11069 -1690.712069627499
11070 -1691.741327834813
11071 -1693.234044246213
11072 -1694.143661297543
11073 -1695.505393731814
11074 -1696.330349307767
11075 -1697.542089046292
11076 -1698.198004517507
11077 -1699.271734051006
11078 -1699.720445983719
11079 -1700.586189727477
11080 -1700.810551105211
11081 -1701.454201457344
11082 -1701.463105374521
11083 -1701.889407753396
11084 -1701.634560416098
11085 -1701.797173002605
11086 -1701.279354721014
11087 -1701.20831630658
11088 -1700.468039570301
11089 -1700.218212970838
11090 -1699.230853484022
11091 -1698.770403045353
11092 -1697.577186792364
11093 -1696.952102546597
11094 -1695.922241429403
11095 -1695.032548376917
11096 -1693.518890353804
11097 -1692.948804078029
11098 -1691.277889606167
11099 -1690.633356156621
11100 -1688.830598087413
11101 -1688.131716293028
11102 -1686.27147942184
11103 -1685.165535339054
11104 -1683.449051979449
11105 -1682.456489539358
11106 -1681.273714153363
11107 -1680.320276173051
11108 -1678.852778953947
11109 -1678.136138443308
11110 -1676.893590475253
11111 -1676.399454087439
11112 -1675.409141140093
11113 -1675.161266153739
11114 -1674.369861348498
11115 -1674.376260275557
11116 -1673.869876416672
11117 -1674.127131288115
11118 -1673.869987805271
11119 -1674.330927976746
11120 -1674.325921116651
11121 -1675.032987847302
11122 -1675.307625115425
11123 -1676.227413536039
11124 -1676.463845918854
11125 -1677.626201451816
11126 -1678.298384288518
11127 -1679.613471631073
11128 -1680.414344980668
11129 -1681.490777541159
11130 -1682.484266271691
11131 -1684.040292024349
11132 -1685.036636230154
11133 -1686.592824510904
11134 -1687.571448774906
11135 -1689.082188692832
11136 -1690.007766705192
11137 -1691.432153943926
11138 -1692.218694172338
11139 -1693.47856696606
11140 -1694.109507819551
11141 -1695.241748459938
11142 -1695.728238353609
11143 -1696.626724209038
11144 -1696.902321610815
11145 -1697.592721593757
11146 -1697.593559669017
11147 -1698.037702045848
11148 -1697.83144724236
11149 -1698.036049452592
11150 -1697.576940728668
11151 -1697.52937004577
11152 -1696.858301811996
11153 -1696.594957600576
11154 -1695.727734024833
11155 -1695.28323677253
11156 -1694.450682870124
11157 -1693.761578514486
11158 -1692.502649541658
11159 -1691.692919240677
11160 -1690.629916519864
11161 -1689.643290656174
11162 -1688.489380218755
11163 -1687.384453513096
11164 -1686.192347963929
11165 -1685.004909900617
11166 -1683.364743786937
11167 -1682.676775577627
11168 -1680.991335187955
11169 -1679.958372612112
11170 -1678.44787901999
11171 -1677.625309766528
11172 -1676.31904559717
11173 -1675.642178265984
11174 -1674.524767782922
11175 -1674.036342728069
11176 -1673.100563512219
11177 -1672.871330011872
11178 -1672.20751032256
11179 -1672.207190649357
11180 -1671.739219466932
11181 -1671.972873335709
11182 -1671.75043593044
11183 -1672.196083449774
11184 -1672.230084215004
11185 -1672.901804833549
11186 -1673.171523017008
11187 -1674.022383603375
11188 -1674.433516112135
11189 -1675.243179802912
11190 -1675.894374103125
11191 -1677.133203552755
11192 -1677.875791354872
11193 -1678.884281706569
11194 -1679.821934700631
11195 -1681.255284606837
11196 -1682.186947876059
11197 -1683.260514537035
11198 -1684.299348970032
11199 -1685.758975456629
11200 -1686.649244994631
11201 -1688.019373297303
11202 -1688.78696492278
11203 -1690.009227088642
11204 -1690.619789594032
11205 -1691.653477271761
11206 -1692.079776977445
11207 -1692.878405280745
11208 -1693.057460551509
11209 -1693.652300072444
11210 -1693.601536601017
11211 -1693.960321707625
11212 -1693.67244800599
11213 -1693.793048776718
11214 -1693.263785164618
11215 -1693.12507949542
11216 -1692.334350223385
11217 -1691.987783670132
11218 -1691.221698813925
11219 -1690.594990437875
11220 -1689.346686299456
11221 -1688.540431247004
11222 -1687.475036956236
11223 -1686.490487159116
11224 -1684.90534137732
11225 -1684.25725347255
11226 -1682.508805210164
11227 -1681.736677925913
11228 -1679.908305407984
11229 -1679.110248313673
11230 -1677.283457069988
11231 -1676.049876450147
11232 -1674.302635790514
11233 -1673.211702514331
11234 -1671.60900654977
11235 -1670.651486833778
11236 -1669.24212646834
11237 -1668.49005391221
11238 -1667.280613296319
11239 -1666.728229833544
11240 -1665.736013714358
11241 -1665.406545489084
11242 -1664.693410134478
11243 -1664.645576820577
11244 -1664.157174327852
11245 -1664.338851219644
11246 -1664.108875563754
11247 -1664.529348406537
11248 -1664.552237832158
11249 -1665.18502944435
11250 -1665.431418711835
11251 -1666.28957085992
11252 -1666.736411113954
11253 -1667.770616646196
11254 -1668.361831373621
11255 -1669.25245660569
11256 -1670.026551631056
11257 -1671.353194739473
11258 -1672.132731015915
11259 -1673.104596708642
11260 -1673.957786036961
11261 -1675.312813439536
11262 -1676.098952306893
11263 -1677.300177300245
11264 -1677.96275771271
11265 -1679.072906810569
11266 -1679.555040174383
11267 -1680.448151724766
11268 -1680.745323026566
11269 -1681.394569666077
11270 -1681.460534283226
11271 -1681.907711984443
11272 -1681.732249410052
11273 -1681.951659780846
11274 -1681.533532482788
11275 -1681.514308848252
11276 -1680.85477351098
11277 -1680.588576723392
11278 -1679.681447432909
11279 -1679.254932544834
11280 -1678.161637511901
11281 -1677.482447034551
11282 -1676.170013696001
11283 -1675.342502234371
11284 -1674.21220376841
11285 -1673.154243363633
11286 -1671.467138055739
11287 -1670.775124127077
11288 -1668.992073024684
11289 -1668.234139657248
11290 -1666.368148863922
11291 -1665.556653364823
11292 -1663.658170627765
11293 -1662.405808053619
11294 -1661.096360086125
11295 -1659.859918765986
11296 -1658.157192249234
11297 -1657.181903499397
11298 -1655.672805348014
11299 -1654.852309718783
11300 -1653.538158289372
11301 -1652.945517642625
11302 -1651.871862180134
11303 -1651.464329378963
11304 -1650.598366801292
11305 -1650.407323136342
11306 -1649.724337285355
11307 -1649.78889747245
11308 -1649.350281960224
11309 -1649.583597030732
11310 -1649.337270083233
11311 -1649.77176680006
11312 -1649.707727558318
11313 -1650.299956999282
11314 -1650.468989924224
11315 -1651.207136993587
11316 -1651.416311806678
11317 -1652.118791414824
11318 -1652.492320683908
11319 -1653.450688000498
11320 -1653.906096922212
11321 -1654.898070221157
11322 -1655.334706968855
11323 -1656.326170158506
11324 -1656.757732980787
11325 -1657.678618232555
11326 -1658.035770899507
11327 -1658.878440934981
11328 -1659.092276151761
11329 -1659.877830156312
11330 -1659.97695672414
11331 -1660.587252427262
11332 -1660.554715055795
11333 -1661.055326670065
11334 -1660.864604692246
11335 -1661.195299739093
11336 -1660.844940414271
11337 -1661.001405927487
11338 -1660.516457541131
11339 -1660.576712995188
11340 -1659.985066447591
11341 -1659.925988848473
11342 -1659.274391734905
11343 -1659.097247390456
11344 -1658.285987977134
11345 -1658.060215108846
11346 -1657.184897630814
11347 -1656.877912900336
11348 -1656.00944439862
11349 -1655.668558364406
11350 -1654.728650837717
11351 -1654.401414857992
11352 -1653.504699791891
11353 -1653.156582742961
11354 -1652.279814074183
11355 -1651.920692919193
11356 -1651.059664456091
11357 -1650.828229610182
11358 -1650.022419496378
11359 -1649.799500896764
11360 -1649.023105134146
11361 -1648.775306090795
11362 -1648.022467334838
11363 -1647.915831214126
11364 -1647.234261299059
11365 -1647.203279022375
11366 -1646.582936433132
11367 -1646.66028608344
11368 -1646.101613949505
11369 -1646.260006453872
11370 -1645.776839306059
11371 -1645.992556052662
11372 -1645.63078634227
11373 -1645.896569239019
11374 -1645.665095493732
11375 -1646.078515308242
11376 -1645.826948993016
11377 -1646.342878217302
11378 -1646.28325943917
11379 -1646.83332279168
11380 -1646.864203395397
11381 -1647.585579394388
11382 -1647.706033080585
11383 -1648.501470894649
11384 -1648.677960811076
11385 -1649.55777513671
11386 -1649.896205620501
11387 -1650.769269190971
11388 -1651.099122349122
11389 -1652.14726326142
11390 -1652.548653973138
11391 -1653.608001314883
11392 -1653.968340084206
11393 -1655.030370935548
11394 -1655.581394132286
11395 -1656.715878071126
11396 -1657.23336747188
11397 -1658.401189338529
11398 -1658.937371836025
11399 -1660.138653037339
11400 -1660.776210008516
11401 -1662.038873402749
11402 -1662.707030446973
11403 -1663.984904147325
11404 -1664.56863108664
11405 -1665.729770968585
11406 -1666.314539048523
11407 -1667.306296431181
11408 -1667.681810900189
11409 -1668.548983910818
11410 -1668.743603652003
11411 -1669.396658480768
11412 -1669.315196724136
11413 -1669.653173128542
11414 -1669.300850102551
11415 -1669.356383508112
11416 -1668.689697245673
11417 -1668.462371766874
11418 -1667.416295857901
11419 -1666.866982148094
11420 -1665.616856718809
11421 -1664.805682434565
11422 -1663.291678028282
11423 -1662.164456458002
11424 -1660.432900336964
11425 -1659.165749183579
11426 -1657.228944807607
11427 -1655.808164367003
11428 -1653.745538850962
11429 -1652.186877679077
11430 -1650.113298620542
11431 -1648.562073458077
11432 -1646.406229811165
11433 -1644.96900305876
11434 -1642.926267456308
11435 -1641.681067119048
11436 -1639.865036733624
11437 -1638.903405025516
11438 -1637.490422419912
11439 -1636.768230949974
11440 -1635.610104975029
11441 -1635.314526992029
11442 -1634.64891000298
11443 -1634.767137549017
11444 -1634.468152786692
11445 -1634.988363471679
11446 -1635.175604572379
11447 -1636.199616358803
11448 -1636.903184204006
11449 -1638.467051828512
11450 -1639.518701434323
11451 -1641.476714244347
11452 -1642.987048016436
11453 -1645.339750287754
11454 -1647.292323655543
11455 -1649.930704625293
11456 -1652.108363053845
11457 -1654.886474207791
11458 -1657.10730337004
11459 -1660.028549170025
11460 -1662.340952110976
11461 -1665.132450419742
11462 -1667.321334469676
11463 -1670.024421904579
11464 -1671.890171395006
11465 -1674.253096140511
11466 -1675.815201847735
11467 -1677.758286027599
11468 -1678.908686491427
11469 -1680.457121591227
11470 -1681.180069205487
11471 -1682.252202164867
11472 -1682.508999863631
11473 -1682.981323172546
11474 -1682.668320649696
11475 -1682.661343901943
11476 -1681.7939060278
11477 -1681.256970032995
11478 -1679.899083519415
11479 -1678.915850754282
11480 -1677.128355674393
11481 -1675.653215247881
11482 -1673.450341801235
11483 -1671.61067323034
11484 -1669.054368029776
11485 -1666.875782256385
11486 -1664.05921282345
11487 -1661.603474284826
11488 -1658.579046392641
11489 -1656.071456623412
11490 -1652.913785161993
11491 -1650.446545796338
11492 -1647.449820473361
11493 -1645.012871956467
11494 -1642.122654595938
11495 -1639.861098031976
11496 -1637.223126866165
11497 -1635.290435861877
11498 -1632.971759934064
11499 -1631.419863734051
11500 -1629.454615864085
11501 -1628.296123625785
11502 -1626.838102329743
11503 -1626.181665548326
11504 -1625.15528883518
11505 -1625.003555399176
11506 -1624.478082667988
11507 -1624.848940714669
11508 -1624.828438722164
11509 -1625.669049557412
11510 -1626.139860787209
11511 -1627.411547766624
11512 -1628.284457206129
11513 -1629.944365430554
11514 -1631.111707907625
11515 -1633.102007146169
11516 -1634.491692165942
11517 -1636.634988309623
11518 -1638.171181236741
11519 -1640.362091559648
11520 -1641.960386769807
11521 -1644.151954905233
11522 -1645.736285530641
11523 -1647.796904725935
11524 -1649.185102618235
11525 -1651.022916282425
11526 -1652.138590944445
11527 -1653.680694581406
11528 -1654.515834774223
11529 -1655.679354084477
11530 -1656.106571153972
11531 -1656.875272349247
11532 -1656.943677748032
11533 -1657.326987882036
11534 -1657.020578523328
11535 -1657.058209346603
11536 -1656.328546537419
11537 -1655.976890065451
11538 -1654.874946919408
11539 -1654.187215703977
11540 -1652.809823428149
11541 -1651.867357865385
11542 -1650.250725553572
11543 -1649.041914866643
11544 -1647.210594180992
11545 -1645.912421941032
11546 -1643.958655753917
11547 -1642.526409707014
11548 -1640.46302836319
11549 -1638.990237666191
11550 -1637.008649729806
11551 -1635.643529597613
11552 -1633.712354801675
11553 -1632.455589897016
11554 -1630.724305270466
11555 -1629.676327641816
11556 -1628.10812619701
11557 -1627.298313936355
11558 -1625.966577179986
11559 -1625.400326153475
11560 -1624.328992721338
11561 -1624.003062231952
11562 -1623.161118787934
11563 -1623.06334138196
11564 -1622.490537841385
11565 -1622.658144141915
11566 -1622.314940869254
11567 -1622.746910804785
11568 -1622.638844687371
11569 -1623.334609567809
11570 -1623.472383556496
11571 -1624.353952263627
11572 -1624.515248836381
11573 -1625.534934484738
11574 -1626.04357072962
11575 -1626.940766414463
11576 -1627.596271624696
11577 -1628.577604570075
11578 -1629.324641084796
11579 -1630.659427013587
11580 -1631.113923437601
11581 -1632.412223846897
11582 -1633.165281624954
11583 -1634.379570671838
11584 -1634.993997646663
11585 -1636.098052321272
11586 -1636.587308637536
11587 -1637.535346267885
11588 -1637.82886905055
11589 -1638.620905785872
11590 -1638.767775321862
11591 -1639.404730656305
11592 -1639.385003254396
11593 -1639.79112401747
11594 -1639.531426735513
11595 -1639.772117686316
11596 -1639.418873737581
11597 -1639.506030450215
11598 -1638.919386629015
11599 -1638.800658996395
11600 -1638.223263692649
11601 -1637.952634628513
11602 -1637.058478285843
11603 -1636.654482654902
11604 -1635.870301024554
11605 -1635.276681725872
11606 -1634.106207661215
11607 -1633.430627813997
11608 -1632.495208504121
11609 -1631.682914044728
11610 -1630.336566652798
11611 -1629.833601261784
11612 -1628.396146459416
11613 -1627.862081519183
11614 -1626.430911309128
11615 -1625.555002839043
11616 -1624.563746896068
11617 -1623.679301438996
11618 -1622.712131913513
11619 -1621.861512010222
11620 -1620.685022857016
11621 -1620.305174650736
11622 -1619.192307651213
11623 -1618.662963076902
11624 -1617.780985976388
11625 -1617.478436334312
11626 -1616.786246052991
11627 -1616.669735784862
11628 -1616.152397233915
11629 -1616.253188130098
11630 -1615.937839477216
11631 -1616.240768483952
11632 -1616.10978038665
11633 -1616.581709425196
11634 -1616.607762660926
11635 -1617.173653389456
11636 -1617.388972403354
11637 -1618.294038002333
11638 -1618.488540456798
11639 -1619.518120916429
11640 -1619.987097332555
11641 -1620.850940756783
11642 -1621.436503386155
11643 -1622.391692351683
11644 -1623.082747595394
11645 -1624.038116302953
11646 -1624.73820037085
11647 -1625.704948046844
11648 -1626.417212114166
11649 -1627.682634394801
11650 -1628.024304170599
11651 -1629.211939355118
11652 -1629.742022668625
11653 -1630.762984536726
11654 -1631.107224212604
11655 -1631.912526459007
11656 -1632.042331526842
11657 -1632.67515960088
11658 -1632.608670584113
11659 -1633.021842334439
11660 -1632.76863149352
11661 -1632.989952568528
11662 -1632.520363111967
11663 -1632.56540038632
11664 -1632.054642934302
11665 -1631.861050033758
11666 -1631.030418592104
11667 -1630.869445904333
11668 -1629.875664397725
11669 -1629.349244489187
11670 -1628.448545817137
11671 -1627.686563469658
11672 -1626.665578121238
11673 -1625.782233657487
11674 -1624.672568193072
11675 -1623.640679021401
11676 -1622.448678905385
11677 -1621.347737894846
11678 -1620.124350134955
11679 -1618.929709143896
11680 -1617.68821425628
11681 -1616.507767609707
11682 -1615.286650100704
11683 -1614.107007813188
11684 -1612.443837370113
11685 -1611.444291946437
11686 -1609.968936976697
11687 -1609.116597132969
11688 -1607.812337682674
11689 -1607.141718165528
11690 -1606.024507615429
11691 -1605.53837230714
11692 -1604.631075738332
11693 -1604.331018842805
11694 -1603.619000084056
11695 -1603.625841583196
11696 -1603.074761138721
11697 -1603.128341787717
11698 -1602.795901622962
11699 -1603.037657455726
11700 -1602.863038749374
11701 -1603.234700730479
11702 -1603.248474879505
11703 -1603.754288386144
11704 -1603.972856730306
11705 -1604.599324495136
11706 -1604.944185009585
11707 -1605.696563078417
11708 -1606.235726497291
11709 -1607.088773522623
11710 -1607.748812164172
11711 -1608.683633628703
11712 -1609.410618942938
11713 -1610.426211903777
11714 -1611.228139551263
11715 -1612.231705850853
11716 -1613.035653276372
11717 -1614.365661073403
11718 -1614.738415334961
11719 -1616.00404879083
11720 -1616.608296599212
11721 -1617.714484792111
11722 -1618.171742731537
11723 -1618.884226859627
11724 -1619.245405759844
11725 -1620.057904326393
11726 -1620.195169949083
11727 -1620.65894717578
11728 -1620.635340719914
11729 -1621.015314882293
11730 -1620.755461649328
11731 -1620.94727446714
11732 -1620.493239087919
11733 -1620.549027095588
11734 -1619.926642942899
11735 -1619.675681209916
11736 -1619.058014184396
11737 -1618.608440899597
11738 -1617.837667059249
11739 -1617.201011699813
11740 -1616.324950429133
11741 -1615.506758887124
11742 -1614.465866827145
11743 -1613.521765885372
11744 -1612.419301086811
11745 -1611.375334821893
11746 -1610.203367634042
11747 -1609.087190324527
11748 -1607.889915711461
11749 -1606.724498799088
11750 -1605.550775437853
11751 -1604.415285611261
11752 -1603.239287660617
11753 -1602.188586740307
11754 -1600.678416064926
11755 -1600.196479830258
11756 -1598.787466048119
11757 -1598.098751918692
11758 -1597.179584848289
11759 -1596.587451267018
11760 -1595.564368286478
11761 -1595.41310696818
11762 -1594.554596639846
11763 -1594.467524699681
11764 -1593.991500390106
11765 -1594.085154656614
11766 -1593.739638459057
11767 -1594.055899730039
11768 -1593.955188479428
11769 -1594.413117733312
11770 -1594.533975027787
11771 -1595.146929884916
11772 -1595.499136357083
11773 -1596.42474658039
11774 -1596.715003940317
11775 -1597.808344283241
11776 -1598.494352264709
11777 -1599.413795565278
11778 -1600.227588251381
11779 -1601.507796685526
11780 -1602.284499635608
11781 -1603.557715452831
11782 -1604.305614711626
11783 -1605.539413145755
11784 -1606.248903510582
11785 -1607.416481042405
11786 -1607.985873337277
11787 -1609.058447969804
11788 -1609.505565570796
11789 -1610.449167277183
11790 -1610.723853306934
11791 -1611.338468021752
11792 -1611.474099060322
11793 -1612.07782482166
11794 -1612.006557760699
11795 -1612.378061197571
11796 -1612.094136465863
11797 -1612.326673491145
11798 -1611.842833898265
11799 -1611.82795560262
11800 -1611.257921278458
11801 -1611.060062517971
11802 -1610.21960743168
11803 -1610.029202178717
11804 -1609.082715264314
11805 -1608.61868244526
11806 -1607.844353474577
11807 -1607.254316728989
11808 -1606.4162324121
11809 -1605.804282752519
11810 -1604.960282296445
11811 -1604.323208011499
11812 -1603.252909112485
11813 -1602.975920551845
11814 -1601.983695138255
11815 -1601.59923793033
11816 -1600.770623997353
11817 -1600.543035048884
11818 -1599.938799298337
11819 -1599.847021763859
11820 -1599.42114836589
11821 -1599.535557336236
11822 -1599.269637574782
11823 -1599.613213742663
11824 -1599.527611829903
11825 -1600.031539288666
11826 -1600.13764970717
11827 -1600.809245228084
11828 -1601.025823995937
11829 -1601.622281885956
11830 -1601.935650265931
11831 -1602.853413215231
11832 -1603.047160169159
11833 -1604.047382400915
11834 -1604.306193363977
11835 -1605.393228691227
11836 -1605.685241492601
11837 -1606.78999827186
11838 -1607.103239204536
11839 -1608.222637382951
11840 -1608.515885538821
11841 -1609.613827790533
11842 -1609.851069026173
11843 -1610.875456737017
11844 -1611.26987537763
11845 -1611.996884823968
11846 -1612.307646023059
11847 -1613.060535157748
11848 -1613.177953155342
11849 -1613.727609840199
11850 -1613.671966757792
11851 -1614.17831677027
11852 -1613.976821856464
11853 -1614.309341335838
11854 -1613.981276371321
11855 -1614.186213184738
11856 -1613.836901142146
11857 -1614.01277162599
11858 -1613.556716989983
11859 -1613.721124177389
11860 -1613.233804021179
11861 -1613.321111700364
11862 -1612.904936540176
11863 -1612.994631778136
11864 -1612.611663527062
11865 -1612.745523961665
11866 -1612.359230011419
11867 -1612.588642200651
11868 -1612.225035871486
11869 -1612.613974607315
11870 -1612.326540703769
11871 -1612.646614725674
11872 -1612.39017370425
11873 -1612.80874998942
11874 -1612.630180058114
11875 -1613.085214403962
11876 -1613.026975397931
11877 -1613.614436664425
11878 -1613.555496746168
11879 -1613.999439505875
11880 -1613.96267799826
11881 -1614.458987183297
11882 -1614.347371281515
11883 -1614.732063886843
11884 -1614.548035545494
11885 -1615.004977818495
11886 -1614.807437502926
11887 -1615.140691397098
11888 -1614.898667021494
11889 -1615.169794131255
11890 -1614.903175331804
11891 -1615.07940949283
11892 -1614.749059398891
11893 -1614.958922125089
11894 -1614.592839055782
11895 -1614.78243928779
11896 -1614.406621537791
11897 -1614.620332171461
11898 -1614.293703013663
11899 -1614.383018837628
11900 -1614.06113427484
11901 -1614.214565999388
11902 -1613.866763644514
11903 -1614.033790291944
11904 -1613.795706281873
11905 -1613.968242057103
11906 -1613.745393344223
11907 -1614.100717564737
11908 -1613.964235726328
11909 -1614.377501343352
11910 -1614.398707439261
11911 -1614.977460950626
11912 -1615.115723328694
11913 -1615.890320305921
11914 -1616.24608088343
11915 -1617.172995417855
11916 -1617.617582942724
11917 -1618.726673348564
11918 -1619.259395641213
11919 -1620.452935215268
11920 -1621.159872395433
11921 -1622.5405644467
11922 -1623.306501065754
11923 -1624.746654851084
11924 -1625.622558450315
11925 -1627.072582542854
11926 -1627.969778646202
11927 -1629.417660518509
11928 -1630.201455509411
11929 -1631.493219996637
11930 -1632.161831591209
11931 -1633.367932171673
11932 -1633.818861269506
11933 -1634.737086626214
11934 -1634.926457670092
11935 -1635.630377186265
11936 -1635.5430686204
11937 -1635.962358284696
11938 -1635.688243761981
11939 -1635.873503525022
11940 -1635.325456404558
11941 -1635.219065145491
11942 -1634.431676105761
11943 -1634.062148183483
11944 -1633.010456875777
11945 -1632.477479407999
11946 -1631.276517570578
11947 -1630.540781167942
11948 -1629.120283124753
11949 -1628.285989236931
11950 -1626.816632360623
11951 -1625.926089080585
11952 -1624.341116742419
11953 -1623.387256668029
11954 -1621.877190664664
11955 -1620.946620197798
11956 -1619.468083679749
11957 -1618.671712158057
11958 -1617.352964916248
11959 -1616.708052853757
11960 -1615.552944068863
11961 -1615.122698199534
11962 -1614.205245816814
11963 -1614.009062814957
11964 -1613.369486395364
11965 -1613.409300388796
11966 -1613.006677857909
11967 -1613.40853165115
11968 -1613.40346570063
11969 -1614.148408649806
11970 -1614.476364652335
11971 -1615.554124124835
11972 -1616.176457638601
11973 -1617.488499486788
11974 -1618.426338051929
11975 -1620.107561221553
11976 -1621.33192514491
11977 -1623.24207987403
11978 -1624.645175988876
11979 -1626.747915664607
11980 -1628.278292544713
11981 -1630.2609398243
11982 -1631.761954404696
11983 -1633.776979986324
11984 -1635.217215799015
11985 -1637.102331588467
11986 -1638.408207579967
11987 -1640.120090983832
11988 -1641.21199141297
11989 -1642.615340377572
11990 -1643.343960738963
11991 -1644.427337908815
11992 -1644.797092081431
11993 -1645.454653942115
11994 -1645.394225976707
11995 -1645.68988361688
11996 -1645.210831440941
11997 -1645.105160460333
11998 -1644.24279452275
11999 -1643.806636425297
12000 -1642.547748960197
12001 -1641.749661979621
12002 -1640.182163969194
12003 -1639.109629961239
12004 -1637.349600463519
12005 -1636.044145905152
12006 -1634.08379338399
12007 -1632.675814608708
12008 -1630.578885354273
12009 -1629.030212462494
12010 -1626.958587353697
12011 -1625.48696333944
12012 -1623.544153586728
12013 -1622.238245092148
12014 -1620.47758878386
12015 -1619.348523908395
12016 -1617.84396592875
12017 -1617.098031840285
12018 -1615.893577853754
12019 -1615.473891236926
12020 -1614.647259691751
12021 -1614.560133808228
12022 -1614.15773640964
12023 -1614.496643719715
12024 -1614.526928561503
12025 -1615.276880824048
12026 -1615.688600931099
12027 -1616.787517756191
12028 -1617.571888205472
12029 -1619.068868317264
12030 -1620.187690182715
12031 -1621.965605689132
12032 -1623.292644820408
12033 -1625.251576656625
12034 -1626.760774007829
12035 -1628.851672981851
12036 -1630.441197806878
12037 -1632.547737572111
12038 -1634.08035178929
12039 -1636.188980637822
12040 -1637.554357387915
12041 -1639.452962069848
12042 -1640.633758458054
12043 -1642.249278483434
12044 -1643.18214565933
12045 -1644.523616169747
12046 -1645.127188447456
12047 -1646.122724885442
12048 -1646.36915003057
12049 -1647.006843330684
12050 -1646.863987243233
12051 -1647.119067487137
12052 -1646.658549903648
12053 -1646.480637540026
12054 -1645.637721359322
12055 -1645.190761365106
12056 -1644.001963021668
12057 -1643.250260000178
12058 -1641.813118630877
12059 -1640.804164892421
12060 -1639.193852364822
12061 -1637.972470376574
12062 -1636.211838281988
12063 -1634.95970280642
12064 -1633.06281230737
12065 -1631.745137630221
12066 -1629.889477486163
12067 -1628.653304142265
12068 -1626.825496100496
12069 -1625.629572213331
12070 -1623.953704578049
12071 -1622.966333784865
12072 -1621.469701371763
12073 -1620.725998394426
12074 -1619.488463777599
12075 -1618.977799278999
12076 -1617.977830141058
12077 -1617.700670485604
12078 -1616.94205915006
12079 -1616.921147855298
12080 -1616.416709531152
12081 -1616.664428983089
12082 -1616.42573702612
12083 -1616.887618754683
12084 -1616.885783667973
12085 -1617.557846809609
12086 -1617.765188361559
12087 -1618.595996738602
12088 -1618.952424719677
12089 -1620.00205680052
12090 -1620.586614645135
12091 -1621.470887872852
12092 -1622.156688209737
12093 -1623.451352966594
12094 -1624.218481054224
12095 -1625.553220517941
12096 -1626.375554563999
12097 -1627.692662687561
12098 -1628.514462908007
12099 -1629.8593818817
12100 -1630.655908570409
12101 -1631.946454258436
12102 -1632.697273146376
12103 -1633.941929943848
12104 -1634.614382370063
12105 -1635.75235230318
12106 -1636.321368572086
12107 -1637.351311829695
12108 -1637.776635272426
12109 -1638.726229386831
12110 -1639.022440558122
12111 -1639.845110080508
12112 -1640.013771715717
12113 -1640.69627136317
12114 -1640.745009972237
12115 -1641.294528846347
12116 -1641.112844658049
12117 -1641.503428053168
12118 -1641.23535236751
12119 -1641.491736286481
12120 -1641.060264292464
12121 -1641.153492817147
12122 -1640.594149435229
12123 -1640.515370173076
12124 -1639.764104989531
12125 -1639.522440391495
12126 -1638.617834254105
12127 -1638.233466528793
12128 -1637.176130418734
12129 -1636.686478281324
12130 -1635.476662663001
12131 -1634.897737311307
12132 -1633.654715757224
12133 -1632.968985520886
12134 -1631.66439240417
12135 -1630.924263078594
12136 -1629.551268005872
12137 -1628.778462073735
12138 -1627.419952334968
12139 -1626.700707835704
12140 -1625.385091110813
12141 -1624.718605294694
12142 -1623.482251611984
12143 -1622.920580286687
12144 -1621.781194881821
12145 -1621.301452744673
12146 -1620.302139726348
12147 -1620.010793489286
12148 -1619.178411817261
12149 -1619.079303734082
12150 -1618.464987837131
12151 -1618.560740207728
12152 -1618.157967327834
12153 -1618.51721385037
12154 -1618.364079506423
12155 -1618.933215922219
12156 -1618.995553854453
12157 -1619.775183709314
12158 -1620.056060719871
12159 -1621.056072681998
12160 -1621.590275286776
12161 -1622.766846550467
12162 -1623.169666743812
12163 -1624.558950730443
12164 -1625.497307374445
12165 -1626.634499827168
12166 -1627.739562607281
12167 -1629.36243787183
12168 -1630.053257124092
12169 -1631.743096496432
12170 -1632.87579133313
12171 -1634.08187660287
12172 -1635.226883435795
12173 -1636.769967255222
12174 -1637.757455310088
12175 -1639.120723311212
12176 -1639.891019244559
12177 -1641.031625158745
12178 -1641.576228016558
12179 -1642.451362130449
12180 -1642.716501659082
12181 -1643.344106490753
12182 -1643.348677370245
12183 -1643.695943874101
12184 -1643.409641911429
12185 -1643.451077884474
12186 -1642.888669937775
12187 -1642.733294121924
12188 -1641.90629383791
12189 -1641.717210988882
12190 -1640.643537650409
12191 -1640.025155177211
12192 -1639.015352643379
12193 -1638.145209054258
12194 -1637.024009630359
12195 -1635.96719453619
12196 -1634.739226324396
12197 -1633.538556928936
12198 -1632.264676223951
12199 -1631.009404790504
12200 -1629.711320745819
12201 -1628.48766778961
12202 -1626.754071279104
12203 -1626.104215229897
12204 -1624.468337006847
12205 -1623.522339863185
12206 -1622.097548831802
12207 -1621.394692154093
12208 -1620.2116043461
12209 -1619.7414138387
12210 -1618.782085083281
12211 -1618.528524149671
12212 -1617.819083949319
12213 -1617.894627705719
12214 -1617.477917455686
12215 -1617.735549818337
12216 -1617.554375101426
12217 -1618.103973227105
12218 -1618.196791648694
12219 -1618.842607754148
12220 -1619.212109303556
12221 -1620.280552614625
12222 -1620.556980794028
12223 -1621.806400353496
12224 -1622.578149648969
12225 -1623.644869676051
12226 -1624.568749251498
12227 -1625.713501175683
12228 -1626.81809128956
12229 -1628.417595890986
12230 -1629.41644814696
12231 -1630.943301145767
12232 -1631.883474069051
12233 -1633.338529031743
12234 -1634.135882030534
12235 -1635.461230892755
12236 -1636.127654108406
12237 -1637.259611118025
12238 -1637.722543761764
12239 -1638.629266300418
12240 -1638.865593828431
12241 -1639.546291880521
12242 -1639.544710891646
12243 -1639.978795292449
12244 -1639.728618754159
12245 -1639.888994793324
12246 -1639.42000384138
12247 -1639.339802347563
12248 -1638.672160037995
12249 -1638.34366341185
12250 -1637.459522160285
12251 -1636.96369761653
12252 -1635.890366193464
12253 -1635.254014894676
12254 -1634.346885684185
12255 -1633.505907587321
12256 -1632.120082733758
12257 -1631.574390473171
12258 -1630.097344176309
12259 -1629.092229143239
12260 -1628.023909584613
12261 -1627.011267699537
12262 -1625.544404323558
12263 -1624.699780045818
12264 -1623.392564716901
12265 -1622.727984652973
12266 -1621.583679019174
12267 -1621.123494773056
12268 -1620.163794795303
12269 -1619.931525617194
12270 -1619.187843718151
12271 -1619.187982897731
12272 -1618.703502594794
12273 -1618.961390331494
12274 -1618.717259701728
12275 -1619.241456794861
12276 -1619.261614087067
12277 -1620.031697590714
12278 -1620.291325587331
12279 -1621.202277514958
12280 -1621.606017288813
12281 -1622.617099900399
12282 -1622.914682803492
12283 -1624.087293500677
12284 -1624.776354264013
12285 -1625.713474443998
12286 -1626.449508746288
12287 -1627.47338141997
12288 -1628.254920042872
12289 -1629.267211513656
12290 -1630.032208856425
12291 -1630.985701494567
12292 -1631.708945934664
12293 -1632.905130719763
12294 -1633.211775243123
12295 -1634.237995691738
12296 -1634.575076133664
12297 -1635.31044776788
12298 -1635.40618692756
12299 -1636.003800323911
12300 -1635.907582857341
12301 -1636.288532439137
12302 -1635.993026400408
12303 -1636.136572300925
12304 -1635.645866593242
12305 -1635.581909852249
12306 -1634.897513223594
12307 -1634.708560132241
12308 -1633.872772002571
12309 -1633.707873594806
12310 -1632.768522227337
12311 -1632.276618024676
12312 -1631.494821778929
12313 -1630.907583364236
12314 -1630.043972936736
12315 -1629.338552389325
12316 -1628.477475142171
12317 -1627.766307995957
12318 -1626.86806188816
12319 -1626.215336215907
12320 -1625.35917063118
12321 -1624.81308391145
12322 -1623.828625017967
12323 -1623.603014070341
12324 -1622.735612746916
12325 -1622.527426243241
12326 -1621.830873834296
12327 -1621.779430346031
12328 -1621.283956048566
12329 -1621.495102162039
12330 -1621.168529401297
12331 -1621.558020136197
12332 -1621.404877070415
12333 -1621.901458526946
12334 -1621.96129146285
12335 -1622.612319395502
12336 -1622.617894776273
12337 -1623.333858706252
12338 -1623.591042013376
12339 -1624.207330993001
12340 -1624.516224979241
12341 -1625.177311847113
12342 -1625.488050875065
12343 -1626.181818639337
12344 -1626.536536524328
12345 -1627.221661422998
12346 -1627.587064101682
12347 -1628.260500855058
12348 -1628.548566932151
12349 -1629.157592538809
12350 -1629.400310142427
12351 -1629.903431552012
12352 -1629.989358064676
12353 -1630.426346944216
12354 -1630.388614174649
12355 -1630.763294098704
12356 -1630.610208683611
12357 -1630.88421447614
12358 -1630.554487094305
12359 -1630.683627422036
12360 -1630.300379965988
12361 -1630.245097759526
12362 -1629.778337080157
12363 -1629.57943622678
12364 -1629.010691186649
12365 -1628.624773564853
12366 -1627.967131057323
12367 -1627.559155919811
12368 -1626.840291670409
12369 -1626.309640086344
12370 -1625.53591890514
12371 -1624.964341230647
12372 -1624.144693724239
12373 -1623.514444160575
12374 -1622.684036145458
12375 -1622.057226739265
12376 -1621.216777717116
12377 -1620.582292621088
12378 -1619.760138257224
12379 -1619.135536482527
12380 -1618.322628588093
12381 -1618.019427947755
12382 -1616.980578335668
12383 -1616.732792146062
12384 -1615.785076094279
12385 -1615.650458198734
12386 -1614.762861104396
12387 -1614.718976604686
12388 -1614.009596262802
12389 -1614.014375685855
12390 -1613.392687968968
12391 -1613.462971468397
12392 -1612.926116587628
12393 -1613.091479272343
12394 -1612.586405451731
12395 -1612.817137279146
12396 -1612.424620750807
12397 -1612.6686731836
12398 -1612.251914449965
12399 -1612.488542412912
12400 -1612.169277799039
12401 -1612.416835777964
12402 -1612.103911717658
12403 -1612.369780701159
12404 -1612.048788082838
12405 -1612.318178715273
12406 -1612.058279629651
12407 -1612.338300297882
12408 -1612.046789200481
12409 -1612.334403549387
12410 -1612.102566386435
12411 -1612.3859618322
12412 -1612.211262399532
12413 -1612.541196027897
12414 -1612.410303841524
12415 -1612.792515464645
12416 -1612.746824176549
12417 -1613.216003132123
12418 -1613.295089347246
12419 -1613.793064959622
12420 -1613.94864239383
12421 -1614.525236596716
12422 -1614.803460887508
12423 -1615.656500178491
12424 -1615.85240605449
12425 -1616.875625219226
12426 -1617.406183263392
12427 -1618.432156336673
12428 -1618.988743965762
12429 -1619.826582411678
12430 -1620.5038237001
12431 -1621.714226665848
12432 -1622.337336550983
12433 -1623.252456955961
12434 -1623.931345857688
12435 -1625.076780959856
12436 -1625.365071230438
12437 -1626.452538198059
12438 -1626.922536585859
12439 -1627.832977290728
12440 -1628.08732604738
12441 -1628.788287528011
12442 -1628.794963130403
12443 -1629.274455461063
12444 -1629.021778549922
12445 -1629.258865160914
12446 -1628.770343938207
12447 -1628.686387592703
12448 -1627.884044255478
12449 -1627.531211203095
12450 -1626.518742519583
12451 -1625.9450414688
12452 -1624.721017790155
12453 -1623.929859990324
12454 -1622.454907259803
12455 -1621.522656084355
12456 -1619.956849625126
12457 -1618.93234977223
12458 -1617.391872422126
12459 -1616.343069196518
12460 -1614.764628775081
12461 -1613.809236399675
12462 -1612.350687158561
12463 -1611.469909701051
12464 -1610.163333692251
12465 -1609.451964237685
12466 -1608.393777286416
12467 -1607.975021397849
12468 -1607.207310785497
12469 -1607.082076299671
12470 -1606.652318400955
12471 -1606.873658150007
12472 -1606.822247852133
12473 -1607.503643732576
12474 -1607.833938726048
12475 -1608.831240574097
12476 -1609.459592521936
12477 -1610.759085306551
12478 -1611.660421611594
12479 -1613.257724087171
12480 -1614.368581078887
12481 -1616.148876019808
12482 -1617.390250731023
12483 -1619.315319834255
12484 -1620.693402600526
12485 -1622.645747686049
12486 -1623.959624074829
12487 -1625.924002355315
12488 -1627.175020457785
12489 -1628.979310282991
12490 -1630.054103243176
12491 -1631.68798698229
12492 -1632.561322898704
12493 -1633.984955363534
12494 -1634.611105679977
12495 -1635.720466405281
12496 -1636.083161068085
12497 -1636.906935558595
12498 -1636.959330191296
12499 -1637.440059609606
12500 -1637.220000633476
12501 -1637.441104660704
12502 -1636.899938926048
12503 -1636.839037691544
12504 -1636.076782403891
12505 -1635.75847897257
12506 -1634.788413994748
