"y-rfile"
"Iteration" "y"
("Iteration" "y")
7590 9100.433377822401
7591 9091.18716682947
7592 9098.603655799549
7593 9127.5697589136
7594 9166.0314557813
7595 9211.387611373397
7596 9244.009656257082
7597 9287.976480975014
7598 9333.934007102253
7599 9371.301664279035
7600 9407.495556782196
7601 9442.473173988816
7602 9480.105812661155
7603 9522.078862775514
7604 9549.444643727717
7605 9572.062939409665
7606 9584.958141845442
7607 9595.303039925479
7608 9603.256118028548
7609 9610.791036775865
7610 9617.681652456513
7611 9626.305144182834
7612 9637.277250836389
7613 9649.16807294357
7614 9664.19531085704
7615 9682.500128484067
7616 9699.029501935236
7617 9718.683590428644
7618 9740.608026181118
7619 9764.532541159511
7620 9790.112599285152
7621 9816.341485446465
7622 9836.270504833219
7623 9863.274011556357
7624 9883.798602313485
7625 9904.194923301478
7626 9924.074150243807
7627 9943.129435622208
7628 9961.735736741755
7629 9973.415305143131
7630 9989.639907961022
7631 9999.693644916217
7632 10009.24773593645
7633 10022.08660163865
7634 10029.58722147998
7635 10039.21271527146
7636 10044.35984872205
7637 10050.66557269118
7638 10053.66896556248
7639 10055.85071902788
7640 10057.9746798811
7641 10058.59288678937
7642 10058.95920728184
7643 10058.66084513716
7644 10058.56802906543
7645 10058.24877162538
7646 10058.10252210685
7647 10058.20713008643
7648 10058.75556289492
7649 10059.47160784046
7650 10061.11899624882
7651 10063.04240588007
7652 10065.69231878134
7653 10068.71480836355
7654 10072.66790557286
7655 10077.14619819462
7656 10082.48504379899
7657 10091.12486357757
7658 10097.27263893211
7659 10106.96296330968
7660 10113.94269275116
7661 10124.63922329026
7662 10132.10361093851
7663 10143.20232684813
7664 10150.98979806634
7665 10162.9176611111
7666 10170.82899462669
7667 10182.86162182279
7668 10190.72845841505
7669 10202.72833416924
7670 10210.56052603733
7671 10222.32832163899
7672 10229.95435399697
7673 10240.80110217846
7674 10247.77305554958
7675 10254.5861433682
7676 10264.11682912431
7677 10270.10751470438
7678 10275.55818914855
7679 10282.88897743253
7680 10287.19392918118
7681 10290.81752551703
7682 10293.8424842015
7683 10297.64274809021
7684 10299.46144871678
7685 10300.49177032339
7686 10300.83168920144
7687 10300.56235279238
7688 10299.56677988485
7689 10297.88048039323
7690 10295.42634350921
7691 10292.29010102274
7692 10288.3681271282
7693 10283.85936761343
7694 10278.77076488445
7695 10272.95397418351
7696 10266.82393075589
7697 10259.97589819526
7698 10252.72257641154
7699 10245.15158288909
7700 10236.95497937083
7701 10228.48125804718
7702 10219.94589116581
7703 10211.11649276896
7704 10202.36697991676
7705 10193.49413268638
7706 10180.68709851007
7707 10172.43966548091
7708 10164.45371913999
7709 10153.17760495944
7710 10146.19973294594
7711 10136.62151978176
7712 10130.92714381935
7713 10123.24153547195
7714 10118.93482944191
7715 10113.58106273339
7716 10110.79882471119
7717 10107.87449760012
7718 10107.01219866495
7719 10106.8353278372
7720 10107.86479065743
7721 10109.36119308177
7722 10112.47582269987
7723 10115.41238771022
7724 10119.32248226695
7725 10126.0043250681
7726 10131.03132957531
7727 10139.37100867904
7728 10145.44748864279
7729 10155.28336146566
7730 10162.26639727685
7731 10172.69957494121
7732 10179.79904185131
7733 10190.90203524691
7734 10201.74660619902
7735 10212.59737418914
7736 10222.92343078526
7737 10232.8362472317
7738 10242.29034171708
7739 10251.00514391774
7740 10258.75131499291
7741 10266.12197966266
7742 10272.10428955786
7743 10276.88926254225
7744 10280.76396936098
7745 10283.25764175723
7746 10284.72849478228
7747 10285.1717040327
7748 10284.67802183219
7749 10282.90345071283
7750 10280.1192466288
7751 10277.44541304296
7752 10272.53852176458
7753 10266.65618221538
7754 10262.26842265297
7755 10254.71156136938
7756 10246.73400526157
7757 10240.72328188919
7758 10231.25681395463
7759 10221.38495667349
7760 10211.33521628599
7761 10200.80243177621
7762 10190.13822538024
7763 10179.4259352532
7764 10168.72619295323
7765 10157.95208113158
7766 10147.27358215904
7767 10137.10702852761
7768 10127.29905363319
7769 10117.92763018562
7770 10109.39654688992
7771 10101.40897296058
7772 10093.88256966067
7773 10086.9737728275
7774 10080.96404221493
7775 10075.84581642172
7776 10071.75988794128
7777 10068.50754421703
7778 10066.24786662754
7779 10064.82866631868
7780 10064.39990205204
7781 10064.93754246116
7782 10066.64887596205
7783 10068.94326457725
7784 10072.48159466023
7785 10076.85668596744
7786 10081.66527491378
7787 10087.58578386008
7788 10094.05424559416
7789 10100.94825389466
7790 10108.84222536222
7791 10117.0290608753
7792 10125.58834809042
7793 10134.44360872161
7794 10143.8482420926
7795 10153.02389945927
7796 10161.4966682943
7797 10170.05541225343
7798 10178.54089900613
7799 10186.5982595325
7800 10194.02582176334
7801 10200.99549535596
7802 10207.47171585582
7803 10212.28045515511
7804 10216.34177076104
7805 10219.4275653252
7806 10221.49886474467
7807 10222.36907194576
7808 10222.06473314189
7809 10220.61597265431
7810 10217.78256305333
7811 10213.85933126959
7812 10208.58342980229
7813 10202.54718480809
7814 10195.20515459015
7815 10186.53490189323
7816 10176.89198123588
7817 10166.32948436224
7818 10154.61754193099
7819 10141.98030353209
7820 10128.31435506102
7821 10113.8101908251
7822 10099.01266076164
7823 10084.0316583657
7824 10068.40414301187
7825 10052.40477333641
7826 10036.57409446586
7827 10020.36207484357
7828 10004.4367677517
7829 9988.485773758302
7830 9973.086506173973
7831 9958.288069051579
7832 9943.922605745214
7833 9930.377289093718
7834 9917.19673943377
7835 9904.965131439178
7836 9893.805364158377
7837 9883.710331524606
7838 9874.727342098708
7839 9867.073751824784
7840 9860.442630487734
7841 9854.817279168477
7842 9850.22440661463
7843 9846.443341656026
7844 9844.613258797017
7845 9844.227869103986
7846 9844.84934987104
7847 9846.254112139024
7848 9849.171816036875
7849 9853.140709043171
7850 9858.331162241209
7851 9864.415396432038
7852 9871.027391032445
7853 9878.325919581412
7854 9886.623598814929
7855 9895.677047960355
7856 9904.585168323491
7857 9914.763448445949
7858 9924.656871854892
7859 9934.98736991033
7860 9945.488526733625
7861 9955.844387359784
7862 9965.946438697074
7863 9975.027987786649
7864 9984.607836326784
7865 9993.27707618454
7866 10001.43382637857
7867 10008.4887359361
7868 10014.47565086983
7869 10019.82860608018
7870 10024.11531401822
7871 10027.08644833067
7872 10028.5283398459
7873 10028.98965996366
7874 10028.00106424241
7875 10025.56590425246
7876 10021.5873327055
7877 10016.39704459469
7878 10009.6042101086
7879 10001.39348760377
7880 9991.783661216832
7881 9980.589161755912
7882 9967.986736831162
7883 9954.127302603179
7884 9938.750953239896
7885 9922.073569677244
7886 9904.136441531056
7887 9885.025045507798
7888 9865.598444418374
7889 9845.132593905973
7890 9823.534774722904
7891 9801.463119022341
7892 9779.352003508382
7893 9757.105271779901
7894 9734.101284645807
7895 9704.269769360651
7896 9683.035654625597
7897 9661.435496947553
7898 9633.83916768077
7899 9614.775693837797
7900 9590.815136788255
7901 9574.337777656092
7902 9553.654265068601
7903 9540.234015044047
7904 9528.049035795739
7905 9513.608787421435
7906 9504.388588941307
7907 9496.865626126864
7908 9490.936924927468
7909 9486.241291588458
7910 9482.59218084329
7911 9480.746023932426
7912 9480.407167442479
7913 9481.520067023954
7914 9484.69271871118
7915 9488.990393842398
7916 9494.506954907964
7917 9501.708548744373
7918 9510.582599973775
7919 9520.579242836598
7920 9531.332605769136
7921 9544.175945718065
7922 9557.569211630265
7923 9573.074048979917
7924 9588.906953237045
7925 9605.085389652493
7926 9621.282457739822
7927 9638.867852189635
7928 9657.125401760482
7929 9676.347204832064
7930 9695.224935344362
7931 9713.827407088147
7932 9732.523761781784
7933 9756.140241476523
7934 9773.018600456113
7935 9789.681768115217
7936 9804.897788665077
7937 9823.874373673012
7938 9836.749429099442
7939 9848.065881195836
7940 9858.147376015202
7941 9866.360852686696
7942 9874.810925645843
7943 9879.276994373251
7944 9881.833921556759
7945 9881.834141400454
7946 9879.606434567897
7947 9873.795219144229
7948 9867.37420191304
7949 9858.237863717439
7950 9847.061806936299
7951 9833.832027723998
7952 9818.624852289329
7953 9801.018557498317
7954 9781.497343247049
7955 9760.805164458057
7956 9738.602275047098
7957 9714.761048638189
7958 9690.232058015377
7959 9664.950438090018
7960 9638.610183711793
7961 9611.809832520954
7962 9585.528646063909
7963 9550.156878220065
7964 9524.414687110968
7965 9499.591473991148
7966 9475.695990960799
7967 9445.836514644354
7968 9424.750074754818
7969 9404.979265465994
7970 9381.038538000277
7971 9365.392509952555
7972 9351.516529656781
7973 9339.625671661533
7974 9326.192155435712
7975 9318.374558786836
7976 9312.382507917342
7977 9308.76460877731
7978 9306.254124520534
7979 9305.831053365602
7980 9307.256895167122
7981 9310.672905708185
7982 9315.927690276028
7983 9323.225461701333
7984 9331.521633257636
7985 9341.472938980389
7986 9352.382780578098
7987 9364.579246540003
7988 9378.194431110842
7989 9392.360983466249
7990 9407.814071817062
7991 9423.931423674441
7992 9440.838997523511
7993 9458.574849191617
7994 9476.873394826041
7995 9495.652085497255
7996 9514.738119044909
7997 9533.39149776273
7998 9552.452306765132
7999 9571.468146870458
8000 9590.295570104377
8001 9608.154129817984
8002 9625.489660238671
8003 9641.786856593964
8004 9657.877009400987
8005 9673.853289639364
8006 9688.242350190687
8007 9701.797837122807
8008 9713.632228716786
8009 9724.01104720096
8010 9732.312404145649
8011 9739.741048048314
8012 9745.317017333331
8013 9749.67204335606
8014 9751.736742760419
8015 9752.375209167787
8016 9751.110993455692
8017 9747.992765170824
8018 9743.358510331956
8019 9736.547846280811
8020 9728.366163712008
8021 9718.036101854206
8022 9706.538703084811
8023 9693.089207623971
8024 9678.249720709557
8025 9661.629980527981
8026 9643.56883292794
8027 9625.372288541597
8028 9605.548890350045
8029 9584.806851208876
8030 9563.727669376987
8031 9542.884225285936
8032 9521.710358151584
8033 9501.381530526112
8034 9481.702687490337
8035 9461.93336293275
8036 9442.368821146587
8037 9423.923381677736
8038 9406.197498819956
8039 9390.222088017788
8040 9374.587990787701
8041 9360.826660735767
8042 9348.191528643367
8043 9336.713271666262
8044 9327.335974634983
8045 9318.966822922541
8046 9312.918083263623
8047 9308.426150361651
8048 9305.541197079323
8049 9304.696237132393
8050 9305.322880623942
8051 9307.840136448693
8052 9312.005450971021
8053 9317.802135558817
8054 9325.350811253918
8055 9334.097949196695
8056 9344.837143712311
8057 9356.114132762727
8058 9368.521279620176
8059 9382.455124367396
8060 9397.045129437467
8061 9413.343172352606
8062 9429.992005437067
8063 9447.381899609116
8064 9464.997627466193
8065 9483.016440080029
8066 9501.803255226338
8067 9520.330882052072
8068 9538.378116213049
8069 9555.90493491404
8070 9573.783698187161
8071 9590.674262032449
8072 9607.48953955425
8073 9623.857221699465
8074 9638.771025962773
8075 9653.097974297119
8076 9666.507705884007
8077 9678.619831231355
8078 9689.24239093054
8079 9699.365461044417
8080 9707.812330229937
8081 9714.94301532283
8082 9720.706422498819
8083 9724.578029999575
8084 9727.003110190682
8085 9728.146976070557
8086 9727.057435350076
8087 9725.063914799643
8088 9721.279212176056
8089 9716.001679452776
8090 9709.00600260035
8091 9700.541609845599
8092 9691.141456338835
8093 9679.599188414308
8094 9668.210874955579
8095 9654.783529788921
8096 9639.930122634094
8097 9624.738032729812
8098 9608.842736853903
8099 9591.899972184787
8100 9574.590245370262
8101 9558.342954252226
8102 9541.492152538936
8103 9523.794520304025
8104 9506.685961860809
8105 9489.325177190865
8106 9472.889478499797
8107 9456.465839059241
8108 9441.086055001853
8109 9426.764754809945
8110 9413.205288633546
8111 9400.745226414931
8112 9388.964484501417
8113 9378.824131719775
8114 9369.539717332809
8115 9362.034447818594
8116 9355.659347872434
8117 9350.889274459634
8118 9348.04070573169
8119 9346.659829056431
8120 9346.575046249822
8121 9348.053715356829
8122 9351.265565466938
8123 9355.861839069126
8124 9361.325139935578
8125 9368.299504053628
8126 9376.517574158353
8127 9386.468406571574
8128 9397.676643574881
8129 9410.020940434488
8130 9423.051027051102
8131 9437.059443166949
8132 9451.729137328794
8133 9466.933256330072
8134 9482.587116972107
8135 9498.67131195095
8136 9515.523293716846
8137 9532.73345651628
8138 9549.660014731056
8139 9566.316539325757
8140 9581.783977315972
8141 9596.724700107374
8142 9610.906219378568
8143 9624.112776468075
8144 9636.908912853716
8145 9648.298626735597
8146 9658.226514349108
8147 9667.434790798519
8148 9674.994796647297
8149 9681.828424466528
8150 9687.19485308826
8151 9690.744028813831
8152 9692.815477686358
8153 9693.361542694081
8154 9692.320339586511
8155 9689.320283657476
8156 9684.792552182202
8157 9678.739382427299
8158 9670.970723831562
8159 9661.585022543291
8160 9650.687660426989
8161 9638.725381515076
8162 9624.869342530017
8163 9610.220308325794
8164 9594.783761547887
8165 9578.379073983418
8166 9561.839150104919
8167 9544.370879227901
8168 9525.674665763447
8169 9506.900785940623
8170 9488.477382128818
8171 9470.311324219128
8172 9452.94402081151
8173 9436.094680681075
8174 9419.970033273816
8175 9404.165431255164
8176 9388.903573551839
8177 9375.26206533752
8178 9362.478333903973
8179 9351.368830165729
8180 9341.461762933082
8181 9333.276851181849
8182 9326.254954325028
8183 9320.967151918401
8184 9317.149021912554
8185 9314.954355925423
8186 9314.466281509607
8187 9315.355965027857
8188 9317.675300909908
8189 9321.513226390472
8190 9326.789918163044
8191 9333.369349691537
8192 9341.031918003513
8193 9350.304643832236
8194 9360.394228333511
8195 9371.753724991333
8196 9384.242259926863
8197 9397.600344902592
8198 9411.272555345311
8199 9425.881518566119
8200 9440.579596221032
8201 9456.024604192567
8202 9470.750626668847
8203 9485.996036265758
8204 9500.857813738034
8205 9515.529264101468
8206 9529.713600675341
8207 9543.808236329447
8208 9556.63512237201
8209 9569.111304585202
8210 9581.021841944545
8211 9591.993975231493
8212 9602.12799136892
8213 9611.22003853012
8214 9619.307501458088
8215 9625.534503156752
8216 9630.616296277012
8217 9634.628688855546
8218 9636.998033814414
8219 9638.313810372649
8220 9637.976111783981
8221 9636.07949560057
8222 9632.802100429915
8223 9628.357832854699
8224 9622.298278043818
8225 9614.649518349024
8226 9605.725973528219
8227 9595.334137907936
8228 9583.73319330292
8229 9570.988566892927
8230 9557.381014684284
8231 9542.130163961179
8232 9526.695441877062
8233 9510.572033668148
8234 9493.855728718258
8235 9477.149851048649
8236 9460.460466023424
8237 9443.724101414007
8238 9427.209574759625
8239 9411.176414590262
8240 9395.567968683798
8241 9380.787797040864
8242 9366.47170006637
8243 9353.289279254323
8244 9341.498748398337
8245 9330.701249623329
8246 9320.955493307934
8247 9312.583116536714
8248 9305.688022983151
8249 9300.357568727766
8250 9296.26390043285
8251 9293.545089341576
8252 9292.515082059943
8253 9292.507790541813
8254 9294.34602977706
8255 9297.254369455906
8256 9301.48913737667
8257 9307.148423203593
8258 9314.106876985037
8259 9322.573393059674
8260 9331.743060844099
8261 9341.054406534016
8262 9348.136310906915
8263 9359.818683567144
8264 9371.518353080348
8265 9383.903769132761
8266 9396.864909678505
8267 9409.623713781844
8268 9422.838688110165
8269 9436.138946265015
8270 9449.026062230252
8271 9461.565130813909
8272 9473.61019249797
8273 9485.172184414338
8274 9496.641599340974
8275 9506.643278971749
8276 9515.944884487406
8277 9524.425742701602
8278 9532.340702220357
8279 9539.14325236052
8280 9545.570077541537
8281 9550.463487380077
8282 9554.526722254768
8283 9557.614839281245
8284 9559.578471959261
8285 9560.590947488574
8286 9560.369843073797
8287 9559.413746507567
8288 9557.450824836613
8289 9554.604094126276
8290 9550.25541981117
8291 9545.550962621342
8292 9539.927690957191
8293 9533.279560383364
8294 9525.153629222199
8295 9516.458277726133
8296 9506.669922064333
8297 9496.858790648037
8298 9486.592540969878
8299 9475.195633935971
8300 9463.651715279024
8301 9451.901945396705
8302 9439.758793415347
8303 9427.336641230922
8304 9415.365201329121
8305 9403.319999072062
8306 9391.641990086839
8307 9380.481078018272
8308 9369.956603187784
8309 9359.926496245907
8310 9350.580869205845
8311 9342.025621464692
8312 9334.452980300681
8313 9327.576221777468
8314 9322.002459409299
8315 9317.424207781531
8316 9313.666763558023
8317 9311.209146534717
8318 9309.657636644764
8319 9309.175635282687
8320 9309.616186488447
8321 9311.094822539268
8322 9313.948189852394
8323 9316.45780958549
8324 9321.07769332074
8325 9326.562247224432
8326 9330.550269571248
8327 9337.612833673546
8328 9342.776315508852
8329 9350.922363920639
8330 9356.77025339341
8331 9366.06307731674
8332 9372.484915773457
8333 9382.377783123247
8334 9389.322198941272
8335 9399.581505340233
8336 9410.204706019053
8337 9416.90890797978
8338 9427.135016520577
8339 9436.838033460159
8340 9446.104452216394
8341 9454.705303835859
8342 9460.154029162446
8343 9467.699132014848
8344 9474.661145573133
8345 9481.479365964398
8346 9485.486761089456
8347 9490.380851909042
8348 9494.866726935074
8349 9497.187466067367
8350 9500.222630263668
8351 9501.497835304996
8352 9502.594442581829
8353 9503.026299719531
8354 9502.819346972377
8355 9501.550635169619
8356 9500.114063664334
8357 9497.32070869271
8358 9493.806737545887
8359 9490.802855672353
8360 9485.551124895337
8361 9479.779416788058
8362 9473.413379453486
8363 9466.268550733272
8364 9458.310767615056
8365 9450.491468547401
8366 9441.584784754899
8367 9432.800995463804
8368 9423.831320759016
8369 9414.215635634586
8370 9404.944114418731
8371 9395.936002622604
8372 9386.40689517289
8373 9377.636648304475
8374 9368.712618434009
8375 9360.142968256403
8376 9351.601086196315
8377 9346.517373223209
8378 9338.827028956961
8379 9331.826086943569
8380 9325.641340172077
8381 9321.968419819621
8382 9316.852679123322
8383 9312.772193930276
8384 9309.607238708122
8385 9308.020406376063
8386 9306.268794431067
8387 9305.575888440158
8388 9305.644350752071
8389 9306.807128322451
8390 9309.174888023183
8391 9311.3289863026
8392 9315.590879632535
8393 9320.111492569531
8394 9323.810355831993
8395 9329.80553690813
8396 9334.47829509552
8397 9341.799516997109
8398 9347.548109451278
8399 9356.008864053652
8400 9362.391017125157
8401 9371.542196205364
8402 9380.466442445248
8403 9386.638270751602
8404 9396.407457443891
8405 9405.702963296337
8406 9412.087214406478
8407 9421.244874940641
8408 9429.803042453517
8409 9437.635705435314
8410 9442.593323583596
8411 9450.092272209193
8412 9456.550531262132
8413 9460.20432796394
8414 9465.164347322985
8415 9469.761120118281
8416 9471.992641370874
8417 9474.699625572421
8418 9476.155475701316
8419 9477.536050582432
8420 9477.697071255639
8421 9477.313657092311
8422 9476.721318931048
8423 9475.015491933424
8424 9473.415586633168
8425 9470.025663328135
8426 9467.333279497712
8427 9462.498210859221
8428 9458.953153261586
8429 9453.340787403875
8430 9449.116439173355
8431 9442.305685663028
8432 9435.068667479529
8433 9428.029711456678
8434 9420.363925577196
8435 9415.192753316869
8436 9407.175124642494
8437 9399.568842622964
8438 9391.470048853336
8439 9383.849583780124
8440 9376.568215263687
8441 9369.42456089788
8442 9364.916858874938
8443 9358.582499332206
8444 9352.767940155369
8445 9349.108245045805
8446 9344.479589049186
8447 9340.15922202673
8448 9337.84814092932
8449 9334.89080276013
8450 9333.165673738727
8451 9331.348356262706
8452 9330.747544002114
8453 9330.828867026723
8454 9331.223370795857
8455 9332.534216510416
8456 9333.719306483748
8457 9336.11009329733
8458 9338.323258366245
8459 9342.018846131634
8460 9344.821462497825
8461 9349.868078532105
8462 9353.437908206708
8463 9359.232678448445
8464 9363.279784121441
8465 9369.545114697601
8466 9375.809624965814
8467 9380.43846100002
8468 9387.346036774206
8469 9393.640703945941
8470 9398.016398235128
8471 9404.30644260824
8472 9410.451071612901
8473 9414.366705798111
8474 9420.18213718761
8475 9423.480170447554
8476 9428.204084957622
8477 9431.033707390819
8478 9434.676200658583
8479 9436.890495690912
8480 9439.761902181903
8481 9441.326434984496
8482 9443.316567877666
8483 9444.11426930081
8484 9444.14806384051
8485 9443.923232313826
8486 9443.209247204359
8487 9442.430505380555
8488 9440.539164491247
8489 9438.967863781345
8490 9436.400706989843
8491 9434.207249637264
8492 9430.610633128681
8493 9427.97916371037
8494 9423.833287457757
8495 9420.886591079583
8496 9416.099587738299
8497 9411.018791862998
8498 9407.442209368472
8499 9402.06244720599
8500 9396.648813800037
8501 9391.124848774874
8502 9385.565312155544
8503 9379.947605413945
8504 9376.175848238214
8505 9371.174590607015
8506 9366.205029734116
8507 9361.586113295316
8508 9358.619457353345
8509 9354.66589601651
8510 9351.331493094893
8511 9349.48197899243
8512 9346.818104286931
8513 9344.736091114
8514 9343.797722004047
8515 9342.866235057654
8516 9342.523745620649
8517 9342.598155213738
8518 9343.655146979847
8519 9344.719133826486
8520 9347.047292877793
8521 9349.055424030837
8522 9350.772276872238
8523 9354.112724183771
8524 9356.565593316072
8525 9360.720370646064
8526 9364.887751865854
8527 9367.579218516306
8528 9372.284594186669
8529 9376.910341980745
8530 9379.776190319362
8531 9384.32097319284
8532 9388.606958334098
8533 9392.718514689715
8534 9396.484988712415
8535 9399.820584745994
8536 9402.64382060406
8537 9405.161546495827
8538 9407.16033499211
8539 9408.578968572259
8540 9409.583021266346
8541 9409.937189448159
8542 9409.917992084085
8543 9409.202378898859
8544 9408.205501004224
8545 9406.050513298387
8546 9403.45012897571
8547 9401.266356802171
8548 9397.329778660989
8549 9393.420380527725
8550 9390.474025464711
8551 9385.871139895416
8552 9382.53275044878
8553 9377.214828796356
8554 9373.655068840311
8555 9368.156967597766
8556 9364.482261182377
8557 9358.791659294959
8558 9353.597222130556
8559 9350.294438956817
8560 9345.412664518015
8561 9340.850175334739
8562 9336.977419391544
8563 9333.44932837216
8564 9330.285235022278
8565 9327.342443775457
8566 9325.130511074234
8567 9323.359149033897
8568 9322.296451895872
8569 9321.412281800353
8570 9321.077619840215
8571 9321.07123825194
8572 9321.906338746407
8573 9323.02015336799
8574 9323.907018468632
8575 9325.040351991382
8576 9326.924621377051
8577 9328.579323002863
8578 9331.43530102496
8579 9334.247566714786
8580 9336.291879954249
8581 9339.364198750423
8582 9341.68199031565
8583 9345.328685677594
8584 9347.877163721911
8585 9351.304700074477
8586 9353.472543244088
8587 9356.870302823741
8588 9360.148359026691
8589 9362.14384314145
8590 9364.917589549057
8591 9367.355627518524
8592 9369.996174749178
8593 9372.259490928504
8594 9374.060591606281
8595 9375.75282327378
8596 9377.200634351526
8597 9378.848505939395
8598 9379.854216690506
8599 9381.037989710656
8600 9381.977363386342
8601 9382.755224043301
8602 9383.379705352956
8603 9383.505581650761
8604 9383.739209171625
8605 9383.876064472048
8606 9384.053079603898
8607 9383.72673092357
8608 9383.755859866089
8609 9383.699412537511
8610 9383.905151818957
8611 9383.731121130117
8612 9383.511606536302
8613 9383.306565766721
8614 9382.807324326463
8615 9381.756355988857
8616 9381.113410236643
8617 9380.351330458127
8618 9379.172864034976
8619 9378.487029949703
8620 9377.65173907863
8621 9375.954227979737
8622 9373.917134227882
8623 9371.816672528834
8624 9369.614760261007
8625 9366.694727563228
8626 9363.518485100276
8627 9360.070890316349
8628 9357.440671013177
8629 9353.371118759314
8630 9349.270310557293
8631 9345.077201582293
8632 9341.961634081632
8633 9336.53346326023
8634 9331.65210524408
8635 9326.465450392634
8636 9322.977107658931
8637 9317.577523170758
8638 9312.626079614098
8639 9308.162224584856
8640 9303.698205825101
8641 9299.69521183775
8642 9296.009845780751
8643 9293.456649258562
8644 9291.078365163317
8645 9289.401388877655
8646 9288.789538341931
8647 9288.957340440804
8648 9289.834202944259
8649 9291.768800383585
8650 9293.967782608544
8651 9297.221736462729
8652 9301.089939145066
8653 9305.30218211311
8654 9310.675283639051
8655 9316.599827716185
8656 9323.039002616262
8657 9330.578487180897
8658 9338.449015925476
8659 9346.637546850681
8660 9355.146107430057
8661 9364.136663957044
8662 9373.641651744401
8663 9382.678185207556
8664 9392.443639183613
8665 9401.2957524183
8666 9409.406320997323
8667 9417.910752758437
8668 9425.705820694753
8669 9432.552212497119
8670 9438.809558432287
8671 9444.009560542763
8672 9448.221163890836
8673 9451.817012856549
8674 9454.328322433954
8675 9455.595907929743
8676 9455.526817598868
8677 9454.636777375743
8678 9452.073524260528
8679 9448.446545659017
8680 9443.330453061517
8681 9437.470500414945
8682 9429.760293712627
8683 9421.426361008995
8684 9413.169658678586
8685 9402.872059381734
8686 9391.83373742101
8687 9380.879154073633
8688 9369.745270353909
8689 9357.763151042453
8690 9345.685123897036
8691 9333.352593680045
8692 9321.279552907527
8693 9309.361318115729
8694 9297.911887443594
8695 9287.172803858331
8696 9276.975230114384
8697 9267.630155626664
8698 9258.697418014306
8699 9251.227071783538
8700 9245.009706151841
8701 9240.052358270768
8702 9236.645103423294
8703 9234.609596939574
8704 9233.824278228994
8705 9234.2414673478
8706 9236.517816529496
8707 9240.078462182473
8708 9244.943496146756
8709 9250.874609098144
8710 9257.987356501317
8711 9266.074294961529
8712 9275.175554929774
8713 9285.325454206977
8714 9296.497236933634
8715 9307.621881192161
8716 9319.282778233033
8717 9330.896505469596
8718 9343.32742174508
8719 9355.163692574773
8720 9366.797557244223
8721 9377.93910493415
8722 9388.709726208654
8723 9398.525062557286
8724 9407.620145292718
8725 9415.880427347682
8726 9423.080976074578
8727 9429.076227433958
8728 9434.043171647123
8729 9437.696816827993
8730 9440.461272737948
8731 9441.916685578148
8732 9441.905811927789
8733 9440.653091557278
8734 9438.1658670704
8735 9434.642883115344
8736 9429.87329868927
8737 9424.332299815616
8738 9419.767615789517
8739 9412.430942386194
8740 9404.34301336679
8741 9398.390811858522
8742 9388.970576991902
8743 9382.341796166336
8744 9371.889590981076
8745 9364.74255294146
8746 9353.244722252775
8747 9342.498399649876
8748 9331.988560158603
8749 9321.868952596868
8750 9311.84563884777
8751 9302.687122455569
8752 9293.893736741275
8753 9286.306160816514
8754 9279.010319729285
8755 9272.659029636856
8756 9267.221274313208
8757 9262.635024127227
8758 9258.960818497897
8759 9256.31462732287
8760 9254.553355761573
8761 9253.650368706902
8762 9253.611372484933
8763 9254.535315413816
8764 9255.580961807384
8765 9258.185309017354
8766 9260.306826815968
8767 9264.388767960354
8768 9267.430852291342
8769 9272.88047735263
8770 9276.967483330225
8771 9283.359404705556
8772 9288.004188673478
8773 9295.371376026056
8774 9300.374509442245
8775 9308.207361920644
8776 9316.071200337874
8777 9321.562087711247
8778 9329.667287917651
8779 9337.800338498444
8780 9345.611051137628
8781 9353.38059853784
8782 9360.768201836536
8783 9367.902197701149
8784 9374.411051254663
8785 9380.657171444256
8786 9386.453754591063
8787 9391.486633295364
8788 9395.858679923997
8789 9399.694750996896
8790 9403.153771395064
8791 9405.915076015681
8792 9407.832567399459
8793 9408.859148825122
8794 9409.899768870948
8795 9410.150806105445
8796 9409.819200696269
8797 9409.274323344207
8798 9408.119043391212
8799 9406.284814347793
8800 9404.663075834667
8801 9402.040439650113
8802 9399.936060751656
8803 9396.322269966164
8804 9393.760670621505
8805 9389.336853320765
8806 9386.268628638622
8807 9381.454975755645
8808 9378.00629284971
8809 9372.612454942217
8810 9369.177311868889
8811 9363.970026033528
8812 9360.425863351848
8813 9355.026921142271
8814 9351.474017366078
8815 9346.337283204928
8816 9343.066352666279
8817 9338.172458339897
8818 9333.476630567338
8819 9330.38941656687
8820 9326.239565207476
8821 9323.779331231488
8822 9320.101106212098
8823 9317.847070500984
8824 9315.025784704629
8825 9313.40437631223
8826 9311.34283105589
8827 9310.405430560213
8828 9309.327446857158
8829 9308.975317841401
8830 9308.774557213064
8831 9308.79959314492
8832 9309.427594893084
8833 9310.245547197959
8834 9311.92436407509
8835 9313.312406015199
8836 9316.206307545357
8837 9318.211470325219
8838 9321.277290085229
8839 9323.735582981766
8840 9327.544375202544
8841 9330.377590681384
8842 9334.629426461841
8843 9337.772521108946
8844 9342.665515066006
8845 9345.950551423191
8846 9350.555389329556
8847 9353.840124775674
8848 9358.770410703339
8849 9361.767029376057
8850 9366.158416086158
8851 9370.12656693295
8852 9372.835109882593
8853 9376.586505902458
8854 9379.826528089177
8855 9381.801282819421
8856 9384.702266277483
8857 9386.963637154809
8858 9388.256732670574
8859 9389.996540131053
8860 9390.863511975705
8861 9391.62343475016
8862 9391.764286851847
8863 9391.587995629507
8864 9390.737840132702
8865 9389.899143933906
8866 9388.168950940248
8867 9386.913556661657
8868 9384.262661128154
8869 9382.471540063141
8870 9379.078766459286
8871 9376.802569995796
8872 9372.980538460202
8873 9370.269672362325
8874 9365.806155268787
8875 9362.613017629688
8876 9357.304970846044
8877 9353.960540175658
8878 9348.495841367367
8879 9344.783516908912
8880 9339.20234186915
8881 9335.37003035405
8882 9329.622034830929
8883 9323.927858986524
8884 9320.072750586709
8885 9314.505673241512
8886 9309.368115635174
8887 9305.726542606235
8888 9300.608479799357
8889 9296.062858375142
8890 9292.880300223555
8891 9288.682428551019
8892 9285.076233178757
8893 9282.861422715818
8894 9280.150418140518
8895 9278.11970007182
8896 9277.40110599057
8897 9276.35564079486
8898 9275.933829082358
8899 9276.228067152115
8900 9277.456157905306
8901 9279.279065342858
8902 9281.076027410782
8903 9284.452615284708
8904 9288.549873411879
8905 9291.746915104681
8906 9297.368132521433
8907 9303.816817612113
8908 9308.346813680231
8909 9315.524215212639
8910 9323.521509563761
8911 9332.346362803239
8912 9341.082294212954
8913 9350.164534848327
8914 9359.080481579784
8915 9368.205293596649
8916 9377.740407316754
8917 9387.23129037139
8918 9396.629627563363
8919 9405.577255395685
8920 9414.226093238343
8921 9422.344050934824
8922 9430.075360911767
8923 9437.029472911836
8924 9443.355112073466
8925 9449.361150808547
8926 9454.192828588953
8927 9458.282177823858
8928 9461.633555912565
8929 9463.877569820115
8930 9464.914979844127
8931 9465.341667611743
8932 9464.376650365708
8933 9462.395498215381
8934 9459.130429968836
8935 9454.878373461821
8936 9449.886143884742
8937 9443.729784357238
8938 9436.844818030684
8939 9428.565729905933
8940 9419.852693316972
8941 9410.525733215418
8942 9400.554099267221
8943 9389.983552000544
8944 9379.283641744385
8945 9367.951566715532
8946 9356.900380092744
8947 9345.697720055012
8948 9334.065045327088
8949 9323.344967477289
8950 9312.790949738768
8951 9302.677346057417
8952 9293.619053609027
8953 9285.138019360989
8954 9277.356464658757
8955 9270.452378347052
8956 9264.567945479252
8957 9260.146726415005
8958 9256.65741999364
8959 9254.494640824809
8960 9253.539792792857
8961 9253.866660647636
8962 9255.749877786015
8963 9258.762758229475
8964 9262.86504283055
8965 9268.034701637729
8966 9274.480792294087
8967 9282.136759011535
8968 9290.485927182555
8969 9299.682507946385
8970 9306.436559468037
8971 9317.195930972932
8972 9327.999481606621
8973 9339.464177216141
8974 9350.940164761752
8975 9362.554010936417
8976 9374.418993942887
8977 9385.822173877003
8978 9396.720929457477
8979 9407.298074825127
8980 9416.924368675282
8981 9425.840095289854
8982 9434.062515302805
8983 9441.715668084018
8984 9448.031244899985
8985 9453.40131006893
8986 9457.383166665584
8987 9460.605171920453
8988 9462.445920785221
8989 9463.490514620144
8990 9463.205510499878
8991 9461.483255725629
8992 9458.692116748976
8993 9455.046539011639
8994 9450.146877814668
8995 9446.236882703357
8996 9439.176214121024
8997 9431.769563565533
8998 9426.36170578826
8999 9417.216224762402
9000 9411.007281343722
9001 9400.992102708586
9002 9394.163813451982
9003 9383.736793775379
9004 9372.917926441349
9005 9362.437078148005
9006 9352.010169493906
9007 9341.967422323332
9008 9332.22188861458
9009 9322.806472801183
9010 9313.776479733422
9011 9305.709661180486
9012 9298.339949514329
9013 9291.616226361164
9014 9285.562929378711
9015 9280.194225227067
9016 9275.527467050624
9017 9271.804250083382
9018 9268.961964362159
9019 9267.114649672618
9020 9265.740728861068
9021 9265.262227672567
9022 9265.768269629341
9023 9266.674356676413
9024 9267.555880151249
9025 9269.861839209136
9026 9272.513666145127
9027 9274.86320064231
9028 9278.964698199217
9029 9281.879042231076
9030 9286.547128740609
9031 9290.210263052715
9032 9295.638618390052
9033 9301.562946269418
9034 9305.543889859204
9035 9312.071597977931
9036 9318.582439500058
9037 9323.109465990286
9038 9329.618744151678
9039 9336.32417469659
9040 9342.995461032509
9041 9349.736063081762
9042 9354.01913556719
9043 9360.561400891002
9044 9366.495659759539
9045 9372.378337504357
9046 9377.842573045276
9047 9381.401645954653
9048 9386.625037000573
9049 9391.664710379446
9050 9395.963290147527
9051 9399.996990673117
9052 9402.442430070558
9053 9405.959218126623
9054 9408.648617860435
9055 9411.156396331726
9056 9412.399415617998
9057 9413.806386102142
9058 9414.806256207454
9059 9415.25372084974
9060 9415.071171149091
9061 9414.352853892653
9062 9413.186415764565
9063 9411.798030768356
9064 9410.176673402322
9065 9407.540102911558
9066 9404.327981892658
9067 9401.687305017294
9068 9397.251523855319
9069 9392.784795393873
9070 9389.448153082172
9071 9384.121913651425
9072 9378.149260165901
9073 9374.139081302628
9074 9367.954225309877
9075 9361.554724044507
9076 9357.128120166924
9077 9350.086102071491
9078 9343.569072370356
9079 9336.968398383115
9080 9332.612517433992
9081 9325.894224608317
9082 9319.429465863626
9083 9313.600866195649
9084 9307.877662475059
9085 9304.334848008297
9086 9299.358923628168
9087 9295.037281628543
9088 9291.387392064868
9089 9289.440482476641
9090 9286.97657630299
9091 9285.273292635422
9092 9284.43914655239
9093 9284.34757279425
9094 9284.506839170439
9095 9285.807448941905
9096 9286.935556127295
9097 9289.679142244757
9098 9292.680254290746
9099 9295.325416145612
9100 9300.075637010174
9101 9303.675115589707
9102 9309.384650134269
9103 9313.556683712879
9104 9320.454422461047
9105 9325.292880719604
9106 9332.559864892113
9107 9340.131962291463
9108 9347.870953614192
9109 9353.045503899142
9110 9361.214182534746
9111 9369.465712498555
9112 9377.16139023213
9113 9384.167542181542
9114 9391.052116773857
9115 9397.724742186227
9116 9403.633012074048
9117 9409.15603182063
9118 9414.236911807624
9119 9418.722042977828
9120 9422.304330541052
9121 9425.290699080484
9122 9427.437425110629
9123 9428.702257473791
9124 9429.499607317424
9125 9429.420846602119
9126 9428.279607495091
9127 9426.279006271363
9128 9423.461528191641
9129 9420.06150089322
9130 9416.988701001292
9131 9411.787918637572
9132 9405.822624761951
9133 9401.320141679849
9134 9393.099539516385
9135 9384.721713506413
9136 9375.9958668624
9137 9367.06149231263
9138 9357.627116177058
9139 9347.951538388612
9140 9337.154608682074
9141 9327.08968608065
9142 9316.680485666837
9143 9306.739005621062
9144 9296.852103579415
9145 9287.609990182395
9146 9278.309520454581
9147 9269.818725127659
9148 9262.046461239885
9149 9255.156095399552
9150 9249.180923945627
9151 9244.051534891774
9152 9239.895946988245
9153 9237.020863692738
9154 9235.54238933807
9155 9234.973245575979
9156 9235.310067125289
9157 9237.061438193934
9158 9239.74414069297
9159 9244.118878749396
9160 9249.100210459088
9161 9255.315097603894
9162 9260.005870865505
9163 9267.896045694364
9164 9276.840085775944
9165 9283.659180178673
9166 9293.60101376121
9167 9304.859486198726
9168 9315.655676559436
9169 9323.706888714205
9170 9335.974440757456
9171 9347.698633612608
9172 9359.028104400719
9173 9370.526259613385
9174 9381.389098922718
9175 9391.559269541503
9176 9401.581188771337
9177 9410.658335637323
9178 9419.270726882691
9179 9426.991859862741
9180 9433.619542893995
9181 9439.265314508628
9182 9443.80941633118
9183 9447.641495310687
9184 9450.016391506184
9185 9451.406632407199
9186 9451.596784718329
9187 9450.756663280385
9188 9448.809276427861
9189 9446.139770377398
9190 9443.235838167055
9191 9438.143732686951
9192 9432.785586413116
9193 9428.492063265314
9194 9421.342884247897
9195 9416.091544833133
9196 9407.590386012052
9197 9401.323060067014
9198 9391.695104127171
9199 9381.417396861325
9200 9371.189908997327
9201 9360.699249828109
9202 9350.324999316397
9203 9340.104050167285
9204 9330.209681267947
9205 9320.562401921396
9206 9311.352679585576
9207 9302.808128991095
9208 9294.906523227932
9209 9287.440749006519
9210 9280.768203666281
9211 9275.062965772051
9212 9270.162316259
9213 9266.096938607066
9214 9262.777930311628
9215 9260.685950536688
9216 9259.432002211654
9217 9259.169147187449
9218 9259.515358223476
9219 9261.026928661628
9220 9263.121500773073
9221 9265.349785766899
9222 9269.249836973095
9223 9273.922012508367
9224 9277.766971668687
9225 9283.92534154709
9226 9288.421568490383
9227 9296.359237949253
9228 9301.647119337971
9229 9310.34702460293
9230 9316.373694891674
9231 9325.489679419572
9232 9334.824968043238
9233 9341.351772905531
9234 9350.549102718014
9235 9360.07508995583
9236 9369.140083525515
9237 9377.940145480139
9238 9386.288010630326
9239 9394.40900263764
9240 9402.003209663108
9241 9409.314017942519
9242 9416.080240366835
9243 9421.966590778315
9244 9427.281469359008
9245 9432.05439743928
9246 9435.757352021123
9247 9438.536663706966
9248 9440.912011409433
9249 9442.44049731321
9250 9443.021707896069
9251 9442.889417686942
9252 9442.056484366076
9253 9440.890805736424
9254 9438.077341309763
9255 9434.834322213241
9256 9430.783412427998
9257 9427.726515667942
9258 9422.270237588747
9259 9416.502006851906
9260 9412.111766408509
9261 9404.926243365469
9262 9397.417167596634
9263 9389.615195939141
9264 9384.042616166655
9265 9375.49238579001
9266 9366.707048758308
9267 9357.900585833713
9268 9348.94206792011
9269 9340.17485035143
9270 9331.400443608793
9271 9322.884619772842
9272 9314.771817812685
9273 9306.952820241584
9274 9299.687528896209
9275 9292.636819187604
9276 9285.94526879739
9277 9279.994288275753
9278 9274.716979300507
9279 9269.978372029604
9280 9265.79737920956
9281 9262.865335521394
9282 9260.452257396131
9283 9259.07320397373
9284 9258.57646659113
9285 9258.690410048219
9286 9259.589925502518
9287 9261.270095670345
9288 9264.028602775514
9289 9266.171657171752
9290 9270.328048382562
9291 9275.176963483116
9292 9278.842734343158
9293 9284.837242943988
9294 9291.604131613396
9295 9296.403923177237
9296 9304.097319753997
9297 9309.596618047704
9298 9318.066006363082
9299 9324.354872481772
9300 9333.516805117068
9301 9343.029924708862
9302 9352.33269395085
9303 9361.769563323411
9304 9370.951789778328
9305 9380.055609906731
9306 9388.677865672087
9307 9396.789595820459
9308 9404.350275072151
9309 9411.860124314022
9310 9418.345535384267
9311 9424.641336660468
9312 9429.944311591667
9313 9434.929000617865
9314 9438.937739244646
9315 9441.693492590321
9316 9443.621151792006
9317 9445.074170422755
9318 9445.334950611104
9319 9444.742087626853
9320 9442.74272627933
9321 9440.35817866264
9322 9438.198327896913
9323 9434.109959518384
9324 9429.065145299242
9325 9422.989857462439
9326 9418.641512536349
9327 9411.355397236266
9328 9403.194269210411
9329 9394.587647659457
9330 9384.983485323404
9331 9378.71858967365
9332 9368.172807353745
9333 9357.992788367501
9334 9347.532730477789
9335 9336.741594863715
9336 9325.875689031112
9337 9315.362686535254
9338 9305.085238393927
9339 9295.629070076577
9340 9286.475952982461
9341 9278.340491680352
9342 9270.805344998351
9343 9263.943237478523
9344 9257.992708289265
9345 9253.259193549453
9346 9249.323877906372
9347 9246.647695554311
9348 9244.820831813919
9349 9244.243302363595
9350 9244.657293932141
9351 9246.313800360262
9352 9249.018592853494
9353 9252.774796139194
9354 9256.111217754422
9355 9262.127561726473
9356 9269.034357898925
9357 9276.697925530581
9358 9282.471297021553
9359 9291.869815861086
9360 9298.403530350815
9361 9309.116028172708
9362 9319.837809169107
9363 9327.707890937674
9364 9339.266226368742
9365 9351.044550194487
9366 9362.563814432991
9367 9373.729650521946
9368 9384.580174582841
9369 9395.076005499805
9370 9404.976575869165
9371 9414.480446813217
9372 9423.135916724004
9373 9431.335422448223
9374 9438.262909148032
9375 9444.474789630107
9376 9449.404031539252
9377 9453.401419221167
9378 9456.147905084279
9379 9458.135419349594
9380 9458.780996740079
9381 9458.550998732298
9382 9457.210227882273
9383 9454.74663490992
9384 9451.277837006179
9385 9448.247876758245
9386 9442.743326565731
9387 9436.408919089374
9388 9431.513265212496
9389 9423.357426257189
9390 9414.278054779668
9391 9408.140301908084
9392 9397.806389262299
9393 9387.232716009577
9394 9376.231565576531
9395 9365.422933854272
9396 9354.061803280158
9397 9342.958271810059
9398 9331.859598655423
9399 9321.401265761748
9400 9311.01955741275
9401 9300.981543410451
9402 9291.707254249513
9403 9283.041097216765
9404 9275.040803444615
9405 9267.866016063679
9406 9261.679080871316
9407 9256.242089588784
9408 9252.000576631441
9409 9248.888806409823
9410 9246.657796909509
9411 9245.469605724273
9412 9245.175509997614
9413 9245.818503842176
9414 9247.853268520454
9415 9251.059307837457
9416 9253.579278822264
9417 9258.441208404638
9418 9264.052314858103
9419 9268.560582590266
9420 9275.989835201204
9421 9281.45237094896
9422 9289.89166517591
9423 9296.355941549789
9424 9306.802333855581
9425 9313.717749909916
9426 9324.018009133464
9427 9334.6030443819
9428 9341.915390911836
9429 9353.063046983938
9430 9364.048926372194
9431 9374.742181318881
9432 9385.345063324767
9433 9395.298661778035
9434 9404.497267707982
9435 9413.197209325032
9436 9421.280179007897
9437 9428.46945220512
9438 9434.699989484621
9439 9440.760382666691
9440 9445.627064034965
9441 9449.484914760242
9442 9452.463341733361
9443 9454.443303006145
9444 9455.258471423876
9445 9455.282869434945
9446 9454.38301907909
9447 9453.242459762127
9448 9450.490823935148
9449 9447.338911372564
9450 9444.433572441976
9451 9439.34470962603
9452 9433.973979417604
9453 9429.935309305183
9454 9423.024953655104
9455 9418.139783341765
9456 9410.07117568275
9457 9402.159427431476
9458 9396.513988198571
9459 9387.532831897206
9460 9378.828662449014
9461 9370.026019816434
9462 9361.113934126224
9463 9352.265013562748
9464 9343.054998674921
9465 9334.621847150247
9466 9326.430944996859
9467 9319.169127157942
9468 9312.239557340032
9469 9306.052286064209
9470 9300.103523582757
9471 9294.98692980753
9472 9291.976351205001
9473 9288.013502195208
9474 9284.819317804575
9475 9282.604927751356
9476 9280.957919947659
9477 9280.631177402476
9478 9280.743589955424
9479 9281.758551622481
9480 9282.743310973699
9481 9285.332984654211
9482 9288.683297237681
9483 9291.428835707206
9484 9296.257676726451
9485 9299.992784177866
9486 9305.995030465798
9487 9310.478415772783
9488 9317.374072223636
9489 9322.705074714338
9490 9330.978588339738
9491 9336.642809588962
9492 9345.693257340554
9493 9351.793567862574
9494 9361.672694836789
9495 9371.51796252936
9496 9377.666413470048
9497 9387.463448490505
9498 9396.667324933982
9499 9405.482047732721
9500 9414.047067595069
9501 9422.42716225844
9502 9429.927431445183
9503 9436.81701252361
9504 9443.280395709466
9505 9448.891385890689
9506 9453.895609836618
9507 9458.378391269121
9508 9461.351173934167
9509 9463.779596235239
9510 9465.200878663059
9511 9465.673769150906
9512 9465.438811365544
9513 9464.467792220741
9514 9462.693208218509
9515 9460.286165617581
9516 9458.04139428953
9517 9454.033288998324
9518 9449.146703019789
9519 9445.547048343544
9520 9438.93084239499
9521 9432.357460470454
9522 9427.306816159746
9523 9419.241334563096
9524 9410.792333506533
9525 9404.832180483347
9526 9395.425049355672
9527 9386.328493847785
9528 9377.089046649096
9529 9367.58698648101
9530 9358.388203448654
9531 9349.186289678551
9532 9340.362853511022
9533 9332.0571462891
9534 9324.001714446875
9535 9316.769592621486
9536 9309.839116887119
9537 9303.805232107172
9538 9298.618914308287
9539 9294.179691370944
9540 9290.467232500319
9541 9287.854950061866
9542 9285.950891785422
9543 9284.969815236827
9544 9285.021335885711
9545 9285.540074434068
9546 9287.323624673802
9547 9289.973565437464
9548 9292.203231296589
9549 9296.623932885654
9550 9301.606721561471
9551 9305.535339792425
9552 9312.20757785826
9553 9319.435903488586
9554 9324.752881153943
9555 9333.247154619852
9556 9339.345254600656
9557 9348.79169177031
9558 9355.308634045003
9559 9365.563353812859
9560 9375.238621715151
9561 9385.033089967957
9562 9394.740536608108
9563 9403.856378795974
9564 9413.318297008014
9565 9422.200154955728
9566 9430.589431697535
9567 9438.432537168952
9568 9445.772332352348
9569 9452.312596142099
9570 9457.759384316147
9571 9462.641863123357
9572 9466.547680921547
9573 9469.802803770763
9574 9472.158828615246
9575 9473.762430025812
9576 9474.367169922396
9577 9474.216746491029
9578 9472.771134826304
9579 9470.885366574972
9580 9468.062319756036
9581 9465.464194647899
9582 9460.670146490229
9583 9455.485161390474
9584 9451.320474945835
9585 9444.598732185852
9586 9437.352710907044
9587 9432.05656368897
9588 9423.54333687367
9589 9414.824821439615
9590 9405.96016905428
9591 9396.67572248643
9592 9387.610392553213
9593 9378.688382445436
9594 9369.613516944612
9595 9360.891848334582
9596 9352.238271437964
9597 9344.254146718496
9598 9336.551370985442
9599 9329.535112032559
9600 9323.203766244927
9601 9317.37425086718
9602 9312.259809191
9603 9308.12933147816
9604 9304.413727409388
9605 9301.72765005092
9606 9299.920765748015
9607 9299.180677800687
9608 9299.061682273239
9609 9299.987907879164
9610 9301.208186297015
9611 9303.709340050867
9612 9306.84568161246
9613 9311.088150283598
9614 9314.160673237002
9615 9320.044859271205
9616 9326.043994457959
9617 9330.643243565019
9618 9337.940794595628
9619 9343.111971883131
9620 9350.858186933518
9621 9356.39279479819
9622 9364.969968420701
9623 9373.737105988419
9624 9382.497968330781
9625 9391.232458217008
9626 9399.936775601882
9627 9408.49488304795
9628 9416.545124753795
9629 9424.120702820353
9630 9431.356952295955
9631 9438.027663251503
9632 9443.825100897107
9633 9449.414230475692
9634 9454.243042026461
9635 9458.325080322054
9636 9461.382766528006
9637 9463.934042088451
9638 9465.535785285059
9639 9466.534644874851
9640 9466.84836313867
9641 9466.440256933938
9642 9465.00138435864
9643 9463.583766170412
9644 9460.745907358028
9645 9457.349509124406
9646 9453.084163106056
9647 9449.761261793194
9648 9443.933506014393
9649 9437.822213635836
9650 9433.267957467426
9651 9426.129171459548
9652 9417.92324646174
9653 9409.817543041636
9654 9404.316075518424
9655 9395.350042413063
9656 9386.774142386217
9657 9377.812022935126
9658 9368.982829139359
9659 9360.561818674712
9660 9351.829028116905
9661 9343.686384779601
9662 9335.666424990075
9663 9328.572778152491
9664 9321.630505480605
9665 9315.535716363416
9666 9309.533852514327
9667 9304.925845091195
9668 9300.549570987097
9669 9297.336626648095
9670 9294.794777819776
9671 9293.365154154584
9672 9292.593686593596
9673 9292.945108924441
9674 9294.265147061275
9675 9296.623590556028
9676 9298.697814938334
9677 9303.123763254958
9678 9307.590445432141
9679 9313.133995972172
9680 9317.052564020792
9681 9324.130123995208
9682 9331.314924256047
9683 9336.648794799801
9684 9345.101153788151
9685 9354.210062803519
9686 9360.240082567763
9687 9369.639622375809
9688 9379.063148329496
9689 9388.93484647693
9690 9398.202274927649
9691 9407.849236956779
9692 9417.017418390018
9693 9426.299467276929
9694 9434.550220046551
9695 9442.259216031363
9696 9449.854118383575
9697 9457.068720526659
9698 9462.983588866011
9699 9468.518631439643
9700 9473.090113651544
9701 9476.559009323222
9702 9479.685959764303
9703 9482.207618243738
9704 9483.548157183905
9705 9484.055334809598
9706 9483.327460340948
9707 9482.027900411724
9708 9479.686384237886
9709 9476.830861691626
9710 9474.243907178708
9711 9469.569922523324
9712 9464.071960143239
9713 9459.905699827554
9714 9453.017366041526
9715 9445.350182644243
9716 9440.262897789666
9717 9431.663793337309
9718 9422.90024306751
9719 9413.987436539903
9720 9404.853187329225
9721 9395.641574849244
9722 9386.074211261968
9723 9376.899370135416
9724 9367.868618405322
9725 9359.267123655405
9726 9350.833906984893
9727 9343.083072023459
9728 9335.732892242768
9729 9328.806186230358
9730 9322.529542976885
9731 9316.705390946016
9732 9311.696520353955
9733 9307.517762115411
9734 9304.134555171751
9735 9301.552255732389
9736 9299.859116691143
9737 9299.156784359708
9738 9299.289173892352
9739 9300.541241443672
9740 9302.642017144215
9741 9305.795515393887
9742 9308.241895227304
9743 9312.864450462346
9744 9318.147868611908
9745 9322.172191126638
9746 9328.461663362141
9747 9335.609570502063
9748 9340.89434020049
9749 9349.401747916472
9750 9355.474462886934
9751 9365.175209408832
9752 9374.279394778599
9753 9381.04263780986
9754 9390.658812330124
9755 9400.263402946393
9756 9409.825019592236
9757 9419.018259816254
9758 9427.993953206793
9759 9436.783237725915
9760 9444.84414943738
9761 9452.239507455355
9762 9458.911224632637
9763 9464.999730642945
9764 9470.223923352054
9765 9474.6891232663
9766 9478.28976765098
9767 9481.092205942923
9768 9482.91066755489
9769 9484.052658564598
9770 9484.347792802004
9771 9483.635098151093
9772 9481.962790688984
9773 9479.605620910121
9774 9476.340181502263
9775 9473.525752276433
9776 9468.403339360168
9777 9462.764905858514
9778 9458.130132694874
9779 9450.266179973793
9780 9441.929679222147
9781 9433.275907490504
9782 9427.286690971136
9783 9418.005353572738
9784 9408.363321217545
9785 9398.599936979979
9786 9388.556583723899
9787 9378.714061934363
9788 9369.058311051958
9789 9359.673969430383
9790 9350.192929331655
9791 9341.517374362571
9792 9333.070915483237
9793 9325.285526007081
9794 9318.250987891312
9795 9311.812856745986
9796 9306.145512559695
9797 9301.278114039489
9798 9296.982329111317
9799 9293.545240968797
9800 9291.469025869143
9801 9290.229700730904
9802 9289.473812104128
9803 9289.869249896683
9804 9291.142024560268
9805 9292.850140641525
9806 9295.741513405685
9807 9299.840188172917
9808 9304.391517273985
9809 9308.151254802859
9810 9314.104322949563
9811 9320.898296305302
9812 9325.926434336778
9813 9333.725175212909
9814 9341.8404462125
9815 9347.408363310995
9816 9356.185593947508
9817 9365.280259980793
9818 9374.107796433458
9819 9382.647046859071
9820 9391.551540145689
9821 9400.221894046961
9822 9408.824509295451
9823 9416.73819289072
9824 9424.400367298913
9825 9431.270575459477
9826 9437.546944712638
9827 9443.283546135881
9828 9448.13669952519
9829 9452.116200892635
9830 9455.32075671179
9831 9458.16243509607
9832 9459.601672426938
9833 9460.447247256934
9834 9460.614572870425
9835 9459.790992790944
9836 9457.902434222515
9837 9456.416586783016
9838 9453.11267687586
9839 9449.04466534721
9840 9444.152364141171
9841 9440.638782603302
9842 9434.705207561916
9843 9427.805250781596
9844 9422.912026923974
9845 9415.094500209625
9846 9406.716528241301
9847 9400.761445537919
9848 9391.429767485633
9849 9382.315436686173
9850 9372.669588678145
9851 9362.898279002617
9852 9353.260901820468
9853 9343.97647270796
9854 9334.949591208639
9855 9326.255737159909
9856 9318.131770120712
9857 9310.510918581029
9858 9303.496240981238
9859 9297.168225303671
9860 9291.499698572377
9861 9286.616722928758
9862 9282.286350308728
9863 9279.336846634864
9864 9277.226389133673
9865 9275.847527867909
9866 9275.24865063045
9867 9275.869390614251
9868 9276.732748017261
9869 9278.816453197203
9870 9282.125644416039
9871 9286.523403101159
9872 9289.716841104149
9873 9295.45425919475
9874 9301.677369135141
9875 9306.304035460063
9876 9313.709138486311
9877 9318.93946066573
9878 9327.147510964802
9879 9336.475860852919
9880 9342.476116142618
9881 9351.587468569192
9882 9361.053846721548
9883 9370.602753803387
9884 9379.759617582742
9885 9388.331273659305
9886 9396.627616860262
9887 9404.474607421449
9888 9412.065468938492
9889 9418.96608593844
9890 9425.663544320003
9891 9431.569408578196
9892 9436.636528794917
9893 9440.797735761718
9894 9444.232137282917
9895 9447.138483189567
9896 9449.044187731308
9897 9449.989189276344
9898 9450.260777759666
9899 9449.789954607559
9900 9448.768078404419
9901 9446.365090084662
9902 9443.13429480686
9903 9440.606414569596
9904 9435.626098846042
9905 9430.499317006372
9906 9426.584557194021
9907 9420.018795352016
9908 9415.294527255119
9909 9407.697472648269
9910 9402.211442291531
9911 9393.185907173234
9912 9384.655834996933
9913 9375.969263224777
9914 9366.641823841266
9915 9357.867443155244
9916 9348.91968010022
9917 9340.134580798673
9918 9331.743414387869
9919 9323.735489390696
9920 9316.083683463736
9921 9308.908370863324
9922 9302.285129268414
9923 9296.097444303734
9924 9290.680160411541
9925 9286.055412721988
9926 9282.045011873957
9927 9278.969855035379
9928 9276.674782074557
9929 9275.642681322013
9930 9274.72241033074
9931 9274.933086572155
9932 9275.883637960496
9933 9277.364696316001
9934 9279.867994642629
9935 9283.601057848382
9936 9286.430058701888
9937 9291.434317115172
9938 9297.144571211349
9939 9301.341528769557
9940 9307.90557581877
9941 9313.160228645842
9942 9321.028400325553
9943 9326.712664564802
9944 9335.515387255038
9945 9344.324420087121
9946 9350.303089959974
9947 9359.116837049893
9948 9367.841116743315
9949 9376.500182508382
9950 9384.844271703583
9951 9393.000334294638
9952 9400.878901775075
9953 9408.295466100117
9954 9414.808266451537
9955 9421.03588393778
9956 9426.492156754204
9957 9431.286565318318
9958 9435.09605626864
9959 9438.17528647761
9960 9440.487243644
9961 9442.036175183577
9962 9442.624740902227
9963 9442.683323960438
9964 9441.552117943796
9965 9439.860926015384
9966 9438.350536736743
9967 9435.40631205197
9968 9431.487444212074
9969 9428.355378086791
9970 9422.780980788575
9971 9418.837907696246
9972 9411.976588647665
9973 9407.260866048617
9974 9399.44781856275
9975 9391.166108369029
9976 9385.534873807108
9977 9376.754891355267
9978 9367.913527243927
9979 9359.03062771953
9980 9350.17331458578
9981 9341.470961724974
9982 9332.865159904533
9983 9324.358806681264
9984 9316.274268563342
9985 9309.001270544846
9986 9301.864311835881
9987 9295.851489458457
9988 9290.230116188528
9989 9285.553261017811
9990 9281.366547315401
9991 9278.010461458096
9992 9276.404207523612
9993 9274.840937779429
9994 9274.49606982668
9995 9274.694344384863
9996 9275.413039720856
9997 9277.621882558145
9998 9280.62336458075
9999 9283.29396400153
10000 9287.901598371944
10001 9293.380859643039
10002 9297.679643337626
10003 9304.380656437444
10004 9309.306744391839
10005 9317.562664374647
10006 9323.485430471474
10007 9332.492582703007
10008 9341.675467502802
10009 9348.21889821886
10010 9357.970097186946
10011 9367.455154185767
10012 9376.990992207302
10013 9386.423193305181
10014 9395.548058930633
10015 9404.228846934162
10016 9412.6446041461
10017 9419.940523290419
10018 9427.043948870052
10019 9433.6754633211
10020 9439.454965001729
10021 9444.559315263296
10022 9448.863691555203
10023 9452.127256405476
10024 9454.433579856246
10025 9456.023900702872
10026 9456.558986005704
10027 9456.087632449744
10028 9455.060447960204
10029 9452.91272495605
10030 9449.847376489681
10031 9447.307441518713
10032 9442.313021276321
10033 9438.60489868647
10034 9432.299566383594
10035 9427.434846078113
10036 9419.196747021215
10037 9413.641542601408
10038 9404.648274746889
10039 9398.495042107585
10040 9388.62619859241
10041 9378.840930884753
10042 9371.943106324939
10043 9361.330160079831
10044 9350.759507031276
10045 9341.015663816213
10046 9331.276781498011
10047 9321.995874191272
10048 9312.892812229555
10049 9304.5966888372
10050 9296.858269734708
10051 9289.843367276673
10052 9283.490672762648
10053 9278.259031428704
10054 9273.935154573204
10055 9270.606911244562
10056 9267.992115312156
10057 9266.836175572451
10058 9266.146340393352
10059 9266.407907437491
10060 9267.167707185392
10061 9269.149322786538
10062 9272.103174933913
10063 9274.733264190183
10064 9279.732017532706
10065 9285.503992465219
10066 9289.599959740306
10067 9296.743144062437
10068 9302.281644283172
10069 9311.050723241593
10070 9317.190680471327
10071 9327.042756249892
10072 9336.722004783067
10073 9343.55335845789
10074 9354.445498466343
10075 9365.004764875426
10076 9375.552019396246
10077 9385.945293747536
10078 9396.148655924666
10079 9405.543212907585
10080 9414.595823549644
10081 9423.331990549557
10082 9431.051405574059
10083 9438.024078967759
10084 9444.173366123425
10085 9449.851493760376
10086 9454.827343246157
10087 9458.773368055186
10088 9461.616896661859
10089 9463.501337491914
10090 9464.210466053302
10091 9464.289959284144
10092 9463.2797573191
10093 9462.111755696547
10094 9459.378245784004
10095 9455.661820529342
10096 9452.950084265942
10097 9447.856921028831
10098 9443.589911229446
10099 9436.764873647149
10100 9431.48898537075
10101 9423.206001092818
10102 9417.158541189325
10103 9407.877930727203
10104 9398.166407558449
10105 9391.240350238493
10106 9380.971425730022
10107 9371.176799462295
10108 9360.9352719978
10109 9350.864043882799
10110 9341.30153514192
10111 9331.741202388113
10112 9322.639068679007
10113 9313.986093199765
10114 9306.187698724285
10115 9298.795005753551
10116 9292.269073039952
10117 9286.556475975087
10118 9281.616303538785
10119 9277.732341407896
10120 9274.676635948665
10121 9272.511576738611
10122 9271.67034839088
10123 9271.768113179412
10124 9272.276849386715
10125 9273.525641937464
10126 9276.138598165258
10127 9279.320411521368
10128 9281.971829161452
10129 9286.954369524276
10130 9290.864368959683
10131 9296.97482649656
10132 9301.652063215874
10133 9309.034673592329
10134 9314.576070452476
10135 9323.401460389625
10136 9329.494474540108
10137 9339.297024853686
10138 9349.032005765099
10139 9355.804480118257
10140 9365.628444945969
10141 9375.4987101649
10142 9385.04523452783
10143 9394.337006756334
10144 9403.397712406653
10145 9411.962004592806
10146 9419.753674814989
10147 9427.033574397907
10148 9433.795854294325
10149 9439.678919468772
10150 9444.834209240282
10151 9449.243512078521
10152 9452.964153076085
10153 9455.813565097729
10154 9457.736734068296
10155 9458.842656465915
10156 9458.804719987897
10157 9458.411936042465
10158 9456.805696481086
10159 9454.703494484385
10160 9452.606694619308
10161 9448.829926172226
10162 9444.029305871125
10163 9440.518389896415
10164 9434.364565338457
10165 9429.845559338666
10166 9422.288044037856
10167 9414.581412896265
10168 9408.942451184255
10169 9400.211914068448
10170 9390.894941041983
10171 9381.453794376524
10172 9372.370302107878
10173 9363.007394585007
10174 9353.792374490946
10175 9344.696201664929
10176 9335.739996795395
10177 9327.242491534043
10178 9318.849380226391
10179 9311.360935218021
10180 9304.548248865582
10181 9298.183124513678
10182 9292.431092639375
10183 9287.51814729808
10184 9283.383997241132
10185 9280.253831178703
10186 9277.823813244389
10187 9276.530719981472
10188 9275.924001745159
10189 9276.143835192452
10190 9277.234664576701
10191 9279.336087156171
10192 9282.21135431364
10193 9284.663952631459
10194 9289.832481688969
10195 9294.839130912042
10196 9298.814842247391
10197 9305.614237685322
10198 9312.819722749897
10199 9318.152212517667
10200 9326.537392785323
10201 9332.868725391716
10202 9342.301745374836
10203 9352.306128868067
10204 9358.836885106306
10205 9368.887728036252
10206 9378.488365295625
10207 9388.441599395748
10208 9397.780514462458
10209 9407.216042127868
10210 9415.88908026514
10211 9424.139549911997
10212 9431.779518819172
10213 9438.703088983279
10214 9444.971554965592
10215 9450.238722719681
10216 9454.639841746482
10217 9458.337583294722
10218 9460.985308281413
10219 9462.65494434689
10220 9463.701381824654
10221 9463.64970081793
10222 9462.60852492949
10223 9460.717602846025
10224 9458.891342585262
10225 9455.252621629696
10226 9450.905947180778
10227 9447.415015513932
10228 9441.088145980611
10229 9433.846453886817
10230 9428.776146925631
10231 9420.008782911862
10232 9411.299131467551
10233 9405.292975334105
10234 9395.671727771807
10235 9385.923112651384
10236 9375.838262625586
10237 9365.801135421729
10238 9355.983118474092
10239 9346.136825970496
10240 9336.341151074919
10241 9327.169136138446
10242 9318.137815063123
10243 9310.01835169894
10244 9302.448419063689
10245 9295.379773749421
10246 9288.679857043358
10247 9282.939067389727
10248 9277.821078536434
10249 9273.690173637309
10250 9270.247975537695
10251 9268.084090160912
10252 9266.627916532625
10253 9266.168917940398
10254 9266.766308410539
10255 9267.86742775058
10256 9270.213188685782
10257 9273.902553155493
10258 9277.933201481939
10259 9281.306015596525
10260 9286.722398732976
10261 9293.131771517843
10262 9297.835911779672
10263 9305.914983696481
10264 9311.918282115606
10265 9321.537625188283
10266 9331.284207879587
10267 9338.145782190266
10268 9348.736839028394
10269 9359.263685554308
10270 9369.680119526301
10271 9379.982595280664
10272 9389.678193906315
10273 9399.456602773291
10274 9408.950096963126
10275 9417.653413347845
10276 9425.749952539672
10277 9433.188212073976
10278 9439.574706233496
10279 9445.448178846507
10280 9450.29302775523
10281 9454.692676284289
10282 9457.868424248589
10283 9460.368497393256
10284 9461.710223209935
10285 9462.050750876951
10286 9461.455077625162
10287 9459.81686082837
10288 9457.466246907194
10289 9455.083816673763
10290 9450.516666436375
10291 9444.886480923413
10292 9440.663516922794
10293 9433.446980054523
10294 9425.598029862345
10295 9419.842587116153
10296 9410.32247610326
10297 9400.539944273587
10298 9393.552583770323
10299 9382.567129234068
10300 9371.789134025774
10301 9360.775001566743
10302 9349.511204964629
10303 9338.787260782772
10304 9328.129471358916
10305 9317.947252740027
10306 9308.143697583695
10307 9298.689432216721
10308 9290.261991981999
10309 9282.505612510109
10310 9275.611974741494
10311 9269.418296663005
10312 9263.780809387052
10313 9259.568773869809
10314 9256.283477559451
10315 9253.855563981711
10316 9252.628710071041
10317 9252.448572355319
10318 9253.399968975133
10319 9254.883124260547
10320 9257.778054501188
10321 9261.932443198053
10322 9266.945416483581
10323 9270.852986281221
10324 9277.199039390121
10325 9284.776974115206
10326 9289.995966964365
10327 9299.058962440966
10328 9305.446270069693
10329 9315.239041650764
10330 9325.729356362232
10331 9332.744346607802
10332 9343.543911781508
10333 9354.6457665617
10334 9365.632876893513
10335 9376.271134746032
10336 9386.581651037379
10337 9396.72948139369
10338 9406.263027940224
10339 9415.417573000323
10340 9423.870549178817
10341 9431.53116868408
10342 9438.288078138999
10343 9444.102861804329
10344 9449.391506323011
10345 9453.398679938156
10346 9456.375032102511
10347 9458.506681506839
10348 9459.39661738508
10349 9459.49396889942
10350 9458.519538084569
10351 9456.836129027748
10352 9454.273340387032
10353 9451.756704465935
10354 9447.296069653888
10355 9442.06448741665
10356 9437.847126195158
10357 9430.764917445043
10358 9422.727810353757
10359 9416.928911870014
10360 9407.663274196026
10361 9397.824441850713
10362 9390.9994570873
10363 9380.414777096505
10364 9369.663998127919
10365 9358.843638744267
10366 9348.214481424044
10367 9337.576471031558
10368 9327.149232936685
10369 9317.092633166987
10370 9307.426517001586
10371 9298.286720532502
10372 9289.831322685299
10373 9282.446071749526
10374 9275.437933466772
10375 9269.3959207431
10376 9264.069262856581
10377 9259.852272066577
10378 9256.283988445441
10379 9254.103485867845
10380 9252.49186250845
10381 9252.094393394467
10382 9252.827311548921
10383 9253.867278685151
10384 9256.099191301844
10385 9259.46806255515
10386 9262.42458910168
10387 9267.855279652116
10388 9273.990910796414
10389 9278.355702353181
10390 9285.791496356027
10391 9291.079425711256
10392 9299.882956158996
10393 9306.239220193893
10394 9315.666413174364
10395 9322.321134457467
10396 9332.786319641034
10397 9343.197664957281
10398 9353.372013763701
10399 9363.387479033147
10400 9373.26799898213
10401 9382.489477806133
10402 9391.508000146603
10403 9399.64217244049
10404 9407.618447016359
10405 9414.694131924263
10406 9420.719872166583
10407 9426.588573245523
10408 9431.146355092453
10409 9435.07061912059
10410 9438.047606073844
10411 9440.182903925019
10412 9441.269762345524
10413 9441.472517533713
10414 9440.600082264034
10415 9439.131118737674
10416 9437.256750867342
10417 9433.847643256615
10418 9429.857659784719
10419 9426.679256398435
10420 9420.838302947997
10421 9416.507789309742
10422 9409.422932233099
10423 9404.288746037084
10424 9395.720082658152
10425 9386.707927678714
10426 9380.233502644753
10427 9370.576194393359
10428 9360.52403551538
10429 9350.347086136364
10430 9340.402373672136
10431 9330.624670169795
10432 9320.698385769039
10433 9311.248834333426
10434 9302.188801024575
10435 9293.838302419181
10436 9285.758012235774
10437 9278.384813077691
10438 9271.163385334694
10439 9264.966520284306
10440 9259.378839574567
10441 9254.822459555442
10442 9251.004500044852
10443 9248.249119310565
10444 9246.134079716327
10445 9245.199093565332
10446 9245.140451291307
10447 9246.050909176261
10448 9247.948093043877
10449 9250.658956237537
10450 9252.932739571439
10451 9257.588024424076
10452 9262.723207151355
10453 9266.606367064782
10454 9273.249971713274
10455 9278.215787516467
10456 9286.307514480892
10457 9292.249047339799
10458 9301.303987251966
10459 9307.692555140939
10460 9317.62801183107
10461 9328.160674721257
10462 9334.508607473739
10463 9344.946162194721
10464 9354.747850514803
10465 9364.471566099495
10466 9373.837473665113
10467 9383.122089200748
10468 9391.897313511525
10469 9399.713507725073
10470 9407.076280137815
10471 9413.581742371425
10472 9419.304964669533
10473 9424.201058106548
10474 9427.771998214776
10475 9430.665338356348
10476 9432.37922158778
10477 9433.210887688167
10478 9433.232704819136
10479 9432.129216630039
10480 9430.74575647458
10481 9427.597016154541
10482 9423.815659980786
10483 9420.760796338323
10484 9415.279549557208
10485 9409.086998348024
10486 9404.25211822669
10487 9396.52025117548
10488 9390.695871774493
10489 9381.636786322826
10490 9375.336598556954
10491 9365.228943348793
10492 9354.954003207007
10493 9344.541774439685
10494 9333.933356886399
10495 9323.339891627369
10496 9312.969033277774
10497 9303.115923500662
10498 9293.630020935558
10499 9284.530064954948
10500 9275.538076348443
10501 9267.516795958205
10502 9260.097994524904
10503 9253.501935514014
10504 9247.604294190758
10505 9242.942238659974
10506 9238.917730207892
10507 9236.125026480162
10508 9234.282028719432
10509 9233.62783141967
10510 9233.896657025685
10511 9234.772837650204
10512 9236.209175319318
10513 9239.441358709109
10514 9243.382744921628
10515 9247.072013598496
10516 9252.693997080178
10517 9259.358761943195
10518 9264.140184222873
10519 9272.453910847316
10520 9277.996025112092
10521 9287.423843470246
10522 9293.88676861913
10523 9304.211543364996
10524 9310.947861969287
10525 9321.646718651607
10526 9332.134513654408
10527 9342.769930707744
10528 9353.007866738149
10529 9363.07120615587
10530 9372.648926326714
10531 9382.13779988163
10532 9390.809973522255
10533 9398.637122109112
10534 9405.822627162102
10535 9412.249793119505
10536 9417.705768343909
10537 9422.37587805341
10538 9426.093127485896
10539 9428.850210620914
10540 9430.487288789087
10541 9431.317017927993
10542 9430.871930262443
10543 9429.828524544582
10544 9427.531790792535
10545 9424.580864669828
10546 9421.772178898793
10547 9417.372809353654
10548 9411.651030353547
10549 9407.608478999191
10550 9400.248052191162
10551 9392.176495127596
10552 9386.636850595249
10553 9377.765952236856
10554 9368.526024678515
10555 9362.335694581834
10556 9352.738196000229
10557 9342.864381494668
10558 9333.002920529527
10559 9323.306615769898
10560 9313.361179865909
10561 9304.124301027083
10562 9295.083788430136
10563 9286.706853029402
10564 9278.830857543133
10565 9271.439411250178
10566 9264.786112690903
10567 9258.917457332911
10568 9253.547606178292
10569 9249.405268344351
10570 9245.913461858525
10571 9243.610966220596
10572 9242.060515332503
10573 9241.461614453241
10574 9241.479289244513
10575 9242.748632072429
10576 9244.020201273777
10577 9247.312457708753
10578 9250.976866307037
10579 9255.629538254818
10580 9259.094553043791
10581 9265.489556820792
10582 9272.254549612453
10583 9277.324340714875
10584 9285.119555812113
10585 9290.962559901809
10586 9300.213465727107
10587 9306.562649040236
10588 9316.265088700455
10589 9323.121603194339
10590 9333.526239090763
10591 9344.127609663972
10592 9354.287355192049
10593 9364.418756851623
10594 9373.789863309736
10595 9383.127486842477
10596 9391.628310554905
10597 9399.964080879978
10598 9407.570192406263
10599 9414.38302213572
10600 9420.107926212011
10601 9425.348928261872
10602 9429.615296277871
10603 9433.216428070718
10604 9435.86769061357
10605 9437.64144292671
10606 9438.367927774823
10607 9438.377721353732
10608 9437.298882122857
10609 9435.509114119146
10610 9432.685277573439
10611 9429.529362526857
10612 9425.056715689128
10613 9421.712427978189
10614 9415.751621149488
10615 9409.542824072629
10616 9402.70312758732
10617 9398.000753935174
10618 9389.759153396462
10619 9381.333930668974
10620 9372.562196577284
10621 9363.319396918554
10622 9354.522711441094
10623 9345.461997364539
10624 9336.385146766521
10625 9327.442058262463
10626 9318.394453114601
10627 9310.19168250511
10628 9301.905912850467
10629 9294.447563884078
10630 9287.361366423371
10631 9281.000678395416
10632 9274.915566426356
10633 9269.925669719365
10634 9265.610013534944
10635 9261.862478495847
10636 9258.943967501416
10637 9256.875019102694
10638 9255.723426580786
10639 9255.877850313935
10640 9256.769604627178
10641 9258.574793665519
10642 9261.22958034015
10643 9264.902301664002
10644 9268.145969215526
10645 9273.398117796685
10646 9279.274785780643
10647 9284.187365281459
10648 9291.839330068467
10649 9297.58204449364
10650 9306.54686011997
10651 9313.001302405459
10652 9322.95235266065
10653 9333.61300722733
10654 9340.762121155252
10655 9351.26712854926
10656 9362.242964352121
10657 9373.21375365824
10658 9383.912419168604
10659 9393.753242559857
10660 9403.126085489406
10661 9412.123544120617
10662 9420.491588569774
10663 9428.272752796893
10664 9435.136468039816
10665 9441.087967157302
10666 9446.199798090789
10667 9450.423827774797
10668 9453.900372460379
10669 9456.013962749279
10670 9456.801999769454
10671 9457.205766775252
10672 9456.512436199007
10673 9455.001362375469
10674 9452.202241128982
10675 9448.593275521782
10676 9443.850614613311
10677 9438.512912020415
10678 9432.072135269887
10679 9427.530835865071
10680 9419.643554011362
10681 9411.367695768475
10682 9401.987388764157
10683 9395.507448399765
10684 9385.273196243113
10685 9374.772976345475
10686 9364.679058579361
10687 9354.22358761615
10688 9344.094716509097
10689 9334.008172528444
10690 9324.036081687285
10691 9314.081710455072
10692 9305.020958085304
10693 9296.273212497721
10694 9288.062338862659
10695 9280.217039172874
10696 9273.518251368794
10697 9267.704876224825
10698 9262.759578912353
10699 9258.711927710567
10700 9255.38412878672
10701 9253.340751658139
10702 9252.170451889551
10703 9252.14815929792
10704 9252.741689890598
10705 9254.59188351165
10706 9257.117603727795
10707 9260.497874133407
10708 9264.95337400744
10709 9268.458852752306
10710 9274.45080393137
10711 9281.0714613455
10712 9286.128055861464
10713 9293.972948640061
10714 9299.390331068058
10715 9308.835437000087
10716 9314.967239750687
10717 9324.777874497719
10718 9331.44764913556
10719 9341.67497078958
10720 9351.649079122129
10721 9361.562068938094
10722 9370.943257853241
10723 9380.005979221587
10724 9388.83463312025
10725 9397.063673075992
10726 9404.270541317122
10727 9411.437187420741
10728 9417.571074488018
10729 9423.151695142633
10730 9427.694710217504
10731 9431.330133736408
10732 9434.205362064902
10733 9436.210238829921
10734 9437.438116746729
10735 9437.799559803316
10736 9437.358966225862
10737 9436.197248629745
10738 9433.728033831332
10739 9431.148763364294
10740 9427.641924502459
10741 9424.636946299363
10742 9419.354894186506
10743 9413.914589258935
10744 9407.581209392676
10745 9402.96508976212
10746 9395.887805291217
10747 9388.436214347314
10748 9380.377277323249
10749 9372.342823899782
10750 9364.068104082889
10751 9355.394503174801
10752 9346.951770533562
10753 9338.554788596564
10754 9330.365052751655
10755 9322.634893890117
10756 9314.785574449945
10757 9307.295135405962
10758 9299.985928771472
10759 9293.218730345539
10760 9286.934792144904
10761 9281.170400431396
10762 9275.900559692473
10763 9271.313956167687
10764 9267.452380438259
10765 9264.354545952412
10766 9261.94536869755
10767 9260.268094396883
10768 9259.476019135342
10769 9259.708553403158
10770 9260.383663970069
10771 9262.071792194865
10772 9264.624430458374
10773 9267.900797262264
10774 9272.01846140069
10775 9275.282358920849
10776 9280.825165556089
10777 9287.327730820345
10778 9292.001758489927
10779 9299.809644629218
10780 9307.752919605324
10781 9313.455401716124
10782 9322.461010200657
10783 9331.826990909813
10784 9338.231864239482
10785 9348.059053209288
10786 9357.451417787783
10787 9367.33660459368
10788 9377.096378362001
10789 9386.386772349486
10790 9395.152970629717
10791 9403.896707627799
10792 9411.946147855377
10793 9419.654883613221
10794 9426.342642345619
10795 9432.383642752875
10796 9437.249813656395
10797 9441.519256460828
10798 9444.960302615546
10799 9447.2174011192
10800 9448.748966994342
10801 9449.638336404423
10802 9449.115792075718
10803 9447.598560494136
10804 9445.310394161015
10805 9442.18977660066
10806 9437.890943579241
10807 9432.583704747376
10808 9426.426010088202
10809 9419.63688769974
10810 9412.301935885202
10811 9404.028871216784
10812 9395.222972368008
10813 9389.080364177709
10814 9379.007795052345
10815 9368.54931713668
10816 9358.15392500266
10817 9347.794349323811
10818 9337.003869169595
10819 9326.378439330791
10820 9315.971965270888
10821 9305.900030173609
10822 9296.371804565606
10823 9286.916132184546
10824 9278.16156304379
10825 9270.100815384232
10826 9262.852013927279
10827 9256.619669731999
10828 9250.849215381379
10829 9246.274213603776
10830 9242.741397334656
10831 9240.366211890194
10832 9238.829977993595
10833 9238.507626020899
10834 9239.399326578032
10835 9241.5078352809
10836 9244.299926129317
10837 9248.594688401203
10838 9253.614613553631
10839 9259.967342946909
10840 9266.645563951497
10841 9272.091835541847
10842 9280.904388298308
10843 9290.614955787125
10844 9297.364076481124
10845 9308.036377069628
10846 9318.982937215251
10847 9330.512956970519
10848 9342.359493655613
10849 9354.000162849021
10850 9365.94472934552
10851 9377.436487587263
10852 9388.565710338051
10853 9399.467208850714
10854 9409.606751335084
10855 9419.133969027263
10856 9428.111929469378
10857 9436.323641593244
10858 9443.704822371983
10859 9450.12759425474
10860 9455.518470220237
10861 9459.7692836315
10862 9462.87291705065
10863 9465.28648412628
10864 9466.166121624621
10865 9465.837473810338
10866 9464.555018544081
10867 9462.172826485261
10868 9458.600869405605
10869 9453.856868242401
10870 9447.970452962221
10871 9441.376024722676
10872 9433.462836955037
10873 9425.882193058993
10874 9416.95101022157
10875 9407.051285049904
10876 9397.056986655032
10877 9386.395363933827
10878 9375.403624209281
10879 9364.750965998988
10880 9353.845611447412
10881 9343.245912612099
10882 9332.296825803282
10883 9321.918809274046
10884 9311.554113414983
10885 9301.794435618094
10886 9292.6497892429
10887 9284.723509011719
10888 9277.580606585363
10889 9271.315638532722
10890 9266.413171403292
10891 9262.446826405367
10892 9259.399745652723
10893 9257.472906756366
10894 9256.439693452705
10895 9256.756646595446
10896 9258.188222827228
10897 9260.765463520002
10898 9264.305600198273
10899 9269.401235997046
10900 9275.303843184143
10901 9282.081627662914
10902 9289.239021669573
10903 9297.203709260768
10904 9303.149092436155
10905 9312.260057044516
10906 9322.036709376514
10907 9328.737683370116
10908 9338.365862337907
10909 9348.852460335103
10910 9359.188362650591
10911 9369.684290274508
10912 9379.365589113851
10913 9388.887099515468
10914 9397.892642968523
10915 9406.190289412551
10916 9413.823745581833
10917 9420.751129053131
10918 9427.071502963994
10919 9432.362456248256
10920 9436.698174861163
10921 9440.065732061405
10922 9442.492506752873
10923 9444.155668636253
10924 9444.95447614086
10925 9444.975395997053
10926 9444.219897755425
10927 9442.609000305334
10928 9440.393667777
10929 9437.410769708571
10930 9433.905560479519
10931 9431.001030904576
10932 9426.119793131042
10933 9420.745998977178
10934 9416.655536591888
10935 9409.962309473845
10936 9403.072644403326
10937 9398.244245665357
10938 9390.911859752361
10939 9383.473790942247
10940 9375.550851031179
10941 9367.853329757376
10942 9360.380135520423
10943 9353.282740889681
10944 9345.926170722936
10945 9338.8039435102
10946 9331.483769669123
10947 9325.09438255165
10948 9318.784332836867
10949 9312.972947344086
10950 9307.201007960179
10951 9302.076600541985
10952 9297.316851075786
10953 9293.094235178904
10954 9289.30463272921
10955 9287.029693760314
10956 9284.038179965053
10957 9281.794414450618
10958 9279.887195461677
10959 9279.210469417154
10960 9278.843370502071
10961 9278.883103187572
10962 9279.490312657526
10963 9280.894596952588
10964 9282.902835078821
10965 9285.419863569447
10966 9287.254035757865
10967 9290.903852415882
10968 9295.028675417372
10969 9299.952470416134
10970 9303.793084837071
10971 9309.879853122207
10972 9316.140292477965
10973 9320.776595174122
10974 9328.027402270465
10975 9335.590142001123
10976 9343.080118299855
10977 9348.580235140113
10978 9356.66114117136
10979 9364.587797670336
10980 9372.331851748109
10981 9380.186980141325
10982 9387.63099556061
10983 9395.154816997347
10984 9401.958572613705
10985 9408.455034812394
10986 9414.487346372094
10987 9419.855134269954
10988 9424.513767840899
10989 9428.724389103845
10990 9432.241580759726
10991 9434.841770536468
10992 9436.326786325637
10993 9437.080655683727
10994 9437.302549303906
10995 9436.470528591117
10996 9434.386618762397
10997 9431.467234598078
10998 9428.165218808834
10999 9423.906154851356
11000 9418.310331944482
11001 9412.026687695463
11002 9407.075840537973
11003 9399.291320340781
11004 9390.989892160547
11005 9381.745914652116
11006 9375.141619056925
11007 9365.396116172262
11008 9355.017037009286
11009 9344.787447664543
11010 9334.08752185445
11011 9323.578532618583
11012 9313.450165611559
11013 9303.879754621132
11014 9294.365290872613
11015 9285.346601279109
11016 9276.852871957739
11017 9269.331812899498
11018 9262.312026428324
11019 9256.169709108815
11020 9250.802002091017
11021 9246.497460218123
11022 9243.128385746482
11023 9241.200174850781
11024 9240.109473610266
11025 9240.029289678989
11026 9241.022668264148
11027 9243.104243372954
11028 9245.928459004248
11029 9249.831253073869
11030 9254.56088326401
11031 9258.334065517512
11032 9264.761195709652
11033 9272.105445274385
11034 9277.152915736722
11035 9285.878189270587
11036 9291.840259319661
11037 9301.172813377239
11038 9307.944665995266
11039 9318.394718347805
11040 9328.857687019228
11041 9339.458509819186
11042 9349.477222048467
11043 9359.623367229528
11044 9369.164410427402
11045 9378.360977153952
11046 9386.526507675466
11047 9394.441799197824
11048 9401.171820328904
11049 9407.413653645539
11050 9412.717845837718
11051 9417.467118618337
11052 9421.092711595322
11053 9423.934001821257
11054 9425.598185473471
11055 9426.571148640176
11056 9426.504933643146
11057 9425.415965109964
11058 9423.400764826487
11059 9420.320662325697
11060 9416.286545429322
11061 9413.211059772952
11062 9407.294251376541
11063 9401.141895977518
11064 9393.892704210413
11065 9388.369644419266
11066 9379.662223654044
11067 9370.423367758076
11068 9360.318155235778
11069 9350.030743346641
11070 9339.255773917957
11071 9329.036825098343
11072 9318.632440882089
11073 9308.455006175829
11074 9298.17149499665
11075 9288.422817290671
11076 9279.105447868624
11077 9269.825338768987
11078 9261.304341849922
11079 9253.343191755916
11080 9245.870300403867
11081 9239.496007203619
11082 9233.789372746718
11083 9228.83417843188
11084 9224.775195566324
11085 9221.811396510722
11086 9219.821365796046
11087 9218.996573206519
11088 9219.403796398534
11089 9220.2999473534
11090 9222.330789274009
11091 9225.620202466245
11092 9229.603877329935
11093 9234.190914611529
11094 9237.907941805455
11095 9244.372141354339
11096 9251.181250642781
11097 9256.532288937295
11098 9264.575484212468
11099 9270.769390602452
11100 9280.044506437478
11101 9286.639277126778
11102 9297.129293454249
11103 9307.296255598414
11104 9317.195588300294
11105 9327.281965867691
11106 9333.746383475247
11107 9343.553522250149
11108 9353.008374970321
11109 9361.78019386555
11110 9370.225772620644
11111 9377.894172310867
11112 9384.64542349474
11113 9390.743371021556
11114 9396.035754018572
11115 9400.835962799827
11116 9404.280785509913
11117 9406.962478108015
11118 9408.693097310526
11119 9409.429657688574
11120 9409.28210171986
11121 9408.216546150999
11122 9405.966938152998
11123 9403.266136186581
11124 9400.587080642532
11125 9396.273428770151
11126 9390.681784525348
11127 9384.390941209509
11128 9377.570630021319
11129 9372.390314096321
11130 9364.208084405258
11131 9355.412917434216
11132 9346.468113467206
11133 9337.12413987402
11134 9327.135985179992
11135 9317.146529867125
11136 9307.303181460444
11137 9297.661612756328
11138 9288.227106946213
11139 9279.497715835809
11140 9271.09792211192
11141 9262.781258036483
11142 9254.998766740666
11143 9248.036497435962
11144 9241.726532360866
11145 9236.183742915133
11146 9231.381689106702
11147 9227.275726952786
11148 9224.19538767879
11149 9222.135359493279
11150 9220.813005220021
11151 9220.708900338672
11152 9221.430547173235
11153 9222.989020853007
11154 9225.518788327267
11155 9229.065905166713
11156 9231.929635985589
11157 9237.413598317657
11158 9243.462404926124
11159 9250.399057244793
11160 9255.496473671134
11161 9263.762010784776
11162 9269.360607671266
11163 9278.449817260043
11164 9284.813289449325
11165 9294.467855302153
11166 9304.342857443988
11167 9311.72547745219
11168 9322.459943201908
11169 9332.826050842448
11170 9342.782719906025
11171 9352.218721324285
11172 9361.252187532731
11173 9370.189453761805
11174 9378.329597563417
11175 9386.192820209781
11176 9393.070562638581
11177 9399.354596532665
11178 9404.472826402609
11179 9408.924071519355
11180 9412.315954605532
11181 9415.120261205937
11182 9416.94941903202
11183 9417.865674679415
11184 9417.6357439487
11185 9416.813689813293
11186 9414.843686776798
11187 9412.528860211891
11188 9409.193555672424
11189 9406.651211445533
11190 9401.539729325286
11191 9395.87483480616
11192 9389.640282450513
11193 9385.007451630219
11194 9377.17607741346
11195 9369.237020237337
11196 9360.519542627586
11197 9354.830747044687
11198 9345.768257084117
11199 9336.967845604864
11200 9327.658529486274
11201 9318.39355257239
11202 9309.328142879192
11203 9300.868985651363
11204 9292.91347707412
11205 9285.212280669788
11206 9277.919616123927
11207 9271.426280028809
11208 9265.710190806434
11209 9260.592855297919
11210 9256.299748080417
11211 9252.792328776899
11212 9250.080222827179
11213 9248.397970245387
11214 9247.636863827785
11215 9247.956063871954
11216 9249.238821303024
11217 9251.338816215812
11218 9253.440591680936
11219 9257.493412001282
11220 9262.208032637725
11221 9267.616230516267
11222 9271.984717452766
11223 9279.234168134439
11224 9286.860361366173
11225 9292.303962840728
11226 9301.016885761124
11227 9307.624567826164
11228 9317.374005288657
11229 9324.234142354264
11230 9334.381987908002
11231 9344.779741625447
11232 9355.120063636496
11233 9365.168678398028
11234 9374.885409456578
11235 9384.635197569633
11236 9393.540492018379
11237 9402.015304784602
11238 9409.959382596411
11239 9417.53617463346
11240 9424.271228893414
11241 9430.206751558031
11242 9435.33572563419
11243 9439.534744512865
11244 9442.689589886075
11245 9444.802255157472
11246 9445.845268949894
11247 9445.76129841231
11248 9445.022633188626
11249 9443.165701419031
11250 9440.553935595182
11251 9437.205058569103
11252 9432.585709210525
11253 9427.37945188505
11254 9421.274573332334
11255 9416.507098641001
11256 9408.647248122699
11257 9400.203391893268
11258 9391.419587747658
11259 9385.148960286031
11260 9375.0262214794
11261 9364.717432203701
11262 9354.487791272591
11263 9344.233747756323
11264 9333.842779111063
11265 9323.664173009938
11266 9313.888063868835
11267 9304.355771448829
11268 9295.43883920203
11269 9287.103632583552
11270 9279.486320502319
11271 9272.518822801099
11272 9266.487213445565
11273 9261.25106604545
11274 9256.688183090835
11275 9253.117084522155
11276 9250.655739755384
11277 9249.405256613398
11278 9248.950778758852
11279 9249.406201452613
11280 9250.932402535267
11281 9253.59374168873
11282 9257.182611913495
11283 9261.758287709137
11284 9265.29395767755
11285 9271.611548075207
11286 9278.626114094819
11287 9283.82684183373
11288 9291.954728603137
11289 9297.706621182708
11290 9306.695729915773
11291 9312.812578983339
11292 9322.404978547298
11293 9332.114703403007
11294 9338.458610768077
11295 9347.966012292034
11296 9357.21999565141
11297 9365.994972893695
11298 9374.38595469443
11299 9382.309661504331
11300 9389.373852001208
11301 9396.013769543699
11302 9402.140127244042
11303 9407.575078688005
11304 9411.948198546941
11305 9415.630726935526
11306 9418.510790573491
11307 9420.764571252506
11308 9421.953194940104
11309 9422.29522299113
11310 9421.875044126213
11311 9420.707383943778
11312 9418.865663479259
11313 9415.909943738279
11314 9412.37950699105
11315 9408.683918180099
11316 9404.109209731418
11317 9400.713566189974
11318 9394.978053875653
11319 9388.863526710778
11320 9382.062453294026
11321 9375.51654874339
11322 9368.418984345341
11323 9361.272387267349
11324 9353.948405223369
11325 9346.804969208735
11326 9339.439465919255
11327 9332.704366829841
11328 9326.401234906833
11329 9319.853091140219
11330 9314.395848806986
11331 9309.223512437464
11332 9304.290808240004
11333 9299.82117913808
11334 9296.357495184742
11335 9293.256870627525
11336 9290.995982359063
11337 9289.225933973696
11338 9288.00059702856
11339 9287.487404364676
11340 9287.605466500892
11341 9288.40770249731
11342 9289.628415167042
11343 9291.672388788968
11344 9294.271033770236
11345 9297.48808159687
11346 9301.054686745827
11347 9305.110319258292
11348 9309.239457796009
11349 9314.025386444462
11350 9318.826829460661
11351 9323.65324473617
11352 9328.778833307828
11353 9334.206097875252
11354 9339.869804090675
11355 9345.323490277931
11356 9350.589208325719
11357 9356.1140855756
11358 9361.262231892997
11359 9366.437215643138
11360 9371.300710650559
11361 9376.103598361105
11362 9380.649725304798
11363 9384.316860294994
11364 9387.961211001078
11365 9391.372422141461
11366 9394.365217301009
11367 9396.861722912843
11368 9398.453259386039
11369 9400.118468645938
11370 9401.241458935629
11371 9402.438368586761
11372 9403.061437829283
11373 9403.038435245078
11374 9402.515175913182
11375 9401.874553345015
11376 9400.686796559052
11377 9399.224111363445
11378 9397.39795048926
11379 9395.943084721604
11380 9393.413520283517
11381 9390.785661752869
11382 9387.788445390328
11383 9384.785412388881
11384 9381.475845623278
11385 9377.510020949441
11386 9373.326331736895
11387 9369.463108716967
11388 9365.301097623484
11389 9360.508008002209
11390 9355.795248574092
11391 9351.107996921493
11392 9346.846959057828
11393 9342.265626040535
11394 9337.435906347495
11395 9332.846824270036
11396 9327.789302556823
11397 9322.996085884228
11398 9318.365565654934
11399 9312.988018503051
11400 9307.659269617745
11401 9302.337264936587
11402 9296.72156739216
11403 9291.262914118322
11404 9285.925767641951
11405 9280.609825779406
11406 9275.114573914492
11407 9270.79827217915
11408 9266.773321453595
11409 9262.904022812761
11410 9259.611179583189
11411 9256.963516659793
11412 9255.253098962816
11413 9253.864332804455
11414 9253.32295228964
11415 9253.287580866907
11416 9254.634458833318
11417 9256.610277296255
11418 9259.967279698894
11419 9264.238330166792
11420 9269.046909268245
11421 9274.214615410196
11422 9280.509711592662
11423 9288.847006932931
11424 9297.743050174986
11425 9307.960741901876
11426 9319.477257287657
11427 9331.507965562052
11428 9344.130506151421
11429 9358.393837208754
11430 9372.417155354859
11431 9387.751555771245
11432 9403.999431785403
11433 9419.072525637561
11434 9435.749891189629
11435 9451.656249708789
11436 9467.466714371969
11437 9483.017241998328
11438 9497.384854926928
11439 9511.602804264528
11440 9524.773832935713
11441 9536.636776181975
11442 9546.621923096052
11443 9555.689008628055
11444 9563.811885530435
11445 9570.50871672454
11446 9574.606838687374
11447 9577.338520238676
11448 9578.012359529706
11449 9576.566392784638
11450 9573.249612351281
11451 9567.919955890307
11452 9560.802802419437
11453 9552.00793041748
11454 9540.948155283322
11455 9528.937220741382
11456 9514.61211558771
11457 9500.028247669272
11458 9484.394096720245
11459 9467.217500565079
11460 9449.248403063746
11461 9431.318412481034
11462 9412.664592195419
11463 9393.220644111851
11464 9373.885791008535
11465 9354.404195330655
11466 9336.15522778657
11467 9317.873014624847
11468 9299.845951171588
11469 9283.274094836837
11470 9267.143239381019
11471 9252.310321369694
11472 9238.14278187815
11473 9225.926640152156
11474 9215.060068866678
11475 9205.52738944305
11476 9197.760133902097
11477 9191.994986813046
11478 9187.640696784152
11479 9184.905407968967
11480 9184.175196703083
11481 9185.362277060316
11482 9188.612450868373
11483 9193.772141088721
11484 9200.160182193993
11485 9208.384734453857
11486 9218.079465422419
11487 9230.254296077088
11488 9242.87674431352
11489 9257.244786752111
11490 9272.62066441205
11491 9288.525385836332
11492 9305.376617784032
11493 9323.125161478827
11494 9341.350126405785
11495 9359.473916191804
11496 9376.810506379848
11497 9394.073857756805
11498 9410.962621143792
11499 9427.278467664108
11500 9443.038033145
11501 9457.227896784576
11502 9469.75490216915
11503 9480.976315200605
11504 9490.973342663025
11505 9499.389763344541
11506 9505.990072757277
11507 9511.256515142404
11508 9514.312258483093
11509 9515.573800789931
11510 9514.698609798934
11511 9512.249235795432
11512 9507.623066020355
11513 9501.396500010174
11514 9493.453357545957
11515 9483.702142310303
11516 9472.7228607297
11517 9460.242898896511
11518 9447.04035989888
11519 9432.701520713284
11520 9417.354909767842
11521 9400.781253013005
11522 9383.586958388241
11523 9366.753158754713
11524 9349.654865683915
11525 9332.838237917682
11526 9316.638626496693
11527 9300.851137510528
11528 9286.125192375672
11529 9272.032299273302
11530 9258.664855001642
11531 9246.513259924564
11532 9235.375994757134
11533 9226.256333282598
11534 9218.392515142319
11535 9211.898312987771
11536 9207.140188289646
11537 9204.392626291392
11538 9203.126747005432
11539 9203.577861464515
11540 9205.239823697788
11541 9208.591892834926
11542 9213.111157763929
11543 9219.764715055098
11544 9227.419077651066
11545 9235.873715050933
11546 9245.682426772632
11547 9256.745436864188
11548 9268.40913833687
11549 9280.686215954383
11550 9292.734343478591
11551 9305.058819884847
11552 9317.474214539823
11553 9329.825923829758
11554 9341.825093222953
11555 9353.323164446174
11556 9364.434216478718
11557 9374.746706795691
11558 9383.999346130071
11559 9392.748427014958
11560 9400.329548257781
11561 9406.867269870198
11562 9412.475298459891
11563 9417.134574025758
11564 9420.632703773055
11565 9423.041531077602
11566 9424.17155537546
11567 9423.787493789365
11568 9422.173192125763
11569 9419.978834097934
11570 9416.292862216658
11571 9411.95030318405
11572 9407.947546523392
11573 9401.527787370587
11574 9394.367978954757
11575 9389.085407725974
11576 9380.317876676245
11577 9374.375638399801
11578 9364.810384908325
11579 9355.235032758133
11580 9348.283065955593
11581 9338.039104897411
11582 9327.43490249362
11583 9317.452901949686
11584 9307.644216492012
11585 9298.220813505306
11586 9288.780526519758
11587 9280.406075718704
11588 9272.395184177931
11589 9265.015463547363
11590 9257.976384331205
11591 9251.557922360727
11592 9246.100145923167
11593 9241.852490285652
11594 9238.096486659424
11595 9235.076320633088
11596 9233.644753924151
11597 9231.962324068627
11598 9230.80915811171
11599 9230.703549810774
11600 9231.035581350659
11601 9232.234053963241
11602 9233.98841293278
11603 9236.583965202968
11604 9238.613791887328
11605 9242.850197187976
11606 9247.168171140136
11607 9252.341224231708
11608 9256.03332430475
11609 9261.94274804799
11610 9268.114742145845
11611 9272.543924292064
11612 9280.216211933162
11613 9285.337782750135
11614 9293.057799433129
11615 9300.563999361646
11616 9305.626808292493
11617 9313.284264468139
11618 9318.477857685044
11619 9326.024639402178
11620 9333.11292575894
11621 9337.622115959328
11622 9344.048838555134
11623 9350.494506777926
11624 9356.008183287506
11625 9360.869533205012
11626 9365.09661558166
11627 9368.545906246962
11628 9371.126438730953
11629 9373.444770257141
11630 9374.395983086124
11631 9374.829723670433
11632 9374.063480841021
11633 9372.955479275659
11634 9370.780622190186
11635 9368.658378999311
11636 9365.000687997408
11637 9360.439605505093
11638 9356.667454069484
11639 9350.823356374289
11640 9344.075045975733
11641 9339.479607251224
11642 9331.906941351157
11643 9326.206425348981
11644 9317.258869025194
11645 9311.09463266143
11646 9301.727675811424
11647 9295.428382883189
11648 9285.682120731326
11649 9276.247465156453
11650 9269.804965674293
11651 9260.43158886435
11652 9251.127213944032
11653 9242.255227078485
11654 9233.721249430282
11655 9226.094069497451
11656 9219.201061010253
11657 9212.573024553469
11658 9207.021762089171
11659 9201.990360064765
11660 9197.689987928114
11661 9194.402556225315
11662 9191.577624635462
11663 9189.540438929402
11664 9188.39028812928
11665 9188.053860298774
11666 9188.186924781583
11667 9188.916962538478
11668 9190.501322206916
11669 9192.914852677755
11670 9194.79421557481
11671 9198.530153758336
11672 9201.324043504725
11673 9205.993753779405
11674 9209.573530245323
11675 9215.931716354617
11676 9220.082468979735
11677 9227.083771111073
11678 9231.764021354198
11679 9239.298803553256
11680 9244.617817237626
11681 9252.987700980988
11682 9258.158967231615
11683 9266.350045695208
11684 9275.01427318477
11685 9283.36690446532
11686 9291.311929358451
11687 9298.9791023983
11688 9306.35077596577
11689 9313.594529482971
11690 9320.409420849033
11691 9326.814032891998
11692 9332.331811040145
11693 9337.611529309192
11694 9341.85455825791
11695 9344.629917842536
11696 9347.648741429633
11697 9350.398686678333
11698 9351.870174166614
11699 9353.402721307588
11700 9354.497725995763
11701 9354.674845968491
11702 9354.490098114324
11703 9354.105787706309
11704 9352.509860595066
11705 9351.258079959709
11706 9348.133242424157
11707 9345.815128889057
11708 9341.470378648313
11709 9338.279982004864
11710 9332.646974807367
11711 9328.703592797492
11712 9321.682744143962
11713 9316.768454257259
11714 9309.145783942622
11715 9303.954186088091
11716 9295.555437530003
11717 9286.815408059972
11718 9280.695055247603
11719 9271.686080896845
11720 9262.308004436707
11721 9253.41210287536
11722 9244.26530902066
11723 9238.447182057589
11724 9229.641174140887
11725 9221.163691194039
11726 9213.098740618749
11727 9208.142429121612
11728 9201.119312571594
11729 9194.573252863314
11730 9190.675726150455
11731 9185.51344766363
11732 9181.05689096451
11733 9178.596763672591
11734 9175.307182111303
11735 9172.992546907408
11736 9172.086010152057
11737 9171.641079130453
11738 9171.626682313252
11739 9172.674853782843
11740 9173.787484475002
11741 9176.747358441527
11742 9179.24724085464
11743 9183.168085528543
11744 9186.111486792639
11745 9191.659821739055
11746 9195.683623177441
11747 9201.974112875589
11748 9206.508486494209
11749 9213.96689175983
11750 9218.821929840617
11751 9226.849056253515
11752 9232.03528008775
11753 9240.232540752146
11754 9248.076663954282
11755 9253.555279193835
11756 9261.512994570101
11757 9268.847113585007
11758 9273.779443343037
11759 9280.940068780274
11760 9287.372311050189
11761 9291.77024283323
11762 9297.662452540699
11763 9302.698915073634
11764 9305.512090563443
11765 9309.235479124629
11766 9312.460001788841
11767 9313.940736041932
11768 9315.674717231685
11769 9316.528073776002
11770 9316.654354133396
11771 9316.495672975379
11772 9315.396275498562
11773 9313.393805975635
11774 9311.513027239585
11775 9308.038120426949
11776 9303.874224762565
11777 9300.672066630197
11778 9295.154887680663
11779 9289.088971260093
11780 9282.419623068639
11781 9275.578994118379
11782 9268.420007359533
11783 9261.165617709454
11784 9253.483812183746
11785 9246.141140805779
11786 9238.684835846434
11787 9231.225890398015
11788 9223.982458523453
11789 9217.29868449117
11790 9210.72943118944
11791 9206.508078219205
11792 9200.691102741815
11793 9195.756520687459
11794 9190.957165886297
11795 9187.101771087706
11796 9184.889725502797
11797 9182.073585043207
11798 9180.484817126651
11799 9179.736875248416
11800 9179.996090541623
11801 9180.943997445667
11802 9182.496011619871
11803 9184.099495741339
11804 9187.378077798188
11805 9191.070772900101
11806 9194.208556031896
11807 9199.437483759182
11808 9203.146461303071
11809 9209.164774256209
11810 9213.594565273675
11811 9220.066971748411
11812 9226.916726728379
11813 9231.343576926713
11814 9238.313228299507
11815 9245.008984376396
11816 9251.431789662522
11817 9257.106296035074
11818 9262.616434281523
11819 9267.809756355749
11820 9271.947869488562
11821 9275.818014066235
11822 9279.20922640111
11823 9281.457647866255
11824 9283.235544878615
11825 9284.125526825586
11826 9284.331351087763
11827 9284.257981468418
11828 9283.664693978099
11829 9282.782916475137
11830 9280.698567956804
11831 9278.204413881836
11832 9275.710137740369
11833 9272.163149230026
11834 9269.516125705917
11835 9265.060131449796
11836 9261.877120206254
11837 9257.224515829954
11838 9253.452432484315
11839 9248.297696290885
11840 9244.724277779167
11841 9239.096306605559
11842 9235.630716592481
11843 9230.763744284404
11844 9225.817266310603
11845 9222.773905646012
11846 9219.172749177646
11847 9215.843773046634
11848 9213.13395706291
11849 9211.18992304624
11850 9209.473170966878
11851 9208.156591211122
11852 9207.6299742713
11853 9207.923667229054
11854 9208.906772013417
11855 9210.727759027932
11856 9212.074492319192
11857 9214.655285688435
11858 9217.686468191107
11859 9220.070644972135
11860 9223.753720650393
11861 9228.009990893186
11862 9230.814152686118
11863 9235.53454170783
11864 9238.650012838501
11865 9243.87884296469
11866 9247.082793459091
11867 9251.631653871258
11868 9254.826212245302
11869 9259.326308433723
11870 9262.325346540283
11871 9266.581365435672
11872 9269.483763079194
11873 9273.172780835714
11874 9276.307065478504
11875 9278.166838605603
11876 9280.788273099717
11877 9282.979467607771
11878 9284.890459798991
11879 9286.074921171572
11880 9286.994528133971
11881 9288.00066220816
11882 9288.574767572805
11883 9289.01927588887
11884 9289.498305943165
11885 9289.936152995109
11886 9290.284978563745
11887 9290.383996199986
11888 9290.38306223861
11889 9290.687860640792
11890 9290.801275289044
11891 9291.44265875742
11892 9291.837538032958
11893 9292.178367268249
11894 9293.256944426474
11895 9293.954323014583
11896 9295.124586416337
11897 9295.961061419972
11898 9297.438853394009
11899 9299.433808451571
11900 9300.910543388822
11901 9303.334219716258
11902 9305.9582207564
11903 9308.042868857199
11904 9310.678911998937
11905 9314.102278433358
11906 9316.939359240883
11907 9319.257550860684
11908 9322.072311838065
11909 9324.457160531565
11910 9326.68994032213
11911 9328.562435362324
11912 9329.51144389882
11913 9330.280916993888
11914 9330.175898657772
11915 9329.658699572465
11916 9328.713253768608
11917 9327.239323277918
11918 9325.50826459967
11919 9323.118346004128
11920 9319.637158097334
11921 9315.439290455948
11922 9311.156322385807
11923 9305.920419722666
11924 9300.112825137623
11925 9294.035065192364
11926 9287.440907493974
11927 9280.676580795818
11928 9273.641403026848
11929 9266.987536993051
11930 9259.94370689965
11931 9253.323093329625
11932 9246.613491148417
11933 9240.535692035706
11934 9234.94272708732
11935 9229.95857223108
11936 9225.504504914936
11937 9221.404140858082
11938 9217.315898239956
11939 9214.174599875374
11940 9211.570646229568
11941 9210.12081116901
11942 9209.350144441834
11943 9209.483956860397
11944 9210.519743019697
11945 9212.151148314089
11946 9214.82752185055
11947 9218.364330520133
11948 9222.601527647414
11949 9227.6356394876
11950 9233.117308113435
11951 9239.867748997744
11952 9247.498334551914
11953 9255.062934873273
11954 9263.174685510276
11955 9271.656534506046
11956 9280.330302995939
11957 9289.054058864785
11958 9298.033059296993
11959 9307.379036063447
11960 9316.435737471396
11961 9325.439793216243
11962 9334.275867310314
11963 9342.460217288879
11964 9350.478784471028
11965 9357.769205503329
11966 9364.074347253803
11967 9369.069338464515
11968 9373.422161170376
11969 9376.509320682198
11970 9378.335674532744
11971 9379.291944890429
11972 9379.064420606668
11973 9378.003564573042
11974 9375.813001628803
11975 9372.05284935471
11976 9367.04214157442
11977 9360.623978160256
11978 9353.288965001331
11979 9344.335060169622
11980 9334.99663019694
11981 9325.677904923499
11982 9314.908103177295
11983 9303.615688525568
11984 9292.30661105559
11985 9280.297279215323
11986 9267.71157853156
11987 9255.205238026945
11988 9242.762733787844
11989 9231.686518654278
11990 9220.822578124886
11991 9210.842788706464
11992 9201.006467659356
11993 9192.606867605153
11994 9185.116633982452
11995 9178.915800881934
11996 9173.794418623444
11997 9170.428544518174
11998 9168.307334228481
11999 9167.662816259737
12000 9168.666201110187
12001 9171.526647138666
12002 9175.465788548092
12003 9180.886994908098
12004 9187.038708941127
12005 9195.216318862369
12006 9204.084987558723
12007 9214.173865390996
12008 9225.704923810723
12009 9239.146515472667
12010 9252.515072660543
12011 9266.520820316095
12012 9280.591481905343
12013 9295.103745361901
12014 9308.870977929757
12015 9323.127539361862
12016 9336.340044711731
12017 9348.961239195076
12018 9361.350560227389
12019 9372.428743434597
12020 9382.769865220045
12021 9391.894720544566
12022 9399.600334748422
12023 9406.26108392692
12024 9410.900099194609
12025 9414.219326627335
12026 9416.072233093581
12027 9416.728255366488
12028 9414.89896740266
12029 9411.490081117561
12030 9406.395734161108
12031 9399.758452040531
12032 9391.637239556256
12033 9382.532110188222
12034 9371.660725798842
12035 9360.421263894223
12036 9347.448636096129
12037 9333.592105367021
12038 9318.754618687935
12039 9303.673607061626
12040 9288.385446718856
12041 9273.026637114008
12042 9257.544362512848
12043 9242.692409647534
12044 9227.855389111226
12045 9214.4452243259
12046 9201.464894213706
12047 9189.439537754914
12048 9178.382721081422
12049 9168.535953418472
12050 9160.050472113457
12051 9152.654020163502
12052 9146.508560032007
12053 9142.533567545815
12054 9139.612097829822
12055 9138.635582042203
12056 9139.615553490947
12057 9141.841988785853
12058 9145.372069336714
12059 9150.339001971843
12060 9156.217466015018
12061 9164.524019223622
12062 9173.243862912519
12063 9182.938314345436
12064 9194.076117696144
12065 9205.811385772982
12066 9217.530867580148
12067 9229.766932947885
12068 9242.439632480746
12069 9255.815942829231
12070 9268.66593769982
12071 9281.076826383696
12072 9293.039894900807
12073 9304.499127429564
12074 9315.325855009232
12075 9325.147771626038
12076 9334.252612739212
12077 9342.646877735364
12078 9350.059756408236
12079 9356.380744354203
12080 9361.364638970905
12081 9365.278195634895
12082 9368.228437956004
12083 9369.556321512162
12084 9369.753071204279
12085 9368.906972664452
12086 9367.247608248186
12087 9364.28880470675
12088 9360.308812767324
12089 9355.470827357578
12090 9349.546362604799
12091 9345.013771437314
12092 9337.5829996718
12093 9329.349155377668
12094 9320.559812843756
12095 9311.403404566567
12096 9301.501189774601
12097 9291.795909438892
12098 9281.603088693384
12099 9271.596173323847
12100 9261.675719632925
12101 9251.794532654669
12102 9241.691943969032
12103 9232.065666875094
12104 9222.372699322164
12105 9213.283384327502
12106 9204.480056395276
12107 9196.339665194804
12108 9188.732765278084
12109 9181.748753279606
12110 9175.841437742012
12111 9170.095847177734
12112 9165.040615397522
12113 9160.643688653425
12114 9156.545526051705
12115 9153.358380139724
12116 9151.673247854676
12117 9150.089753296756
12118 9148.655569176382
12119 9148.035416301927
12120 9147.730467103393
12121 9148.299272397075
12122 9149.219601314908
12123 9151.047428247002
12124 9153.326209944213
12125 9156.239608100632
12126 9159.596580747726
12127 9163.796883361691
12128 9168.268956413202
12129 9173.377579102827
12130 9178.954850749025
12131 9184.686567593233
12132 9190.800096031964
12133 9197.559953805108
12134 9204.313577927778
12135 9211.356922037616
12136 9218.513328474613
12137 9226.450875779534
12138 9234.064289057726
12139 9242.156343575223
12140 9250.062391902195
12141 9258.059868713286
12142 9266.021094037373
12143 9274.149450679693
12144 9282.205160713174
12145 9290.155847221324
12146 9296.973475890358
12147 9304.386890683127
12148 9310.36890411252
12149 9316.913811219307
12150 9322.393548140093
12151 9327.602190683519
12152 9332.119866031593
12153 9335.927599699082
12154 9339.281431738731
12155 9342.140021999767
12156 9343.712703401608
12157 9344.676122775716
12158 9344.867519014108
12159 9344.342616279022
12160 9342.314383280989
12161 9340.051050369413
12162 9337.734715884209
12163 9333.811366112755
12164 9328.515391450055
12165 9324.674688576592
12166 9317.9642982395
12167 9310.819744559947
12168 9305.858615651658
12169 9298.02152719788
12170 9289.677569675076
12171 9283.896892354049
12172 9275.134118495622
12173 9266.527401949943
12174 9257.826485235668
12175 9249.168369289786
12176 9240.623593960656
12177 9232.473428815803
12178 9225.034487907466
12179 9218.552884020164
12180 9212.313925476394
12181 9207.128364460285
12182 9202.454959586639
12183 9198.956987768224
12184 9196.212434017045
12185 9194.584225780967
12186 9193.901361045782
12187 9194.453122530907
12188 9195.51350671876
12189 9197.065079190539
12190 9200.181447687091
12191 9204.357836444156
12192 9207.751410547708
12193 9213.530446473849
12194 9217.963451794583
12195 9225.171649304086
12196 9230.894942931218
12197 9239.191074521939
12198 9245.107515156946
12199 9254.283884985092
12200 9260.727413369885
12201 9270.257902392719
12202 9279.574833939851
12203 9285.850680630578
12204 9295.134711345567
12205 9304.354957520956
12206 9313.236173994534
12207 9321.590110345791
12208 9329.09921308278
12209 9336.020778611843
12210 9342.144042844215
12211 9347.695594891817
12212 9352.339274102416
12213 9356.01200730924
12214 9358.813241867514
12215 9359.943780597421
12216 9360.73381266969
12217 9361.149445822059
12218 9360.14420498596
12219 9359.028810723546
12220 9356.213579516318
12221 9352.587462894475
12222 9349.413955632332
12223 9344.110965574422
12224 9337.764353858624
12225 9333.179959151876
12226 9325.326431254891
12227 9319.667059830657
12228 9310.298729763612
12229 9301.260636208583
12230 9291.483542118061
12231 9281.915608679434
12232 9271.893514080401
12233 9261.776912262349
12234 9251.895394237892
12235 9242.292293370188
12236 9232.403300022464
12237 9223.577261443901
12238 9214.840385869296
12239 9206.596799636072
12240 9198.808502824402
12241 9191.838011645443
12242 9185.527902577887
12243 9180.112062780194
12244 9175.476401967726
12245 9171.91895320438
12246 9169.179902004231
12247 9167.615200956005
12248 9166.656881882931
12249 9167.217493482893
12250 9168.443075414472
12251 9170.521065677312
12252 9173.779946486911
12253 9177.380402369747
12254 9180.695245926943
12255 9186.773393015283
12256 9193.525362697817
12257 9198.556766815196
12258 9206.474322864533
12259 9215.474646559212
12260 9221.268559295526
12261 9230.885267148909
12262 9240.620769053769
12263 9250.202898314797
12264 9259.570085797099
12265 9268.847120411308
12266 9277.17162570949
12267 9285.511745446716
12268 9293.245009309499
12269 9300.497233486452
12270 9307.3432592595
12271 9313.158397770869
12272 9318.177727643097
12273 9322.212000510526
12274 9325.278678919725
12275 9327.539210483617
12276 9328.75506422286
12277 9329.100329986548
12278 9328.534436821554
12279 9326.941315586841
12280 9324.813646954095
12281 9321.985752620345
12282 9319.2773434431
12283 9314.727403673131
12284 9309.227967394183
12285 9305.4079945514
12286 9299.232884862475
12287 9294.481529044802
12288 9287.522685300015
12289 9282.391414226813
12290 9274.752453574241
12291 9269.239975234716
12292 9261.182519027137
12293 9253.271302871735
12294 9248.297162621257
12295 9240.80012904767
12296 9234.237598549542
12297 9228.563431413764
12298 9223.224795693886
12299 9218.145708771926
12300 9214.278897950122
12301 9210.957916083333
12302 9208.789638822047
12303 9207.343377179841
12304 9206.60542041372
12305 9206.991981818303
12306 9208.516760644789
12307 9210.708207430425
12308 9213.585423856173
12309 9216.493733448191
12310 9221.139934148357
12311 9226.878526821994
12312 9230.826854818175
12313 9237.611785919076
12314 9242.762908901599
12315 9251.018859858124
12316 9256.38104738893
12317 9265.060365520567
12318 9270.877503909738
12319 9279.588216491757
12320 9285.491783648573
12321 9293.822426325371
12322 9302.14217465599
12323 9307.489374373401
12324 9315.203919227381
12325 9321.994235377491
12326 9328.002416849784
12327 9333.280434338434
12328 9337.680559118808
12329 9341.068429528028
12330 9344.07997366038
12331 9345.406621331314
12332 9346.083935686371
12333 9346.143135798147
12334 9344.951080985655
12335 9343.1676105036
12336 9341.371275705524
12337 9338.274323662579
12338 9334.08882354717
12339 9331.153988199112
12340 9325.589480821964
12341 9321.843972818424
12342 9316.088638504269
12343 9311.527806006279
12344 9304.511231154107
12345 9299.515902618878
12346 9291.756617421222
12347 9286.656567121649
12348 9279.137714341836
12349 9274.11477175881
12350 9266.200588252917
12351 9261.688472796181
12352 9254.582248013246
12353 9250.243086063319
12354 9243.947540084091
12355 9239.899404234226
12356 9234.497200844209
12357 9229.704993106116
12358 9227.487532934852
12359 9223.816173600451
12360 9221.968332083125
12361 9220.076856058127
12362 9219.289838929952
12363 9219.123673278447
12364 9219.214937120085
12365 9220.529218736296
12366 9221.736059343539
12367 9223.900156217196
12368 9225.840966598698
12369 9229.843335897522
12370 9232.384922761818
12371 9237.095212657627
12372 9240.482557206962
12373 9246.085071733138
12374 9249.982371968139
12375 9256.37260739981
12376 9260.681419794815
12377 9267.571979869099
12378 9272.297762512457
12379 9279.762759231728
12380 9284.602154818293
12381 9289.534501536569
12382 9296.467711846288
12383 9301.341026924612
12384 9308.216142628149
12385 9312.559427214444
12386 9319.200863517
12387 9323.130328410341
12388 9328.477759978437
12389 9331.532236053336
12390 9335.930029809044
12391 9338.74575227947
12392 9342.14064527588
12393 9344.29318991091
12394 9347.438778023206
12395 9349.050538144371
12396 9350.759110295145
12397 9351.675951347685
12398 9352.885378016719
12399 9353.263260447591
12400 9353.731012415177
12401 9353.945346540648
12402 9353.589119066874
12403 9353.19154312084
12404 9352.314583492653
12405 9351.621619039763
12406 9350.235674756492
12407 9349.229793911576
12408 9347.547094349409
12409 9346.472472877093
12410 9344.398818639193
12411 9343.298604458025
12412 9340.916771214272
12413 9339.615574721349
12414 9337.130669259266
12415 9335.436155299227
12416 9332.544265434042
12417 9330.592930623763
12418 9326.99421119309
12419 9324.846121404287
12420 9321.006621557388
12421 9318.279341842031
12422 9314.110393384301
12423 9309.571320894736
12424 9306.553905300139
12425 9301.825686916851
12426 9296.671564352409
12427 9291.657997954404
12428 9286.568266059357
12429 9282.870654626659
12430 9276.851542118007
12431 9271.026244791867
12432 9264.695557690226
12433 9260.518162644927
12434 9254.091125934005
12435 9248.524175641667
12436 9244.373619889739
12437 9238.734643828715
12438 9232.888238160442
12439 9227.31167046351
12440 9222.096352735934
12441 9217.3451633433
12442 9213.017407192227
12443 9209.419533119339
12444 9206.297934034512
12445 9203.914982307964
12446 9202.359880886279
12447 9202.031689091677
12448 9202.641976132756
12449 9203.960602259314
12450 9206.152993290152
12451 9209.579368961904
12452 9213.885945159956
12453 9219.301984332344
12454 9225.560272002291
12455 9232.442574526005
12456 9240.317690908556
12457 9248.769076373761
12458 9257.605308735439
12459 9267.403319335648
12460 9277.423360301689
12461 9287.613975523658
12462 9297.833401293588
12463 9308.607850928669
12464 9319.113765878996
12465 9329.69283493375
12466 9339.561297018045
12467 9349.113772046414
12468 9357.982044318042
12469 9366.38144960779
12470 9373.314028495763
12471 9379.745608197867
12472 9384.275668510692
12473 9388.047925774446
12474 9390.451901541581
12475 9391.696234366704
12476 9391.847280919466
12477 9390.495322041243
12478 9388.068297612459
12479 9384.258282916897
12480 9379.315766982731
12481 9373.270369445905
12482 9366.272502352853
12483 9358.009705641605
12484 9348.656164981643
12485 9339.458447582112
12486 9329.412112092041
12487 9319.070961242558
12488 9308.140127355087
12489 9297.52909380187
12490 9286.965623695976
12491 9276.15288751415
12492 9266.122084723025
12493 9256.427941889538
12494 9247.46913680396
12495 9239.500794098289
12496 9231.96079271716
12497 9225.331953018811
12498 9219.729100488817
12499 9215.616273494461
12500 9211.954055907858
12501 9209.982416204841
12502 9209.387390385147
12503 9209.821788008207
12504 9211.212950573261
12505 9214.442214015693
12506 9218.227304100255
12507 9222.880161285493
12508 9229.059379720642
12509 9236.211789420031
12510 9243.83685016765
12511 9249.484689484867
12512 9258.149931850319
12513 9267.704828745689
12514 9277.796083185242
12515 9286.923336762951
12516 9295.934468870313
12517 9304.874173914694
12518 9313.220340877599
12519 9321.342769469307
12520 9328.985570110213
12521 9336.098989538699
12522 9342.551198445432
12523 9348.392725915632
12524 9353.258919291597
12525 9357.214277944751
12526 9359.922231059219
12527 9361.642725011232
12528 9362.64430674689
12529 9363.335762413435
12530 9362.982119999475
12531 9362.114469536822
12532 9360.622594482902
12533 9358.767036475758
12534 9357.128702689897
12535 9354.335411424989
12536 9351.408108493995
12537 9349.130381946377
12538 9345.268398588789
12539 9342.576046794245
12540 9338.684103568103
12541 9335.809097397061
12542 9331.876374077918
12543 9329.349443687872
12544 9325.459893261923
12545 9323.297154412672
12546 9319.393243916262
12547 9316.047448649579
12548 9313.942112033916
12549 9311.717516376424
12550 9309.37327223208
12551 9307.227135882787
12552 9305.634666698685
12553 9304.250701551851
12554 9303.4467789954
12555 9303.090768430589
12556 9302.794184532244
12557 9302.62287535299
12558 9303.54296248412
12559 9303.453333702884
12560 9303.319521143858
12561 9303.106923182901
12562 9303.049914831947
12563 9303.259978365335
12564 9302.985848722266
12565 9302.599680925734
12566 9301.924658887274
12567 9300.841652473582
12568 9298.968255306376
12569 9296.862933716733
12570 9293.927566653851
12571 9292.463642327662
12572 9289.408967026855
12573 9285.995385556504
12574 9282.918806147181
12575 9279.343039231069
12576 9275.383476160398
12577 9272.071648010957
12578 9268.788619038651
12579 9265.337261680936
12580 9262.023194777095
12581 9259.249213564124
12582 9256.193261019589
12583 9253.852270646039
12584 9251.584052875647
12585 9249.978019036682
12586 9248.31754829809
12587 9247.39694218888
12588 9246.890251535639
12589 9247.163487938078
12590 9248.05269304282
12591 9249.107628246091
12592 9250.607966389718
12593 9252.626232601175
12594 9255.016697832772
12595 9258.539203912205
12596 9262.096499333136
12597 9266.36337165342
12598 9270.639730914929
12599 9275.208342332522
12600 9280.059863944844
12601 9285.095535149308
12602 9290.393951822127
12603 9295.626078634083
12604 9300.689969603362
12605 9305.587804235416
12606 9310.804534893035
12607 9315.298568322993
12608 9319.17378648462
12609 9322.059385259839
12610 9325.18886234821
12611 9327.378730325188
12612 9328.64557176694
12613 9329.344202643961
12614 9329.143863135214
12615 9328.03212870143
12616 9326.027689894823
12617 9323.115688264024
12618 9319.482701242197
12619 9314.967788726088
12620 9309.562226478713
12621 9303.247844104688
12622 9295.719306999981
12623 9287.33504914036
12624 9278.635958184534
12625 9269.15803132638
12626 9259.021080708573
12627 9248.259931095252
12628 9237.266052397013
12629 9226.36623448914
12630 9215.443156431338
12631 9204.291319517313
12632 9194.051423617462
12633 9183.929046093392
12634 9174.552200019536
12635 9165.460610675404
12636 9157.63735231695
12637 9150.851998182892
12638 9144.600501073706
12639 9139.939841199102
12640 9136.296846304162
12641 9133.938816359605
12642 9133.003406109317
12643 9133.57202291107
12644 9135.528579315212
12645 9139.216336840187
12646 9143.927451828562
12647 9150.29723706265
12648 9158.2148342864
12649 9167.284386115212
12650 9177.426599633407
12651 9188.608362004901
12652 9200.377033216848
12653 9213.074958232492
12654 9225.919437833611
12655 9239.152354024129
12656 9252.759389272866
12657 9266.965284088734
12658 9280.317410904179
12659 9293.512243723699
12660 9306.020904667321
12661 9318.591555603134
12662 9330.25079695235
12663 9340.519486466897
12664 9349.654137849902
12665 9357.737053888741
12666 9364.556377117042
12667 9369.783593139502
12668 9373.55333397084
12669 9375.851405023393
12670 9376.654458098697
12671 9376.443984088979
12672 9374.284625088272
12673 9370.729061042217
12674 9365.656672406629
12675 9359.044129772106
12676 9351.447916486584
12677 9342.10610918794
12678 9332.028974497007
12679 9321.026812037016
12680 9308.956537885781
12681 9296.748415175036
12682 9283.828326295505
12683 9270.692901085953
12684 9256.973194710192
12685 9243.412483933127
12686 9229.69496165971
12687 9216.330599795894
12688 9203.484850337894
12689 9191.451618774139
12690 9179.960731508878
12691 9169.12437800714
12692 9159.031895902712
12693 9150.179033571116
12694 9142.303075394169
12695 9135.73859060935
12696 9129.618861500805
12697 9124.889303165379
12698 9121.16028749157
12699 9119.047118623792
12700 9117.872366045071
12701 9118.418049044772
12702 9119.852027162298
12703 9123.010690265344
12704 9126.917293532728
12705 9131.573927235855
12706 9136.880997055394
12707 9143.494975798369
12708 9150.329277583589
12709 9155.312634383494
12710 9163.753988104294
12711 9172.605440134786
