"mx-rfile"
"Iteration" "mx"
("Iteration" "mx")
1 -14858.28479278301
2 -14376.00297023609
3 -12392.85179955048
4 -11070.45741378512
5 -9152.604536891822
6 -7871.671448305982
7 -6402.875410669972
8 -5347.199060684328
9 -4153.952187331597
10 -3201.026435179793
11 -2398.443772047748
12 -1693.886394769386
13 -1207.822211624739
14 -931.9087276637334
15 -849.7869999560827
16 -914.0662930166586
17 -1077.665104694811
18 -1310.222511323684
19 -1608.565766531864
20 -1891.801482584157
21 -2173.922365479298
22 -2435.114572936866
23 -2641.090261928822
24 -2828.374273347765
25 -3009.595996163475
26 -3136.656290991435
27 -3264.633572302826
28 -3346.031900257072
29 -3409.435471118732
30 -3449.343332744008
31 -3472.81255483037
32 -3484.659485577801
33 -3489.400705760516
34 -3491.039000994722
35 -3491.87602445654
36 -3493.016591492103
37 -3495.539734521975
38 -3499.496731417782
39 -3504.808264259949
40 -3512.248150194401
41 -3521.322430185044
42 -3532.095490745591
43 -3545.97909269538
44 -3560.068020216552
45 -3576.157185073295
46 -3591.046547129032
47 -3605.272768444185
48 -3618.699536630662
49 -3632.683079117947
50 -3643.759873005373
51 -3654.488826087247
52 -3664.588789257317
53 -3673.328012451054
54 -3682.091246461674
55 -3689.746014108465
56 -3697.728983754282
57 -3704.419685363335
58 -3711.693115702977
59 -3717.548879252936
60 -3725.865988913177
61 -3732.049085447718
62 -3738.610664373036
63 -3746.912489116671
64 -3754.146583490407
65 -3760.400418457098
66 -3765.879033936542
67 -3770.52299050657
68 -3774.997716057422
69 -3777.666824750618
70 -3780.235739135815
71 -3781.498419853987
72 -3782.53621906684
73 -3782.991423116722
74 -3783.304620205224
75 -3783.273436644766
76 -3783.325782033294
77 -3783.358316918958
78 -3783.535609857215
79 -3783.665337623089
80 -3784.012363236328
81 -3784.345308468529
82 -3784.74176752854
83 -3785.073099288846
84 -3785.381763710365
85 -3785.833701423996
86 -3786.13590693305
87 -3786.501156968773
88 -3786.649715481506
89 -3786.49498438902
90 -3786.161071238521
91 -3785.608310044318
92 -3784.873968095039
93 -3783.909779729196
94 -3782.807371286158
95 -3781.564459729309
96 -3780.214488886651
97 -3778.682039440369
98 -3777.115744919917
99 -3775.414243978203
100 -3773.719543835777
101 -3771.893443719197
102 -3770.121322649349
103 -3768.915823158749
104 -3767.187217919122
105 -3765.945236950677
106 -3764.155062028134
107 -3762.835508470968
108 -3761.023029724209
109 -3759.648683458865
110 -3758.38373844952
111 -3756.968417726699
112 -3755.614975890268
113 -3754.109980167827
114 -3751.956513979001
115 -3750.34687816013
116 -3748.825863691901
117 -3747.204745064267
118 -3744.775427437192
119 -3743.040250031548
120 -3741.39899337105
121 -3738.766245469859
122 -3737.047250336828
123 -3735.217113421918
124 -3732.590213456157
125 -3730.769671704353
126 -3729.07857364179
127 -3726.504286203489
128 -3724.869768586556
129 -3723.183528711149
130 -3721.580471398595
131 -3719.934641263548
132 -3718.421448423577
133 -3716.828328916663
134 -3715.364369059925
135 -3713.81496082192
136 -3712.420125237463
137 -3710.958535499119
138 -3709.653780774565
139 -3708.310230877612
140 -3707.08867253162
141 -3705.83247282367
142 -3704.68330943821
143 -3703.503411322693
144 -3702.468567920979
145 -3701.390010521904
146 -3700.454491308401
147 -3699.50345997931
148 -3698.661115697267
149 -3697.795114200249
150 -3697.040858336014
151 -3696.271247865279
152 -3695.610563744136
153 -3694.920705313047
154 -3694.369326559422
155 -3693.7876129542
156 -3693.317536234616
157 -3692.804162506616
158 -3692.404209414133
159 -3691.979767088319
160 -3691.64412437758
161 -3691.301493577993
162 -3691.044944018454
163 -3690.744702753165
164 -3690.543883831519
165 -3690.323075229001
166 -3690.165578707167
167 -3689.972516181704
168 -3689.837308487025
169 -3689.665434068903
170 -3689.54940822182
171 -3689.393607151305
172 -3689.284207967948
173 -3689.133225043684
174 -3689.034412810838
175 -3688.860073149483
176 -3688.745690623651
177 -3688.566652728244
178 -3688.432170235185
179 -3688.188828543284
180 -3688.043676950163
181 -3687.797269655066
182 -3687.625287705033
183 -3687.331688841388
184 -3687.110237012919
185 -3686.810292065656
186 -3686.549691905351
187 -3686.205225043355
188 -3685.893582155288
189 -3685.529806503471
190 -3685.150576726075
191 -3684.727667683142
192 -3684.336932913933
193 -3683.861568748216
194 -3683.429942376807
195 -3682.911871821834
196 -3682.430545213367
197 -3681.900748820861
198 -3681.380454358138
199 -3680.812241482942
200 -3680.262375451638
201 -3679.659257129822
202 -3679.090654421927
203 -3678.461593179969
204 -3677.872964276706
205 -3677.237384304732
206 -3676.620837304348
207 -3675.940246241511
208 -3675.287189925768
209 -3674.600272996974
210 -3673.941605883353
211 -3673.259037539363
212 -3672.58594563395
213 -3671.898241866417
214 -3671.219287484482
215 -3670.520315546467
216 -3669.839410074553
217 -3669.134754720805
218 -3668.451648878758
219 -3667.737970980393
220 -3667.060824372026
221 -3666.348090542202
222 -3665.670844380408
223 -3664.984013548808
224 -3664.318321351082
225 -3663.659218813913
226 -3663.011549147034
227 -3662.360856340808
228 -3661.734068700811
229 -3660.808538771998
230 -3660.227993532895
231 -3659.643589025925
232 -3659.097603161366
233 -3658.534891847217
234 -3658.045105978299
235 -3657.525048783019
236 -3657.06909017386
237 -3656.581740288281
238 -3656.152895518515
239 -3655.701645406026
240 -3655.320028665707
241 -3654.913210154074
242 -3654.568959833354
243 -3654.184838450813
244 -3653.893214170812
245 -3653.550017017203
246 -3653.288158069833
247 -3652.987959590305
248 -3652.766006372365
249 -3652.504689267395
250 -3652.339677762983
251 -3652.113750404272
252 -3651.99484403748
253 -3651.817485623628
254 -3651.724122472941
255 -3651.606274784696
256 -3651.558780486515
257 -3651.480987880696
258 -3651.469571367281
259 -3651.444112202671
260 -3651.480496235565
261 -3651.505764031294
262 -3651.573146520202
263 -3651.637971388629
264 -3651.742472891816
265 -3651.864127972567
266 -3652.013049389039
267 -3652.172857276086
268 -3652.373346340069
269 -3652.569957194507
270 -3652.813480708058
271 -3653.039503743051
272 -3653.316977469215
273 -3653.585588949241
274 -3653.910928124561
275 -3654.208621924789
276 -3654.558746814712
277 -3654.894011473975
278 -3655.286116683347
279 -3655.671391407935
280 -3656.099972180011
281 -3656.525264938451
282 -3656.997179661146
283 -3657.465127535605
284 -3657.982748102955
285 -3658.485595922445
286 -3659.042266744352
287 -3659.584178018337
288 -3660.16244129286
289 -3660.746537793419
290 -3661.366364867465
291 -3661.992230872464
292 -3662.649300485811
293 -3663.313678780453
294 -3663.997391028842
295 -3664.699380283771
296 -3665.426748246222
297 -3666.160162863258
298 -3666.912616268874
299 -3667.676913637337
300 -3668.459227954402
301 -3669.25295406916
302 -3670.078121577482
303 -3670.899824662142
304 -3671.757376396646
305 -3672.607776564223
306 -3673.501106797525
307 -3674.382121350091
308 -3675.299837755745
309 -3676.207089995835
310 -3677.157116237202
311 -3678.0971459895
312 -3679.080929696337
313 -3680.033031701059
314 -3681.043516734242
315 -3681.99679701365
316 -3683.023219615833
317 -3683.984481631567
318 -3685.50684820286
319 -3686.437773433316
320 -3687.44748853531
321 -3688.401697069136
322 -3689.42727763403
323 -3690.872398291072
324 -3691.843058476893
325 -3692.803685537262
326 -3694.251196121477
327 -3695.167483058692
328 -3696.127013852765
329 -3697.498202736234
330 -3698.422777037661
331 -3699.343961024571
332 -3700.735620399557
333 -3701.634291659123
334 -3702.569769335135
335 -3703.939043302536
336 -3704.854852890629
337 -3705.773595423841
338 -3707.162763136373
339 -3708.064411170345
340 -3709.436828025582
341 -3710.334909850118
342 -3711.689816446325
343 -3712.576474924047
344 -3713.936235023276
345 -3714.81906457166
346 -3715.727740385335
347 -3717.085911267034
348 -3718.007336831013
349 -3719.353005037422
350 -3720.265810490123
351 -3721.596140060803
352 -3722.490974798743
353 -3723.821295973598
354 -3724.713672026762
355 -3726.036461298731
356 -3726.929543265635
357 -3728.245943152124
358 -3729.140485631274
359 -3730.445916683495
360 -3731.324412840274
361 -3732.640620192132
362 -3733.520209370092
363 -3734.829648306554
364 -3735.70485224393
365 -3737.018069240551
366 -3737.905078945998
367 -3739.210287453962
368 -3740.085636038444
369 -3741.3965284635
370 -3742.277655723548
371 -3743.578218696289
372 -3744.452876287602
373 -3745.758627019961
374 -3746.634000808892
375 -3747.927536163352
376 -3748.80381178642
377 -3750.083824457552
378 -3750.948271144057
379 -3752.217291144676
380 -3753.082455126497
381 -3754.334437686236
382 -3755.196182589531
383 -3756.045784148746
384 -3757.365786980424
385 -3758.192605411884
386 -3759.498364821806
387 -3760.321384941033
388 -3761.621875312571
389 -3762.443529771658
390 -3763.71805292583
391 -3764.53290028139
392 -3765.387162630464
393 -3766.638602198007
394 -3767.481865147554
395 -3768.716116349294
396 -3769.541901450392
397 -3770.374130290403
398 -3771.641485581388
399 -3772.454416959592
400 -3773.304157402521
401 -3774.552936424745
402 -3775.378332597125
403 -3776.216306203645
404 -3777.460848844056
405 -3778.273653197929
406 -3779.099845978885
407 -3780.346920885526
408 -3781.143800616674
409 -3781.972940584898
410 -3783.192721969071
411 -3783.981514457291
412 -3784.791419974391
413 -3785.595760129762
414 -3786.80954157891
415 -3787.589644104915
416 -3788.392728852641
417 -3789.577214682595
418 -3790.362108787798
419 -3791.117973176615
420 -3791.931653960511
421 -3792.709499169845
422 -3793.895461331984
423 -3794.638228160632
424 -3795.428157855513
425 -3796.189419323382
426 -3796.989308926147
427 -3798.129577172324
428 -3798.900283674641
429 -3799.644075939328
430 -3800.427291739261
431 -3801.181381464933
432 -3801.975855145414
433 -3802.738764314882
434 -3803.536251820252
435 -3804.306374881961
436 -3805.105656200968
437 -3805.882233822462
438 -3806.684231152255
439 -3807.823174184431
440 -3808.58162984605
441 -3809.313286360566
442 -3810.065880597318
443 -3810.792940296099
444 -3811.536154319293
445 -3812.256117987712
446 -3812.992491938453
447 -3813.712529787664
448 -3814.445262132873
449 -3815.16000026312
450 -3815.897953005442
451 -3816.59715597793
452 -3817.324618346649
453 -3818.014433053467
454 -3818.727211046151
455 -3819.419186926892
456 -3820.122811286753
457 -3820.805732442322
458 -3821.502733916823
459 -3822.173110703472
460 -3822.871143778293
461 -3823.541290446097
462 -3824.215779856956
463 -3824.874598698127
464 -3825.545503695907
465 -3826.185558313101
466 -3826.841579525119
467 -3827.453398947042
468 -3828.108392404498
469 -3828.717789212988
470 -3829.363839832938
471 -3829.975763927976
472 -3830.60827351813
473 -3831.208495473274
474 -3831.829133032683
475 -3832.41824819489
476 -3833.032471132799
477 -3833.611103630838
478 -3834.223101875306
479 -3834.773333430956
480 -3835.375429105024
481 -3835.913193691448
482 -3836.497224912325
483 -3837.044668287943
484 -3837.627188138473
485 -3838.161213713205
486 -3838.722436298028
487 -3839.254463393417
488 -3839.809970535634
489 -3840.329735541761
490 -3840.872186107983
491 -3841.385809867137
492 -3841.915212472268
493 -3842.41411111068
494 -3842.938690358196
495 -3843.42903977916
496 -3843.954214046591
497 -3844.442285434229
498 -3844.954684185775
499 -3845.440100077444
500 -3845.941003925866
501 -3846.41375975513
502 -3846.895505362509
503 -3847.361266922073
504 -3847.838387650847
505 -3848.29080685691
506 -3848.773168272266
507 -3849.203941071131
508 -3849.682648225209
509 -3850.101284796266
510 -3850.573854024333
511 -3850.986536608377
512 -3851.459586972843
513 -3851.857952621126
514 -3852.31124734577
515 -3852.704252547961
516 -3853.155380069179
517 -3853.535457655781
518 -3853.984941416169
519 -3854.359940656912
520 -3854.821212236333
521 -3855.184129504601
522 -3855.628131221861
523 -3855.998630185162
524 -3856.433856344289
525 -3856.804543137298
526 -3857.213425078106
527 -3857.574017108084
528 -3857.974858697969
529 -3858.330977385062
530 -3858.71080860064
531 -3859.070924357609
532 -3859.450658996549
533 -3859.802396203884
534 -3860.167052705157
535 -3860.507994134624
536 -3860.862365515973
537 -3861.204264695533
538 -3861.535531574883
539 -3861.889166727467
540 -3862.229585515454
541 -3862.557466419557
542 -3862.88017118676
543 -3863.208747236412
544 -3863.529898633877
545 -3863.850920685704
546 -3864.163305985805
547 -3864.478570162943
548 -3864.807454237348
549 -3865.102040456785
550 -3865.430973028114
551 -3865.722014241363
552 -3866.045015649147
553 -3866.33475809086
554 -3866.65052418738
555 -3866.928677277745
556 -3867.251694793118
557 -3867.52781883081
558 -3867.829310442472
559 -3868.107827686227
560 -3868.403310434842
561 -3868.690207990205
562 -3868.979369452889
563 -3869.252466101811
564 -3869.545746270195
565 -3869.813651891742
566 -3870.094253813981
567 -3870.353411202811
568 -3870.639340245464
569 -3870.887990319348
570 -3871.150662412341
571 -3871.397001942677
572 -3871.672784124064
573 -3871.907909500538
574 -3872.170343426759
575 -3872.407623469532
576 -3872.671469870522
577 -3872.904004959256
578 -3873.156266953452
579 -3873.38423908661
580 -3873.637281346653
581 -3873.862953684537
582 -3874.112268854578
583 -3874.327583174148
584 -3874.579601015512
585 -3874.785344723441
586 -3875.026984952794
587 -3875.231074025533
588 -3875.485314388713
589 -3875.679983691007
590 -3875.929700445784
591 -3876.122403244001
592 -3876.369391189878
593 -3876.566461204488
594 -3876.796455033535
595 -3876.978414468518
596 -3877.21088115703
597 -3877.406533660685
598 -3877.625730298435
599 -3877.827970063854
600 -3878.053149757378
601 -3878.257479604615
602 -3878.464160447638
603 -3878.654884153188
604 -3878.862548267848
605 -3879.042525871058
606 -3879.238464209288
607 -3879.415855081259
608 -3879.625400549495
609 -3879.805403589919
610 -3879.999710641676
611 -3880.184002726813
612 -3880.387151670679
613 -3880.557684887043
614 -3880.765893893793
615 -3880.917494445728
616 -3881.136669992664
617 -3881.284033748566
618 -3881.49547340359
619 -3881.643643520466
620 -3881.843532316907
621 -3881.997895355715
622 -3882.184945466425
623 -3882.333555901178
624 -3882.524253796386
625 -3882.68333769874
626 -3882.85293443406
627 -3883.014836715572
628 -3883.196527255094
629 -3883.34248620859
630 -3883.516459234785
631 -3883.663982508717
632 -3883.840023738088
633 -3883.998238004734
634 -3884.158123685247
635 -3884.31486409773
636 -3884.485211446694
637 -3884.635759128546
638 -3884.79870851247
639 -3884.945088480972
640 -3885.125553005751
641 -3885.260964261261
642 -3885.43677414752
643 -3885.56699745062
644 -3885.747245127905
645 -3885.870106849141
646 -3886.043425142801
647 -3886.159672250732
648 -3886.342742926747
649 -3886.458752895611
650 -3886.625446772165
651 -3886.740231269473
652 -3886.918778413919
653 -3887.018172031768
654 -3887.198382364442
655 -3887.295084673613
656 -3887.476261995334
657 -3887.568492006797
658 -3887.73889690873
659 -3887.84691400567
660 -3888.014744358398
661 -3888.129627251159
662 -3888.285069758094
663 -3888.395438325621
664 -3888.555440752677
665 -3888.673329878075
666 -3888.810508659732
667 -3888.927062147377
668 -3889.065349576073
669 -3889.180925343912
670 -3889.321091735688
671 -3889.449000762263
672 -3889.573659677565
673 -3889.697914848531
674 -3889.819173505282
675 -3889.947991072664
676 -3890.079063780267
677 -3890.197562713082
678 -3890.318245175844
679 -3890.436157182073
680 -3890.564664920155
681 -3890.678141357924
682 -3890.79834872052
683 -3890.913157801659
684 -3891.044659747764
685 -3891.150372425369
686 -3891.277382356565
687 -3891.380312015915
688 -3891.511444771849
689 -3891.604540508397
690 -3891.737235208958
691 -3891.829932452111
692 -3891.969195331812
693 -3892.05769637159
694 -3892.199786074572
695 -3892.282168306795
696 -3892.419527502036
697 -3892.500083959031
698 -3892.631785241922
699 -3892.719187210215
700 -3892.839490270881
701 -3892.940004953725
702 -3893.047803541506
703 -3893.148229124322
704 -3893.2655953393
705 -3893.367864216259
706 -3893.463526944836
707 -3893.571336727065
708 -3893.690154341029
709 -3893.777264454925
710 -3893.890973992221
711 -3893.97567209082
712 -3894.095361406178
713 -3894.177167603189
714 -3894.28273504364
715 -3894.370253864908
716 -3894.479900519804
717 -3894.5613293761
718 -3894.688031047798
719 -3894.770192896527
720 -3894.899543486546
721 -3894.964666725119
722 -3895.081023385795
723 -3895.155623091433
724 -3895.275977734725
725 -3895.34647612344
726 -3895.467037297204
727 -3895.536104762318
728 -3895.653868937958
729 -3895.721570052106
730 -3895.843235587851
731 -3895.902513747953
732 -3896.011408094139
733 -3896.07828604453
734 -3896.191753348731
735 -3896.259172909073
736 -3896.372373466097
737 -3896.437061044824
738 -3896.542099199928
739 -3896.613260389206
740 -3896.707068064353
741 -3896.780169163557
742 -3896.875960612538
743 -3896.941132976687
744 -3897.042666267111
745 -3897.112016149698
746 -3897.203293648807
747 -3897.286578026204
748 -3897.373548536099
749 -3897.460869673523
750 -3897.549052984622
751 -3897.617286987151
752 -3897.71268209709
753 -3897.776810476136
754 -3897.86629304161
755 -3897.940274765902
756 -3898.030192827264
757 -3898.099747279105
758 -3898.189292100457
759 -3898.259649254473
760 -3898.347684670673
761 -3898.415803319715
762 -3898.493977979122
763 -3898.565316754689
764 -3898.654511655074
765 -3898.714537451483
766 -3898.806221824655
767 -3898.872943927112
768 -3898.957100339396
769 -3899.022752291151
770 -3899.105461660875
771 -3899.170821787874
772 -3899.254237329607
773 -3899.307816985162
774 -3899.396923646269
775 -3899.439075057395
776 -3899.54349618783
777 -3899.575962890437
778 -3899.670048152767
779 -3899.718834823772
780 -3899.818301904444
781 -3899.862967448862
782 -3899.965077507798
783 -3899.996458203774
784 -3900.095889976828
785 -3900.132254379418
786 -3900.219528753287
787 -3900.267403909266
788 -3900.36932179493
789 -3900.405795197149
790 -3900.504131087821
791 -3900.539765013647
792 -3900.639925102347
793 -3900.674322659529
794 -3900.757824555258
795 -3900.796448180335
796 -3900.878044475177
797 -3900.926332438751
798 -3901.000442475322
799 -3901.042314023902
800 -3901.125191223762
801 -3901.168844963913
802 -3901.2537195291
803 -3901.293463914449
804 -3901.369682387945
805 -3901.422867647886
806 -3901.482171292657
807 -3901.540440811979
808 -3901.60868889618
809 -3901.673696093994
810 -3901.734260458491
811 -3901.785153472057
812 -3901.864574391461
813 -3901.908094125381
814 -3901.984121845836
815 -3902.024655631002
816 -3902.097853735121
817 -3902.136085288645
818 -3902.209803718349
819 -3902.241486207785
820 -3902.329303153932
821 -3902.35082981225
822 -3902.434152385253
823 -3902.465628426776
824 -3902.537692674266
825 -3902.57628468315
826 -3902.648918851982
827 -3902.681178467264
828 -3902.741062603034
829 -3902.783357692245
830 -3902.852371602933
831 -3902.891492758895
832 -3902.959527537387
833 -3903.001848445632
834 -3903.05364827071
835 -3903.109453832165
836 -3903.162984170801
837 -3903.21418510933
838 -3903.253749656389
839 -3903.309232292014
840 -3903.353793937401
841 -3903.399753953062
842 -3903.456754065737
843 -3903.49539324549
844 -3903.562889834853
845 -3903.588766462732
846 -3903.655612735257
847 -3903.683843595479
848 -3903.742209545626
849 -3903.77848201795
850 -3903.839958797758
851 -3903.878445587937
852 -3903.946336135098
853 -3903.982123752254
854 -3904.061606756261
855 -3904.076442564931
856 -3904.166048386736
857 -3904.169096691603
858 -3904.257196178237
859 -3904.265389596464
860 -3904.343397269301
861 -3904.35202347004
862 -3904.419459040668
863 -3904.43367038945
864 -3904.496960840793
865 -3904.508410568069
866 -3904.583221041537
867 -3904.613843109425
868 -3904.67597214976
869 -3904.702587805353
870 -3904.755285926204
871 -3904.777354137384
872 -3904.838415246863
873 -3904.856620918051
874 -3904.915098300359
875 -3904.935280108821
876 -3904.992740432313
877 -3905.028439036259
878 -3905.08028270772
879 -3905.117500928954
880 -3905.165597764331
881 -3905.190969280355
882 -3905.247795398793
883 -3905.272845953083
884 -3905.327899597482
885 -3905.341702893385
886 -3905.400297208276
887 -3905.422337601649
888 -3905.473907796059
889 -3905.486166301351
890 -3905.527284632814
891 -3905.554209532702
892 -3905.60901062449
893 -3905.635878793503
894 -3905.681972587159
895 -3905.71011476175
896 -3905.76973096486
897 -3905.783254351504
898 -3905.838435116136
899 -3905.853432392796
900 -3905.907516167626
901 -3905.928143362498
902 -3905.976898367253
903 -3906.001359682844
904 -3906.047567027139
905 -3906.06500147593
906 -3906.109526201014
907 -3906.134870335337
908 -3906.178320909914
909 -3906.203665838284
910 -3906.239522422039
911 -3906.260942733685
912 -3906.317693761463
913 -3906.315506365821
914 -3906.366560785769
915 -3906.367852661543
916 -3906.425072070364
917 -3906.437289733629
918 -3906.48512820212
919 -3906.500500754518
920 -3906.549003884718
921 -3906.55413692531
922 -3906.62260294839
923 -3906.620033659974
924 -3906.685120966141
925 -3906.680443633153
926 -3906.723551722343
927 -3906.745505355771
928 -3906.797322704924
929 -3906.81634441328
930 -3906.847627173659
931 -3906.869376076705
932 -3906.904817063448
933 -3906.935593874119
934 -3906.971358280392
935 -3907.005908369022
936 -3907.044024039183
937 -3907.068785361809
938 -3907.097452068703
939 -3907.108881457531
940 -3907.151684864155
941 -3907.150434915696
942 -3907.192454660968
943 -3907.202841361988
944 -3907.241064477589
945 -3907.265271419542
946 -3907.298227051487
947 -3907.326292047201
948 -3907.360012421273
949 -3907.376513958322
950 -3907.410540209761
951 -3907.417880984215
952 -3907.463298945604
953 -3907.461852569257
954 -3907.508032165118
955 -3907.501412627279
956 -3907.554011359027
957 -3907.548747952551
958 -3907.594936771451
959 -3907.598817646745
960 -3907.648936842775
961 -3907.661080660474
962 -3907.696053070792
963 -3907.715396504586
964 -3907.741993058089
965 -3907.762451115914
966 -3907.787451361239
967 -3907.802960463093
968 -3907.834483726992
969 -3907.856101914851
970 -3907.87557494972
971 -3907.900865326465
972 -3907.924894323322
973 -3907.957793229049
974 -3907.981361445254
975 -3908.001000114683
976 -3908.025717332097
977 -3908.040240108826
978 -3908.060732562207
979 -3908.070169640999
980 -3908.093396867759
981 -3908.112482768282
982 -3908.133351036487
983 -3908.147105612292
984 -3908.188777198305
985 -3908.18505105228
986 -3908.220812563203
987 -3908.227800275252
988 -3908.257401877187
989 -3908.257186317335
990 -3908.295112523172
991 -3908.281362424058
992 -3908.342062265023
993 -3908.315867607246
994 -3908.378082386779
995 -3908.354040547069
996 -3908.410966281442
997 -3908.393042930617
998 -3908.449058432809
999 -3908.440515876662
1000 -3908.492079511607
1001 -3908.481460488767
1002 -3908.540894685424
1003 -3908.526682753049
1004 -3908.585192411851
1005 -3908.575197904845
1006 -3908.61191320731
1007 -3908.625894824269
1008 -3908.648634317974
1009 -3908.662313230907
1010 -3908.673481283312
1011 -3908.691550831103
1012 -3908.704275160342
1013 -3908.729785377282
1014 -3908.747993795873
1015 -3908.766281922097
1016 -3908.788114331688
1017 -3908.805841683972
1018 -3908.83064059877
1019 -3908.839473674766
1020 -3908.861582619403
1021 -3908.863264709174
1022 -3908.88394908539
1023 -3908.892771050083
1024 -3908.918038022187
1025 -3908.928772666847
1026 -3908.950876954274
1027 -3908.949914903493
1028 -3908.980950558828
1029 -3908.980583168933
1030 -3909.002079566022
1031 -3909.000664883769
1032 -3909.034130304061
1033 -3909.035489894753
1034 -3909.07432424114
1035 -3909.061499087193
1036 -3909.110179854112
1037 -3909.102016475138
1038 -3909.132839731834
1039 -3909.13504912847
1040 -3909.17057241448
1041 -3909.174616786032
1042 -3909.192244560577
1043 -3909.197364243023
1044 -3909.229601462599
1045 -3909.226491730864
1046 -3909.254697901112
1047 -3909.262425477428
1048 -3909.281454571877
1049 -3909.297930122821
1050 -3909.301454002748
1051 -3909.317176937398
1052 -3909.336659449356
1053 -3909.359515604321
1054 -3909.363009331328
1055 -3909.375590437305
1056 -3909.401429298731
1057 -3909.382843971424
1058 -3909.415804160177
1059 -3909.399803027492
1060 -3909.432860336362
1061 -3909.409027381701
1062 -3909.432450703459
1063 -3909.431272074595
1064 -3909.45956987534
1065 -3909.461045378704
1066 -3909.483623501902
1067 -3909.493919678557
1068 -3909.526562146588
1069 -3909.528251426309
1070 -3909.546832668861
1071 -3909.550299975312
1072 -3909.575467781623
1073 -3909.580289306935
1074 -3909.610165113617
1075 -3909.60184363632
1076 -3909.629675500635
1077 -3909.626769068154
1078 -3909.646656027325
1079 -3909.649016694359
1080 -3909.668907436625
1081 -3909.672536190484
1082 -3909.686676300113
1083 -3909.697561981262
1084 -3909.708350188289
1085 -3909.713195351237
1086 -3909.724558527
1087 -3909.741844670025
1088 -3909.765042833631
1089 -3909.766796835633
1090 -3909.789822659364
1091 -3909.799770910164
1092 -3909.818560912235
1093 -3909.819478596781
1094 -3909.836330359174
1095 -3909.836879034718
1096 -3909.866162655905
1097 -3909.865628119743
1098 -3909.882687065812
1099 -3909.873503468424
1100 -3909.89242297146
1101 -3909.889733470119
1102 -3909.908897784441
1103 -3909.9057944632
1104 -3909.93113020694
1105 -3909.924396756375
1106 -3909.946377797873
1107 -3909.956229213819
1108 -3909.973010472212
1109 -3909.984623137461
1110 -3909.989742208037
1111 -3909.998587286491
1112 -3910.015910979366
1113 -3910.023382718201
1114 -3910.04469314366
1115 -3910.036936469133
1116 -3910.065182411832
1117 -3910.050587290223
1118 -3910.071143551089
1119 -3910.069378815569
1120 -3910.090085040758
1121 -3910.089141737307
1122 -3910.096429889819
1123 -3910.095875246072
1124 -3910.125580781153
1125 -3910.107257427779
1126 -3910.139673212441
1127 -3910.116175959928
1128 -3910.154983776594
1129 -3910.132331306531
1130 -3910.161481771624
1131 -3910.149579635859
1132 -3910.16431373934
1133 -3910.165087352683
1134 -3910.180081156626
1135 -3910.17593125804
1136 -3910.202911405373
1137 -3910.194946537805
1138 -3910.238404327311
1139 -3910.223195644306
1140 -3910.262708153351
1141 -3910.246650533204
1142 -3910.263387763807
1143 -3910.259011283385
1144 -3910.272046399397
1145 -3910.272290088324
1146 -3910.294137704745
1147 -3910.286812230047
1148 -3910.310392058735
1149 -3910.315078907157
1150 -3910.325271881307
1151 -3910.336170627115
1152 -3910.340340314874
1153 -3910.337710020379
1154 -3910.356095034509
1155 -3910.342372637812
1156 -3910.369930801655
1157 -3910.362718312339
1158 -3910.381004612361
1159 -3910.373263392727
1160 -3910.395765218326
1161 -3910.388591490957
1162 -3910.408738370466
1163 -3910.407505094759
1164 -3910.426199414693
1165 -3910.415046905225
1166 -3910.436684716202
1167 -3910.429982632081
1168 -3910.456074779015
1169 -3910.443066128718
1170 -3910.466712909143
1171 -3910.45887688012
1172 -3910.468514197451
1173 -3910.457636270524
1174 -3910.474088628996
1175 -3910.480669774957
1176 -3910.487379158879
1177 -3910.493140599362
1178 -3910.508093232023
1179 -3910.505917731137
1180 -3910.532782521524
1181 -3910.525392781956
1182 -3910.539112500606
1183 -3910.527976543517
1184 -3910.547668079182
1185 -3910.538604740442
1186 -3910.558368654176
1187 -3910.555774829378
1188 -3910.562181234347
1189 -3910.556358241532
1190 -3910.563475557158
1191 -3910.567278639783
1192 -3910.592047184138
1193 -3910.596458277837
1194 -3910.609818100479
1195 -3910.600294793614
1196 -3910.637079282491
1197 -3910.614000665638
1198 -3910.646586393298
1199 -3910.623295053337
1200 -3910.647659894101
1201 -3910.635489504361
1202 -3910.651438649528
1203 -3910.638687097237
1204 -3910.665012534767
1205 -3910.646175843889
1206 -3910.668096995262
1207 -3910.641312711337
1208 -3910.661452086869
1209 -3910.644762560969
1210 -3910.65317471956
1211 -3910.657752785616
1212 -3910.665533729178
1213 -3910.667236812054
1214 -3910.68531380705
1215 -3910.692452203023
1216 -3910.707858766084
1217 -3910.70698893113
1218 -3910.725477306127
1219 -3910.709822634923
1220 -3910.729152499594
1221 -3910.712794473961
1222 -3910.721149167269
1223 -3910.716746545806
1224 -3910.720856119138
1225 -3910.728936081997
1226 -3910.730751640794
1227 -3910.737151071407
1228 -3910.75243054757
1229 -3910.761331965077
1230 -3910.770408668717
1231 -3910.779028084867
1232 -3910.787061205107
1233 -3910.794800486323
1234 -3910.799302476436
1235 -3910.801012420319
1236 -3910.818043453171
1237 -3910.801127145816
1238 -3910.814320400644
1239 -3910.798338329071
1240 -3910.81820753997
1241 -3910.814512293122
1242 -3910.823920995288
1243 -3910.821331082984
1244 -3910.827217546231
1245 -3910.827225077889
1246 -3910.830587616957
1247 -3910.834757097244
1248 -3910.855617771615
1249 -3910.84166470774
1250 -3910.866148598621
1251 -3910.848044149828
1252 -3910.880671488592
1253 -3910.868526772601
1254 -3910.889043714778
1255 -3910.879683444472
1256 -3910.897667499315
1257 -3910.887737972404
1258 -3910.911925206799
1259 -3910.893994216585
1260 -3910.922058833521
1261 -3910.891809389504
1262 -3910.920683816573
1263 -3910.892707231934
1264 -3910.931583905979
1265 -3910.905723661776
1266 -3910.937534554808
1267 -3910.911881257149
1268 -3910.942534533554
1269 -3910.920773093044
1270 -3910.950766851231
1271 -3910.93438631064
1272 -3910.954434142666
1273 -3910.940784638981
1274 -3910.946878819485
1275 -3910.933618615462
1276 -3910.960538677877
1277 -3910.939816080195
1278 -3910.951432741352
1279 -3910.949725695983
1280 -3910.960713673583
1281 -3910.961813437215
1282 -3910.972281718352
1283 -3910.96311407568
1284 -3910.974937084086
1285 -3910.972363428882
1286 -3910.979057643733
1287 -3910.973505373551
1288 -3910.992154581744
1289 -3910.972198790945
1290 -3910.991916262496
1291 -3910.970215267087
1292 -3911.005624286812
1293 -3910.997902670951
1294 -3911.010773414131
1295 -3910.99974568815
1296 -3911.030227469613
1297 -3911.011221506144
1298 -3911.036377455217
1299 -3911.017338544039
1300 -3911.032105126408
1301 -3911.020159740855
1302 -3911.039204019347
1303 -3911.029250200336
1304 -3911.049719095428
1305 -3911.046714458298
1306 -3911.058098049687
1307 -3911.064165161144
1308 -3911.074000452833
1309 -3911.075780459199
1310 -3911.064766257573
1311 -3911.060569624258
1312 -3911.055806396078
1313 -3911.062046075427
1314 -3911.050361803661
1315 -3911.056477058449
1316 -3911.055964009392
1317 -3911.062655271352
1318 -3911.07571857914
1319 -3911.076125458938
1320 -3911.093401290226
1321 -3911.0892135709
1322 -3911.093664000491
1323 -3911.084306483101
1324 -3911.093867160969
1325 -3911.086644152069
1326 -3911.104775844569
1327 -3911.095721682822
1328 -3911.130648470995
1329 -3911.096667812632
1330 -3911.13153484102
1331 -3911.100452458162
1332 -3911.137227593213
1333 -3911.108266658788
1334 -3911.137097014071
1335 -3911.109628114617
1336 -3911.142465071282
1337 -3911.118795784845
1338 -3911.149859265618
1339 -3911.135493634465
1340 -3911.168462189475
1341 -3911.144638913943
1342 -3911.175329905931
1343 -3911.160217007115
1344 -3911.182882997204
1345 -3911.173301563258
1346 -3911.169290677683
1347 -3911.170735894038
1348 -3911.174828035884
1349 -3911.169816250834
1350 -3911.163688363852
1351 -3911.163284935057
1352 -3911.161101435835
1353 -3911.164752991961
1354 -3911.158465326944
1355 -3911.160427714314
1356 -3911.160526693502
1357 -3911.155391489637
1358 -3911.154681072517
1359 -3911.1459107136
1360 -3911.15562343769
1361 -3911.144811223067
1362 -3911.158189262647
1363 -3911.141849031638
1364 -3911.164635248081
1365 -3911.160178349711
1366 -3911.169993693024
1367 -3911.166264042744
1368 -3911.181324492444
1369 -3911.171990110353
1370 -3911.208638696769
1371 -3911.186788395014
1372 -3911.229874106249
1373 -3911.204604288838
1374 -3911.242414085752
1375 -3911.218188306706
1376 -3911.24773627997
1377 -3911.228573431675
1378 -3911.248332859248
1379 -3911.23030750578
1380 -3911.256502611447
1381 -3911.236259367498
1382 -3911.24991812321
1383 -3911.234703041702
1384 -3911.247913544868
1385 -3911.228860481321
1386 -3911.235614219931
1387 -3911.220679038992
1388 -3911.237347844594
1389 -3911.237734027414
1390 -3911.233486297255
1391 -3911.241983601867
1392 -3911.252152299731
1393 -3911.246946411451
1394 -3911.257210972472
1395 -3911.244879242063
1396 -3911.259317399743
1397 -3911.244193817809
1398 -3911.263164392876
1399 -3911.238582073844
1400 -3911.263420598069
1401 -3911.239761361899
1402 -3911.264776638409
1403 -3911.244675393245
1404 -3911.277361456601
1405 -3911.25981351753
1406 -3911.282157705847
1407 -3911.257256365474
1408 -3911.283898405324
1409 -3911.260201520255
1410 -3911.296487768109
1411 -3911.258796601029
1412 -3911.308695787723
1413 -3911.273360556172
1414 -3911.307225515383
1415 -3911.286489798539
1416 -3911.307813918392
1417 -3911.294764072838
1418 -3911.304141964702
1419 -3911.293960509161
1420 -3911.31150871894
1421 -3911.307674173162
1422 -3911.314596578524
1423 -3911.309223061532
1424 -3911.315255862656
1425 -3911.294760264589
1426 -3911.310642475948
1427 -3911.282657196566
1428 -3911.293874013242
1429 -3911.274520229522
1430 -3911.286918519961
1431 -3911.276245814522
1432 -3911.299876194996
1433 -3911.288074699334
1434 -3911.297956913288
1435 -3911.298163344039
1436 -3911.297371458378
1437 -3911.291990610498
1438 -3911.306433396121
1439 -3911.288488288054
1440 -3911.304466612206
1441 -3911.290998880385
1442 -3911.305698584364
1443 -3911.29609403522
1444 -3911.309851236662
1445 -3911.305986766359
1446 -3911.305735038648
1447 -3911.301431419866
1448 -3911.303477793338
1449 -3911.310605173766
1450 -3911.320984340643
1451 -3911.316978507405
1452 -3911.336355608861
1453 -3911.331370173822
1454 -3911.343742648594
1455 -3911.336678253568
1456 -3911.348661560871
1457 -3911.338507811699
1458 -3911.350049681169
1459 -3911.340998643373
1460 -3911.341374055845
1461 -3911.335416495594
1462 -3911.347646951179
1463 -3911.329976810431
1464 -3911.354101229508
1465 -3911.331747622894
1466 -3911.351791238702
1467 -3911.328281812024
1468 -3911.357437158299
1469 -3911.330188712828
1470 -3911.35802380052
1471 -3911.319618800724
1472 -3911.353545658066
1473 -3911.332939507027
1474 -3911.350684671061
1475 -3911.334814586774
1476 -3911.363092294254
1477 -3911.349976081843
1478 -3911.373467670664
1479 -3911.35909689223
1480 -3911.375933547794
1481 -3911.351667716925
1482 -3911.359722263127
1483 -3911.349320978587
1484 -3911.360159360328
1485 -3911.357397807342
1486 -3911.360410518232
1487 -3911.362058182097
1488 -3911.375125097485
1489 -3911.37542111565
1490 -3911.369388322808
1491 -3911.378074161465
1492 -3911.384630730587
1493 -3911.389429082423
1494 -3911.398395960465
1495 -3911.384078213306
1496 -3911.394075769188
1497 -3911.374575511604
1498 -3911.388010521656
1499 -3911.372533284879
1500 -3911.385981424922
1501 -3911.374547545905
1502 -3911.378950301887
1503 -3911.366346311657
1504 -3911.382441158242
1505 -3911.358088853846
1506 -3911.381539834812
1507 -3911.34890779798
1508 -3911.37434445259
1509 -3911.354946979812
1510 -3911.369071667448
1511 -3911.365937549854
1512 -3911.383645581644
1513 -3911.377870731215
1514 -3911.381978792335
1515 -3911.37307094635
1516 -3911.392003831085
1517 -3911.393363593957
1518 -3911.398206954354
1519 -3911.39892370883
1520 -3911.411297303799
1521 -3911.39487456279
1522 -3911.411740701813
1523 -3911.396391075532
1524 -3911.410257060039
1525 -3911.39446452727
1526 -3911.405059455549
1527 -3911.398616456834
1528 -3911.411999667178
1529 -3911.399010363592
1530 -3911.410633485119
1531 -3911.396323268403
1532 -3911.422501238867
1533 -3911.397241145539
1534 -3911.43527952682
1535 -3911.401518165474
1536 -3911.43312119955
1537 -3911.403301366371
1538 -3911.424057777268
1539 -3911.39940592415
1540 -3911.428052387097
1541 -3911.400071833248
1542 -3911.424318453437
1543 -3911.398160880375
1544 -3911.420240136616
1545 -3911.395244643044
1546 -3911.422890554814
1547 -3911.388006760351
1548 -3911.426319813344
1549 -3911.383870163041
1550 -3911.419388552779
1551 -3911.390226161971
1552 -3911.423262632
1553 -3911.400094316977
1554 -3911.419531411389
1555 -3911.403126435588
1556 -3911.428687201115
1557 -3911.41165748086
1558 -3911.425244207919
1559 -3911.425987763082
1560 -3911.436828566532
1561 -3911.427846187025
1562 -3911.438206041898
1563 -3911.427889885165
1564 -3911.440021903129
1565 -3911.418619942615
1566 -3911.426454278479
1567 -3911.416352146997
1568 -3911.420134779445
1569 -3911.413499254085
1570 -3911.417882409755
1571 -3911.417464171137
1572 -3911.435459240581
1573 -3911.422144082
1574 -3911.453435207969
1575 -3911.437657941826
1576 -3911.4605468256
1577 -3911.451494688892
1578 -3911.447567957265
1579 -3911.437879920823
1580 -3911.439001045072
1581 -3911.438063708767
1582 -3911.439907744592
1583 -3911.442254888891
1584 -3911.454239692042
1585 -3911.43608561384
1586 -3911.44492346406
1587 -3911.424323672667
1588 -3911.443042511098
1589 -3911.430054933296
1590 -3911.446093531158
1591 -3911.436950446726
1592 -3911.454321595803
1593 -3911.44373694457
1594 -3911.447028260817
1595 -3911.43708005721
1596 -3911.45180146226
1597 -3911.441355833612
1598 -3911.458530549058
1599 -3911.447222995958
1600 -3911.470771094877
1601 -3911.447864952091
1602 -3911.47873757425
1603 -3911.44898863012
1604 -3911.478775519981
1605 -3911.449026398584
1606 -3911.47510153382
1607 -3911.457006510011
1608 -3911.478125828719
1609 -3911.458925011499
1610 -3911.473477198542
1611 -3911.451629155337
1612 -3911.472415498871
1613 -3911.459519844378
1614 -3911.465798038785
1615 -3911.459505634687
1616 -3911.482209770964
1617 -3911.461953791328
1618 -3911.474974154738
1619 -3911.460104224287
1620 -3911.469271881108
1621 -3911.46123337988
1622 -3911.465860508662
1623 -3911.464096936573
1624 -3911.479058488094
1625 -3911.475975109142
1626 -3911.489836442279
1627 -3911.468747902864
1628 -3911.480545403732
1629 -3911.471111304554
1630 -3911.480972223216
1631 -3911.471960062053
1632 -3911.477034121982
1633 -3911.463979697859
1634 -3911.475261148467
1635 -3911.468667499985
1636 -3911.490483334547
1637 -3911.475918608027
1638 -3911.48315687145
1639 -3911.465347712591
1640 -3911.47863762515
1641 -3911.466200528579
1642 -3911.477267862594
1643 -3911.465053369767
1644 -3911.481790057474
1645 -3911.466046341652
1646 -3911.479977106703
1647 -3911.471498740689
1648 -3911.478577786112
1649 -3911.474965841123
1650 -3911.479070799923
1651 -3911.471206771485
1652 -3911.483746723688
1653 -3911.474642638546
1654 -3911.478470783888
1655 -3911.47148660364
1656 -3911.470638910519
1657 -3911.472878365154
1658 -3911.471620744794
1659 -3911.471020280164
1660 -3911.471848493863
1661 -3911.462626133999
1662 -3911.463759496376
1663 -3911.462067916053
1664 -3911.472115908552
1665 -3911.464586612894
1666 -3911.472927740048
1667 -3911.45109730313
1668 -3911.478573704951
1669 -3911.445326933821
1670 -3911.471855282558
1671 -3911.445624670886
1672 -3911.470878512338
1673 -3911.448519924171
1674 -3911.49119570507
1675 -3911.450480620045
1676 -3911.493536893537
1677 -3911.46359330553
1678 -3911.491596828971
1679 -3911.470489146783
1680 -3911.489396982606
1681 -3911.465719474063
1682 -3911.485748898119
1683 -3911.454115250287
1684 -3911.475761378808
1685 -3911.452439230324
1686 -3911.471179110798
1687 -3911.470354515766
1688 -3911.479083518456
1689 -3911.479782350526
1690 -3911.490497374786
1691 -3911.486425188984
1692 -3911.485280338876
1693 -3911.48031402575
1694 -3911.484134121285
1695 -3911.470023718323
1696 -3911.497367787334
1697 -3911.48052981684
1698 -3911.496213829465
1699 -3911.489895464664
1700 -3911.503493457597
1701 -3911.489641147366
1702 -3911.503379204582
1703 -3911.489516522772
1704 -3911.515317423956
1705 -3911.497810955623
1706 -3911.50799465748
1707 -3911.487616970586
1708 -3911.511549641837
1709 -3911.482406306887
1710 -3911.52491135389
1711 -3911.484447781713
1712 -3911.52312972974
1713 -3911.502526749256
1714 -3911.517263952402
1715 -3911.502599910657
1716 -3911.516020178723
1717 -3911.506779927678
1718 -3911.510533619344
1719 -3911.51031351612
1720 -3911.517028133926
1721 -3911.512377903844
1722 -3911.50066639091
1723 -3911.503053604622
1724 -3911.494604681751
1725 -3911.492239043702
1726 -3911.485968185097
1727 -3911.489771601296
1728 -3911.482747998136
1729 -3911.492257746923
1730 -3911.49085316521
1731 -3911.490948285107
1732 -3911.486817642221
1733 -3911.486220953708
1734 -3911.495820034006
1735 -3911.47728138618
1736 -3911.50371471966
1737 -3911.479349535449
1738 -3911.504687804582
1739 -3911.479758236514
1740 -3911.510191170515
1741 -3911.481594970517
1742 -3911.51529239596
1743 -3911.488372062125
1744 -3911.514568432609
1745 -3911.484381400532
1746 -3911.517122789487
1747 -3911.482190297569
1748 -3911.518313802978
1749 -3911.481544275912
1750 -3911.522285733462
1751 -3911.486512466327
1752 -3911.518825169078
1753 -3911.49306757962
1754 -3911.510663578158
1755 -3911.493255550728
1756 -3911.509094821998
1757 -3911.501701660971
1758 -3911.509885539385
1759 -3911.508623436795
1760 -3911.50889954378
1761 -3911.514512801328
1762 -3911.512930055419
1763 -3911.508965358175
1764 -3911.513820025945
1765 -3911.505572398394
1766 -3911.506288268126
1767 -3911.501047840433
1768 -3911.508992839039
1769 -3911.504984763815
1770 -3911.501562255363
1771 -3911.492000758319
1772 -3911.497830426051
1773 -3911.485031327444
1774 -3911.497712497356
1775 -3911.484388936004
1776 -3911.513934343293
1777 -3911.495373733256
1778 -3911.509332222259
1779 -3911.495328811599
1780 -3911.516741254289
1781 -3911.502534147141
1782 -3911.511294916666
1783 -3911.502642278216
1784 -3911.519909904662
1785 -3911.507518401279
1786 -3911.521700444193
1787 -3911.510123756097
1788 -3911.535750219877
1789 -3911.51554962337
1790 -3911.530519255331
1791 -3911.507306269857
1792 -3911.526668719936
1793 -3911.514584208073
1794 -3911.523148171578
1795 -3911.510506586716
1796 -3911.529793055812
1797 -3911.50829274559
1798 -3911.522775171059
1799 -3911.51367309454
1800 -3911.520109301244
1801 -3911.519125318957
1802 -3911.522480423137
1803 -3911.51366359449
1804 -3911.530420173725
1805 -3911.502460130458
1806 -3911.5125649706
1807 -3911.48133892933
1808 -3911.504707188348
1809 -3911.491981692768
1810 -3911.509494047048
1811 -3911.496922474147
1812 -3911.518843430177
1813 -3911.503708755638
1814 -3911.518182991313
1815 -3911.503216928147
1816 -3911.531273973323
1817 -3911.500887907132
1818 -3911.52276940357
1819 -3911.484975637246
1820 -3911.522816730162
1821 -3911.49937510665
1822 -3911.510176037771
1823 -3911.510159835411
1824 -3911.527840004689
1825 -3911.526226738272
1826 -3911.527882611107
1827 -3911.52387714862
1828 -3911.531507068163
1829 -3911.527131469456
1830 -3911.538186234397
1831 -3911.52341357155
1832 -3911.541916169216
1833 -3911.520289688363
1834 -3911.533433548335
1835 -3911.517308404341
1836 -3911.525292836427
1837 -3911.516411139175
1838 -3911.517151155319
1839 -3911.51009753417
1840 -3911.519517195026
1841 -3911.511553949263
1842 -3911.512912947984
1843 -3911.514554571467
1844 -3911.51657975454
1845 -3911.514975273623
1846 -3911.522255901979
1847 -3911.517816453308
1848 -3911.528112363888
1849 -3911.517439698371
1850 -3911.517422228639
1851 -3911.515667790447
1852 -3911.519355001558
1853 -3911.521631397053
1854 -3911.523419576771
1855 -3911.528233099551
1856 -3911.538254920828
1857 -3911.530486174607
1858 -3911.535546394701
1859 -3911.52663745014
1860 -3911.521931827371
1861 -3911.532117312169
1862 -3911.52328852641
1863 -3911.53402508507
1864 -3911.538803265599
1865 -3911.545871060004
1866 -3911.54335971957
1867 -3911.538209332141
1868 -3911.55350039921
1869 -3911.535177107313
1870 -3911.54914025179
1871 -3911.52745676153
1872 -3911.546199700842
1873 -3911.523112290486
1874 -3911.551432438581
1875 -3911.52198630107
1876 -3911.551308286587
1877 -3911.508489186738
1878 -3911.541036666257
1879 -3911.510538696726
1880 -3911.549455925747
1881 -3911.529473442133
1882 -3911.54766764892
1883 -3911.520871153067
1884 -3911.53738439732
1885 -3911.512571042942
1886 -3911.530323334877
1887 -3911.502090365027
1888 -3911.541642547196
1889 -3911.51364939221
1890 -3911.525096503372
1891 -3911.509254134505
1892 -3911.526831029584
1893 -3911.513089792637
1894 -3911.514816698796
1895 -3911.509387718455
1896 -3911.522236831471
1897 -3911.509381828869
1898 -3911.514407372712
1899 -3911.504757222789
1900 -3911.50974531855
1901 -3911.511982392919
1902 -3911.506819679968
1903 -3911.513468801768
1904 -3911.52059971688
1905 -3911.527004437771
1906 -3911.534173313994
1907 -3911.530392299286
1908 -3911.546798408382
1909 -3911.526877419398
1910 -3911.549199026478
1911 -3911.517753581441
1912 -3911.545112734476
1913 -3911.522515369893
1914 -3911.51709621585
1915 -3911.498542123776
1916 -3911.510124050602
1917 -3911.505673427232
1918 -3911.520957407681
1919 -3911.50821943212
1920 -3911.538928955651
1921 -3911.533400849143
1922 -3911.538291010962
1923 -3911.533352987539
1924 -3911.544685055092
1925 -3911.53769554658
1926 -3911.542814361822
1927 -3911.537234120338
1928 -3911.56166438227
1929 -3911.552270551527
1930 -3911.560432057005
1931 -3911.553707891427
1932 -3911.562891155041
1933 -3911.545499988218
1934 -3911.545989311099
1935 -3911.531181151792
1936 -3911.54179692566
1937 -3911.527248649863
1938 -3911.541052878055
1939 -3911.522156512344
1940 -3911.544762613941
1941 -3911.515146527307
1942 -3911.538968431726
1943 -3911.506613772751
1944 -3911.536002133601
1945 -3911.515109951253
1946 -3911.536085641746
1947 -3911.523639494031
1948 -3911.5482585961
1949 -3911.537371302145
1950 -3911.558330442522
1951 -3911.542206584232
1952 -3911.569553932931
1953 -3911.547152156127
1954 -3911.567188804308
1955 -3911.533289399812
1956 -3911.561281209076
1957 -3911.533185921724
1958 -3911.5517156169
1959 -3911.5202600405
1960 -3911.550239562242
1961 -3911.52770506389
1962 -3911.526357274845
1963 -3911.515985790479
1964 -3911.528334098934
1965 -3911.517499629767
1966 -3911.525346693713
1967 -3911.516866261328
1968 -3911.544219822787
1969 -3911.523162867422
1970 -3911.544454570124
1971 -3911.522302514902
1972 -3911.543204693903
1973 -3911.533721883258
1974 -3911.535626799739
1975 -3911.528770313985
1976 -3911.542032140514
1977 -3911.535407423644
1978 -3911.554086431121
1979 -3911.540626429254
1980 -3911.555520161233
1981 -3911.540358673357
1982 -3911.542553782322
1983 -3911.53766296526
1984 -3911.54214287885
1985 -3911.536454401251
1986 -3911.527222888383
1987 -3911.536597779683
1988 -3911.539185262169
1989 -3911.544397088285
1990 -3911.545884786322
1991 -3911.546035450486
1992 -3911.561333512615
1993 -3911.56264498808
1994 -3911.56160116929
1995 -3911.561327538695
1996 -3911.563277571766
1997 -3911.562323091926
1998 -3911.565918271304
1999 -3911.549183339668
2000 -3911.566999841545
2001 -3911.556168249092
2002 -3911.557354851957
2003 -3911.550959516414
2004 -3911.567944026813
2005 -3911.566685023474
2006 -3911.565913401027
2007 -3911.562469603534
2008 -3911.587043288456
2009 -3911.561521819734
2010 -3911.592232490854
2011 -3911.554105757646
2012 -3911.574840735251
2013 -3911.547887420571
2014 -3911.561730723492
2015 -3911.53853803657
2016 -3911.556903086932
2017 -3911.540944300707
2018 -3911.555048673471
2019 -3911.537099211709
2020 -3911.553550984663
2021 -3911.539500320089
2022 -3911.554208597469
2023 -3911.535267403375
2024 -3911.553004797691
2025 -3911.537617147501
2026 -3911.55013673446
2027 -3911.540558273736
2028 -3911.549874540297
2029 -3911.539266688461
2030 -3911.545551596863
2031 -3911.533006091461
2032 -3911.549757694632
2033 -3911.539792956936
2034 -3911.56824879559
2035 -3911.554414728252
2036 -3911.57574805467
2037 -3911.555770723409
2038 -3911.56700066146
2039 -3911.554120170847
2040 -3911.570797056377
2041 -3911.557385119064
2042 -3911.565938631653
2043 -3911.549978142968
2044 -3911.570458539061
2045 -3911.551903651967
2046 -3911.572065504766
2047 -3911.553011868761
2048 -3911.585247716309
2049 -3911.553248576866
2050 -3911.583782840623
2051 -3911.557697954558
2052 -3911.573834303891
2053 -3911.55595191551
2054 -3911.563133377094
2055 -3911.552380983939
2056 -3911.561248111771
2057 -3911.553460293542
2058 -3911.558870981983
2059 -3911.555602009748
2060 -3911.564319956125
2061 -3911.553524435595
2062 -3911.564357840632
2063 -3911.54972520432
2064 -3911.555892350804
2065 -3911.55319899228
2066 -3911.553152385217
2067 -3911.555358160804
2068 -3911.562999305663
2069 -3911.558148607788
2070 -3911.573157965202
2071 -3911.561462685138
2072 -3911.574560702981
2073 -3911.566892679078
2074 -3911.582335244778
2075 -3911.564318007406
2076 -3911.585553821124
2077 -3911.549681074359
2078 -3911.583216186943
2079 -3911.543069262889
2080 -3911.573144092663
2081 -3911.550532797919
2082 -3911.577206069265
2083 -3911.552470901614
2084 -3911.583040641628
2085 -3911.565296943412
2086 -3911.576329660897
2087 -3911.56560602015
2088 -3911.591437897917
2089 -3911.560742035061
2090 -3911.583659131981
2091 -3911.563461775631
2092 -3911.576939353164
2093 -3911.569699115758
2094 -3911.575527439682
2095 -3911.570085654854
2096 -3911.573433129384
2097 -3911.574176196359
2098 -3911.561453308319
2099 -3911.559783510973
2100 -3911.56324367086
2101 -3911.557382086158
2102 -3911.554871737859
2103 -3911.54051060639
2104 -3911.550391544391
2105 -3911.539504589486
2106 -3911.531882707931
2107 -3911.535547622491
2108 -3911.540207595097
2109 -3911.543359527938
2110 -3911.557332082747
2111 -3911.558131054984
2112 -3911.59251708495
2113 -3911.561996604145
2114 -3911.584258707886
2115 -3911.551642829879
2116 -3911.578922149195
2117 -3911.549151598584
2118 -3911.574426330097
2119 -3911.553382026892
2120 -3911.576411831647
2121 -3911.565339932526
2122 -3911.571729860525
2123 -3911.567452965111
2124 -3911.583525583012
2125 -3911.577102845347
2126 -3911.588338064341
2127 -3911.580139027821
2128 -3911.590761007275
2129 -3911.585625992484
2130 -3911.581086149426
2131 -3911.565478744139
2132 -3911.566634123822
2133 -3911.567833439356
2134 -3911.558440590385
2135 -3911.566211151666
2136 -3911.560722486826
2137 -3911.569779355176
2138 -3911.56117782906
2139 -3911.562353553173
2140 -3911.553742116871
2141 -3911.548983002808
2142 -3911.531962283153
2143 -3911.532658437569
2144 -3911.542724281205
2145 -3911.525024393483
2146 -3911.555209010434
2147 -3911.530622549523
2148 -3911.560747405256
2149 -3911.536082990751
2150 -3911.573284738017
2151 -3911.556326111824
2152 -3911.590513146402
2153 -3911.562177572467
2154 -3911.595019083944
2155 -3911.556548524747
2156 -3911.602088526882
2157 -3911.556799698846
2158 -3911.585249713195
2159 -3911.554235574374
2160 -3911.58755172482
2161 -3911.557655353407
2162 -3911.585136804216
2163 -3911.57027930825
2164 -3911.587127367108
2165 -3911.576674188153
2166 -3911.580308518774
2167 -3911.570438003742
2168 -3911.576563967008
2169 -3911.565836125437
2170 -3911.578348755181
2171 -3911.567383562713
2172 -3911.574518015851
2173 -3911.565276280991
2174 -3911.558296400848
2175 -3911.554348488114
2176 -3911.552350272656
2177 -3911.556781342806
2178 -3911.565139808081
2179 -3911.562156754256
2180 -3911.572805655773
2181 -3911.55866084777
2182 -3911.564554410565
2183 -3911.547810532974
2184 -3911.550741027029
2185 -3911.554948084317
2186 -3911.560049056309
2187 -3911.559575615697
2188 -3911.561387068408
2189 -3911.564828087384
2190 -3911.566763095807
2191 -3911.565871002101
2192 -3911.571305585654
2193 -3911.565719096198
2194 -3911.577727117897
2195 -3911.562130153765
2196 -3911.577908886837
2197 -3911.565816116963
2198 -3911.571592615944
2199 -3911.561715831811
2200 -3911.566227072223
2201 -3911.564806022115
2202 -3911.581504605709
2203 -3911.566775642502
2204 -3911.588248842934
2205 -3911.575786955389
2206 -3911.588086306361
2207 -3911.578069776571
2208 -3911.585320453511
2209 -3911.568583740161
2210 -3911.585044624623
2211 -3911.569317203081
2212 -3911.587479470441
2213 -3911.566007241738
2214 -3911.582593517276
2215 -3911.562449071829
2216 -3911.577087754863
2217 -3911.557379901956
2218 -3911.570570789593
2219 -3911.559631521216
2220 -3911.568551495566
2221 -3911.558168696762
2222 -3911.575084657985
2223 -3911.559359126817
2224 -3911.584138702129
2225 -3911.566864135935
2226 -3911.58525531278
2227 -3911.571286531105
2228 -3911.596040039097
2229 -3911.587298403707
2230 -3911.59615949726
2231 -3911.593022919429
2232 -3911.599211960358
2233 -3911.589498424547
2234 -3911.599459462781
2235 -3911.580072026129
2236 -3911.592869707006
2237 -3911.576484905758
2238 -3911.585934778674
2239 -3911.575802739088
2240 -3911.588683333623
2241 -3911.572373899412
2242 -3911.577814845112
2243 -3911.56661079327
2244 -3911.573539045027
2245 -3911.562729955139
2246 -3911.573605979205
2247 -3911.553748986564
2248 -3911.56850532243
2249 -3911.561528154311
2250 -3911.567859505961
2251 -3911.555737596194
2252 -3911.578152911656
2253 -3911.561818468667
2254 -3911.580660078535
2255 -3911.562833267447
2256 -3911.573623373046
2257 -3911.571246230769
2258 -3911.575401834132
2259 -3911.569322243308
2260 -3911.569493300645
2261 -3911.564367483255
2262 -3911.56497819182
2263 -3911.564607216833
2264 -3911.566049086754
2265 -3911.577614944232
2266 -3911.582775200898
2267 -3911.576740056596
2268 -3911.577909943297
2269 -3911.565661630783
2270 -3911.569415518264
2271 -3911.565074231494
2272 -3911.568140371412
2273 -3911.568469915847
2274 -3911.581145365122
2275 -3911.578844831884
2276 -3911.589083020991
2277 -3911.572230686516
2278 -3911.578477597732
2279 -3911.559344979625
2280 -3911.581336176417
2281 -3911.56150390339
2282 -3911.577307740463
2283 -3911.558310870132
2284 -3911.584256434434
2285 -3911.565094146192
2286 -3911.579158373155
2287 -3911.559464352072
2288 -3911.579588516279
2289 -3911.562796496597
2290 -3911.577184455432
2291 -3911.56790125785
2292 -3911.59706656841
2293 -3911.576800086603
2294 -3911.599926495025
2295 -3911.566310208027
2296 -3911.594116632672
2297 -3911.576422106849
2298 -3911.593978470696
2299 -3911.589421367914
2300 -3911.598252805865
2301 -3911.5907064098
2302 -3911.606005926552
2303 -3911.581980665374
2304 -3911.599985537731
2305 -3911.586139018776
2306 -3911.595678082656
2307 -3911.589617555764
2308 -3911.609334616419
2309 -3911.595721397821
2310 -3911.598922421314
2311 -3911.584224512424
2312 -3911.589050477989
2313 -3911.570757840302
2314 -3911.589595373311
2315 -3911.574340088915
2316 -3911.604501147931
2317 -3911.57768698754
2318 -3911.608335198147
2319 -3911.583047151816
2320 -3911.598529318723
2321 -3911.574346568722
2322 -3911.579831412043
2323 -3911.561663049989
2324 -3911.587348615349
2325 -3911.558806103914
2326 -3911.587515935159
2327 -3911.572070753186
2328 -3911.588028693815
2329 -3911.578449455639
2330 -3911.582196439404
2331 -3911.575845129713
2332 -3911.585828050181
2333 -3911.576026107631
2334 -3911.577700103176
2335 -3911.572021371221
2336 -3911.576510990189
2337 -3911.571831867123
2338 -3911.569749961011
2339 -3911.569316211331
2340 -3911.579561953229
2341 -3911.575597757353
2342 -3911.582437862525
2343 -3911.57764555185
2344 -3911.594276675686
2345 -3911.579441698795
2346 -3911.593312568711
2347 -3911.574301472634
2348 -3911.593224853586
2349 -3911.578356398544
2350 -3911.583655491488
2351 -3911.560171312411
2352 -3911.575748856751
2353 -3911.560125085452
2354 -3911.57681234127
2355 -3911.566899857412
2356 -3911.578125414379
2357 -3911.566840603779
2358 -3911.588352222379
2359 -3911.558865843649
2360 -3911.587456941572
2361 -3911.556565705293
2362 -3911.581276542875
2363 -3911.558850856966
2364 -3911.592903504815
2365 -3911.565317326218
2366 -3911.58564401373
2367 -3911.56987428499
2368 -3911.587728628872
2369 -3911.574783082515
2370 -3911.587554757552
2371 -3911.568792679613
2372 -3911.586266235435
2373 -3911.563071144203
2374 -3911.587140303358
2375 -3911.574273737535
2376 -3911.590080812861
2377 -3911.571993869194
2378 -3911.570086499099
2379 -3911.563885590503
2380 -3911.566739168707
2381 -3911.565401070876
2382 -3911.56310735824
2383 -3911.557385813804
2384 -3911.572269463659
2385 -3911.558015601275
2386 -3911.572199079861
2387 -3911.559639276575
2388 -3911.566657339606
2389 -3911.564892510076
2390 -3911.56783043429
2391 -3911.561689914494
2392 -3911.57155876977
2393 -3911.570085148977
2394 -3911.574731253154
2395 -3911.576319531903
2396 -3911.585504968612
2397 -3911.577105215066
2398 -3911.582692076027
2399 -3911.573538372379
2400 -3911.575742118578
2401 -3911.571642630593
2402 -3911.571859636411
2403 -3911.573262401042
2404 -3911.584397460489
2405 -3911.566859913136
2406 -3911.581706181872
2407 -3911.570793729889
2408 -3911.58342346162
2409 -3911.574582337651
2410 -3911.580098202875
2411 -3911.57081407122
2412 -3911.581085091414
2413 -3911.56979510013
2414 -3911.584485039038
2415 -3911.551733046163
2416 -3911.578902456578
2417 -3911.553556781807
2418 -3911.572485370055
2419 -3911.551039810115
2420 -3911.573222965505
2421 -3911.555014506148
2422 -3911.569284099885
2423 -3911.552936630836
2424 -3911.58068978528
2425 -3911.551019369233
2426 -3911.578771931642
2427 -3911.556247399953
2428 -3911.577953140716
2429 -3911.56370685426
2430 -3911.574704367973
2431 -3911.556296691257
2432 -3911.56638409682
2433 -3911.554083309535
2434 -3911.556764643718
2435 -3911.553291855547
2436 -3911.560619506683
2437 -3911.556930200053
2438 -3911.568040776392
2439 -3911.559713787218
2440 -3911.58603482837
2441 -3911.561272702185
2442 -3911.572771846173
2443 -3911.562809948537
2444 -3911.590232046862
2445 -3911.582147424341
2446 -3911.606577875934
2447 -3911.584892208815
2448 -3911.622390703228
2449 -3911.595477970875
2450 -3911.613286648326
2451 -3911.590711418298
2452 -3911.620341905173
2453 -3911.595161041285
2454 -3911.620107402795
2455 -3911.586779664357
2456 -3911.615856756159
2457 -3911.57981958134
2458 -3911.591337694036
2459 -3911.56878808183
2460 -3911.59337709666
2461 -3911.577168866519
2462 -3911.583024822833
2463 -3911.57619207571
2464 -3911.584260591578
2465 -3911.580328264994
2466 -3911.582013032844
2467 -3911.574622302795
2468 -3911.587216760924
2469 -3911.582321633077
2470 -3911.583007531301
2471 -3911.585364609167
2472 -3911.569922597459
2473 -3911.573890714894
2474 -3911.552005962218
2475 -3911.568845676862
2476 -3911.565945695159
2477 -3911.582242611904
2478 -3911.561237518391
2479 -3911.57596727086
2480 -3911.581811778647
2481 -3911.58194768499
2482 -3911.595361147453
2483 -3911.589127246085
2484 -3911.610243717772
2485 -3911.59271419988
2486 -3911.622824243041
2487 -3911.59099479276
2488 -3911.62709352351
2489 -3911.587039433183
2490 -3911.614775740387
2491 -3911.573872923549
2492 -3911.602981085765
2493 -3911.568186664912
2494 -3911.593369767149
2495 -3911.563539173423
2496 -3911.597868299543
2497 -3911.556193551658
2498 -3911.585223306198
2499 -3911.557620760167
2500 -3911.58093858375
2501 -3911.55681184881
2502 -3911.571470907144
2503 -3911.561513277474
2504 -3911.563535742139
2505 -3911.556775866785
2506 -3911.574228022803
2507 -3911.560318723565
2508 -3911.58130886043
2509 -3911.567235988089
2510 -3911.577244024246
2511 -3911.583063794403
2512 -3911.574842836216
2513 -3911.578351612656
2514 -3911.56389527794
2515 -3911.571201151174
2516 -3911.563216667534
2517 -3911.564674528348
2518 -3911.566607787478
2519 -3911.547932736571
2520 -3911.570570966243
2521 -3911.551552225547
2522 -3911.56543729147
2523 -3911.561718662144
2524 -3911.57993701081
2525 -3911.572762538065
2526 -3911.599299382815
2527 -3911.573345071049
2528 -3911.614170881642
2529 -3911.595045557736
2530 -3911.613575213843
2531 -3911.595315839946
2532 -3911.621506344849
2533 -3911.602435304237
2534 -3911.614331815268
2535 -3911.593917857754
2536 -3911.611423840331
2537 -3911.594296603228
2538 -3911.601957153262
2539 -3911.589323433651
2540 -3911.594931099591
2541 -3911.593758649966
2542 -3911.593226104493
2543 -3911.592270572145
2544 -3911.591562755896
2545 -3911.575107570123
2546 -3911.5707321147
2547 -3911.5662889398
2548 -3911.571258361912
2549 -3911.563215642609
2550 -3911.579472200257
2551 -3911.568399790998
2552 -3911.580841550269
2553 -3911.574832309382
2554 -3911.580665382442
2555 -3911.573539451548
2556 -3911.59057695417
2557 -3911.579897103612
2558 -3911.590401729453
2559 -3911.56902910056
2560 -3911.592789260568
2561 -3911.562956957123
2562 -3911.588474823247
2563 -3911.56444955391
2564 -3911.59231449137
2565 -3911.566851509301
2566 -3911.590287804233
2567 -3911.571955241942
2568 -3911.596549479363
2569 -3911.578823131827
2570 -3911.593446955391
2571 -3911.569833281368
2572 -3911.589836930234
2573 -3911.579905837654
2574 -3911.593831955488
2575 -3911.572662215922
2576 -3911.591650603265
2577 -3911.559012360146
2578 -3911.573015044083
2579 -3911.547320304045
2580 -3911.564771553157
2581 -3911.555274547595
2582 -3911.560706793812
2583 -3911.555403462936
2584 -3911.564731872404
2585 -3911.557349254524
2586 -3911.563344063009
2587 -3911.549637143557
2588 -3911.57549559795
2589 -3911.555771178611
2590 -3911.576544520645
2591 -3911.556282963651
2592 -3911.576739139638
2593 -3911.573877341385
2594 -3911.579728522046
2595 -3911.576071902957
2596 -3911.584309075388
2597 -3911.578827794046
2598 -3911.582959872066
2599 -3911.583770981139
2600 -3911.589391480037
2601 -3911.585508738695
2602 -3911.583435991723
2603 -3911.579034569725
2604 -3911.589334862671
2605 -3911.57547560793
2606 -3911.589797611946
2607 -3911.578627605302
2608 -3911.599902193238
2609 -3911.585949193171
2610 -3911.595562505618
2611 -3911.584156664742
2612 -3911.590055361089
2613 -3911.582472129462
2614 -3911.578491691071
2615 -3911.576451299754
2616 -3911.579716421053
2617 -3911.568181847316
2618 -3911.578356671741
2619 -3911.553938991764
2620 -3911.571813807534
2621 -3911.548550395974
2622 -3911.563942602883
2623 -3911.550662153029
2624 -3911.570501709731
2625 -3911.557881891747
2626 -3911.573610084102
2627 -3911.559200476433
2628 -3911.586119274707
2629 -3911.567932792897
2630 -3911.589786471081
2631 -3911.578243500838
2632 -3911.591470760065
2633 -3911.578729125644
2634 -3911.590089660504
2635 -3911.576588047181
2636 -3911.590874270233
2637 -3911.579320316289
2638 -3911.5880724044
2639 -3911.57398365154
2640 -3911.588374628717
2641 -3911.56344958259
2642 -3911.573557382735
2643 -3911.554371836618
2644 -3911.570827085427
2645 -3911.55415089681
2646 -3911.572792706329
2647 -3911.560732865906
2648 -3911.588288902557
2649 -3911.558121139404
2650 -3911.580378099648
2651 -3911.568272052138
2652 -3911.575469869046
2653 -3911.566518525471
2654 -3911.57594085423
2655 -3911.56932472606
2656 -3911.584422602154
2657 -3911.559424318974
2658 -3911.566179215337
2659 -3911.535319437876
2660 -3911.558257327034
2661 -3911.536195982696
2662 -3911.551493586041
2663 -3911.546997427127
2664 -3911.563426436776
2665 -3911.559488974205
2666 -3911.565449261067
2667 -3911.569867720402
2668 -3911.576663538774
2669 -3911.586063467097
2670 -3911.583098119119
2671 -3911.591712557545
2672 -3911.597803588064
2673 -3911.593285364675
2674 -3911.595843649517
2675 -3911.587925759559
2676 -3911.581589378315
2677 -3911.58284015536
2678 -3911.579922556112
2679 -3911.586437686565
2680 -3911.587288575096
2681 -3911.590128942164
2682 -3911.592556218593
2683 -3911.581687236459
2684 -3911.600874451397
2685 -3911.583239019722
2686 -3911.602927042213
2687 -3911.576574360137
2688 -3911.599620668639
2689 -3911.575005556195
2690 -3911.596907874587
2691 -3911.568280590328
2692 -3911.594772440237
2693 -3911.566496107755
2694 -3911.590137871673
2695 -3911.565352355187
2696 -3911.589974016557
2697 -3911.567241307482
2698 -3911.590088264172
2699 -3911.566236789349
2700 -3911.595669778942
2701 -3911.556051766844
2702 -3911.585279360324
2703 -3911.556396267611
2704 -3911.58347312194
2705 -3911.561636242305
2706 -3911.586042717559
2707 -3911.566297535815
2708 -3911.58683623989
2709 -3911.573996153092
2710 -3911.595132488807
2711 -3911.583904101652
2712 -3911.600725877522
2713 -3911.594152601708
2714 -3911.595606023779
2715 -3911.587900039623
2716 -3911.592360300996
2717 -3911.582037583624
2718 -3911.591951237104
2719 -3911.588262284867
2720 -3911.597902222373
2721 -3911.588249230037
2722 -3911.600353569661
2723 -3911.580952509424
2724 -3911.596631508791
2725 -3911.563299196594
2726 -3911.582981832099
2727 -3911.551669610741
2728 -3911.583571656954
2729 -3911.559649257183
2730 -3911.573811144695
2731 -3911.56015565271
2732 -3911.574931508511
2733 -3911.560810591757
2734 -3911.561265204884
2735 -3911.56615404287
2736 -3911.570926822179
2737 -3911.569231905316
2738 -3911.565988102654
2739 -3911.572125300029
2740 -3911.584384466242
2741 -3911.572423273862
2742 -3911.578435834021
2743 -3911.570848801405
2744 -3911.577638080264
2745 -3911.581293511027
2746 -3911.580938593192
2747 -3911.592700455771
2748 -3911.592947469755
2749 -3911.602213193553
2750 -3911.605524204717
2751 -3911.599776817159
2752 -3911.617748781809
2753 -3911.600819064701
2754 -3911.614587717311
2755 -3911.598534056073
2756 -3911.605064320894
2757 -3911.592155449388
2758 -3911.602169519616
2759 -3911.594022910755
2760 -3911.604967216927
2761 -3911.591438167308
2762 -3911.596386887365
2763 -3911.578591103398
2764 -3911.59717500272
2765 -3911.572434092073
2766 -3911.588152533239
2767 -3911.566391683135
2768 -3911.583520088423
2769 -3911.566189846552
2770 -3911.576720617618
2771 -3911.569346314453
2772 -3911.573919033681
2773 -3911.563209633787
2774 -3911.57560091028
2775 -3911.571095069921
2776 -3911.590153379208
2777 -3911.586419897254
2778 -3911.603557387595
2779 -3911.587378225821
2780 -3911.620810559175
2781 -3911.590741532241
2782 -3911.61443389525
2783 -3911.583196062941
2784 -3911.60895271847
2785 -3911.588877135429
2786 -3911.595649683328
2787 -3911.57749058661
2788 -3911.587182034173
2789 -3911.56983271601
2790 -3911.582851129871
2791 -3911.565136839195
2792 -3911.577163870939
2793 -3911.566152469073
2794 -3911.582828323128
2795 -3911.555071907663
2796 -3911.575900388891
2797 -3911.561066578458
2798 -3911.578432366544
2799 -3911.573391230034
2800 -3911.580185126476
2801 -3911.576434000769
2802 -3911.572949400804
2803 -3911.574081378258
2804 -3911.582257532419
2805 -3911.577864404333
2806 -3911.580815295447
2807 -3911.576639641759
2808 -3911.582840846611
2809 -3911.579739103856
2810 -3911.574630418349
2811 -3911.579466989485
2812 -3911.574888579389
2813 -3911.581837307751
2814 -3911.569990985516
2815 -3911.583878390969
2816 -3911.588890436651
2817 -3911.596790026152
2818 -3911.589088750668
2819 -3911.581645090547
2820 -3911.58868707996
2821 -3911.575815804724
2822 -3911.590420611685
2823 -3911.57058132269
2824 -3911.606315295226
2825 -3911.574671001953
2826 -3911.608016215751
2827 -3911.580404140928
2828 -3911.609420092078
2829 -3911.574410785347
2830 -3911.602722389572
2831 -3911.563478413391
2832 -3911.604815209478
2833 -3911.570952616451
2834 -3911.590445568223
2835 -3911.573587745045
2836 -3911.586313403136
2837 -3911.572007703088
2838 -3911.582609275278
2839 -3911.576619353493
2840 -3911.583773244769
2841 -3911.566597987753
2842 -3911.580088897921
2843 -3911.568066505329
2844 -3911.577501763305
2845 -3911.560989929622
2846 -3911.567737525437
2847 -3911.556202426046
2848 -3911.56288020963
2849 -3911.563394067207
2850 -3911.566156229135
2851 -3911.571184602964
2852 -3911.580141299601
2853 -3911.570851076289
2854 -3911.580463215946
2855 -3911.579290170047
2856 -3911.586686897419
2857 -3911.580640596324
2858 -3911.578554904143
2859 -3911.560292617313
2860 -3911.585144204129
2861 -3911.554773661156
2862 -3911.576547079518
2863 -3911.557206475735
2864 -3911.585334779963
2865 -3911.568215200281
2866 -3911.581917130844
2867 -3911.557276100723
2868 -3911.581219748533
2869 -3911.559751230749
2870 -3911.565830378167
2871 -3911.557343199367
2872 -3911.573967622655
2873 -3911.559325105136
2874 -3911.569467093578
2875 -3911.55500764522
2876 -3911.567560022408
2877 -3911.571712634175
2878 -3911.558881253149
2879 -3911.565041306115
2880 -3911.563934631407
2881 -3911.574275901447
2882 -3911.557014379187
2883 -3911.577040925586
2884 -3911.568886844161
2885 -3911.578714713572
2886 -3911.572155108198
2887 -3911.57038873128
2888 -3911.573968167657
2889 -3911.574058847158
2890 -3911.570190906538
2891 -3911.572213842515
2892 -3911.584252129885
2893 -3911.583795944531
2894 -3911.586990160562
2895 -3911.585614155065
2896 -3911.598631035536
2897 -3911.589081785588
2898 -3911.606860039185
2899 -3911.585018393494
2900 -3911.605082433179
2901 -3911.57782156064
2902 -3911.603465993109
2903 -3911.569391579706
2904 -3911.61197326038
2905 -3911.570004424038
2906 -3911.595257249714
2907 -3911.565447705686
2908 -3911.592311600414
2909 -3911.56820710634
2910 -3911.578776165337
2911 -3911.559049016807
2912 -3911.584208583129
2913 -3911.558867948208
2914 -3911.578999028109
2915 -3911.55900693713
2916 -3911.573466038098
2917 -3911.565035356666
2918 -3911.576972872598
2919 -3911.573540406298
2920 -3911.581559071179
2921 -3911.581565769679
2922 -3911.578606266551
2923 -3911.568590433315
2924 -3911.574779402736
2925 -3911.563423916868
2926 -3911.578473529621
2927 -3911.565351235254
2928 -3911.581205636484
2929 -3911.570934404743
2930 -3911.57933569018
2931 -3911.570545649334
2932 -3911.598202528423
2933 -3911.579076833229
2934 -3911.590618948364
2935 -3911.58236650361
2936 -3911.586643647275
2937 -3911.585178854717
2938 -3911.587862361757
2939 -3911.575915525032
2940 -3911.590758211019
2941 -3911.577595778328
2942 -3911.601488889422
2943 -3911.577911742164
2944 -3911.596819198022
2945 -3911.572158880079
2946 -3911.584955660885
2947 -3911.571914368995
2948 -3911.578238267683
2949 -3911.56528586758
2950 -3911.56317828187
2951 -3911.555536863405
2952 -3911.56644097992
2953 -3911.559839767548
2954 -3911.577542610395
2955 -3911.573410693559
2956 -3911.582043877771
2957 -3911.58713892857
2958 -3911.585248343386
2959 -3911.580886128325
2960 -3911.584259972189
2961 -3911.57822959478
2962 -3911.586548836929
2963 -3911.572571387802
2964 -3911.592547478166
2965 -3911.571845874488
2966 -3911.596285411905
2967 -3911.57260991838
2968 -3911.59981967374
2969 -3911.580481662812
2970 -3911.595667793076
2971 -3911.580897199451
2972 -3911.602701320639
2973 -3911.585894601861
2974 -3911.6065260337
2975 -3911.577059874626
2976 -3911.604781980071
2977 -3911.585285705012
2978 -3911.593810882693
2979 -3911.579775124701
2980 -3911.592041433671
2981 -3911.573264958999
2982 -3911.583055137261
2983 -3911.561539939562
2984 -3911.576366032823
2985 -3911.552211833675
2986 -3911.559163514427
2987 -3911.548903960717
2988 -3911.56645598901
2989 -3911.555638568359
2990 -3911.569693424311
2991 -3911.556130593679
2992 -3911.577805128418
2993 -3911.563259074623
2994 -3911.588387601343
2995 -3911.569628155187
2996 -3911.591743518233
2997 -3911.572148754585
2998 -3911.588720044512
2999 -3911.57477042385
3000 -3911.585789224254
3001 -3911.566210394541
3002 -3911.582546664782
3003 -3911.577012371772
3004 -3911.5932882318
3005 -3911.594053763843
3006 -3911.59574866931
3007 -3911.597755514487
3008 -3911.600480185768
3009 -3911.592954252899
3010 -3911.595297540247
3011 -3911.587248488474
3012 -3911.591154350644
3013 -3911.587579036272
3014 -3911.579047779308
3015 -3911.577333130454
3016 -3911.576706108278
3017 -3911.569257792177
3018 -3911.570667290655
3019 -3911.576738957948
3020 -3911.577000795271
3021 -3911.586903752428
3022 -3911.58416491042
3023 -3911.585228628368
3024 -3911.596167032495
3025 -3911.578641825397
3026 -3911.583739325644
3027 -3911.560215883579
3028 -3911.572010233232
3029 -3911.557869582464
3030 -3911.566186989317
3031 -3911.552597755414
3032 -3911.569356226942
3033 -3911.556148694857
3034 -3911.582941340671
3035 -3911.551525929123
3036 -3911.577446284008
3037 -3911.555608982709
3038 -3911.578327795408
3039 -3911.579057126852
3040 -3911.597260423858
3041 -3911.588153145259
3042 -3911.608008700887
3043 -3911.597136676437
3044 -3911.608993962635
3045 -3911.589354862354
3046 -3911.60723294762
3047 -3911.587376025186
3048 -3911.604402990531
3049 -3911.583313531298
3050 -3911.593173916792
3051 -3911.580684894389
3052 -3911.584330932898
3053 -3911.573226828562
3054 -3911.588614847783
3055 -3911.564984354279
3056 -3911.583303082755
3057 -3911.572282398434
3058 -3911.582351695146
3059 -3911.580076025393
3060 -3911.585314858836
3061 -3911.569360953177
3062 -3911.573222570451
3063 -3911.549032275977
3064 -3911.591444258124
3065 -3911.552578995525
3066 -3911.584124987629
3067 -3911.549422905236
3068 -3911.581741659818
3069 -3911.556742398119
3070 -3911.577809622853
3071 -3911.562672036134
3072 -3911.579446586733
3073 -3911.562626307243
3074 -3911.570817699331
3075 -3911.560790610727
3076 -3911.573546244821
3077 -3911.557230214803
3078 -3911.572921001654
3079 -3911.564709247339
3080 -3911.58726981811
3081 -3911.590579696629
3082 -3911.59471052878
3083 -3911.600150229142
3084 -3911.592529497662
3085 -3911.591579687953
3086 -3911.589259810329
3087 -3911.59386565492
3088 -3911.59063743416
3089 -3911.585455384696
3090 -3911.584360121544
3091 -3911.563501505315
3092 -3911.573709634759
3093 -3911.558501108577
3094 -3911.557352575383
3095 -3911.54826646354
3096 -3911.555247314378
3097 -3911.549340785945
3098 -3911.559661023897
3099 -3911.549619379924
3100 -3911.57577322229
3101 -3911.55594517705
3102 -3911.577925241481
3103 -3911.553020497486
3104 -3911.587968834503
3105 -3911.550181600087
3106 -3911.587792308919
3107 -3911.561093626907
3108 -3911.582037431936
3109 -3911.560035178335
3110 -3911.580920287317
3111 -3911.559475969073
3112 -3911.574618143744
3113 -3911.560035493751
3114 -3911.575911958849
3115 -3911.559182653916
3116 -3911.581975355808
3117 -3911.561065002146
3118 -3911.58151961917
3119 -3911.567586583822
3120 -3911.590644323482
3121 -3911.5826617057
3122 -3911.591622071707
3123 -3911.581463300996
3124 -3911.592283521019
3125 -3911.576675476734
3126 -3911.578235876042
3127 -3911.569975455967
3128 -3911.576652773974
3129 -3911.577280495884
3130 -3911.589440171446
3131 -3911.573648749251
3132 -3911.591110334955
3133 -3911.570738951671
3134 -3911.588099585164
3135 -3911.567368170045
3136 -3911.582054952664
3137 -3911.566774041501
3138 -3911.573836216843
3139 -3911.562387032341
3140 -3911.570273807956
3141 -3911.572087376127
3142 -3911.572637257625
3143 -3911.5739647977
3144 -3911.591265773415
3145 -3911.580787741128
3146 -3911.589174876067
3147 -3911.576499287558
3148 -3911.587896482793
3149 -3911.587247545593
3150 -3911.583640215092
3151 -3911.580718174123
3152 -3911.581884472611
3153 -3911.583009983151
3154 -3911.585391197193
3155 -3911.585079016796
3156 -3911.59494854585
3157 -3911.586534608175
3158 -3911.589774218265
3159 -3911.587784112995
3160 -3911.593609103441
3161 -3911.595941749952
3162 -3911.596213483451
3163 -3911.587750804628
3164 -3911.587018443357
3165 -3911.576642002055
3166 -3911.587703676073
3167 -3911.562835258043
3168 -3911.581637828103
3169 -3911.554822176195
3170 -3911.57126883378
3171 -3911.551193597878
3172 -3911.565646966162
3173 -3911.564688567911
3174 -3911.573321074071
3175 -3911.571623847264
3176 -3911.579028041627
3177 -3911.564710113013
3178 -3911.580746533254
3179 -3911.572307797082
3180 -3911.587156456413
3181 -3911.586291100151
3182 -3911.587982592082
3183 -3911.592470340442
3184 -3911.602989322203
3185 -3911.597490890323
3186 -3911.608460354287
3187 -3911.591072014927
3188 -3911.606778030101
3189 -3911.583427134822
3190 -3911.599883964919
3191 -3911.584998255441
3192 -3911.596105970831
3193 -3911.58184953574
3194 -3911.593854434068
3195 -3911.575127003487
3196 -3911.586981003636
3197 -3911.567231417726
3198 -3911.583527713174
3199 -3911.560564796343
3200 -3911.594221920707
3201 -3911.553048812183
3202 -3911.583455570666
3203 -3911.550366119385
3204 -3911.588914332108
3205 -3911.562633841264
3206 -3911.586779241421
3207 -3911.570132645255
3208 -3911.582059535367
3209 -3911.564498869462
3210 -3911.575191677765
3211 -3911.561942482819
3212 -3911.582927738045
3213 -3911.564283614345
3214 -3911.578922665763
3215 -3911.561396786068
3216 -3911.573555066354
3217 -3911.564170133829
3218 -3911.562698570417
3219 -3911.573276677857
3220 -3911.576836389656
3221 -3911.591609077338
3222 -3911.579528712353
3223 -3911.593404835508
3224 -3911.597318352227
3225 -3911.589692907333
3226 -3911.59511070492
3227 -3911.58604667591
3228 -3911.597825258094
3229 -3911.583680976906
3230 -3911.580238871537
3231 -3911.571758137539
3232 -3911.582862989681
3233 -3911.565565435469
3234 -3911.58253683453
3235 -3911.559955279699
3236 -3911.597081758011
3237 -3911.563975845536
3238 -3911.596357852249
3239 -3911.56836991261
3240 -3911.602220452666
3241 -3911.571720520417
3242 -3911.585062776246
3243 -3911.568837366836
3244 -3911.588979658863
3245 -3911.571376519607
3246 -3911.588170252109
3247 -3911.576769096251
3248 -3911.596140418792
3249 -3911.588924616046
3250 -3911.589634520287
3251 -3911.582154626036
3252 -3911.598621086408
3253 -3911.585524999527
3254 -3911.594976617102
3255 -3911.582406889414
3256 -3911.590448276301
3257 -3911.580545692698
3258 -3911.574954556682
3259 -3911.574924400227
3260 -3911.585581173409
3261 -3911.586628732983
3262 -3911.585473433454
3263 -3911.589666532419
3264 -3911.59044290774
3265 -3911.590472798554
3266 -3911.591953451909
3267 -3911.579050151466
3268 -3911.603575504077
3269 -3911.578015285895
3270 -3911.604940819315
3271 -3911.577610360069
3272 -3911.594562173754
3273 -3911.579308689234
3274 -3911.59233161753
3275 -3911.567522172866
3276 -3911.592257508878
3277 -3911.567024477303
3278 -3911.588286588503
3279 -3911.561044908879
3280 -3911.587690765543
3281 -3911.557574671855
3282 -3911.576029386897
3283 -3911.555280133988
3284 -3911.573675329937
3285 -3911.567954634115
3286 -3911.569016677891
3287 -3911.578208059903
3288 -3911.589842826929
3289 -3911.601135426841
3290 -3911.602818854344
3291 -3911.605023957949
3292 -3911.613721648946
3293 -3911.603406855866
3294 -3911.595284638603
3295 -3911.588187565416
3296 -3911.582522505807
3297 -3911.588231324409
3298 -3911.578741259374
3299 -3911.58485460394
3300 -3911.593806463819
3301 -3911.597800654059
3302 -3911.598749970777
3303 -3911.5983597473
3304 -3911.611609792249
3305 -3911.598280453105
3306 -3911.59679502113
3307 -3911.576153118068
3308 -3911.593730231659
3309 -3911.56351068966
3310 -3911.574039740934
3311 -3911.54464742268
3312 -3911.574725269322
3313 -3911.557342870106
3314 -3911.579147504151
3315 -3911.558378928665
3316 -3911.578947886005
3317 -3911.560400807151
3318 -3911.575537579262
3319 -3911.556864627075
3320 -3911.57069957576
3321 -3911.557845253503
3322 -3911.581375503501
3323 -3911.551088063663
3324 -3911.57526996215
3325 -3911.547176293231
3326 -3911.57391221354
3327 -3911.559928315066
3328 -3911.571898890108
3329 -3911.559555119109
3330 -3911.578110270987
3331 -3911.56830764136
3332 -3911.581901733914
3333 -3911.567447595489
3334 -3911.573297033619
3335 -3911.555700862991
3336 -3911.582767167588
3337 -3911.562168684985
3338 -3911.582101130024
3339 -3911.575666811883
3340 -3911.598345320695
3341 -3911.586372240131
3342 -3911.589137191383
3343 -3911.578085701487
3344 -3911.588237938396
3345 -3911.572867448903
3346 -3911.583851797449
3347 -3911.570850734679
3348 -3911.585262726067
3349 -3911.56160668148
3350 -3911.578215308291
3351 -3911.557971743316
3352 -3911.567683876362
