"mz-rfile"
"Iteration" "mz"
("Iteration" "mz")
1 -4391.053705765496
2 -4373.152100215348
3 -3948.87779053546
4 -3543.101889433114
5 -2908.41401067958
6 -2456.64231441567
7 -1913.54895953349
8 -1499.126829247841
9 -1023.064927501958
10 -632.9545456243715
11 -299.8252672203156
12 -7.690539083723531
13 194.6851619971692
14 309.3515136792652
15 342.4072788679196
16 312.8752718037078
17 241.5932107618223
18 140.7342302662422
19 11.3164550979407
20 -110.7753105048012
21 -232.0116464646491
22 -344.0660923359517
23 -431.4717983677654
24 -509.1905174868712
25 -583.3330637689991
26 -633.8499122483332
27 -682.6618942455303
28 -711.5786904615519
29 -731.3657465427316
30 -740.9304471455702
31 -743.2665465037943
32 -740.7351564553575
33 -735.9349350569868
34 -729.8999513377789
35 -723.7444644158428
36 -718.7673619077011
37 -714.491280682607
38 -711.6975769447356
39 -710.0340842332032
40 -709.169117571929
41 -709.0345643211627
42 -709.7067600871112
43 -711.3026223031534
44 -713.5482303275678
45 -716.60459532041
46 -719.7698326747815
47 -722.9993061182353
48 -726.1170522233598
49 -729.3614090421006
50 -731.86925564147
51 -734.1147582471299
52 -736.1114026763269
53 -737.6636560509021
54 -739.1077040546797
55 -740.2788524141637
56 -741.3916420864622
57 -742.2558648280037
58 -743.1444573998796
59 -743.8279235450909
60 -744.7615402753764
61 -745.4233057685681
62 -746.0803447831292
63 -746.8677875063114
64 -747.4669132393573
65 -747.8727835070918
66 -748.1359431850386
67 -748.2264507182871
68 -748.0814192391948
69 -747.8000358647051
70 -747.2754332254196
71 -746.6783793201291
72 -745.7857801769469
73 -744.9966486629747
74 -743.9237775334836
75 -743.0047471844759
76 -742.0571972023554
77 -741.3176619959592
78 -740.3011199125527
79 -739.5374234394528
80 -738.7624801427183
81 -737.9427617394011
82 -737.1161924802442
83 -736.2697288320134
84 -735.6864372735753
85 -734.7711436968065
86 -734.1398599432845
87 -733.157690089817
88 -732.1396667870341
89 -731.0758342385448
90 -729.9774328775264
91 -728.8390186868787
92 -727.6656807570305
93 -726.4563592913577
94 -725.2074614408351
95 -723.9478917547852
96 -722.6604961808916
97 -721.3356763060787
98 -719.9939220123288
99 -718.6244297824956
100 -717.2445042412702
101 -715.8415616461658
102 -714.4351850685171
103 -713.4832923784809
104 -712.0285225237549
105 -711.034080161566
106 -709.4933178955313
107 -708.4404240091195
108 -706.8466475740055
109 -705.7475077976311
110 -704.6227909354603
111 -703.4399581193547
112 -702.2347231095446
113 -700.9765522181818
114 -699.1081180609619
115 -697.8334537848195
116 -696.5450750014824
117 -695.2270337731762
118 -693.2481157271848
119 -691.9250968935553
120 -690.6018595771054
121 -688.6176836088121
122 -687.3234874768575
123 -685.9941921697999
124 -684.0597682680244
125 -682.7864983641269
126 -681.5294138872373
127 -679.6837940380407
128 -678.4926946463282
129 -677.294031538259
130 -676.1012945817191
131 -674.905651658784
132 -673.7442254585275
133 -672.5649654185344
134 -671.4145731127587
135 -670.2517510659615
136 -669.1339503854715
137 -668.010318477436
138 -666.9249892759268
139 -665.8400198216392
140 -664.7945942759818
141 -663.7535977462278
142 -662.7496101877546
143 -661.7566064317787
144 -660.8058334368579
145 -659.8672927724228
146 -658.98088860017
147 -658.102286348502
148 -657.2664690932268
149 -656.4476479320881
150 -655.6718984427171
151 -654.9150979724484
152 -654.1960267641075
153 -653.4834211028248
154 -652.8207381806432
155 -652.1691940316954
156 -651.5634058691182
157 -650.9655593952129
158 -650.4030938275616
159 -649.8583752485641
160 -649.3513857692978
161 -648.8593454197791
162 -648.3939301727327
163 -647.9328502986554
164 -647.508412430195
165 -647.0948047064034
166 -646.7051174082076
167 -646.3111360098632
168 -645.9428561485007
169 -645.5784400585115
170 -645.2307447277324
171 -644.8823867592977
172 -644.553395641081
173 -644.2257655035309
174 -643.9163525420004
175 -643.5976232988353
176 -643.2897059682717
177 -642.9768823291897
178 -642.6763032130951
179 -642.357334715649
180 -642.0574763416124
181 -641.7486059294974
182 -641.4463809687277
183 -641.1217607188363
184 -640.8096917997378
185 -640.4808948375739
186 -640.1604055088283
187 -639.8223742621869
188 -639.489654094515
189 -639.1382092190912
190 -638.7800889593456
191 -638.4081356690451
192 -638.0414824641533
193 -637.6523085169483
194 -637.2704740615875
195 -636.8607352848699
196 -636.4597255342898
197 -636.0436496522062
198 -635.6226501719585
199 -635.1879197555699
200 -634.7556690000007
201 -634.3051115301738
202 -633.8610348575804
203 -633.4016988512506
204 -632.9404066022998
205 -632.4687835951271
206 -631.9910628091076
207 -631.4985092067915
208 -631.0054362075482
209 -630.5081482176446
210 -630.0098825649081
211 -629.5063646264429
212 -629.0042302299059
213 -628.4959944729353
214 -627.9854298005671
215 -627.4751590854136
216 -626.9628209406451
217 -626.444091724887
218 -625.9303324733952
219 -625.4129905421355
220 -624.8997869533191
221 -624.3825598526888
222 -623.869873795847
223 -623.3607615618766
224 -622.8565645266375
225 -622.3587974292452
226 -621.864180123344
227 -621.3704400057763
228 -620.885275814779
229 -620.1736250594412
230 -619.7233724279214
231 -619.2759568060931
232 -618.8419201055673
233 -618.4115617199698
234 -618.002626025659
235 -617.5893363626398
236 -617.1891204261873
237 -616.7835591771985
238 -616.3927518945951
239 -616.0050616195094
240 -615.6338002974733
241 -615.2611443067568
242 -614.9013817751867
243 -614.5375617975941
244 -614.1950514531877
245 -613.851566785797
246 -613.5203307602308
247 -613.1907228875027
248 -612.877522752835
249 -612.5621678471247
250 -612.2709692747302
251 -611.9713584311463
252 -611.6889470383669
253 -611.406581959676
254 -611.1421275429782
255 -610.8896230052428
256 -610.646639637934
257 -610.4126916867402
258 -610.1943385482316
259 -609.983557762498
260 -609.7897131272456
261 -609.6009569862373
262 -609.4280247251414
263 -609.2636737621955
264 -609.1148506145744
265 -608.97890886215
266 -608.8566076847478
267 -608.7464073498998
268 -608.6522141265863
269 -608.5640237187731
270 -608.495381092588
271 -608.4330621796222
272 -608.3886474350865
273 -608.3560692009421
274 -608.3428422506279
275 -608.3373080580564
276 -608.351075714287
277 -608.3735376917349
278 -608.4155743136358
279 -608.4693591086947
280 -608.5407671426923
281 -608.6245603779033
282 -608.7257741381503
283 -608.8371979855658
284 -608.9671718873832
285 -609.1073483696784
286 -609.2671138243896
287 -609.4365718014508
288 -609.6208135662836
289 -609.8161900988166
290 -610.0278490745078
291 -610.2491752093053
292 -610.4886669882192
293 -610.7373943491893
294 -610.998339196528
295 -611.2683803480708
296 -611.5527726102221
297 -611.8436673782695
298 -612.1472690550848
299 -612.4577729625972
300 -612.7801516244979
301 -613.109762321104
302 -613.4523336881942
303 -613.7999356044295
304 -614.1587327711229
305 -614.5225886213166
306 -614.8978897159805
307 -615.2741843255486
308 -615.660678091658
309 -616.0513880217477
310 -616.4519546868428
311 -616.8548224878689
312 -617.2680786287855
313 -617.6776087855817
314 -618.0999082763559
315 -618.516333981546
316 -618.9437517442547
317 -619.3670910270473
318 -620.0056416466729
319 -620.4146680689489
320 -620.8349053307659
321 -621.2470003525202
322 -621.670826143402
323 -622.2870482343009
324 -622.6909153043212
325 -623.0948776919168
326 -623.6913954247574
327 -624.0772332010956
328 -624.4681037672522
329 -625.0406955984324
330 -625.4187686789605
331 -625.7974747316919
332 -626.3653628039876
333 -626.7336645121585
334 -627.1107526836707
335 -627.6695281248199
336 -628.0419411859316
337 -628.415190512917
338 -628.9806074016802
339 -629.3489032006789
340 -629.9062935469489
341 -630.2732092587306
342 -630.8262309093197
343 -631.1891457689466
344 -631.744994111745
345 -632.1087955569616
346 -632.4795967328382
347 -633.0366342245638
348 -633.4112429135115
349 -633.9682324635588
350 -634.3415693557509
351 -634.8945267097707
352 -635.2603166199284
353 -635.8098016443768
354 -636.1769050331029
355 -636.7230559996037
356 -637.0877653255538
357 -637.6307004807746
358 -637.995685748579
359 -638.5349088204364
360 -638.8967342240733
361 -639.4362191992323
362 -639.7977383542309
363 -640.3351070564701
364 -640.695686090911
365 -641.2335236515117
366 -641.5962732924581
367 -642.1331280682541
368 -642.49264979858
369 -643.0300971252884
370 -643.3892347200277
371 -643.9237156856994
372 -644.2821905292542
373 -644.8187235385182
374 -645.176513635693
375 -645.7095553853355
376 -646.0679054226053
377 -646.5972104439941
378 -646.9510140484932
379 -647.476096951607
380 -647.8289797316522
381 -648.3471405179689
382 -648.6956517191671
383 -649.0477931069693
384 -649.5817161448948
385 -649.9302599861262
386 -650.4592932896803
387 -650.8036537484787
388 -651.3308803234215
389 -651.6751801701305
390 -652.1952191458478
391 -652.5351377625234
392 -652.884280345557
393 -653.402586633565
394 -653.748750628414
395 -654.260060830181
396 -654.6001327888704
397 -654.9434180051222
398 -655.4629807121203
399 -655.8009624626761
400 -656.1482798541318
401 -656.6645211189015
402 -657.0057458563409
403 -657.3489585417068
404 -657.8622723208543
405 -658.196878222792
406 -658.5386436006564
407 -659.0449406081701
408 -659.3781666164889
409 -659.7139454384874
410 -660.2175809054411
411 -660.5441745185343
412 -660.8755653689782
413 -661.2061694935563
414 -661.7057543029376
415 -662.0287406160716
416 -662.3582118114035
417 -662.8409864461739
418 -663.1620226928526
419 -663.4767775138639
420 -663.8033513373159
421 -664.1245294396153
422 -664.6089146105261
423 -664.919310085197
424 -665.2411503055258
425 -665.5567629199118
426 -665.8818741989174
427 -666.3536137999874
428 -666.6674862130731
429 -666.9771536757906
430 -667.2948065331659
431 -667.6068012478891
432 -667.928084377098
433 -668.2446071732123
434 -668.5680247066057
435 -668.8867715769951
436 -669.213970878074
437 -669.5352442207352
438 -669.8630807722415
439 -670.3408408508767
440 -670.653707238637
441 -670.9596521639379
442 -671.2691004638542
443 -671.5723184013524
444 -671.8799441208928
445 -672.1782631966685
446 -672.4800470219288
447 -672.777145471985
448 -673.077712862079
449 -673.3734730422557
450 -673.6739744071267
451 -673.9665942004362
452 -674.2627568793292
453 -674.5517962081826
454 -674.8444651059364
455 -675.1316739229401
456 -675.4209664244938
457 -675.7054939974312
458 -675.9922010169829
459 -676.2728991423995
460 -676.5572174929904
461 -676.834215891341
462 -677.1129728529581
463 -677.3848560822885
464 -677.6601425601422
465 -677.9274647353683
466 -678.1977795792932
467 -678.4578713243703
468 -678.7242663201864
469 -678.9791265378576
470 -679.2408548905705
471 -679.4932493846154
472 -679.7511915436679
473 -679.9998020651237
474 -680.2537312421106
475 -680.4987904588293
476 -680.7491221066438
477 -680.9888055713041
478 -681.2342182084384
479 -681.46653072677
480 -681.7071276924345
481 -681.9355522918943
482 -682.172057267466
483 -682.3983037040139
484 -682.630926653097
485 -682.8517904519915
486 -683.0780388311802
487 -683.2949987303778
488 -683.5182858741082
489 -683.7321209298028
490 -683.9520440993838
491 -684.1627695752574
492 -684.3793278277346
493 -684.5863133223528
494 -684.7986511763025
495 -685.0016725568884
496 -685.2119932411664
497 -685.4130396909111
498 -685.6195512968999
499 -685.8170524234442
500 -686.0194962687126
501 -686.2124327101033
502 -686.4100166014141
503 -686.6000790839103
504 -686.7946033708921
505 -686.9814221601678
506 -687.1740844306059
507 -687.3558953976039
508 -687.5450941822305
509 -687.7233225251632
510 -687.909755848102
511 -688.0851735637141
512 -688.2682237496988
513 -688.4396498619631
514 -688.6187138681521
515 -688.786492508409
516 -688.9621299531558
517 -689.1260975259092
518 -689.2993041384791
519 -689.4606266768744
520 -689.6333112042349
521 -689.7902520731087
522 -689.9588199697976
523 -690.1147692779124
524 -690.2800991320446
525 -690.4334075384611
526 -690.5939429803415
527 -690.7423709223038
528 -690.9002123588118
529 -691.0461696308989
530 -691.1988107453371
531 -691.3427517275381
532 -691.493160309851
533 -691.6338545674611
534 -691.7802770881873
535 -691.9171681029522
536 -692.0606078831869
537 -692.195412302861
538 -692.3337493789078
539 -692.4684523789181
540 -692.6056015835396
541 -692.7357245474174
542 -692.8688384487458
543 -692.9970829018766
544 -693.1279849281888
545 -693.2543384931085
546 -693.3817924502813
547 -693.5060066420228
548 -693.6346533208421
549 -693.7553198487947
550 -693.8822317008151
551 -694.0007155344729
552 -694.1248485911607
553 -694.2417138656621
554 -694.3642293720006
555 -694.4783934930672
556 -694.6005164391089
557 -694.7131551297545
558 -694.8309045510857
559 -694.9419238580845
560 -695.0576745764795
561 -695.1686773513845
562 -695.2828551078646
563 -695.3904982506913
564 -695.5035522913995
565 -695.6090738938218
566 -695.7194015794623
567 -695.8226452209238
568 -695.9313430735677
569 -696.0320022051352
570 -696.1367771594983
571 -696.2351327900109
572 -696.3401762220925
573 -696.4359469781567
574 -696.5375435847703
575 -696.6318176655597
576 -696.7322721860862
577 -696.8251431808088
578 -696.923373644262
579 -697.0143867592674
580 -697.1126040083931
581 -697.2024917834583
582 -697.2990302562931
583 -697.3873224815496
584 -697.4830070341552
585 -697.5688684527155
586 -697.6621621417347
587 -697.7464198389524
588 -697.8406871924152
589 -697.9231530277685
590 -698.015261731819
591 -698.0965271200577
592 -698.187572656838
593 -698.2683799314867
594 -698.3562843005989
595 -698.4336619574867
596 -698.5210416783129
597 -698.5997925782773
598 -698.6847494967276
599 -698.7627731682568
600 -698.8475443692643
601 -698.9251989604602
602 -699.0063266874484
603 -699.0816199200522
604 -699.1619476043522
605 -699.2353673007162
606 -699.3139872824962
607 -699.3865914588905
608 -699.4657023765487
609 -699.5378699459563
610 -699.6145604573371
611 -699.687160395925
612 -699.7645362823138
613 -699.8343667567525
614 -699.9118424471653
615 -699.9786965847135
616 -700.0567514062481
617 -700.1231796027515
618 -700.1995590496322
619 -700.265574373558
620 -700.3407257340812
621 -700.406600488174
622 -700.479394542508
623 -700.5439407900557
624 -700.616293575033
625 -700.681265419288
626 -700.749943771954
627 -700.814564104372
628 -700.8846803270453
629 -700.9466173646474
630 -701.0146922999306
631 -701.0760144050829
632 -701.14486999823
633 -701.2065550574657
634 -701.272949716831
635 -701.3337032645049
636 -701.4011621305302
637 -701.4606917070258
638 -701.5268117144301
639 -701.5855240505773
640 -701.6530594843455
641 -701.7101429633293
642 -701.7763178971303
643 -701.8326177224405
644 -701.8986686265837
645 -701.953726799048
646 -702.0185504573466
647 -702.0721144910534
648 -702.1372292973532
649 -702.190817038378
650 -702.2534386491411
651 -702.3063122777883
652 -702.3697935460729
653 -702.4208894077725
654 -702.4831920126401
655 -702.5330033785953
656 -702.5949272056869
657 -702.6440510358855
658 -702.7044635275921
659 -702.7545711492794
660 -702.8145194569842
661 -702.8652246249245
662 -702.9234432448508
663 -702.9728135895559
664 -703.0319236411628
665 -703.0817510265778
666 -703.1374632512398
667 -703.1866098557343
668 -703.2421818984503
669 -703.2904128925774
670 -703.3464227719751
671 -703.3955573986815
672 -703.449027720646
673 -703.4973748574022
674 -703.5498030836983
675 -703.5981722967954
676 -703.6516861346447
677 -703.6985109041574
678 -703.7507612153399
679 -703.7966104119564
680 -703.8499421737886
681 -703.895776129856
682 -703.9479174419142
683 -703.992987882493
684 -704.0454814214346
685 -704.0893481846173
686 -704.1409304725809
687 -704.1837158920107
688 -704.235236988739
689 -704.2766984155593
690 -704.3284406791604
691 -704.3692815059439
692 -704.4214239053705
693 -704.4622144023692
694 -704.513784225733
695 -704.5538559225439
696 -704.6041459420028
697 -704.6441771367372
698 -704.6936783839959
699 -704.7341569660294
700 -704.7818154647923
701 -704.8231670344146
702 -704.8686327081593
703 -704.9101556105749
704 -704.9564368246487
705 -704.9976258107565
706 -705.0411874095657
707 -705.0835128273302
708 -705.1290400154819
709 -705.1685715127433
710 -705.2137252467389
711 -705.2521248565394
712 -705.2973984710763
713 -705.3350773223196
714 -705.3786672950682
715 -705.4162868439348
716 -705.4598004172457
717 -705.4963499069733
718 -705.5426582413319
719 -705.5788166408278
720 -705.6246357357649
721 -705.6590194644226
722 -705.703386797345
723 -705.7380956362443
724 -705.7824706208487
725 -705.8168063428253
726 -705.8608233224636
727 -705.894625734592
728 -705.938340512201
729 -705.971802599651
730 -706.0157658481291
731 -706.0477469705411
732 -706.0896943064095
733 -706.1226990207837
734 -706.1648587492062
735 -706.1973835562696
736 -706.2395963447718
737 -706.2712414361894
738 -706.3121382302188
739 -706.3437013545325
740 -706.3826678265137
741 -706.4139942698579
742 -706.4539378501894
743 -706.4841006436562
744 -706.5237547071749
745 -706.5542305905318
746 -706.5933936254838
747 -706.624894583962
748 -706.6632755544741
749 -706.69540969169
750 -706.7334687342797
751 -706.7633271810085
752 -706.8020240161103
753 -706.8313039578208
754 -706.8684328028213
755 -706.8988743820635
756 -706.9355333044151
757 -706.9653877659373
758 -707.0015489917469
759 -707.0313254000349
760 -707.0668638437839
761 -707.0964585753833
762 -707.1306784068601
763 -707.1601968487774
764 -707.1951042563737
765 -707.2242448863635
766 -707.2592046670159
767 -707.2882089006415
768 -707.3224440839278
769 -707.3503783618863
770 -707.3846057404555
771 -707.4120360117349
772 -707.4459605599188
773 -707.4720776638995
774 -707.5070424301592
775 -707.5312299812513
776 -707.5676343029005
777 -707.590609665448
778 -707.6255798071763
779 -707.6504464416871
780 -707.6856897044735
781 -707.7098019869103
782 -707.7451345379528
783 -707.7674205188746
784 -707.8023376872806
785 -707.8251734730823
786 -707.8586226983007
787 -707.882518928339
788 -707.9178626286918
789 -707.9403485587704
790 -707.9749843068365
791 -707.9967523204581
792 -708.0312565579731
793 -708.0527137851169
794 -708.0850199263677
795 -708.1057448367109
796 -708.1384428052583
797 -708.1612976231017
798 -708.1928634132113
799 -708.2141469400874
800 -708.2465546873144
801 -708.2678437422855
802 -708.3002981256345
803 -708.3205354480573
804 -708.3517212383077
805 -708.3741875860005
806 -708.4023859005373
807 -708.4251953863263
808 -708.4539603040057
809 -708.4775568841917
810 -708.5045838338966
811 -708.5260339219124
812 -708.5556189304282
813 -708.5767883185125
814 -708.6057480683838
815 -708.6262498626078
816 -708.6544474746029
817 -708.6740916097531
818 -708.7020888709312
819 -708.7206654503101
820 -708.7499163965477
821 -708.7678919665977
822 -708.7962239085873
823 -708.8145305862031
824 -708.8421426201426
825 -708.8613273714764
826 -708.8891807900407
827 -708.9074578092194
828 -708.9336351230938
829 -708.9524415953836
830 -708.9789211884098
831 -708.9977345678569
832 -709.0240495667114
833 -709.0422351975635
834 -709.0659748200962
835 -709.0852298151372
836 -709.1099621232339
837 -709.1283180128912
838 -709.1511083536002
839 -709.1699848479583
840 -709.1932154878665
841 -709.2104214534965
842 -709.2356920044595
843 -709.2520702825336
844 -709.278100509865
845 -709.2929686723348
846 -709.3187183968211
847 -709.3339010748091
848 -709.3590493716484
849 -709.3756549120729
850 -709.4016325617795
851 -709.4181287860406
852 -709.444339902066
853 -709.4608787919575
854 -709.4876888902137
855 -709.5008370179221
856 -709.5279973307057
857 -709.5401533289372
858 -709.5673774399814
859 -709.5802843365857
860 -709.6057016002474
861 -709.6187035904707
862 -709.6428160362824
863 -709.6559141805778
864 -709.6793072964446
865 -709.6917316694614
866 -709.716386566653
867 -709.7308572931395
868 -709.7537228260227
869 -709.7675723886073
870 -709.7890550501844
871 -709.8016927210414
872 -709.8246800549641
873 -709.8368260097063
874 -709.8597424719914
875 -709.8716760246749
876 -709.8938655520783
877 -709.9075972578884
878 -709.9291295119358
879 -709.9424285162498
880 -709.9630936599654
881 -709.9743978397913
882 -709.9960767437055
883 -710.0074134619072
884 -710.0287328507363
885 -710.0386879698219
886 -710.0598073666267
887 -710.0706405287972
888 -710.0915236877986
889 -710.1010003141424
890 -710.1203052826462
891 -710.1310833141686
892 -710.1521478765396
893 -710.1628386762391
894 -710.1821982807495
895 -710.1928757400909
896 -710.2134813245065
897 -710.222623312692
898 -710.242593280245
899 -710.251833137864
900 -710.2723101602082
901 -710.2826352671043
902 -710.3027636897127
903 -710.3126255091809
904 -710.3320803002348
905 -710.3414112548663
906 -710.3602626398202
907 -710.3701824216055
908 -710.3887150198078
909 -710.3989815619063
910 -710.416215814658
911 -710.4267771357918
912 -710.4465129457208
913 -710.4542063334125
914 -710.4733184122429
915 -710.4812398721213
916 -710.5015234015832
917 -710.5103852889582
918 -710.5288957786896
919 -710.5373549878743
920 -710.5556209549482
921 -710.5628544471199
922 -710.583449360976
923 -710.5902393304716
924 -710.6100231505416
925 -710.6170349417029
926 -710.6343227534995
927 -710.6434783559823
928 -710.6618353840631
929 -710.6702329313568
930 -710.6857182652315
931 -710.6944350361198
932 -710.7108348129751
933 -710.7206788262662
934 -710.7367390550189
935 -710.7461998748838
936 -710.7625454691887
937 -710.7707106795885
938 -710.7857585842885
939 -710.7925235802302
940 -710.8093538294894
941 -710.8142982961874
942 -710.831002338242
943 -710.8372629274525
944 -710.8535131363548
945 -710.8607033842636
946 -710.8766056395358
947 -710.8842406632115
948 -710.899939184729
949 -710.9060111850715
950 -710.9212393419396
951 -710.9259167149218
952 -710.942624372721
953 -710.9466378688913
954 -710.9628843790828
955 -710.9662291574311
956 -710.9829838364491
957 -710.9864475638076
958 -711.0018492684917
959 -711.0064238550817
960 -711.0221078693678
961 -711.0282271717675
962 -711.0420693936252
963 -711.0491481533144
964 -711.0619361430586
965 -711.0692280984828
966 -711.0818743559748
967 -711.0885012922148
968 -711.1018691301251
969 -711.1085926285326
970 -711.1211363179581
971 -711.1282997893668
972 -711.1406036298505
973 -711.1485093562371
974 -711.1611408705839
975 -711.1670844172945
976 -711.1800622725594
977 -711.1856964068135
978 -711.1978834795951
979 -711.2027792737416
980 -711.2154963864416
981 -711.2212474731443
982 -711.2332874543945
983 -711.238215289069
984 -711.2526766161195
985 -711.2556664630871
986 -711.2690436585168
987 -711.2730612687011
988 -711.285622368047
989 -711.2886406522399
990 -711.3019554417092
991 -711.3038747336982
992 -711.3190392594107
993 -711.3196152062723
994 -711.3353542199546
995 -711.3362939027941
996 -711.351170417048
997 -711.3527493291585
998 -711.3681786603767
999 -711.3702971252897
1000 -711.3852281819137
1001 -711.387078683797
1002 -711.4028925696916
1003 -711.4046894623441
1004 -711.4201832582107
1005 -711.4225699241562
1006 -711.4358176847769
1007 -711.4401931515578
1008 -711.4523471606086
1009 -711.456282366303
1010 -711.4667576860965
1011 -711.4709091763365
1012 -711.4820437913994
1013 -711.4871556181596
1014 -711.4982219740433
1015 -711.5020921227398
1016 -711.5134697746454
1017 -711.5171765531132
1018 -711.5290754792841
1019 -711.5315847639855
1020 -711.5426017883951
1021 -711.5446911151306
1022 -711.5554650468885
1023 -711.558273798706
1024 -711.5691917017201
1025 -711.5721623722341
1026 -711.5827470344956
1027 -711.584032616834
1028 -711.5951459115772
1029 -711.5969222373774
1030 -711.6067139182453
1031 -711.6082334232232
1032 -711.6197754084421
1033 -711.6218808164846
1034 -711.6336754178338
1035 -711.6338709878986
1036 -711.6468527139178
1037 -711.6482810977897
1038 -711.6591512113406
1039 -711.6619002142702
1040 -711.6733225811483
1041 -711.6757150376826
1042 -711.6853916684389
1043 -711.6874989523474
1044 -711.6980776813479
1045 -711.6996298764288
1046 -711.7101969900773
1047 -711.7128787776894
1048 -711.7220340385171
1049 -711.725734606561
1050 -711.7330505778075
1051 -711.7362765374671
1052 -711.7456629344292
1053 -711.7495761327689
1054 -711.7571695706806
1055 -711.7596274107185
1056 -711.769701117481
1057 -711.7688576757635
1058 -711.7790369360938
1059 -711.7785137560849
1060 -711.7888941459686
1061 -711.7868956546812
1062 -711.7961259823552
1063 -711.7963927490679
1064 -711.8060743391486
1065 -711.8072883594056
1066 -711.8161960371673
1067 -711.8187136711067
1068 -711.8287292712951
1069 -711.8307077995362
1070 -711.8387312995565
1071 -711.8407061437512
1072 -711.8493740611432
1073 -711.8522795850918
1074 -711.8612442319478
1075 -711.8625184539731
1076 -711.871477433716
1077 -711.8737158126925
1078 -711.8813269821727
1079 -711.8833758882691
1080 -711.8913021178439
1081 -711.8932375626318
1082 -711.9006369067768
1083 -711.9033204425112
1084 -711.9105695201084
1085 -711.9120698159695
1086 -711.9196325295395
1087 -711.9221401324085
1088 -711.9314877944661
1089 -711.9319342618478
1090 -711.9413101633112
1091 -711.9425836268424
1092 -711.951499940402
1093 -711.9513437757563
1094 -711.960362514333
1095 -711.9596499872222
1096 -711.969924775504
1097 -711.9694524680903
1098 -711.9777691067194
1099 -711.9767610927853
1100 -711.9855844499976
1101 -711.9855733644144
1102 -711.9942615763338
1103 -711.9944739665915
1104 -712.0036034113267
1105 -712.0029347247402
1106 -712.0113536489001
1107 -712.0121591282741
1108 -712.0198113911539
1109 -712.0213102452677
1110 -712.0279337113781
1111 -712.0288091989777
1112 -712.0368551967192
1113 -712.0376935095743
1114 -712.0462683764492
1115 -712.0450988289481
1116 -712.0537738922691
1117 -712.0520457933173
1118 -712.0595986983425
1119 -712.0593048873388
1120 -712.0665793813818
1121 -712.066412513416
1122 -712.0718832492132
1123 -712.071983402494
1124 -712.0797865219922
1125 -712.0785043411363
1126 -712.0865588107307
1127 -712.0845366899422
1128 -712.0933213434874
1129 -712.091316887774
1130 -712.0988188199187
1131 -712.0978969177958
1132 -712.10397535962
1133 -712.1042883370795
1134 -712.1105873661049
1135 -712.1104264501141
1136 -712.118228176822
1137 -712.117265274607
1138 -712.1279769905179
1139 -712.1259485497428
1140 -712.1362612015191
1141 -712.1346481518212
1142 -712.1420487833477
1143 -712.1410721792699
1144 -712.1484766899264
1145 -712.1483402619021
1146 -712.1565291344768
1147 -712.1555536615373
1148 -712.163882374174
1149 -712.164514486328
1150 -712.1714368566351
1151 -712.1725708674081
1152 -712.1784151872974
1153 -712.1775435763637
1154 -712.1852652288776
1155 -712.1832993784121
1156 -712.1919866997885
1157 -712.1906388828525
1158 -712.1983846504517
1159 -712.1968650494223
1160 -712.2048518555704
1161 -712.203039661061
1162 -712.2108374102212
1163 -712.2095081709023
1164 -712.2173140118551
1165 -712.2149017961702
1166 -712.2223478313409
1167 -712.220366873519
1168 -712.2285307810117
1169 -712.2260631854166
1170 -712.2330588025031
1171 -712.2308783719237
1172 -712.2362710823021
1173 -712.2334145418215
1174 -712.2390616584227
1175 -712.2385482709269
1176 -712.2433853237743
1177 -712.2435045340311
1178 -712.2489141257296
1179 -712.2474704323758
1180 -712.2547568356565
1181 -712.2531583362853
1182 -712.258686320948
1183 -712.2568404143261
1184 -712.2628853048934
1185 -712.2614477120835
1186 -712.2682755908513
1187 -712.2671767306522
1188 -712.2727109953514
1189 -712.2709962188682
1190 -712.2766442519022
1191 -712.2756202076703
1192 -712.2835529694696
1193 -712.2833976012423
1194 -712.2893982648961
1195 -712.2879987794348
1196 -712.296536385748
1197 -712.2935612375276
1198 -712.3015709633878
1199 -712.2983552821192
1200 -712.3054855040283
1201 -712.3036606895531
1202 -712.3091750601347
1203 -712.3068629581995
1204 -712.3138528367318
1205 -712.3111207565983
1206 -712.3171090382018
1207 -712.3132209799043
1208 -712.3190707155647
1209 -712.3161801934974
1210 -712.3212908490922
1211 -712.3201962256682
1212 -712.3251433389463
1213 -712.3239187053375
1214 -712.3305644873759
1215 -712.3302674942862
1216 -712.3362074477244
1217 -712.3353963238483
1218 -712.3423602058967
1219 -712.3395847355509
1220 -712.3463163067233
1221 -712.3442094009791
1222 -712.3491171752703
1223 -712.3481595716323
1224 -712.3526121648839
1225 -712.3527986309532
1226 -712.3570509039591
1227 -712.3570279611656
1228 -712.3627924051963
1229 -712.3631037412185
1230 -712.368085355244
1231 -712.3680889055468
1232 -712.3728302771108
1233 -712.37255898826
1234 -712.3772909225027
1235 -712.3761291659091
1236 -712.3821160704119
1237 -712.379033724841
1238 -712.3844311824242
1239 -712.3810424163927
1240 -712.387583735159
1241 -712.385409650497
1242 -712.3910248756932
1243 -712.3890153867537
1244 -712.3943853947981
1245 -712.392333496369
1246 -712.3971624418779
1247 -712.3959806592329
1248 -712.4023853945955
1249 -712.3992336701089
1250 -712.4063121295369
1251 -712.4026009464673
1252 -712.4105379650499
1253 -712.4072263342807
1254 -712.4136722241959
1255 -712.4105057320627
1256 -712.4170162836771
1257 -712.4138814325745
1258 -712.4208661953195
1259 -712.416615581459
1260 -712.42376965236
1261 -712.4187022647822
1262 -712.4258903059555
1263 -712.4206166556343
1264 -712.4291606098319
1265 -712.4242512448126
1266 -712.4321436094922
1267 -712.4274113236097
1268 -712.4351322709247
1269 -712.4314172397686
1270 -712.4386968602988
1271 -712.4357735423116
1272 -712.4420573391862
1273 -712.4395793765702
1274 -712.4439473811296
1275 -712.4410905485823
1276 -712.4474263800305
1277 -712.4440434775273
1278 -712.448632716383
1279 -712.4473620172175
1280 -712.4522079087998
1281 -712.4512614130301
1282 -712.4562148675026
1283 -712.453620951823
1284 -712.4582685342815
1285 -712.4567285645543
1286 -712.4612782265398
1287 -712.4590380846224
1288 -712.4650638539777
1289 -712.4614822891679
1290 -712.4677586071159
1291 -712.4638441468242
1292 -712.4719655925061
1293 -712.4695306508214
1294 -712.4748391065805
1295 -712.4713099081633
1296 -712.478613447902
1297 -712.4742856328268
1298 -712.4806136827558
1299 -712.4765646550031
1300 -712.4816634696648
1301 -712.4781418322367
1302 -712.4839058567662
1303 -712.4807979394791
1304 -712.4864790553141
1305 -712.48379595994
1306 -712.4888543748685
1307 -712.4869581243566
1308 -712.4915214831951
1309 -712.4890238457899
1310 -712.491520084859
1311 -712.4881564019719
1312 -712.4917520922739
1313 -712.4898159117938
1314 -712.4924696079537
1315 -712.4905748536265
1316 -712.4943815777272
1317 -712.4925387339845
1318 -712.4980825485325
1319 -712.4958134832681
1320 -712.5020829346408
1321 -712.5002967258914
1322 -712.5044064173582
1323 -712.5020716152941
1324 -712.5066289198845
1325 -712.5046844740192
1326 -712.5102590546036
1327 -712.5085617263514
1328 -712.515769335861
1329 -712.5110710813505
1330 -712.5185943833255
1331 -712.5144119590915
1332 -712.5218124710674
1333 -712.5176656040261
1334 -712.524040352857
1335 -712.5199581544967
1336 -712.5266036636297
1337 -712.5227075383416
1338 -712.5296220997084
1339 -712.527139675215
1340 -712.5341217723059
1341 -712.5301718165871
1342 -712.5364976514927
1343 -712.5331615109222
1344 -712.5389835048036
1345 -712.5360887097852
1346 -712.5388131682421
1347 -712.5361764515279
1348 -712.5397999593512
1349 -712.5365618616073
1350 -712.5394536543852
1351 -712.536403934435
1352 -712.5395522227018
1353 -712.5372676042101
1354 -712.5401722469262
1355 -712.537515063693
1356 -712.5409527572233
1357 -712.5379415945795
1358 -712.5411315743092
1359 -712.5376604688065
1360 -712.5417976116205
1361 -712.538975300006
1362 -712.5434756391594
1363 -712.5398924871449
1364 -712.5454954281934
1365 -712.5432144306084
1366 -712.5475704942753
1367 -712.5457138694929
1368 -712.5503224946317
1369 -712.5478938437808
1370 -712.5551563700105
1371 -712.5510287862323
1372 -712.5595285560594
1373 -712.5551372538513
1374 -712.5630268688348
1375 -712.5585522238919
1376 -712.566002294642
1377 -712.5620450904418
1378 -712.5683340170891
1379 -712.5638385720231
1380 -712.5705112698745
1381 -712.566225535199
1382 -712.5710260135315
1383 -712.5668682823925
1384 -712.5712742108215
1385 -712.5667070065776
1386 -712.5706354455351
1387 -712.5668488716735
1388 -712.5723044651153
1389 -712.5694373443833
1390 -712.5726101784111
1391 -712.5702551113322
1392 -712.5749710460494
1393 -712.5714804861981
1394 -712.5763027534568
1395 -712.5720114024959
1396 -712.577216308555
1397 -712.5730490686637
1398 -712.5793550399538
1399 -712.5741589084532
1400 -712.5809033662126
1401 -712.575674264465
1402 -712.5828965958816
1403 -712.5779264772145
1404 -712.5854160869529
1405 -712.5815620562172
1406 -712.5877651241857
1407 -712.5830448566095
1408 -712.5893481620082
1409 -712.5848307527091
1410 -712.5922500980031
1411 -712.5865198353903
1412 -712.595077917878
1413 -712.5895118482821
1414 -712.5962853578565
1415 -712.5921623975823
1416 -712.5972503135453
1417 -712.5941020472809
1418 -712.5976287853207
1419 -712.5944145158892
1420 -712.5986804832364
1421 -712.5958840739864
1422 -712.5994387202406
1423 -712.5962029104808
1424 -712.599370577182
1425 -712.5944046791992
1426 -712.5988232103552
1427 -712.5930950452482
1428 -712.5967079655253
1429 -712.5921129202179
1430 -712.596288552232
1431 -712.5919793268598
1432 -712.597855461578
1433 -712.5942591317126
1434 -712.5987523577417
1435 -712.596324019251
1436 -712.5997915210145
1437 -712.5971065478412
1438 -712.6019506008652
1439 -712.597585419869
1440 -712.6028874037416
1441 -712.5996195772576
1442 -712.6048291748186
1443 -712.6016121242794
1444 -712.6066376931172
1445 -712.6037548130222
1446 -712.6075193990488
1447 -712.6042525851825
1448 -712.6078869491258
1449 -712.6058694425383
1450 -712.61096313234
1451 -712.6076793957502
1452 -712.6135192340564
1453 -712.6106704270883
1454 -712.6156282158271
1455 -712.6119251210592
1456 -712.6167268328688
1457 -712.6129677038402
1458 -712.6175690915223
1459 -712.6134689582339
1460 -712.6169544547788
1461 -712.6137683048048
1462 -712.6181667630259
1463 -712.6138687623335
1464 -712.619532994193
1465 -712.6146191280812
1466 -712.619463033124
1467 -712.6145687842946
1468 -712.6199495016957
1469 -712.6147179774564
1470 -712.620183123915
1471 -712.6134265952844
1472 -712.619778790399
1473 -712.6154160834466
1474 -712.6200355570564
1475 -712.6157202016507
1476 -712.6219524558586
1477 -712.6182106517342
1478 -712.623713987473
1479 -712.6199381897084
1480 -712.6244362078064
1481 -712.6197549295574
1482 -712.6234310925516
1483 -712.6201722641462
1484 -712.6241678754494
1485 -712.6213937346906
1486 -712.6243267347207
1487 -712.6223529869826
1488 -712.6268450643186
1489 -712.62525515222
1490 -712.6271180259162
1491 -712.6265248951615
1492 -712.6299266219828
1493 -712.6287666689201
1494 -712.6322158335155
1495 -712.6285645380759
1496 -712.6324398732444
1497 -712.6280183275964
1498 -712.6325142347102
1499 -712.6282948414791
1500 -712.6329571930487
1501 -712.6292063807093
1502 -712.6323834500655
1503 -712.6281545871026
1504 -712.6331824676997
1505 -712.6281482224942
1506 -712.6337694940016
1507 -712.6274309381951
1508 -712.6334887786635
1509 -712.6285456429177
1510 -712.633263603132
1511 -712.6301040402483
1512 -712.6356584883757
1513 -712.632824495558
1514 -712.6368440179637
1515 -712.6334337372946
1516 -712.6393808985003
1517 -712.6372084214839
1518 -712.6415247823924
1519 -712.6391825666401
1520 -712.6439776157063
1521 -712.6396158950402
1522 -712.645014230631
1523 -712.640512767319
1524 -712.644882291619
1525 -712.6399560258401
1526 -712.6445986583066
1527 -712.64068525814
1528 -712.6452830134893
1529 -712.6404283259706
1530 -712.6447396697599
1531 -712.6395942793038
1532 -712.6451568008274
1533 -712.6395174250168
1534 -712.6461737517332
1535 -712.6394697162955
1536 -712.64507683043
1537 -712.639005056188
1538 -712.6437181215098
1539 -712.6385114316715
1540 -712.644273919772
1541 -712.6384072836991
1542 -712.6440027411888
1543 -712.6390046643826
1544 -712.6435568874618
1545 -712.6390103283944
1546 -712.6444491681536
1547 -712.6384100483201
1548 -712.6452032900712
1549 -712.6383615307111
1550 -712.6450659347767
1551 -712.6391900382804
1552 -712.6461831816459
1553 -712.6410154449788
1554 -712.6468488743153
1555 -712.6420767134725
1556 -712.6487686180947
1557 -712.6438892160251
1558 -712.6494380003664
1559 -712.6466741529196
1560 -712.6515113704635
1561 -712.6477527058228
1562 -712.6527517605332
1563 -712.6492856215305
1564 -712.6545597160434
1565 -712.6494048652975
1566 -712.6544351197665
1567 -712.6505916054216
1568 -712.654339536008
1569 -712.6512119102764
1570 -712.6553336487906
1571 -712.6525846343757
1572 -712.6582337854289
1573 -712.6544245686675
1574 -712.6616892198103
1575 -712.6574898549782
1576 -712.6635799005011
1577 -712.6601228177069
1578 -712.6629440682805
1579 -712.6590991148638
1580 -712.6621678026065
1581 -712.6592948931205
1582 -712.6622828891797
1583 -712.6604703534429
1584 -712.6647791713715
1585 -712.6602744543588
1586 -712.6634612229069
1587 -712.6588588114711
1588 -712.6631389792137
1589 -712.6594517338094
1590 -712.6639460503191
1591 -712.6604462830448
1592 -712.6650227787762
1593 -712.6612553163428
1594 -712.663996424476
1595 -712.6600080346802
1596 -712.6640682135575
1597 -712.6599084175145
1598 -712.6646608235849
1599 -712.6601704237574
1600 -712.6658758419973
1601 -712.6603467692356
1602 -712.6669321715275
1603 -712.6609509143506
1604 -712.667677006169
1605 -712.6614279503316
1606 -712.6676984991494
1607 -712.6630921514367
1608 -712.668846033908
1609 -712.6637445598606
1610 -712.6685884952186
1611 -712.6631754792919
1612 -712.6690792605908
1613 -712.6646955015627
1614 -712.6687834860203
1615 -712.6655855531203
1616 -712.6707658607172
1617 -712.6665208516632
1618 -712.670485900115
1619 -712.6666625876677
1620 -712.6703131814033
1621 -712.6674244393239
1622 -712.6710287460493
1623 -712.6685780248092
1624 -712.6736017165871
1625 -712.6709161227607
1626 -712.6760542456692
1627 -712.6714742644061
1628 -712.6756326531893
1629 -712.6727773459929
1630 -712.6771025307321
1631 -712.6736544785796
1632 -712.6768561900964
1633 -712.6728290918629
1634 -712.6766760860608
1635 -712.6729815242753
1636 -712.6779673306338
1637 -712.673403755012
1638 -712.6765690112976
1639 -712.6718008307295
1640 -712.6759221791417
1641 -712.6718768718132
1642 -712.6759291522379
1643 -712.6716662559736
1644 -712.6757809962027
1645 -712.6714343421027
1646 -712.6759654785086
1647 -712.672288321172
1648 -712.6758043823786
1649 -712.6725464763075
1650 -712.676123280998
1651 -712.6720997127685
1652 -712.676370568193
1653 -712.672145707087
1654 -712.6757015972315
1655 -712.6716040767062
1656 -712.674767432665
1657 -712.6716035751663
1658 -712.6747260771368
1659 -712.6712729519003
1660 -712.6747430761849
1661 -712.6698911395251
1662 -712.6730611746648
1663 -712.6695216085858
1664 -712.673139968507
1665 -712.66946055242
1666 -712.6726154625358
1667 -712.6671476380909
1668 -712.6726344174882
1669 -712.6664585181546
1670 -712.6719874029692
1671 -712.6659502057953
1672 -712.6710727645958
1673 -712.6660535595558
1674 -712.6728067937785
1675 -712.6659344587149
1676 -712.6730957514387
1677 -712.6673651727847
1678 -712.6730471556217
1679 -712.6684505073908
1680 -712.6734628380544
1681 -712.6688806178798
1682 -712.6738222977376
1683 -712.6682726502095
1684 -712.6740062655417
1685 -712.6695768600031
1686 -712.6751058849135
1687 -712.6727700081273
1688 -712.6773400689183
1689 -712.6752605230223
1690 -712.6801918155927
1691 -712.6776020658623
1692 -712.6810164072093
1693 -712.6784469067921
1694 -712.6820372570712
1695 -712.6780211872448
1696 -712.6843716701701
1697 -712.6801478300647
1698 -712.6852405671954
1699 -712.682422356615
1700 -712.6872236641485
1701 -712.6828790073105
1702 -712.6878418378941
1703 -712.6837614864592
1704 -712.6899351880395
1705 -712.6854349699951
1706 -712.6890461693012
1707 -712.6835943758614
1708 -712.6890575682874
1709 -712.6829394459526
1710 -712.6906057193399
1711 -712.6832829860834
1712 -712.6906348301538
1713 -712.6858467314036
1714 -712.6899288343469
1715 -712.6851520404813
1716 -712.689059082748
1717 -712.6853258069749
1718 -712.6875713426682
1719 -712.6844609903158
1720 -712.6874111747843
1721 -712.6840993084733
1722 -712.6849741510389
1723 -712.6824562217045
1724 -712.6836629130935
1725 -712.6802570148214
1726 -712.6819995619574
1727 -712.679755053789
1728 -712.6813378095845
1729 -712.6792288442897
1730 -712.6816344099348
1731 -712.6785025742124
1732 -712.6811514039767
1733 -712.6781829556653
1734 -712.6822893252883
1735 -712.6773972084359
1736 -712.6831903708048
1737 -712.6780821818647
1738 -712.6837485652093
1739 -712.6781296040668
1740 -712.6845339270897
1741 -712.678865582982
1742 -712.6857368657967
1743 -712.6800513563198
1744 -712.6855973700294
1745 -712.680166095345
1746 -712.6864424736431
1747 -712.6805281439133
1748 -712.6870382323377
1749 -712.6806871627413
1750 -712.6882907364949
1751 -712.6823292358275
1752 -712.6883989152338
1753 -712.6838109824633
1754 -712.6887987721792
1755 -712.6843434565313
1756 -712.6889872643188
1757 -712.68556508867
1758 -712.6895940730584
1759 -712.6865585603693
1760 -712.6897358258517
1761 -712.6875551347043
1762 -712.6904816613733
1763 -712.6867750848587
1764 -712.6903027262654
1765 -712.6862176547959
1766 -712.6891055377713
1767 -712.685049807438
1768 -712.6887823597161
1769 -712.6850437922117
1770 -712.6876414069217
1771 -712.6832823086772
1772 -712.6870236385773
1773 -712.6828574166281
1774 -712.6873744499185
1775 -712.6833629396441
1776 -712.6896662222036
1777 -712.685025595767
1778 -712.689390299043
1779 -712.6851016600798
1780 -712.6904981433999
1781 -712.6864207487293
1782 -712.690181308838
1783 -712.6869760400583
1784 -712.6917713976989
1785 -712.6884055929145
1786 -712.6925691152748
1787 -712.6890227182824
1788 -712.694250015324
1789 -712.6896860583065
1790 -712.693564173341
1791 -712.6879129745309
1792 -712.6926124653446
1793 -712.6889173542902
1794 -712.6924569105142
1795 -712.6883945057641
1796 -712.6934590453263
1797 -712.6887958788262
1798 -712.6932535292776
1799 -712.6897204522714
1800 -712.6932089419166
1801 -712.6903638434557
1802 -712.6932914514847
1803 -712.6893534851762
1804 -712.6940031297565
1805 -712.6879626710665
1806 -712.6921249610715
1807 -712.6854044200946
1808 -712.6904850586315
1809 -712.6860845875344
1810 -712.6910001048578
1811 -712.6864991271892
1812 -712.6920978491764
1813 -712.687142787426
1814 -712.6919085053092
1815 -712.6871352478389
1816 -712.6934276206111
1817 -712.6873735226128
1818 -712.6924661188384
1819 -712.6856183719896
1820 -712.6928062700167
1821 -712.6873158781572
1822 -712.6914936328682
1823 -712.6885662364238
1824 -712.6934201373469
1825 -712.6904559575904
1826 -712.6933426732587
1827 -712.6902206622667
1828 -712.6939200148701
1829 -712.6910603159454
1830 -712.6947444865367
1831 -712.6907056734989
1832 -712.6956022265928
1833 -712.6906764277533
1834 -712.6951720941948
1835 -712.6905373536072
1836 -712.6942233899078
1837 -712.6905187362302
1838 -712.6931948900902
1839 -712.689854595753
1840 -712.6940446747208
1841 -712.6907400119816
1842 -712.6933358948063
1843 -712.6911679969199
1844 -712.6938301945703
1845 -712.6915486175914
1846 -712.6948271045978
1847 -712.692513283146
1848 -712.6962178683156
1849 -712.6930660647196
1850 -712.6957944350337
1851 -712.6934553781438
1852 -712.6963812339575
1853 -712.6948669541301
1854 -712.6977443710174
1855 -712.6961787026514
1856 -712.7002487623517
1857 -712.697092676581
1858 -712.7007849526667
1859 -712.6975150699619
1860 -712.6996082737876
1861 -712.6978454568533
1862 -712.7000448800445
1863 -712.6980232117528
1864 -712.7016110615895
1865 -712.6994587177444
1866 -712.7019136006548
1867 -712.6983971903546
1868 -712.7027045719585
1869 -712.6978414056234
1870 -712.7020481676096
1871 -712.6970391499609
1872 -712.7020156741174
1873 -712.6967286979267
1874 -712.7021613009942
1875 -712.6960029910122
1876 -712.7012829921249
1877 -712.6938346128098
1878 -712.6992213282526
1879 -712.693135560459
1880 -712.6994249169135
1881 -712.694342353915
1882 -712.698418014116
1883 -712.6924709221285
1884 -712.6963540918857
1885 -712.6905327462853
1886 -712.694728518444
1887 -712.6885930226832
1888 -712.6954388595447
1889 -712.6893711246655
1890 -712.692742767908
1891 -712.6880938078278
1892 -712.6925809363563
1893 -712.6881103076432
1894 -712.6905383387685
1895 -712.6870176726828
1896 -712.6914196745865
1897 -712.6871353713311
1898 -712.6906572718142
1899 -712.6865028984854
1900 -712.6900635705911
1901 -712.6871642479099
1902 -712.6893851903588
1903 -712.687629463667
1904 -712.6915747340084
1905 -712.689809596571
1906 -712.6938274943204
1907 -712.6906124112973
1908 -712.6955399030737
1909 -712.6906713386453
1910 -712.6965705940005
1911 -712.6903789519974
1912 -712.6968534229085
1913 -712.6919326439555
1914 -712.6946458028904
1915 -712.6898989563596
1916 -712.6945019142479
1917 -712.6913752476921
1918 -712.6964409750926
1919 -712.6923617669401
1920 -712.6991938836732
1921 -712.6962888079936
1922 -712.7003699703113
1923 -712.697818899586
1924 -712.7027152020023
1925 -712.7000201656138
1926 -712.703707667718
1927 -712.7011405940148
1928 -712.7072298595868
1929 -712.7040387130118
1930 -712.7079627467643
1931 -712.704829410413
1932 -712.7085151875319
1933 -712.7045715116593
1934 -712.7072444292671
1935 -712.7030165337737
1936 -712.7066837409615
1937 -712.7024760411999
1938 -712.7064077631393
1939 -712.7014593366843
1940 -712.7061118705607
1941 -712.7000843888565
1942 -712.7046120017284
1943 -712.6983318082832
1944 -712.7036953048424
1945 -712.69858560481
1946 -712.7032764822501
1947 -712.6989624310745
1948 -712.7040137280392
1949 -712.7001986684331
1950 -712.7048636150697
1951 -712.7002910466643
1952 -712.7053949584329
1953 -712.7003063080112
1954 -712.7046414669255
1955 -712.6978347847985
1956 -712.7028904313586
1957 -712.6973590140923
1958 -712.7016035046682
1959 -712.6950194005985
1960 -712.7006847131883
1961 -712.6954455722412
1962 -712.6977309859857
1963 -712.6935556019369
1964 -712.6976620795137
1965 -712.693504719674
1966 -712.6969559676032
1967 -712.6926391652502
1968 -712.6986648184899
1969 -712.6934840704489
1970 -712.6989753646136
1971 -712.6935951524038
1972 -712.6996329919774
1973 -712.6958998945317
1974 -712.6997621276055
1975 -712.6966958202315
1976 -712.7016056274916
1977 -712.6988208185583
1978 -712.704277205298
1979 -712.7007540713931
1980 -712.7055431037767
1981 -712.7019924366537
1982 -712.7053234859284
1983 -712.7026602169502
1984 -712.7062227443836
1985 -712.7032668468788
1986 -712.7047764085344
1987 -712.7037043351929
1988 -712.7068191918646
1989 -712.7051440374748
1990 -712.7081137632906
1991 -712.7062044821234
1992 -712.7107563071133
1993 -712.709087456393
1994 -712.7112421808006
1995 -712.7090274442663
1996 -712.7120384355023
1997 -712.7096510228304
1998 -712.7126963965787
1999 -712.7086589157761
2000 -712.7128731802444
2001 -712.7098460123348
2002 -712.7116899755338
2003 -712.7087261614228
2004 -712.7125558228549
2005 -712.7105295316927
2006 -712.7122029584079
2007 -712.7095939645117
2008 -712.7149131068643
2009 -712.7099270348471
2010 -712.7157060757298
2011 -712.7089130293145
2012 -712.7132429284356
2013 -712.7077067232458
2014 -712.7112012899795
2015 -712.7054505474611
2016 -712.709920180112
2017 -712.7049677920086
2018 -712.7085551562122
2019 -712.7028007017274
2020 -712.7074127333946
2021 -712.7021284221375
2022 -712.7063038217744
2023 -712.7006116102997
2024 -712.7054589891972
2025 -712.7001490345432
2026 -712.7046882757221
2027 -712.700188154129
2028 -712.7045727000199
2029 -712.7003351783254
2030 -712.7044708864981
2031 -712.7000409305273
2032 -712.7053366514366
2033 -712.7014045607148
2034 -712.7084622182419
2035 -712.7044934332878
2036 -712.7102742968052
2037 -712.7057083956445
2038 -712.7100696948607
2039 -712.7062372559001
2040 -712.711468873513
2041 -712.7075423168851
2042 -712.7106170539655
2043 -712.7062129923506
2044 -712.7110065749565
2045 -712.7066400699383
2046 -712.7113309362813
2047 -712.7074127349667
2048 -712.713322620506
2049 -712.7074968219722
2050 -712.7136977811136
2051 -712.7081711610601
2052 -712.7128584007921
2053 -712.7080680946814
2054 -712.7113563456184
2055 -712.7071058226871
2056 -712.7110159354979
2057 -712.7073550940053
2058 -712.7109846267157
2059 -712.7077317747348
2060 -712.7120347033893
2061 -712.7080217137776
2062 -712.7120964222004
2063 -712.7075404874555
2064 -712.7110931336039
2065 -712.7078003519041
2066 -712.7109008096928
2067 -712.7082150486013
2068 -712.7123926669856
2069 -712.7092825128764
2070 -712.714257160939
2071 -712.7099141215459
2072 -712.7142075650829
2073 -712.7103762287659
2074 -712.7144277967948
2075 -712.7096735821507
2076 -712.7146624288597
2077 -712.7085197568377
2078 -712.7142890058499
2079 -712.7072453350755
2080 -712.7129294563019
2081 -712.7080719761574
2082 -712.713537044433
2083 -712.7085508483067
2084 -712.7144511591579
2085 -712.7101949903125
2086 -712.7136402570779
2087 -712.7101770715036
2088 -712.7155614967157
2089 -712.710194260508
2090 -712.7147645358309
2091 -712.7102669553645
2092 -712.7137187843317
2093 -712.7105155170095
2094 -712.7130921505185
2095 -712.7101196985866
2096 -712.7123619586609
2097 -712.7100901373866
2098 -712.7107320633357
2099 -712.7075215729317
2100 -712.7101207935829
2101 -712.7070060588724
2102 -712.709098665806
2103 -712.7047244291791
2104 -712.7082030762449
2105 -712.7042585741307
2106 -712.705303587623
2107 -712.7034423129016
2108 -712.7067447912206
2109 -712.7043976119304
2110 -712.7091114918655
2111 -712.7069062114409
2112 -712.7137260723129
2113 -712.7083613403678
2114 -712.7133297116565
2115 -712.7078319183219
2116 -712.7134294512834
2117 -712.70843729878
2118 -712.714101748218
2119 -712.7094266474735
2120 -712.7151838376161
2121 -712.7116731609464
2122 -712.7159626636754
2123 -712.7122707430315
2124 -712.7169966959814
2125 -712.7137183742591
2126 -712.7175949737609
2127 -712.7135034635011
2128 -712.7174365353438
2129 -712.7137436441134
2130 -712.7160574434635
2131 -712.7108107656604
2132 -712.7137884429191
2133 -712.7108476975327
2134 -712.7126667714863
2135 -712.7098092144734
2136 -712.712025137929
2137 -712.7097475165399
2138 -712.7112768834105
2139 -712.7082867498067
2140 -712.7099339386667
2141 -712.7062835809971
2142 -712.7075391758838
2143 -712.7049376006688
2144 -712.7088542154735
2145 -712.7048324689
2146 -712.7111505070122
2147 -712.7065014581004
2148 -712.7120455065268
2149 -712.707848682485
2150 -712.7147723552481
2151 -712.7110178178652
2152 -712.7178578208926
2153 -712.7129464647589
2154 -712.7190923424452
2155 -712.713017690988
2156 -712.7205235298982
2157 -712.7135732587956
2158 -712.7189047415668
2159 -712.7131644720474
2160 -712.7191493967165
2161 -712.7135239940737
2162 -712.7188360857391
2163 -712.7145914142734
2164 -712.7189597133876
2165 -712.714988300228
2166 -712.7175419413142
2167 -712.7136028535807
2168 -712.7163184554138
2169 -712.7123953296955
2170 -712.7165354575145
2171 -712.712153475338
2172 -712.7154892000531
2173 -712.711538358943
2174 -712.7135948200126
2175 -712.7090263889966
2176 -712.7116791756732
2177 -712.708725493321
2178 -712.7125144306279
2179 -712.7084405553281
2180 -712.7127124874193
2181 -712.7079982222383
2182 -712.7116121778062
2183 -712.7066064842666
2184 -712.7099399605457
2185 -712.7071527583552
2186 -712.7105765939873
2187 -712.7071549543783
2188 -712.7102981974471
2189 -712.7078353002436
2190 -712.710871375958
2191 -712.70822143793
2192 -712.7117891696831
2193 -712.7090919836434
2194 -712.7130891876787
2195 -712.7093285887269
2196 -712.7137716567255
2197 -712.7109671431665
2198 -712.7146023815823
2199 -712.7111428279635
2200 -712.7144918577516
2201 -712.7118761833721
2202 -712.7164667559563
2203 -712.7123533725282
2204 -712.7170881394602
2205 -712.7134825040457
2206 -712.7177647074411
2207 -712.7146378720623
2208 -712.7183548038873
2209 -712.7145025125336
2210 -712.7189667131235
2211 -712.7151609432417
2212 -712.7198872013176
2213 -712.7152147826615
2214 -712.719778667168
2215 -712.7154405955025
2216 -712.7194056452082
2217 -712.7149643123147
2218 -712.7188607783478
2219 -712.7156930073592
2220 -712.7190633584731
2221 -712.716009522958
2222 -712.7210077415
2223 -712.7165372187743
2224 -712.7225248242095
2225 -712.7180067596452
2226 -712.7229667328011
2227 -712.7185274507179
2228 -712.7243447365745
2229 -712.7204330895981
2230 -712.724133800382
2231 -712.7211190255805
2232 -712.7244607542784
2233 -712.7203246959964
2234 -712.723580953735
2235 -712.7183660669504
2236 -712.7219149101002
2237 -712.7169378023478
2238 -712.7194448836324
2239 -712.7151245126748
2240 -712.7184177692376
2241 -712.7133227053694
2242 -712.7156455630094
2243 -712.7112375371296
2244 -712.7140065752054
2245 -712.7099943662981
2246 -712.7132498474673
2247 -712.7079507892552
2248 -712.7111037507931
2249 -712.707593020725
2250 -712.7101920606245
2251 -712.7063754799723
2252 -712.7112750727681
2253 -712.7074764604674
2254 -712.7114824926822
2255 -712.7076733718401
2256 -712.7116572478757
2257 -712.7094318413544
2258 -712.712420755785
2259 -712.709240774936
2260 -712.7116690610778
2261 -712.7083491184611
2262 -712.7112487325438
2263 -712.7084555202392
2264 -712.7111732696005
2265 -712.7100861241364
2266 -712.7138145968702
2267 -712.7104554579497
2268 -712.7136875118807
2269 -712.7096155855832
2270 -712.7130634919455
2271 -712.7094549446851
2272 -712.7131330376371
2273 -712.7109902260057
2274 -712.7155257050626
2275 -712.7126838557306
2276 -712.7171139904086
2277 -712.7128186462393
2278 -712.7167625241606
2279 -712.7122811025422
2280 -712.7182190411587
2281 -712.7135493566203
2282 -712.7185941747042
2283 -712.7138704652306
2284 -712.720117832479
2285 -712.7150545791852
2286 -712.719956148745
2287 -712.7154966551126
2288 -712.7205524434775
2289 -712.7163149773203
2290 -712.721025371863
2291 -712.7177219797934
2292 -712.7240602331021
2293 -712.7198181588496
2294 -712.7251451120263
2295 -712.719299066703
2296 -712.7249199011072
2297 -712.7206406970947
2298 -712.7248402838082
2299 -712.7218925007057
2300 -712.7254926366713
2301 -712.7221721450136
2302 -712.7262179320128
2303 -712.7212266516557
2304 -712.7252483355161
2305 -712.7214672932528
2306 -712.7246404060102
2307 -712.7211367568017
2308 -712.7258440320783
2309 -712.7210307225179
2310 -712.7241453488277
2311 -712.7185194370064
2312 -712.7218814977416
2313 -712.7162418460796
2314 -712.7211652712967
2315 -712.7157872281023
2316 -712.7214438793571
2317 -712.7154711589432
2318 -712.7211678037326
2319 -712.7150131564611
2320 -712.7191955756961
2321 -712.7133338046757
2322 -712.7163383231456
2323 -712.7113880356395
2324 -712.7166744660962
2325 -712.7104409237533
2326 -712.7158244392898
2327 -712.7116565383235
2328 -712.7165163463008
2329 -712.7128040082911
2330 -712.7162163995881
2331 -712.7127618795306
2332 -712.7172068346041
2333 -712.7133945344256
2334 -712.7172790872635
2335 -712.713417100219
2336 -712.7172263716212
2337 -712.7134972215998
2338 -712.7167911278513
2339 -712.7135284960151
2340 -712.7183417590604
2341 -712.715061591938
2342 -712.7189529583811
2343 -712.7155048812594
2344 -712.7202777959552
2345 -712.7163939981994
2346 -712.7206700132016
2347 -712.7160286567287
2348 -712.7208856373121
2349 -712.7167099883687
2350 -712.719670006533
2351 -712.7149539383029
2352 -712.7188840697033
2353 -712.7151610922632
2354 -712.7190125622412
2355 -712.7162153496865
2356 -712.7195385800927
2357 -712.7162112288958
2358 -712.7204991707363
2359 -712.7152289188185
2360 -712.7204994832558
2361 -712.7154133213497
2362 -712.7203088050701
2363 -712.7159099221816
2364 -712.7222014312912
2365 -712.7175550155621
2366 -712.7218969054967
2367 -712.7179663273166
2368 -712.722193050589
2369 -712.7185335076018
2370 -712.7218597720008
2371 -712.7171721981088
2372 -712.7207466921935
2373 -712.7157485132633
2374 -712.7200716175228
2375 -712.7158785648943
2376 -712.7190527756866
2377 -712.7142338926716
2378 -712.7157303639295
2379 -712.7116443589467
2380 -712.7140382766377
2381 -712.7102924300498
2382 -712.712367901644
2383 -712.7082833343154
2384 -712.7122205053819
2385 -712.7073671285991
2386 -712.7121629623833
2387 -712.7073227657869
2388 -712.7116085498014
2389 -712.7080629550793
2390 -712.7122776691375
2391 -712.7080977987688
2392 -712.7128817987659
2393 -712.709750089777
2394 -712.7142838865842
2395 -712.7117170119491
2396 -712.7163871396277
2397 -712.713041385617
2398 -712.7168738495449
2399 -712.7134284816769
2400 -712.7173156113464
2401 -712.7145671429322
2402 -712.7175562781193
2403 -712.7155375670139
2404 -712.7194002611766
2405 -712.7152827235029
2406 -712.7192523313854
2407 -712.7159590071234
2408 -712.7196068452066
2409 -712.7165390598301
2410 -712.7194483672588
2411 -712.7158808378831
2412 -712.7188652126191
2413 -712.7155232032036
2414 -712.7190140280602
2415 -712.7130799207258
2416 -712.7182167483971
2417 -712.7133606576748
2418 -712.7170329965871
2419 -712.7126753102918
2420 -712.7172750896916
2421 -712.7131312058324
2422 -712.7166660872186
2423 -712.7123958682048
2424 -712.7177143874342
2425 -712.7121978206275
2426 -712.7177572820873
2427 -712.7128375604658
2428 -712.7177509303642
2429 -712.7130980810581
2430 -712.7178366672385
2431 -712.7125881681144
2432 -712.7168902420956
2433 -712.7120099341719
2434 -712.7160295660032
2435 -712.7119811316826
2436 -712.716823138951
2437 -712.7127565960006
2438 -712.7180113676842
2439 -712.71386595745
2440 -712.7208383232977
2441 -712.7152444236871
2442 -712.7203566457156
2443 -712.7164240828379
2444 -712.7231906103484
2445 -712.7194340697412
2446 -712.7253738584525
2447 -712.720436191689
2448 -712.7278381798736
2449 -712.7224029710529
2450 -712.7272296125365
2451 -712.7220968360099
2452 -712.7279929323994
2453 -712.722936491287
2454 -712.7270352299536
2455 -712.7212581392668
2456 -712.7256215005419
2457 -712.7191503010372
2458 -712.7216046998394
2459 -712.7164523143571
2460 -712.72073238494
2461 -712.7166523694361
2462 -712.7189623050821
2463 -712.7155294521698
2464 -712.7182791150133
2465 -712.7151510453128
2466 -712.7170256825004
2467 -712.7140085086182
2468 -712.7173125342144
2469 -712.7144623918899
2470 -712.7166454541419
2471 -712.714548230854
2472 -712.7155679196409
2473 -712.7132542387858
2474 -712.7133272941994
2475 -712.7123902968771
2476 -712.714842299805
2477 -712.7140691319859
2478 -712.7147449086212
2479 -712.7134050551665
2480 -712.7174060567341
2481 -712.71456642584
2482 -712.7195113262925
2483 -712.715447915785
2484 -712.7207498726613
2485 -712.7153373497786
2486 -712.722101696658
2487 -712.7148924750993
2488 -712.7222229310836
2489 -712.7149057714762
2490 -712.7211881649997
2491 -712.7132577500831
2492 -712.7194408740102
2493 -712.7121736759811
2494 -712.7177852520086
2495 -712.7113724094717
2496 -712.718210648757
2497 -712.7108216167996
2498 -712.7160871395871
2499 -712.7110828322575
2500 -712.7156475886712
2501 -712.7105335694553
2502 -712.714555221988
2503 -712.7112682357495
2504 -712.7134819141858
2505 -712.7109537965146
2506 -712.7148836694857
2507 -712.7111593025957
2508 -712.7159606998265
2509 -712.7123106244409
2510 -712.7160096388646
2511 -712.7146769720622
2512 -712.7160150024337
2513 -712.7143171079285
2514 -712.7152304769165
2515 -712.7134676013353
2516 -712.7150327500998
2517 -712.7126622703057
2518 -712.7153122250179
2519 -712.7105847284648
2520 -712.7162103449502
2521 -712.7115387158198
2522 -712.715828122947
2523 -712.7129937704287
2524 -712.7180662562336
2525 -712.7151763401525
2526 -712.7210150021323
2527 -712.7161892449255
2528 -712.7236134175849
2529 -712.7196723281953
2530 -712.7246863506631
2531 -712.7204566280997
2532 -712.7264158637535
2533 -712.7215831527908
2534 -712.7262190653928
2535 -712.7205889795905
2536 -712.7255450187176
2537 -712.7205933216076
2538 -712.7242195852428
2539 -712.7196772238441
2540 -712.7231877686066
2541 -712.7194973016364
2542 -712.7225459252568
2543 -712.7186834201773
2544 -712.7214848011579
2545 -712.7158575340325
2546 -712.7178817434659
2547 -712.7138721788453
2548 -712.7169311785393
2549 -712.7127011180513
2550 -712.7170696970677
2551 -712.7129363443481
2552 -712.7167884083048
2553 -712.7135765981907
2554 -712.7169695100504
2555 -712.713571406105
2556 -712.717878905161
2557 -712.7139553554614
2558 -712.7177626933732
2559 -712.7123924294791
2560 -712.7173211595936
2561 -712.7116711256569
2562 -712.7170019877333
2563 -712.7122844383248
2564 -712.7178711756828
2565 -712.7132977774293
2566 -712.7184180373013
2567 -712.7143776172758
2568 -712.7196714259386
2569 -712.7153213293552
2570 -712.7194714782732
2571 -712.7141538021853
2572 -712.7190858532848
2573 -712.7159208192411
2574 -712.7204776882858
2575 -712.7163172639152
2576 -712.7211151510234
2577 -712.7153416745891
2578 -712.7194613177143
2579 -712.7142824852959
2580 -712.7189683937042
2581 -712.7154627153666
2582 -712.719051590024
2583 -712.7156113325804
2584 -712.7194538956185
2585 -712.7159613840225
2586 -712.7195821683189
2587 -712.7152167641308
2588 -712.7211271006419
2589 -712.715978209177
2590 -712.7210427763741
2591 -712.7154693334877
2592 -712.7201446891762
2593 -712.7169849296578
2594 -712.7198514020362
2595 -712.7161426108006
2596 -712.7195191612399
2597 -712.715666815239
2598 -712.718765055822
2599 -712.7154482873589
2600 -712.7185358725307
2601 -712.7145303867982
2602 -712.7164257188812
2603 -712.7130334950745
2604 -712.716318569123
2605 -712.7122891313369
2606 -712.7159443735351
2607 -712.7123518862438
2608 -712.7169836350437
2609 -712.7127156036203
2610 -712.7163812936143
2611 -712.712705366037
2612 -712.7158513026658
2613 -712.712375214238
2614 -712.7144970756792
2615 -712.7117062324238
2616 -712.714748906572
2617 -712.7108710358182
2618 -712.7145081846969
2619 -712.7090086221838
2620 -712.7139180725684
2621 -712.7089775725349
2622 -712.7130703140166
2623 -712.7091688485051
2624 -712.7140429610492
2625 -712.7105020142905
2626 -712.7149312052513
2627 -712.7111470461051
2628 -712.7164953977311
2629 -712.7125152495776
2630 -712.7178414506135
2631 -712.7143389794562
2632 -712.7186240964587
2633 -712.7147879610462
2634 -712.7187186198454
2635 -712.7149690054698
2636 -712.7193920767745
2637 -712.7155851252601
2638 -712.7192485580799
2639 -712.7152541503584
2640 -712.7192714262359
2641 -712.7139554638419
2642 -712.7174506875267
2643 -712.7129340319007
2644 -712.7170923939772
2645 -712.7122376448078
2646 -712.7170636234378
2647 -712.712919081489
2648 -712.7188553163196
2649 -712.7126116883131
2650 -712.7185549590941
2651 -712.7138548995122
2652 -712.7176208083229
2653 -712.7137623902685
2654 -712.7174579307851
2655 -712.7136522149544
2656 -712.717604503458
2657 -712.7121748944996
2658 -712.7150855531162
2659 -712.7090940806679
2660 -712.713862855307
2661 -712.7090142753034
2662 -712.7132074329517
2663 -712.7102990267498
2664 -712.7148264631257
2665 -712.7119838042258
2666 -712.7150854647203
2667 -712.7130169361964
2668 -712.7161777421659
2669 -712.7150500190904
2670 -712.7174114508333
2671 -712.7161926916032
2672 -712.7194431314182
2673 -712.717233981375
2674 -712.7196881205685
2675 -712.7166120287019
2676 -712.7187080744833
2677 -712.716442498572
2678 -712.7186913267395
2679 -712.7169914832454
2680 -712.7193061367918
2681 -712.7171120526255
2682 -712.7194529174026
2683 -712.7158074775922
2684 -712.7200216461234
2685 -712.7156368968289
2686 -712.7200965872853
2687 -712.7145920918283
2688 -712.7198972008812
2689 -712.714519170106
2690 -712.7198857183477
2691 -712.7137632150666
2692 -712.7197686908193
2693 -712.7136132314773
2694 -712.7195425509241
2695 -712.7133823545734
2696 -712.7194478901074
2697 -712.7139894378299
2698 -712.7203151652869
2699 -712.7144095564153
2700 -712.7212984475793
2701 -712.7141779655003
2702 -712.7209716345956
2703 -712.7147584801968
2704 -712.7213656064381
2705 -712.7157425568802
2706 -712.7224021097234
2707 -712.7167472333939
2708 -712.7222115840186
2709 -712.7177630214672
2710 -712.7230477907455
2711 -712.7190660926697
2712 -712.7239498002569
2713 -712.7204586045707
2714 -712.7231946420966
2715 -712.7196399303265
2716 -712.7227252278549
2717 -712.7189518248234
2718 -712.7225404385196
2719 -712.7195997412604
2720 -712.7227516764042
2721 -712.7189930127644
2722 -712.7223278928051
2723 -712.7175326866717
2724 -712.7212898538254
2725 -712.7150430104922
2726 -712.7188177965122
2727 -712.712517926313
2728 -712.7181121606193
2729 -712.7132947160774
2730 -712.7165356892191
2731 -712.7122137465324
2732 -712.7156028710211
2733 -712.7112237826929
2734 -712.7130709803687
2735 -712.7112108009401
2736 -712.7139914843664
2737 -712.7112131362534
2738 -712.7129095071559
2739 -712.7114628964189
2740 -712.7155429951248
2741 -712.7115299916702
2742 -712.7151550510583
2743 -712.7118536291132
2744 -712.7152445658973
2745 -712.7131776140246
2746 -712.7165318327633
2747 -712.7156908574091
2748 -712.7190019451331
2749 -712.7178948785363
2750 -712.721734227671
2751 -712.7188510270289
2752 -712.723920835728
2753 -712.7194983207022
2754 -712.7241803280604
2755 -712.7198282735621
2756 -712.7235577360784
2757 -712.719522735552
2758 -712.7233129604058
2759 -712.7197770416908
2760 -712.7238846918387
2761 -712.7199104257048
2762 -712.722308267733
2763 -712.7184625080752
2764 -712.7224911308413
2765 -712.7176583679847
2766 -712.7216854326873
2767 -712.7172512373583
2768 -712.7215847233953
2769 -712.7171080711412
2770 -712.7208383882831
2771 -712.717777754194
2772 -712.7209923645293
2773 -712.7172724260078
2774 -712.7213944297147
2775 -712.7178245924298
2776 -712.7231046391568
2777 -712.7197458552459
2778 -712.7248535840142
2779 -712.7203993059782
2780 -712.7271617391414
2781 -712.7209090918925
2782 -712.725951068747
2783 -712.7192727607857
2784 -712.7246219229423
2785 -712.71956210684
2786 -712.7218007125413
2787 -712.7167844345639
2788 -712.7201533946534
2789 -712.7151678467843
2790 -712.7193190850512
2791 -712.7139968802333
2792 -712.7173758147028
2793 -712.712951792098
2794 -712.7175631638117
2795 -712.7115055382934
2796 -712.7160762879422
2797 -712.7119064294777
2798 -712.7164115174762
2799 -712.7131235693111
2800 -712.7168390403218
2801 -712.7136020084541
2802 -712.7161692529074
2803 -712.7134092999491
2804 -712.7172528015336
2805 -712.7139131023677
2806 -712.7175301049301
2807 -712.7143751962517
2808 -712.7183059102664
2809 -712.7155494552785
2810 -712.7177203901238
2811 -712.715619981961
2812 -712.7179034839543
2813 -712.7164642690816
2814 -712.7176208269
2815 -712.7168586762411
2816 -712.7201837153751
2817 -712.7188813203992
2818 -712.7209769836142
2819 -712.7176712012383
2820 -712.7211264839334
2821 -712.7174302926798
2822 -712.7214921504722
2823 -712.7173119880321
2824 -712.7240315395617
2825 -712.7180566992346
2826 -712.7244831138819
2827 -712.7190908393004
2828 -712.7246652058703
2829 -712.7179294744999
2830 -712.723368135269
2831 -712.7162235053518
2832 -712.723015955013
2833 -712.7169630293262
2834 -712.7211010739951
2835 -712.7163634079
2836 -712.7197281819199
2837 -712.7153257312606
2838 -712.7187984220433
2839 -712.7153690394852
2840 -712.7185015835267
2841 -712.7133454282825
2842 -712.7169095611416
2843 -712.7119707653146
2844 -712.7157671421149
2845 -712.7107977440061
2846 -712.7146418926794
2847 -712.7099957558376
2848 -712.7139079437646
2849 -712.710649759549
2850 -712.7144789441056
2851 -712.711328055452
2852 -712.7158444611354
2853 -712.7118539385364
2854 -712.7160647178772
2855 -712.7128415107792
2856 -712.7175480017446
2857 -712.7139096925926
2858 -712.7169056346489
2859 -712.711922935095
2860 -712.7180554219804
2861 -712.7120840252481
2862 -712.7173396862578
2863 -712.7128128722512
2864 -712.7181346300522
2865 -712.7136596745805
2866 -712.717418947405
2867 -712.7122071336515
2868 -712.7168537090478
2869 -712.7125005104801
2870 -712.7151535782577
2871 -712.7122710792178
2872 -712.7160318362297
2873 -712.7125399638643
2874 -712.7152879890084
2875 -712.7116262811297
2876 -712.7147361432401
2877 -712.7133938670082
2878 -712.7140680541622
2879 -712.7125131570454
2880 -712.7150005432143
2881 -712.7137847968614
2882 -712.7144731351793
2883 -712.7144305240181
2884 -712.7162956302792
2885 -712.715298431731
2886 -712.716974828877
2887 -712.7144443322184
2888 -712.7173394740512
2889 -712.7153984486174
2890 -712.7173045374623
2891 -712.7151744123182
2892 -712.7192245007932
2893 -712.716870550954
2894 -712.7197618939379
2895 -712.7171257464007
2896 -712.7213936704203
2897 -712.7176906912691
2898 -712.7226627808459
2899 -712.7174312353546
2900 -712.7223227707921
2901 -712.716689198577
2902 -712.721923524328
2903 -712.7156978014953
2904 -712.7230441793964
2905 -712.7155191807891
2906 -712.7212087154714
2907 -712.714854690832
2908 -712.7208983614754
2909 -712.7147601460774
2910 -712.7190216474544
2911 -712.7138612257204
2912 -712.719796628068
2913 -712.7141151148273
2914 -712.719225385806
2915 -712.7143196672395
2916 -712.7185636316995
2917 -712.7148966541805
2918 -712.7185349343915
2919 -712.7152794075117
2920 -712.7185619838608
2921 -712.7164693483696
2922 -712.7186024753927
2923 -712.7152211676593
2924 -712.7183166216558
2925 -712.7150756522876
2926 -712.7191284611361
2927 -712.7151650548926
2928 -712.7190002946096
2929 -712.7158230760588
2930 -712.719355829826
2931 -712.716088725954
2932 -712.7218808542142
2933 -712.7174489718551
2934 -712.7212110502467
2935 -712.7175761202793
2936 -712.7203069145252
2937 -712.7181874457635
2938 -712.720949037267
2939 -712.7167311962861
2940 -712.7209953838108
2941 -712.7168775597879
2942 -712.7223130617551
2943 -712.7165168460764
2944 -712.7210894463846
2945 -712.7153807983251
2946 -712.7192468699855
2947 -712.7147565223233
2948 -712.7181851788713
2949 -712.7135555353626
2950 -712.7156871935248
2951 -712.7116400284646
2952 -712.7153441943622
2953 -712.7115864433666
2954 -712.7161470611361
2955 -712.7126803054525
2956 -712.7166009544935
2957 -712.7141523422495
2958 -712.7168376940994
2959 -712.7129763026018
2960 -712.7164010011148
2961 -712.7124163250628
2962 -712.7166305840567
2963 -712.7117097306659
2964 -712.7171210062198
2965 -712.7116318403364
2966 -712.717332059784
2967 -712.7115323979779
2968 -712.7177713695925
2969 -712.7126154429734
2970 -712.7176928844344
2971 -712.7133038291026
2972 -712.718547416616
2973 -712.7142980268478
2974 -712.7188999336018
2975 -712.7133378010981
2976 -712.7188253442091
2977 -712.7143334437029
2978 -712.7174107636497
2979 -712.7132137200688
2980 -712.7172645240032
2981 -712.7126747617019
2982 -712.7158555580962
2983 -712.7116141462056
2984 -712.7153943999002
2985 -712.7106399815017
2986 -712.7138266579818
2987 -712.7105294009766
2988 -712.7151103404734
2989 -712.7117874718401
2990 -712.7165005929386
2991 -712.7123223835266
2992 -712.71841072438
2993 -712.7141950402615
2994 -712.7200832179803
2995 -712.7154253578394
2996 -712.7207133852536
2997 -712.716110737373
2998 -712.7206027582532
2999 -712.716639758077
3000 -712.7209727501844
3001 -712.716175702369
3002 -712.7213914898502
3003 -712.7179874713466
3004 -712.7224863855173
3005 -712.7200629196675
3006 -712.7228983217728
3007 -712.7203292762379
3008 -712.7232389516359
3009 -712.71979704352
3010 -712.722135877195
3011 -712.7185518532028
3012 -712.7209645799943
3013 -712.7176299176153
3014 -712.7186390656882
3015 -712.7153068327435
3016 -712.7171028493372
3017 -712.7134019262179
3018 -712.7160273433253
3019 -712.7136538574073
3020 -712.715959424958
3021 -712.7142298704166
3022 -712.715733925262
3023 -712.7132981683598
3024 -712.716490144657
3025 -712.7118058820703
3026 -712.7142625405912
3027 -712.7095686654277
3028 -712.713016344509
3029 -712.7090563185454
3030 -712.7126001049282
3031 -712.7089662012787
3032 -712.7130460919655
3033 -712.709447059555
3034 -712.7144382791819
3035 -712.7091774712436
3036 -712.71425488823
3037 -712.7102260144849
3038 -712.7156004705602
3039 -712.7132421467646
3040 -712.7186724117244
3041 -712.7158291239099
3042 -712.7212478477353
3043 -712.718056252048
3044 -712.722057445577
3045 -712.7177632117205
3046 -712.7225713306595
3047 -712.7186164901913
3048 -712.7233749808942
3049 -712.7188901633957
3050 -712.7228982205299
3051 -712.7191829244468
3052 -712.722558563329
3053 -712.7184895830076
3054 -712.723070994375
3055 -712.7180289223761
3056 -712.7229109870578
3057 -712.7189394164009
3058 -712.7227974330323
3059 -712.7195235086862
3060 -712.7229915048958
3061 -712.717570961855
3062 -712.7213090543967
3063 -712.7149901903862
3064 -712.7228873207387
3065 -712.7150925684815
3066 -712.7215268728817
3067 -712.7146161892998
3068 -712.7212964380303
3069 -712.7149163753473
3070 -712.7203525744566
3071 -712.7157102245595
3072 -712.7205029483254
3073 -712.7155652758885
3074 -712.7196560915443
3075 -712.7153837444974
3076 -712.7196516475211
3077 -712.7146325914266
3078 -712.7187378055119
3079 -712.7148668075832
3080 -712.7195135021802
3081 -712.7170660369949
3082 -712.7199052714915
3083 -712.7176886469135
3084 -712.7189729596311
3085 -712.7159673264304
3086 -712.7183297285864
3087 -712.7156175000557
3088 -712.7171913634324
3089 -712.713405600627
3090 -712.7149256060006
3091 -712.7095032456839
3092 -712.7125279736175
3093 -712.707833667587
3094 -712.7093948692188
3095 -712.7051998164131
3096 -712.7080077547904
3097 -712.7044282859089
3098 -712.7076589867936
3099 -712.7040996289683
3100 -712.7098155177169
3101 -712.7052002274189
3102 -712.7111059107926
3103 -712.7060919570489
3104 -712.7130855681403
3105 -712.7069134224488
3106 -712.7140510752489
3107 -712.7087132005574
3108 -712.714026244818
3109 -712.7090967324515
3110 -712.714817993526
3111 -712.7094485906586
3112 -712.7150384838811
3113 -712.7105613054267
3114 -712.716013936415
3115 -712.7115979698406
3116 -712.7177874914591
3117 -712.7129789059627
3118 -712.7186248473861
3119 -712.7144892688298
3120 -712.7203480750493
3121 -712.717006590942
3122 -712.7209880364275
3123 -712.7171511829019
3124 -712.7214472755052
3125 -712.7170873397863
3126 -712.7199313670875
3127 -712.716984039631
3128 -712.7201950792803
3129 -712.7184493597704
3130 -712.7217824727454
3131 -712.7186487996905
3132 -712.7225987616811
3133 -712.7187881036548
3134 -712.7224393690771
3135 -712.7179643713173
3136 -712.7214428981523
3137 -712.7174919657418
3138 -712.7196870090252
3139 -712.7159383941455
3140 -712.7187307574624
3141 -712.7168021423379
3142 -712.7191965754459
3143 -712.7168309300851
3144 -712.721130886747
3145 -712.7176576530766
3146 -712.7206162342467
3147 -712.7167714278662
3148 -712.7205647637384
3149 -712.7176288782737
3150 -712.7197592556095
3151 -712.7161590768892
3152 -712.7191700502624
3153 -712.7158182361636
3154 -712.7192885435574
3155 -712.7153145580332
3156 -712.7190386673724
3157 -712.7150527185526
3158 -712.7182103844515
3159 -712.7147501834704
3160 -712.7182416176178
3161 -712.7152391313657
3162 -712.7179661615609
3163 -712.713504125136
3164 -712.7164515784256
3165 -712.7119742413856
3166 -712.7161747403543
3167 -712.710366610344
3168 -712.7151411054745
3169 -712.709786925113
3170 -712.7137039905059
3171 -712.7093512559935
3172 -712.7139581755091
3173 -712.7115329026743
3174 -712.7149144548072
3175 -712.7128209594588
3176 -712.7159270124046
3177 -712.7129089313804
3178 -712.717377150761
3179 -712.7149333841872
3180 -712.7193320601581
3181 -712.7176732489693
3182 -712.7203152690072
3183 -712.7191170798611
3184 -712.722801567126
3185 -712.7206853321564
3186 -712.724390906133
3187 -712.7207759615836
3188 -712.725025574159
3189 -712.7203068540435
3190 -712.7242794432894
3191 -712.7198877090764
3192 -712.7233201919543
3193 -712.7189760258167
3194 -712.7219779058092
3195 -712.7166564115989
3196 -712.7195971056766
3197 -712.7144273671958
3198 -712.7182248956706
3199 -712.7125336554624
3200 -712.7182798668383
3201 -712.7112748671993
3202 -712.7167086785705
3203 -712.7102191706977
3204 -712.7168730762056
3205 -712.7114144172385
3206 -712.7168615211176
3207 -712.7125026176644
3208 -712.7167090286381
3209 -712.712001583317
3210 -712.7163221512967
3211 -712.7119845457729
3212 -712.7175768722707
3213 -712.7127769235772
3214 -712.7179156577441
3215 -712.7131359254586
3216 -712.7183220027385
3217 -712.7138220332607
3218 -712.7174142685155
3219 -712.7146152470202
3220 -712.7190143242036
3221 -712.7167650591447
3222 -712.7193234560298
3223 -712.7171162089073
3224 -712.7210611022851
3225 -712.7166281111521
3226 -712.7204988563716
3227 -712.7165660842019
3228 -712.7209132978104
3229 -712.7167658199826
3230 -712.7189438558466
3231 -712.7150948491553
3232 -712.7192577946284
3233 -712.7147981729528
3234 -712.7192719255427
3235 -712.7138352895352
3236 -712.7204352225518
3237 -712.7144302063141
3238 -712.7200817535202
3239 -712.7146498917199
3240 -712.7208697482919
3241 -712.7153170712351
3242 -712.7190740805277
3243 -712.7149073360832
3244 -712.7191714276078
3245 -712.7146311942184
3246 -712.7179452746823
3247 -712.7147183833555
3248 -712.7188095762348
3249 -712.7160085635735
3250 -712.7180920358718
3251 -712.7151107723035
3252 -712.7191190888107
3253 -712.7158363666883
3254 -712.7191494017349
3255 -712.7154740920939
3256 -712.7188003053484
3257 -712.7157722784442
3258 -712.7178339872452
3259 -712.7153552197145
3260 -712.7196386465897
3261 -712.7170345229609
3262 -712.7199397896781
3263 -712.71775989036
3264 -712.721046197261
3265 -712.7183170828494
3266 -712.7213498113524
3267 -712.7178542367393
3268 -712.7234611833832
3269 -712.7180536469911
3270 -712.7237402080749
3271 -712.7180046395239
3272 -712.7222126585431
3273 -712.7180678709876
3274 -712.7220824127485
3275 -712.7160404180855
3276 -712.7213639816645
3277 -712.7159594633216
3278 -712.7209851679786
3279 -712.7153001423879
3280 -712.7207694309551
3281 -712.7153823110285
3282 -712.7196844884172
3283 -712.7155319616215
3284 -712.720327038975
3285 -712.7179431508549
3286 -712.7207275096462
3287 -712.7193300130895
3288 -712.723566862889
3289 -712.7224923460652
3290 -712.7250266321977
3291 -712.7228288428985
3292 -712.7266300108669
3293 -712.7226732571349
3294 -712.7239916847425
3295 -712.7204478528575
3296 -712.7222146534224
3297 -712.7197271477904
3298 -712.7210526728251
3299 -712.7182968896842
3300 -712.7217744856358
3301 -712.7189094743692
3302 -712.7210219466931
3303 -712.7176833828577
3304 -712.7213214181143
3305 -712.7167763208813
3306 -712.7183372981918
3307 -712.7125571300381
3308 -712.7165697300272
3309 -712.7099624833811
3310 -712.71326462881
3311 -712.7069627998426
3312 -712.7123320496413
3313 -712.7076177466955
3314 -712.7121293699284
3315 -712.7069458272675
3316 -712.7121195493609
3317 -712.7069756527849
3318 -712.7114048532674
3319 -712.7062018524794
3320 -712.7113176877045
3321 -712.7066465022452
3322 -712.7128853619831
3323 -712.7061663806146
3324 -712.7118524602832
3325 -712.7061096125078
3326 -712.7119018806108
3327 -712.7078225547727
3328 -712.7116682601293
3329 -712.7081141642515
3330 -712.712814170964
3331 -712.709581057345
3332 -712.7138196988524
3333 -712.7104329826518
3334 -712.7131911043762
3335 -712.709761128422
3336 -712.71519474487
3337 -712.7116917814292
3338 -712.7157862563192
3339 -712.7137845534776
3340 -712.7187371441215
3341 -712.715510021957
3342 -712.7182762145359
3343 -712.71498534284
3344 -712.7187588450346
3345 -712.7145432586337
3346 -712.7188468983294
3347 -712.7146625514256
3348 -712.7192753939393
3349 -712.7143128536617
3350 -712.7192986240841
3351 -712.7144817781764
3352 -712.7186710298847
