"mx-rfile"
"Iteration" "mx"
("Iteration" "mx")
1 -7803.319034286971
2 -7466.981007100761
3 -6126.092274426463
4 -5386.178161802733
5 -4320.694171117676
6 -3563.354312906452
7 -2849.527929065136
8 -2257.539829712715
9 -1691.698729389451
10 -1207.040091228854
11 -755.7972974972243
12 -422.2101793136439
13 -199.2125449549669
14 -84.31355954507177
15 -66.31561162950159
16 -115.2770467891864
17 -221.5713020876225
18 -343.5180513340146
19 -483.2951312064814
20 -627.6623903692878
21 -768.2167524536823
22 -894.0731801433529
23 -990.7399583888653
24 -1084.685957074782
25 -1151.602373184377
26 -1217.564148638638
27 -1258.954389842792
28 -1290.702241856902
29 -1309.190042261273
30 -1318.437840780532
31 -1320.896820085476
32 -1319.241887185455
33 -1315.811071017991
34 -1311.56090527527
35 -1308.438626266516
36 -1305.430063093579
37 -1303.785294304367
38 -1303.182379670045
39 -1303.666207336419
40 -1305.139019443573
41 -1307.167480660094
42 -1310.148935228827
43 -1314.303506409053
44 -1319.169322568948
45 -1324.006221006406
46 -1329.330161970552
47 -1334.361625189196
48 -1339.039689369102
49 -1343.496940387805
50 -1347.647577626712
51 -1351.19484912501
52 -1355.010729447302
53 -1357.820691955383
54 -1361.0526536842
55 -1363.414326915822
56 -1366.181731606423
57 -1368.151341139094
58 -1370.274126965992
59 -1372.470584399797
60 -1374.175683697922
61 -1376.546329708132
62 -1378.571335167609
63 -1380.423697397884
64 -1382.297250884565
65 -1383.659041071601
66 -1384.668788934256
67 -1385.410960281109
68 -1385.677605389238
69 -1385.777666301426
70 -1385.639064683814
71 -1385.512998006684
72 -1385.272409539627
73 -1385.057535359421
74 -1384.815253124079
75 -1384.637352843714
76 -1384.458322515006
77 -1384.413134067905
78 -1384.29136700737
79 -1384.320525157591
80 -1384.251464538169
81 -1384.271035290046
82 -1384.153214892338
83 -1384.044598671385
84 -1383.797047836777
85 -1383.533615129136
86 -1383.12879170715
87 -1382.706194582975
88 -1382.155707519358
89 -1381.580594365892
90 -1380.900125375149
91 -1379.920568837337
92 -1379.060652734843
93 -1377.938214710346
94 -1377.012419434446
95 -1376.151146536688
96 -1375.204913318856
97 -1374.288617364561
98 -1373.281950835698
99 -1372.289567536747
100 -1371.197992212024
101 -1370.166451446303
102 -1369.06162633636
103 -1367.98710951417
104 -1367.237086720013
105 -1366.127426234017
106 -1365.321246559482
107 -1364.526648548019
108 -1363.653875986834
109 -1362.808164563378
110 -1361.426563519879
111 -1360.499712356938
112 -1359.510346500611
113 -1358.039073646282
114 -1357.022499325028
115 -1356.015760361538
116 -1354.437367625123
117 -1353.404401501244
118 -1351.808112293977
119 -1350.783270674618
120 -1349.180402857363
121 -1348.161176023996
122 -1347.092179495566
123 -1345.553031080373
124 -1344.511456063221
125 -1343.538352735631
126 -1342.517240282473
127 -1341.55775843585
128 -1340.536895218877
129 -1339.566304729734
130 -1338.580588938046
131 -1337.658295439335
132 -1336.710026031045
133 -1335.818894822625
134 -1334.919283952044
135 -1334.072964643485
136 -1333.226783088461
137 -1332.453315085461
138 -1331.692180989199
139 -1330.980184700129
140 -1330.278976837226
141 -1329.643416544548
142 -1329.013889354164
143 -1328.442092461319
144 -1327.619055469443
145 -1327.131990171282
146 -1326.675696735362
147 -1326.273690302591
148 -1325.717331099896
149 -1325.395331614272
150 -1325.098017013962
151 -1324.861592084856
152 -1324.540232065966
153 -1324.359754852042
154 -1324.233017225651
155 -1324.143554943675
156 -1324.075768498776
157 -1324.04150680922
158 -1324.045579135403
159 -1324.078759814369
160 -1324.145809431425
161 -1324.229462494483
162 -1324.346257556568
163 -1324.478918517011
164 -1324.637020646594
165 -1324.81480046206
166 -1325.013615502686
167 -1325.233333766746
168 -1325.476878864819
169 -1325.744726141962
170 -1326.018980508636
171 -1326.311692846377
172 -1326.617368287345
173 -1326.953793656648
174 -1327.285820466481
175 -1327.648033743164
176 -1328.003733091228
177 -1328.380560938226
178 -1328.760014445431
179 -1329.162488990635
180 -1329.559946251473
181 -1329.986379346088
182 -1330.396038217653
183 -1330.831634323313
184 -1331.256912978538
185 -1331.708884389603
186 -1332.140415535721
187 -1332.603570720305
188 -1333.049944379374
189 -1333.527144479587
190 -1333.982091178542
191 -1334.474802728804
192 -1334.944419351481
193 -1335.442411334023
194 -1335.917014985293
195 -1336.421357728467
196 -1336.907041431628
197 -1337.418582953507
198 -1337.910949767001
199 -1338.433518846087
200 -1338.939727812104
201 -1339.462209345416
202 -1339.973078196497
203 -1340.501247574209
204 -1341.015416551284
205 -1341.543024545487
206 -1342.054357785418
207 -1342.587283625569
208 -1343.096986154805
209 -1343.625893240867
210 -1344.137695584749
211 -1344.670770268609
212 -1345.191637474644
213 -1345.719076580416
214 -1346.233985157882
215 -1346.767022618123
216 -1347.283541175683
217 -1347.815163548381
218 -1348.335204325711
219 -1348.871228465453
220 -1349.392930826778
221 -1349.92358607255
222 -1350.437298473538
223 -1350.969905724548
224 -1351.482785318083
225 -1352.016105457559
226 -1352.536826581096
227 -1353.074197654074
228 -1353.588215647128
229 -1354.120263408636
230 -1354.63349650265
231 -1355.17613807514
232 -1355.687506829672
233 -1356.230251043282
234 -1356.746524287391
235 -1357.291112928161
236 -1357.803796149072
237 -1358.352391643253
238 -1358.860426655106
239 -1359.41102521982
240 -1359.91978832632
241 -1360.469331322518
242 -1360.981426966878
243 -1361.530301247579
244 -1362.041499830311
245 -1362.594127287785
246 -1363.105740858518
247 -1363.662940947676
248 -1364.187307549222
249 -1364.748232066233
250 -1365.266010036476
251 -1365.823177083571
252 -1366.342437902072
253 -1366.898911218703
254 -1367.416990795012
255 -1367.975692623088
256 -1368.502900518172
257 -1369.064412031902
258 -1369.586639948126
259 -1370.150186535926
260 -1370.678231998391
261 -1371.242939279266
262 -1371.7636239821
263 -1372.327994955556
264 -1372.850213127809
265 -1373.417380398735
266 -1373.940356003971
267 -1374.50740879637
268 -1375.033702066095
269 -1375.600426825279
270 -1376.120428235107
271 -1376.684269168817
272 -1377.204494273824
273 -1377.766672414582
274 -1378.285769343405
275 -1378.845182300296
276 -1379.367745288048
277 -1379.917380932857
278 -1380.430323253749
279 -1380.983285541173
280 -1381.498681215962
281 -1382.053206964522
282 -1382.565808599103
283 -1383.115493487044
284 -1383.629274580839
285 -1384.174765977158
286 -1384.684942280062
287 -1385.228314755013
288 -1385.737584562765
289 -1386.276614526635
290 -1386.780464335334
291 -1387.309703377437
292 -1387.8115872974
293 -1388.338536449158
294 -1388.839005933681
295 -1389.365513567761
296 -1389.86430986554
297 -1390.385844121632
298 -1390.881562952005
299 -1391.39875806948
300 -1391.887166875802
301 -1392.402049038055
302 -1392.885701122703
303 -1393.391156883226
304 -1393.877919047264
305 -1394.381049085614
306 -1394.8608468046
307 -1395.361205367937
308 -1395.838546679528
309 -1396.333153928912
310 -1396.803303805332
311 -1397.296616689244
312 -1397.772050864741
313 -1398.258787024178
314 -1398.722590539283
315 -1399.209740763178
316 -1399.67344589432
317 -1400.160740631418
318 -1400.61840757728
319 -1401.104648061186
320 -1401.563872053681
321 -1402.045966547221
322 -1402.49197186394
323 -1402.972566542947
324 -1403.419294000683
325 -1403.896109807959
326 -1404.332223110331
327 -1404.806368542727
328 -1405.234033766079
329 -1405.708211874141
330 -1406.131832864271
331 -1406.603769172813
332 -1407.022125851428
333 -1407.490743387908
334 -1407.907450593412
335 -1408.366045615912
336 -1408.773514487542
337 -1409.233382744771
338 -1409.635181848322
339 -1410.091336849801
340 -1410.490668909748
341 -1410.939980055356
342 -1411.339992049864
343 -1411.781512462555
344 -1412.177225573101
345 -1412.608686994505
346 -1412.99880066278
347 -1413.431420281007
348 -1413.815030220107
349 -1414.242752345962
350 -1414.622156892725
351 -1415.044235157254
352 -1415.419571987702
353 -1415.836611942732
354 -1416.207803406544
355 -1416.617188267344
356 -1416.987066549635
357 -1417.387305001598
358 -1417.747431844063
359 -1418.142374603355
360 -1418.497898781239
361 -1418.89059927089
362 -1419.239222158558
363 -1419.626268100352
364 -1419.969533188184
365 -1420.355257524255
366 -1420.701694246785
367 -1421.079558374473
368 -1421.418508421725
369 -1421.7937470735
370 -1422.12826858211
371 -1422.495693384517
372 -1422.825456550733
373 -1423.187407524886
374 -1423.511158618753
375 -1423.860050400308
376 -1424.174919165264
377 -1424.520229104917
378 -1424.832196853637
379 -1425.1792866439
380 -1425.483515695481
381 -1425.826075733973
382 -1426.124439954573
383 -1426.47000687565
384 -1426.764055121673
385 -1427.104576872434
386 -1427.386860230589
387 -1427.720923384324
388 -1428.000119423672
389 -1428.327991150781
390 -1428.595238503982
391 -1428.921733745244
392 -1429.183622632157
393 -1429.507246387734
394 -1429.767530218322
395 -1430.085677985995
396 -1430.346278453575
397 -1430.657694161672
398 -1430.911099696932
399 -1431.218046873544
400 -1431.465761261478
401 -1431.769370802122
402 -1432.006408929585
403 -1432.302955640141
404 -1432.537430230565
405 -1432.827504813924
406 -1433.056584203464
407 -1433.348272762598
408 -1433.576440879443
409 -1433.861882218819
410 -1434.089145143843
411 -1434.367736805858
412 -1434.584612241547
413 -1434.861129906099
414 -1435.073181767257
415 -1435.346270592547
416 -1435.55385637689
417 -1435.824043304154
418 -1436.022564489755
419 -1436.290635403839
420 -1436.492908058033
421 -1436.754593255941
422 -1436.946661391
423 -1437.205854736118
424 -1437.401110336524
425 -1437.652914073822
426 -1437.845780230102
427 -1438.09423812254
428 -1438.279469302665
429 -1438.523837381995
430 -1438.704815766786
431 -1438.942972817108
432 -1439.116991330723
433 -1439.355292636556
434 -1439.526706889451
435 -1439.761764462261
436 -1439.933629428071
437 -1440.16768606535
438 -1440.334245770635
439 -1440.564289925207
440 -1440.729360408113
441 -1440.949783742424
442 -1441.10731616978
443 -1441.329156267388
444 -1441.486649730661
445 -1441.704490996803
446 -1441.854012752991
447 -1442.070004890966
448 -1442.223641413552
449 -1442.432532268473
450 -1442.581113952817
451 -1442.787887234905
452 -1442.935353617155
453 -1443.136154871691
454 -1443.281594683142
455 -1443.483868574256
456 -1443.629160468662
457 -1443.827960611136
458 -1443.963098001716
459 -1444.158738165885
460 -1444.293327499074
461 -1444.484986813865
462 -1444.618900290742
463 -1444.806734764491
464 -1444.93497562613
465 -1445.119640640278
466 -1445.240566883501
467 -1445.429206819668
468 -1445.548851279893
469 -1445.73480313201
470 -1445.855359019424
471 -1446.038543356463
472 -1446.152861680381
473 -1446.33386803537
474 -1446.443351134803
475 -1446.622769951467
476 -1446.735773496817
477 -1446.913625636513
478 -1447.015231210237
479 -1447.192204342756
480 -1447.293038046956
481 -1447.46637795945
482 -1447.567254489163
483 -1447.741419939269
484 -1447.837136545341
485 -1448.006124577371
486 -1448.09923502244
487 -1448.267400769376
488 -1448.358616553871
489 -1448.52982404157
490 -1448.615415978901
491 -1448.780818464649
492 -1448.86920420251
493 -1449.037053908258
494 -1449.123435045373
495 -1449.280443678299
496 -1449.363764050263
497 -1449.522360162917
498 -1449.603403025739
499 -1449.758915209699
500 -1449.840854568382
501 -1449.998771555899
502 -1450.078910879175
503 -1450.230454322721
504 -1450.307816006109
505 -1450.457527641015
506 -1450.532450328958
507 -1450.679704392956
508 -1450.756826087328
509 -1450.902063256823
510 -1450.973499131428
511 -1451.11228311856
512 -1451.186239774974
513 -1451.325207912663
514 -1451.401487339541
515 -1451.542542849748
516 -1451.617806173089
517 -1451.753189965697
518 -1451.824165289569
519 -1451.956252981657
520 -1452.026486991281
521 -1452.158188056547
522 -1452.227375678684
523 -1452.356206278353
524 -1452.424992187341
525 -1452.554696616561
526 -1452.621673669961
527 -1452.749668941548
528 -1452.815953886811
529 -1452.942387061398
530 -1453.005166291932
531 -1453.133825859108
532 -1453.198737256106
533 -1453.327948750224
534 -1453.393094392719
535 -1453.511868499807
536 -1453.573250435938
537 -1453.689245562275
538 -1453.743914293922
539 -1453.862709075571
540 -1453.921066203278
541 -1454.040306501149
542 -1454.092091662186
543 -1454.205793631334
544 -1454.26007191479
545 -1454.378746275745
546 -1454.432932856258
547 -1454.552366678031
548 -1454.608515861528
549 -1454.72565315749
550 -1454.777191265624
551 -1454.89324371841
552 -1454.942141711902
553 -1455.055803181573
554 -1455.098530655269
555 -1455.209317249193
556 -1455.24875971739
557 -1455.358155151194
558 -1455.402740368641
559 -1455.508158219133
560 -1455.549721655938
561 -1455.655720561456
562 -1455.699509852973
563 -1455.807683784893
564 -1455.856022747452
565 -1455.965305263312
566 -1456.011091995652
567 -1456.115358902837
568 -1456.157338700698
569 -1456.261741830705
570 -1456.300242496431
571 -1456.398743119155
572 -1456.435684159783
573 -1456.536247191482
574 -1456.572471169938
575 -1456.677272933853
576 -1456.715758874046
577 -1456.819661386103
578 -1456.853485665845
579 -1456.953738813571
580 -1456.994980897211
581 -1457.094426490181
582 -1457.124100561217
583 -1457.222137435144
584 -1457.254143429122
585 -1457.349673335169
586 -1457.379502480498
587 -1457.477142373712
588 -1457.510552182539
589 -1457.604333112707
590 -1457.630081680583
591 -1457.723763023065
592 -1457.75469359049
593 -1457.847720428185
594 -1457.869206610411
595 -1457.967823171235
596 -1457.992666303862
597 -1458.090203145189
598 -1458.1090365568
599 -1458.206090294159
600 -1458.228477376204
601 -1458.320139576485
602 -1458.345374163516
603 -1458.437600091845
604 -1458.460842496263
605 -1458.551768587829
606 -1458.569432350934
607 -1458.658797797703
608 -1458.681069174699
609 -1458.769518905967
610 -1458.792033587113
611 -1458.877327315429
612 -1458.903892931205
613 -1458.988919111259
614 -1459.007496219908
615 -1459.093195618127
616 -1459.112346361506
617 -1459.200364369391
618 -1459.218490631177
619 -1459.308568471944
620 -1459.329121906161
621 -1459.417614725713
622 -1459.434681125595
623 -1459.521016324975
624 -1459.539650038675
625 -1459.621529735004
626 -1459.636669012129
627 -1459.721075799232
628 -1459.739163501327
629 -1459.823601379076
630 -1459.836026987686
631 -1459.916112302576
632 -1459.927611067369
633 -1460.003769109921
634 -1460.012123014858
635 -1460.092341759653
636 -1460.105640810785
637 -1460.18609742647
638 -1460.195833872447
639 -1460.273804265316
640 -1460.287235162771
641 -1460.367831713339
642 -1460.380869991015
643 -1460.457153196656
644 -1460.472387573657
645 -1460.544256174361
646 -1460.554498979514
647 -1460.624876554669
648 -1460.633906659779
649 -1460.707292659535
650 -1460.718662260427
651 -1460.793053880006
652 -1460.804806774827
653 -1460.879179557896
654 -1460.889691058469
655 -1460.961083914086
656 -1460.966923281929
657 -1461.040077289981
658 -1461.044493480189
659 -1461.123124507104
660 -1461.123321103955
661 -1461.202386244441
662 -1461.203056822366
663 -1461.275376553487
664 -1461.276824270657
665 -1461.353212391757
666 -1461.355751339289
667 -1461.429976452198
668 -1461.438023760695
669 -1461.511355741723
670 -1461.512042812205
671 -1461.581662995786
672 -1461.582883762046
673 -1461.651254659953
674 -1461.64963260167
675 -1461.717151126503
676 -1461.721469713687
677 -1461.788058730019
678 -1461.788902059919
679 -1461.856178628807
680 -1461.860814477376
681 -1461.932207687653
682 -1461.931180663555
683 -1462.002208966531
684 -1462.004244002243
685 -1462.07152902303
686 -1462.069928368324
687 -1462.133205184834
688 -1462.126777239941
689 -1462.193018270004
690 -1462.188774964565
691 -1462.256395434238
692 -1462.255336014437
693 -1462.321395291479
694 -1462.31858109181
695 -1462.37984330368
696 -1462.380364034624
697 -1462.440699425547
698 -1462.437656238382
699 -1462.500641034913
700 -1462.502516085267
701 -1462.567077015279
702 -1462.562539425729
703 -1462.625491530867
704 -1462.621380379857
705 -1462.681252298245
706 -1462.674792260889
707 -1462.73851470737
708 -1462.738698566613
709 -1462.798055884494
710 -1462.789026516969
711 -1462.850791478296
712 -1462.843149434284
713 -1462.90874057387
714 -1462.904065650736
715 -1462.968833446996
716 -1462.963174591539
717 -1463.021323847132
718 -1463.017605826551
719 -1463.072791998901
720 -1463.066116479361
721 -1463.124088055642
722 -1463.11566030891
723 -1463.173922885184
724 -1463.164269603287
725 -1463.231119138527
726 -1463.225532577155
727 -1463.286440641156
728 -1463.277154204005
729 -1463.337720402589
730 -1463.328143440862
731 -1463.391014109881
732 -1463.379985179723
733 -1463.441117391557
734 -1463.428217192356
735 -1463.489075738711
736 -1463.475151480798
737 -1463.537636329393
738 -1463.522504444127
739 -1463.579841713515
740 -1463.570878041278
741 -1463.62651255665
742 -1463.610941488877
743 -1463.667428531056
744 -1463.65619678823
745 -1463.712262421969
746 -1463.699783725765
747 -1463.76010380803
748 -1463.741536047961
749 -1463.806453024242
750 -1463.790731007824
751 -1463.848356044677
752 -1463.826725232481
753 -1463.885090970823
754 -1463.862246616002
755 -1463.929038235809
756 -1463.910426922672
757 -1463.971538298883
758 -1463.955349554096
759 -1464.014574288219
760 -1463.996304963719
761 -1464.050085679159
762 -1464.036812777759
763 -1464.09004695551
764 -1464.075446896072
765 -1464.129724762799
766 -1464.114649893728
767 -1464.168770831772
768 -1464.15444856464
769 -1464.207154836439
770 -1464.193859216361
771 -1464.24511464612
772 -1464.235366762447
773 -1464.286145935081
774 -1464.271600809792
775 -1464.323946126231
776 -1464.309604184101
777 -1464.36144139077
778 -1464.342829420335
779 -1464.395949566817
780 -1464.377352389585
781 -1464.429511501786
782 -1464.414466701929
783 -1464.461444404819
784 -1464.444389170049
785 -1464.493860632203
786 -1464.480548315254
787 -1464.528598417707
788 -1464.516771800809
789 -1464.565274587893
790 -1464.55512484751
791 -1464.601300416031
792 -1464.588089324178
793 -1464.631470867317
794 -1464.617049228435
795 -1464.661583803156
796 -1464.644238579549
797 -1464.69127350306
798 -1464.669248880815
799 -1464.717755097518
800 -1464.698470900981
801 -1464.750144944687
802 -1464.73056692609
803 -1464.787334852435
804 -1464.77013488867
805 -1464.823544998611
806 -1464.8014940674
807 -1464.850897796298
808 -1464.828487228403
809 -1464.877877293593
810 -1464.854202559265
811 -1464.905155655711
812 -1464.88209844379
813 -1464.935846626039
814 -1464.904534282365
815 -1464.955915433686
816 -1464.931664256054
817 -1464.984915413264
818 -1464.958683486045
819 -1465.011491373492
820 -1464.991972278808
821 -1465.044875581009
822 -1465.020112507237
823 -1465.071441965295
824 -1465.04854587309
825 -1465.094890153927
826 -1465.078304736993
827 -1465.126648501852
828 -1465.105191300412
829 -1465.149175241732
830 -1465.12601665158
831 -1465.165988652295
832 -1465.148256876403
833 -1465.191608531911
834 -1465.171615122445
835 -1465.214952133277
836 -1465.200953601895
837 -1465.244343243377
838 -1465.221438565758
839 -1465.265218252934
840 -1465.246489820877
841 -1465.290503211965
842 -1465.270388949659
843 -1465.312457092362
844 -1465.296111885691
845 -1465.337797443384
846 -1465.321469002647
847 -1465.35732817417
848 -1465.342324333906
849 -1465.381990321118
850 -1465.361855865898
851 -1465.403542953104
852 -1465.388176246677
853 -1465.429158572944
854 -1465.406763529669
855 -1465.447697718753
856 -1465.430899773295
857 -1465.471611138775
858 -1465.444803488491
859 -1465.488034438734
860 -1465.463785963605
861 -1465.509974039496
862 -1465.483901000858
863 -1465.535423351739
864 -1465.515919293857
865 -1465.561596871559
866 -1465.531510159891
867 -1465.577380008484
868 -1465.551406151272
869 -1465.597748871528
870 -1465.563752167657
871 -1465.60617576598
872 -1465.576395412432
873 -1465.619342302248
874 -1465.592874613522
875 -1465.645702295946
876 -1465.620866878122
877 -1465.671965173299
878 -1465.645241713272
879 -1465.695527687611
880 -1465.667992215289
881 -1465.715701632518
882 -1465.685188523026
883 -1465.727951222211
884 -1465.701589007188
885 -1465.744617050049
886 -1465.714569597896
887 -1465.758236562953
888 -1465.73353481687
889 -1465.7728678198
890 -1465.743376996337
891 -1465.788202143542
892 -1465.759676981384
893 -1465.814576135073
894 -1465.781704786614
895 -1465.82926138263
896 -1465.798729301338
897 -1465.843141092057
898 -1465.806973967115
899 -1465.852087814275
900 -1465.822982280456
901 -1465.8641034297
902 -1465.830894483523
903 -1465.874024143092
904 -1465.842131410217
905 -1465.888440534268
906 -1465.855467745654
907 -1465.903326177819
908 -1465.87699075783
909 -1465.92494039408
910 -1465.896664996402
911 -1465.942876220513
912 -1465.918583844798
913 -1465.963713092679
914 -1465.930706544282
915 -1465.972558570998
916 -1465.942347217222
917 -1465.988648524433
918 -1465.956138437018
919 -1465.998351126376
920 -1465.966022015723
921 -1466.005676403683
922 -1465.974314198469
923 -1466.020627980532
924 -1465.990171850364
925 -1466.036200372546
926 -1466.003615528229
927 -1466.049649895875
928 -1466.019175777797
929 -1466.063818632394
930 -1466.031332326962
931 -1466.07215397263
932 -1466.048186435087
933 -1466.084294294563
934 -1466.052370820895
935 -1466.088680812628
936 -1466.061419416972
937 -1466.098702161757
938 -1466.073310138346
939 -1466.111293886426
940 -1466.090075393337
941 -1466.130134392009
942 -1466.109400731446
943 -1466.144562915927
944 -1466.11909697288
945 -1466.151342825003
946 -1466.125605314088
947 -1466.161885256015
948 -1466.140796807637
949 -1466.174158771697
950 -1466.150221556891
951 -1466.180205977365
952 -1466.154304347918
953 -1466.187299911526
954 -1466.16048413372
955 -1466.200649625548
956 -1466.174110857874
957 -1466.213597501015
958 -1466.1825187312
959 -1466.223028363346
960 -1466.1942186681
961 -1466.234813526941
962 -1466.201506336554
963 -1466.236561237395
964 -1466.210068839139
965 -1466.248169719422
966 -1466.221156603235
967 -1466.262920608739
968 -1466.234232238895
969 -1466.273978020287
970 -1466.243378407885
971 -1466.287652942692
972 -1466.256630196141
973 -1466.296624434942
974 -1466.265363607556
975 -1466.304793574645
976 -1466.270336123145
977 -1466.308855228958
978 -1466.274305262725
979 -1466.317409623446
980 -1466.28897464527
981 -1466.331895581818
982 -1466.297424225997
983 -1466.338742489921
984 -1466.311147563868
985 -1466.346633866092
986 -1466.314788199687
987 -1466.353198336164
988 -1466.32643887013
989 -1466.367620136204
990 -1466.335467289614
991 -1466.375509115925
992 -1466.345028953016
993 -1466.38624959978
994 -1466.354431133015
995 -1466.39523610132
996 -1466.359916640916
997 -1466.399778060482
998 -1466.362302400307
999 -1466.400430991908
1000 -1466.368340281132
1001 -1466.406181699653
1002 -1466.379544519385
1003 -1466.416276931615
1004 -1466.387430892593
1005 -1466.423454507614
1006 -1466.389943938729
1007 -1466.428520645258
1008 -1466.401935655647
1009 -1466.439897045653
1010 -1466.406626263489
1011 -1466.444029737717
1012 -1466.4143499666
1013 -1466.453111343803
1014 -1466.420443957131
1015 -1466.453984674355
1016 -1466.428038914264
1017 -1466.462484824397
1018 -1466.42561352859
1019 -1466.463450731351
1020 -1466.428392467455
1021 -1466.469367212899
1022 -1466.431354228978
1023 -1466.474987127306
1024 -1466.440034621883
1025 -1466.487302197929
1026 -1466.454698443095
1027 -1466.49893492263
1028 -1466.466271993995
1029 -1466.513518428936
1030 -1466.476018661715
1031 -1466.521700620446
1032 -1466.484301701281
1033 -1466.525241714561
1034 -1466.490057379733
1035 -1466.526890989348
1036 -1466.49126746202
1037 -1466.530253110604
1038 -1466.495567553768
1039 -1466.534049179818
1040 -1466.501505860278
1041 -1466.539898082066
1042 -1466.504115195976
1043 -1466.545437819104
1044 -1466.513689294938
1045 -1466.554820519943
1046 -1466.514090779348
1047 -1466.552460303473
1048 -1466.523876692995
1049 -1466.56063906618
1050 -1466.526671988563
1051 -1466.564920837567
1052 -1466.531993289308
1053 -1466.569058026681
1054 -1466.535137997443
1055 -1466.574550609856
1056 -1466.53932189221
1057 -1466.575440244315
1058 -1466.545443533124
1059 -1466.583475516327
1060 -1466.550590031943
1061 -1466.590569444682
1062 -1466.55866021195
1063 -1466.608994729296
1064 -1466.571949302047
1065 -1466.610338495248
1066 -1466.575622584859
1067 -1466.613058391369
1068 -1466.576560765086
1069 -1466.615083308508
1070 -1466.578918824508
1071 -1466.615850109525
1072 -1466.578534052665
1073 -1466.616004288975
1074 -1466.579443875829
1075 -1466.619883870228
1076 -1466.584104500067
1077 -1466.626277587584
1078 -1466.593668932482
1079 -1466.637248589843
1080 -1466.60896550367
1081 -1466.646171913186
1082 -1466.61085185416
1083 -1466.650597755752
1084 -1466.614067041476
1085 -1466.654879322715
1086 -1466.617528970196
1087 -1466.656501855477
1088 -1466.622710658797
1089 -1466.659555630788
1090 -1466.629747390272
1091 -1466.659960357386
1092 -1466.629780868596
1093 -1466.664420695093
1094 -1466.630077706008
1095 -1466.66183423134
1096 -1466.633172058554
1097 -1466.670305030957
1098 -1466.637342603633
1099 -1466.673319985524
1100 -1466.646207030934
1101 -1466.679580658883
1102 -1466.648117544754
1103 -1466.685314635353
1104 -1466.656855281046
1105 -1466.69301667232
1106 -1466.658952921574
1107 -1466.696807456731
1108 -1466.670242584265
1109 -1466.698884039748
1110 -1466.662694168906
1111 -1466.693007018307
1112 -1466.660670057023
1113 -1466.691744061715
1114 -1466.661761614971
1115 -1466.70096531889
1116 -1466.670891887038
1117 -1466.707795387738
1118 -1466.674261214533
1119 -1466.71400596991
1120 -1466.683829065136
1121 -1466.719362237146
1122 -1466.690379318507
1123 -1466.72409579686
1124 -1466.692351181749
1125 -1466.726480007387
1126 -1466.689307170923
1127 -1466.722436326053
1128 -1466.689619339598
1129 -1466.723670210187
1130 -1466.691030211781
1131 -1466.727452211346
1132 -1466.698202885392
1133 -1466.735108033027
1134 -1466.702100998677
1135 -1466.74289762881
1136 -1466.703906378827
1137 -1466.743399529586
1138 -1466.705076225184
1139 -1466.747664428249
1140 -1466.716201709402
1141 -1466.754197078719
1142 -1466.717089886363
1143 -1466.753773639088
1144 -1466.719218558998
1145 -1466.756331992991
1146 -1466.721471102887
1147 -1466.759895885835
1148 -1466.723585532767
1149 -1466.76096816878
1150 -1466.721445396735
1151 -1466.758513145021
1152 -1466.725878813705
1153 -1466.763386678052
1154 -1466.729756765338
1155 -1466.764460521433
1156 -1466.732679766824
1157 -1466.770753615626
1158 -1466.731688456041
1159 -1466.767538320626
1160 -1466.735214458409
1161 -1466.770264981614
1162 -1466.732370737432
1163 -1466.770515593898
1164 -1466.741189086382
1165 -1466.779178760097
1166 -1466.742047433202
1167 -1466.781732218204
1168 -1466.744039184984
1169 -1466.780472226677
1170 -1466.746632400473
1171 -1466.787293737282
1172 -1466.759024629542
1173 -1466.796022270417
1174 -1466.760054760904
1175 -1466.799547840129
1176 -1466.767023919924
1177 -1466.801808281069
1178 -1466.763971009788
1179 -1466.798119658945
1180 -1466.762821656049
1181 -1466.800919810374
1182 -1466.761904650681
1183 -1466.800986328646
1184 -1466.765958561155
1185 -1466.803697352899
1186 -1466.768910431698
1187 -1466.807006375581
1188 -1466.771313632147
1189 -1466.810468741878
1190 -1466.772050456209
1191 -1466.813284631254
1192 -1466.775299260874
1193 -1466.816799944982
1194 -1466.779903522117
1195 -1466.820248402032
1196 -1466.789413759989
1197 -1466.822640773398
1198 -1466.782305794002
1199 -1466.817002494026
1200 -1466.777201276585
1201 -1466.815451545569
1202 -1466.777900653405
1203 -1466.816439179834
1204 -1466.783727142362
1205 -1466.823740352224
1206 -1466.784671796568
1207 -1466.817518887208
1208 -1466.790550225004
1209 -1466.828152471031
1210 -1466.78941087192
1211 -1466.824717619505
1212 -1466.791769221737
1213 -1466.830674250229
1214 -1466.790892773552
1215 -1466.829202533822
1216 -1466.791018252563
1217 -1466.825705503887
1218 -1466.789659184545
1219 -1466.824624659929
1220 -1466.791641873725
1221 -1466.832659363407
1222 -1466.792798845373
1223 -1466.835153998805
1224 -1466.80241249969
1225 -1466.848391291566
1226 -1466.810040738506
1227 -1466.853526185273
1228 -1466.819279861939
1229 -1466.854819247469
1230 -1466.813104954683
1231 -1466.847358073608
1232 -1466.809287088648
1233 -1466.84277202116
1234 -1466.807167089706
1235 -1466.850000464878
1236 -1466.814211563316
1237 -1466.854111838989
1238 -1466.817486970544
1239 -1466.856066169238
1240 -1466.820949236843
1241 -1466.858203798332
1242 -1466.817184004186
1243 -1466.857356218865
1244 -1466.822042306506
1245 -1466.857705597363
1246 -1466.821864121473
1247 -1466.856239377164
1248 -1466.82306209269
1249 -1466.852028502338
1250 -1466.813696508644
1251 -1466.839959050178
1252 -1466.813386993655
1253 -1466.84708488574
1254 -1466.815397810389
1255 -1466.847167178844
1256 -1466.822508152186
1257 -1466.85512035769
1258 -1466.824889781552
1259 -1466.858693038977
1260 -1466.834322169057
1261 -1466.865908340794
1262 -1466.831656172364
1263 -1466.862399500086
1264 -1466.829432214004
1265 -1466.86731466256
1266 -1466.831515592629
1267 -1466.863960149477
1268 -1466.836223806554
1269 -1466.867442681217
1270 -1466.833474613993
1271 -1466.865806379438
1272 -1466.836713892891
1273 -1466.863353503598
1274 -1466.826727510183
1275 -1466.862715889044
1276 -1466.828740003286
1277 -1466.863810173817
1278 -1466.825636810423
1279 -1466.865390436305
1280 -1466.830067452269
1281 -1466.865398343472
1282 -1466.832204061302
1283 -1466.871572164918
1284 -1466.838885756006
1285 -1466.881604654825
1286 -1466.842707669341
1287 -1466.881940473149
1288 -1466.846576038357
1289 -1466.882414701271
1290 -1466.841019070091
1291 -1466.882806678023
1292 -1466.846350135769
1293 -1466.887821015272
1294 -1466.841828504104
1295 -1466.882949820018
1296 -1466.84173495404
1297 -1466.889240911084
1298 -1466.841984678626
1299 -1466.881784382964
1300 -1466.843544361845
1301 -1466.886101864166
1302 -1466.846699748154
1303 -1466.886150964133
1304 -1466.847734968588
1305 -1466.888593858807
1306 -1466.846904623831
1307 -1466.886359133326
1308 -1466.84744933823
1309 -1466.886868506868
1310 -1466.849105047545
1311 -1466.884565624566
1312 -1466.847811086865
1313 -1466.88661621695
1314 -1466.845904557431
1315 -1466.888121518173
1316 -1466.852620946996
1317 -1466.889029399294
1318 -1466.848947241267
1319 -1466.88567022517
1320 -1466.851226077839
1321 -1466.884059145364
1322 -1466.849074196145
1323 -1466.885286239812
1324 -1466.856484101606
1325 -1466.895152082094
1326 -1466.857000911219
1327 -1466.89718806161
1328 -1466.861181881633
1329 -1466.898048116452
1330 -1466.861847026885
1331 -1466.900178761337
1332 -1466.869119871004
1333 -1466.901558117438
1334 -1466.86977183132
1335 -1466.904328509791
1336 -1466.870125704286
1337 -1466.904067194368
1338 -1466.865676336006
1339 -1466.899587961392
1340 -1466.86730244121
1341 -1466.904141959439
1342 -1466.869981777583
1343 -1466.902263502752
1344 -1466.867765053488
1345 -1466.900642548942
1346 -1466.861205095011
1347 -1466.895805803061
1348 -1466.866151025596
1349 -1466.901381202629
1350 -1466.865904762439
1351 -1466.901870666638
1352 -1466.867561948896
1353 -1466.902157073266
1354 -1466.865741964899
1355 -1466.899679858311
1356 -1466.872958801246
1357 -1466.905215743795
1358 -1466.870318716482
1359 -1466.906549133187
1360 -1466.871419412166
1361 -1466.902874428032
1362 -1466.868292733241
1363 -1466.902457345847
1364 -1466.866265472934
1365 -1466.898993405992
1366 -1466.865401604419
1367 -1466.898516804635
1368 -1466.862748940987
1369 -1466.898282540128
1370 -1466.864731852203
1371 -1466.908162061859
1372 -1466.873116937122
1373 -1466.910488485408
1374 -1466.878261450993
1375 -1466.915500682559
1376 -1466.886060306433
1377 -1466.914538737246
1378 -1466.881005923346
1379 -1466.916597074857
1380 -1466.879428965723
1381 -1466.915605699152
1382 -1466.873540903154
1383 -1466.909160851882
1384 -1466.872145204498
1385 -1466.912081107208
1386 -1466.876446741674
1387 -1466.914401688669
1388 -1466.881993295041
1389 -1466.919502568846
1390 -1466.880500764827
1391 -1466.916608499399
1392 -1466.881528504668
1393 -1466.920044434316
1394 -1466.882458748677
1395 -1466.925912766335
1396 -1466.888148562195
1397 -1466.923895076926
1398 -1466.882400390015
1399 -1466.918064930641
1400 -1466.884398232349
1401 -1466.917912209216
1402 -1466.880107222684
1403 -1466.914960490384
1404 -1466.883649577496
1405 -1466.92078410382
1406 -1466.885984759711
1407 -1466.917674574636
1408 -1466.889513344491
1409 -1466.917020205787
1410 -1466.883534723706
1411 -1466.9125220694
1412 -1466.880385891694
1413 -1466.910003559844
1414 -1466.874959040047
1415 -1466.913675886561
1416 -1466.881460223859
1417 -1466.917539043586
1418 -1466.879675439495
1419 -1466.918478260224
1420 -1466.887076240955
1421 -1466.925609172457
1422 -1466.887631393524
1423 -1466.930000692045
1424 -1466.891847354821
1425 -1466.931244319166
1426 -1466.891003510261
1427 -1466.932749442014
1428 -1466.89750698874
1429 -1466.932243226373
1430 -1466.898605088634
1431 -1466.930068659057
1432 -1466.894915449963
1433 -1466.93002665835
1434 -1466.888522513551
1435 -1466.930451648341
1436 -1466.892319030017
1437 -1466.92980932543
1438 -1466.887668888455
1439 -1466.925360824395
1440 -1466.894474058682
1441 -1466.928947840954
1442 -1466.889911114873
1443 -1466.927383609084
1444 -1466.891460215765
1445 -1466.931057083404
1446 -1466.89300783115
1447 -1466.930434644079
1448 -1466.892139604782
1449 -1466.926716778461
1450 -1466.892734076359
1451 -1466.925842982458
1452 -1466.889745207199
1453 -1466.925063658256
1454 -1466.883928195863
1455 -1466.922423769827
1456 -1466.882806099438
1457 -1466.91901834038
1458 -1466.882330574925
1459 -1466.92379195264
1460 -1466.88686280842
1461 -1466.928546750449
1462 -1466.886807928241
1463 -1466.930393725653
1464 -1466.894279418214
1465 -1466.935245926928
1466 -1466.891621081262
1467 -1466.93380056194
1468 -1466.893590045302
1469 -1466.935483581429
1470 -1466.892099099893
1471 -1466.931903155907
1472 -1466.890090702981
1473 -1466.928789295393
1474 -1466.88978398258
1475 -1466.931864006327
1476 -1466.895533791406
1477 -1466.932577186308
1478 -1466.89452018364
1479 -1466.931758156166
1480 -1466.898612520236
1481 -1466.938942353854
1482 -1466.900074935703
1483 -1466.937802109064
1484 -1466.902211388292
1485 -1466.94296048015
1486 -1466.899853310684
1487 -1466.935840675795
1488 -1466.897896310996
1489 -1466.933693599013
1490 -1466.896650910797
1491 -1466.932878163528
1492 -1466.900135617791
1493 -1466.935408477359
1494 -1466.902546199394
1495 -1466.932482636996
1496 -1466.898255802728
1497 -1466.92944480231
1498 -1466.892748721169
1499 -1466.927398861128
1500 -1466.895891570045
1501 -1466.932856723365
1502 -1466.895214601553
1503 -1466.929801291302
1504 -1466.899779244002
1505 -1466.933663750478
1506 -1466.898473570186
1507 -1466.934440438796
1508 -1466.903616594666
1509 -1466.939766843576
1510 -1466.903462240088
1511 -1466.938008818964
1512 -1466.910522290075
1513 -1466.9403119584
1514 -1466.906086310388
1515 -1466.939700217221
1516 -1466.911139967511
1517 -1466.939220999658
1518 -1466.907936524063
1519 -1466.939050029025
1520 -1466.908865792951
1521 -1466.940516215691
1522 -1466.903624274488
1523 -1466.941715927499
1524 -1466.906229942852
1525 -1466.943421507132
1526 -1466.90702634711
1527 -1466.94293321823
1528 -1466.904449478942
1529 -1466.935876797153
1530 -1466.895131650128
1531 -1466.932993507319
1532 -1466.895325316674
1533 -1466.934243647069
1534 -1466.90184146222
1535 -1466.940565615461
1536 -1466.909075420499
1537 -1466.944031795904
1538 -1466.911966366921
1539 -1466.948140639783
1540 -1466.914849973306
1541 -1466.947649068397
1542 -1466.910044246459
1543 -1466.944887593756
1544 -1466.910274235317
1545 -1466.944479846798
1546 -1466.903490386856
1547 -1466.940540024775
1548 -1466.904777214888
1549 -1466.941883792118
1550 -1466.896888120955
1551 -1466.936538208502
1552 -1466.89869616513
1553 -1466.941701889024
1554 -1466.902158141563
1555 -1466.94444578551
1556 -1466.90995766345
1557 -1466.953110006985
1558 -1466.911957174111
1559 -1466.950701294918
1560 -1466.908374065098
1561 -1466.941371511945
1562 -1466.89889274674
1563 -1466.935267042837
1564 -1466.898030647455
1565 -1466.935596703384
1566 -1466.897924052845
1567 -1466.938611476779
1568 -1466.909750145404
1569 -1466.946083855621
1570 -1466.909515411008
1571 -1466.946459867074
1572 -1466.914105559497
1573 -1466.949325060716
1574 -1466.909610559689
1575 -1466.944260923956
1576 -1466.907304984671
1577 -1466.940481133324
1578 -1466.905358913735
1579 -1466.936580868008
1580 -1466.902537879428
1581 -1466.93763125811
1582 -1466.901472963068
1583 -1466.937681484138
1584 -1466.905444542731
1585 -1466.941970948156
1586 -1466.905132961549
1587 -1466.942695945001
1588 -1466.913118241229
1589 -1466.945515720925
1590 -1466.909330562309
1591 -1466.941884916019
1592 -1466.909898755172
1593 -1466.943214145075
1594 -1466.908152913276
1595 -1466.94212952367
1596 -1466.907581025061
1597 -1466.945218892369
1598 -1466.910121690259
1599 -1466.945426091979
1600 -1466.914302825606
1601 -1466.948222709191
1602 -1466.910931850979
1603 -1466.946598788214
1604 -1466.910196021721
1605 -1466.952592353834
1606 -1466.912927553419
1607 -1466.947409257952
1608 -1466.915819773436
1609 -1466.949040787722
1610 -1466.906977625129
1611 -1466.943705879573
1612 -1466.9029934895
1613 -1466.947068777395
1614 -1466.900927535579
1615 -1466.94294244668
1616 -1466.899800855788
1617 -1466.945400829523
1618 -1466.901258409105
1619 -1466.946347537728
1620 -1466.903679344508
1621 -1466.949016805886
1622 -1466.905640636081
1623 -1466.948095361862
1624 -1466.903372494634
1625 -1466.946038281421
1626 -1466.904473011417
1627 -1466.944646460824
1628 -1466.906179979087
1629 -1466.947785730212
1630 -1466.90981385651
1631 -1466.947651319714
1632 -1466.917892013272
1633 -1466.947369392597
1634 -1466.914620959936
1635 -1466.952517283963
1636 -1466.92215372153
1637 -1466.963577001859
1638 -1466.925724976371
1639 -1466.95660539332
1640 -1466.922243504793
1641 -1466.951147414216
1642 -1466.915281826769
1643 -1466.94480942712
1644 -1466.910297060044
1645 -1466.947693012345
1646 -1466.913476858196
1647 -1466.951750760612
1648 -1466.918980378512
1649 -1466.951624486826
1650 -1466.921157726396
1651 -1466.950692815066
1652 -1466.92011913878
1653 -1466.949815025706
1654 -1466.919212201307
1655 -1466.944736322801
1656 -1466.912066671049
1657 -1466.94638852861
1658 -1466.911071425417
1659 -1466.945090975307
1660 -1466.914083555678
1661 -1466.948473380099
1662 -1466.913807276413
1663 -1466.945715687087
1664 -1466.915003023884
1665 -1466.946421157954
1666 -1466.908752421298
1667 -1466.943223139848
1668 -1466.911243603218
1669 -1466.943293081146
1670 -1466.912009031638
1671 -1466.945506846704
1672 -1466.91690645821
1673 -1466.948950322219
1674 -1466.921823416061
1675 -1466.95249151029
1676 -1466.921913199175
1677 -1466.953467278538
1678 -1466.916246430202
1679 -1466.949704562634
1680 -1466.915276729723
1681 -1466.947313616257
1682 -1466.916031503398
1683 -1466.944818958074
1684 -1466.917795129716
1685 -1466.948939742752
1686 -1466.919066970966
1687 -1466.954613695915
1688 -1466.921415771712
1689 -1466.956680813123
1690 -1466.919455729318
1691 -1466.950602609302
1692 -1466.913823281189
1693 -1466.945743519049
1694 -1466.90823187659
1695 -1466.939096560772
1696 -1466.90695499126
1697 -1466.938425901474
1698 -1466.904533776765
1699 -1466.93939007633
1700 -1466.905535598662
1701 -1466.946021729742
1702 -1466.910922513835
1703 -1466.952815237587
1704 -1466.91782718996
1705 -1466.956257974848
1706 -1466.920696653848
1707 -1466.957528247894
1708 -1466.916804401987
1709 -1466.95525188308
1710 -1466.912615609247
1711 -1466.957948793398
1712 -1466.915778727634
1713 -1466.954963374423
1714 -1466.916409240546
1715 -1466.952574361621
1716 -1466.917299789907
1717 -1466.957330840984
1718 -1466.918851375191
1719 -1466.958015884258
1720 -1466.920963030917
1721 -1466.957481912249
1722 -1466.919400503563
1723 -1466.958853387919
1724 -1466.920383097568
1725 -1466.958784503851
1726 -1466.915289423077
1727 -1466.952462099842
1728 -1466.915162030998
1729 -1466.9511670106
1730 -1466.907203808959
1731 -1466.943300730445
1732 -1466.905334130757
1733 -1466.939863660434
1734 -1466.906535593071
1735 -1466.94038360501
1736 -1466.912997022209
1737 -1466.945003135759
1738 -1466.916304818648
1739 -1466.94794325252
1740 -1466.92338137791
1741 -1466.954273154161
1742 -1466.922950949453
1743 -1466.958723958139
1744 -1466.933708767421
1745 -1466.965607891758
1746 -1466.9301073288
1747 -1466.963250121035
1748 -1466.9282987897
1749 -1466.959819494825
1750 -1466.925843421949
1751 -1466.958045663173
1752 -1466.925947297297
1753 -1466.955420820859
1754 -1466.914863610464
1755 -1466.946671461535
1756 -1466.912106023412
1757 -1466.948444527203
1758 -1466.910291808769
1759 -1466.944401319207
1760 -1466.913618119724
1761 -1466.952892637958
1762 -1466.912034513311
1763 -1466.951744148236
1764 -1466.916603117212
1765 -1466.954260183662
1766 -1466.914474285632
1767 -1466.95333742839
1768 -1466.913461381768
1769 -1466.952063605198
1770 -1466.916231675241
1771 -1466.952031200728
1772 -1466.913063324792
1773 -1466.950623200097
1774 -1466.909724131194
1775 -1466.954575493212
1776 -1466.913069637668
1777 -1466.953107407717
1778 -1466.910566734276
1779 -1466.952934115608
1780 -1466.915770418679
1781 -1466.952159307366
1782 -1466.910526888752
1783 -1466.946939903493
1784 -1466.909037358813
1785 -1466.942156120414
1786 -1466.905587893817
1787 -1466.939486384126
1788 -1466.912724452526
1789 -1466.953070482612
1790 -1466.916746112527
1791 -1466.95353849312
1792 -1466.919221473936
1793 -1466.956315613045
1794 -1466.921515732484
1795 -1466.956894184896
1796 -1466.924779747666
1797 -1466.959184289918
1798 -1466.927110497956
1799 -1466.962021762279
1800 -1466.935328370493
1801 -1466.962046239575
1802 -1466.930948282034
1803 -1466.952657737091
1804 -1466.924394069365
1805 -1466.948346309043
1806 -1466.915501066436
1807 -1466.944125238689
1808 -1466.9152398597
1809 -1466.945841903943
1810 -1466.911215594583
1811 -1466.949918954182
1812 -1466.921857183214
1813 -1466.957175715664
1814 -1466.91454349944
1815 -1466.950034291177
1816 -1466.912197394684
1817 -1466.946236638003
1818 -1466.906558235112
1819 -1466.944495366927
1820 -1466.914576593712
1821 -1466.952593205436
1822 -1466.913766173985
1823 -1466.949345413116
1824 -1466.91325985281
1825 -1466.950879326535
1826 -1466.918779996093
1827 -1466.955284308771
1828 -1466.919708848913
1829 -1466.955084481751
1830 -1466.918356446743
1831 -1466.955369455766
1832 -1466.921347698944
1833 -1466.959618723864
1834 -1466.925245821828
1835 -1466.964265701787
1836 -1466.927074827955
1837 -1466.961217620246
1838 -1466.925394412065
1839 -1466.959071390115
1840 -1466.927265148475
1841 -1466.960723804329
1842 -1466.922740377035
1843 -1466.954453411572
1844 -1466.923943878655
1845 -1466.953838819493
1846 -1466.915117695663
1847 -1466.945272055615
1848 -1466.916525738858
1849 -1466.953650403893
1850 -1466.921219991337
1851 -1466.955196776418
1852 -1466.930429124059
1853 -1466.96239441811
1854 -1466.926127867944
1855 -1466.958552918128
1856 -1466.925490591514
1857 -1466.954842119603
1858 -1466.916806882995
1859 -1466.950212549859
1860 -1466.917273261253
1861 -1466.954539434381
1862 -1466.91699294423
1863 -1466.955586530844
1864 -1466.919103801063
1865 -1466.95934871114
1866 -1466.918839701557
1867 -1466.959036496887
1868 -1466.920647995624
1869 -1466.956713253958
1870 -1466.920111728688
1871 -1466.95936384103
1872 -1466.924882032134
1873 -1466.958462743042
1874 -1466.923042967756
1875 -1466.955062634147
1876 -1466.921725258533
1877 -1466.957901540734
1878 -1466.918786205692
1879 -1466.957369817617
1880 -1466.921608836501
1881 -1466.966699437404
1882 -1466.930656651537
1883 -1466.971804624373
1884 -1466.931938064034
1885 -1466.970637209825
1886 -1466.924404221744
1887 -1466.95503547877
1888 -1466.920384165493
1889 -1466.949299962943
1890 -1466.911216393639
1891 -1466.943216824544
1892 -1466.910097007039
1893 -1466.945337168552
1894 -1466.910492256371
1895 -1466.94479992271
1896 -1466.911717701807
1897 -1466.944468143842
1898 -1466.917869679934
1899 -1466.954391858813
1900 -1466.927555518451
1901 -1466.9666343688
1902 -1466.933805729853
1903 -1466.968460689008
1904 -1466.937323812215
1905 -1466.969525683008
1906 -1466.930481775465
1907 -1466.960497069943
1908 -1466.929424524202
1909 -1466.958151181168
1910 -1466.921373368077
1911 -1466.952288082392
1912 -1466.915080487589
1913 -1466.949680679618
1914 -1466.912343613493
1915 -1466.954320433512
1916 -1466.916354938412
1917 -1466.954807903882
1918 -1466.918372368347
1919 -1466.954888082069
1920 -1466.916795349273
1921 -1466.955463708271
1922 -1466.913387317639
1923 -1466.954868326201
1924 -1466.915739681928
1925 -1466.956560490247
1926 -1466.919031111013
1927 -1466.955867314307
1928 -1466.920998325646
1929 -1466.959120233009
1930 -1466.924428785711
1931 -1466.962702981488
1932 -1466.924474561796
1933 -1466.963489410768
1934 -1466.922035500105
1935 -1466.957726258728
1936 -1466.920655743834
1937 -1466.954635730201
1938 -1466.91962411804
1939 -1466.947404776323
1940 -1466.921928461693
1941 -1466.949622859488
1942 -1466.918010275014
1943 -1466.954381746218
1944 -1466.922596979517
1945 -1466.960921067143
1946 -1466.927719186451
1947 -1466.967547774978
1948 -1466.93155513321
1949 -1466.969230499167
1950 -1466.929847833612
1951 -1466.96498195801
1952 -1466.926619480474
1953 -1466.965027424461
1954 -1466.924881247984
1955 -1466.962699059075
1956 -1466.928129110441
1957 -1466.963172815716
1958 -1466.931707586604
1959 -1466.961337517983
1960 -1466.929125855901
1961 -1466.959165353172
1962 -1466.923568649907
1963 -1466.952466957835
1964 -1466.924169705419
1965 -1466.959384091486
1966 -1466.924567869531
1967 -1466.957408786818
1968 -1466.918277695259
1969 -1466.950853908629
1970 -1466.914780887686
1971 -1466.950250402148
1972 -1466.920944963481
1973 -1466.955420988398
1974 -1466.921806298282
1975 -1466.961713852658
1976 -1466.927747860821
1977 -1466.964681718896
1978 -1466.928474974355
1979 -1466.963411537592
1980 -1466.929656587005
1981 -1466.962802270835
1982 -1466.927892256146
1983 -1466.959957373991
1984 -1466.921071174049
1985 -1466.957295147296
1986 -1466.917785890961
1987 -1466.957386296528
1988 -1466.919891027281
1989 -1466.961604092145
1990 -1466.923632487665
1991 -1466.957484601475
1992 -1466.924538813233
1993 -1466.954962524948
1994 -1466.926432249032
1995 -1466.96335393922
1996 -1466.934229006749
1997 -1466.968629807426
1998 -1466.932075221971
1999 -1466.963661387527
2000 -1466.929774420011
2001 -1466.959654140308
2002 -1466.925852878544
2003 -1466.957972138204
2004 -1466.931252133268
2005 -1466.964349291178
2006 -1466.924524645879
2007 -1466.949576280904
2008 -1466.917732101398
2009 -1466.947910678241
2010 -1466.914554811719
2011 -1466.947415814356
2012 -1466.915610422891
2013 -1466.949834043228
2014 -1466.921181027311
2015 -1466.95583917421
2016 -1466.925203451012
2017 -1466.959874599883
2018 -1466.926502141838
2019 -1466.964940739066
2020 -1466.932068916698
2021 -1466.968745826784
2022 -1466.934724069165
2023 -1466.962053873467
2024 -1466.928791678265
2025 -1466.95484339181
2026 -1466.919504411041
2027 -1466.951110070067
2028 -1466.917251787079
2029 -1466.950341350883
2030 -1466.913895748066
2031 -1466.950767691503
2032 -1466.916793698414
2033 -1466.958287257729
2034 -1466.923377466238
2035 -1466.961995158582
2036 -1466.93025130358
2037 -1466.970007825086
2038 -1466.926270087926
2039 -1466.963558554865
2040 -1466.919923076149
2041 -1466.958485165694
2042 -1466.912602501823
2043 -1466.952276930004
2044 -1466.913763108712
2045 -1466.950594026343
2046 -1466.921145842482
2047 -1466.958658303128
2048 -1466.924282615063
2049 -1466.962202749582
2050 -1466.92628822673
2051 -1466.967577579846
2052 -1466.933236235724
2053 -1466.97298664787
2054 -1466.933895873165
2055 -1466.967297420069
2056 -1466.935754448891
2057 -1466.96686839845
2058 -1466.929163584676
2059 -1466.958966717131
2060 -1466.924463749253
2061 -1466.955268219034
2062 -1466.91879419431
2063 -1466.953542974375
2064 -1466.92234399498
2065 -1466.956634330992
2066 -1466.924850889909
2067 -1466.957392813403
2068 -1466.928206131018
2069 -1466.961277124675
2070 -1466.925658588884
2071 -1466.957912704703
2072 -1466.923616216345
2073 -1466.955144260442
2074 -1466.923387133363
2075 -1466.955962608217
2076 -1466.926137101188
2077 -1466.960407032838
2078 -1466.924447441157
2079 -1466.958220686125
2080 -1466.928353528716
2081 -1466.964216396941
2082 -1466.929783102597
2083 -1466.964141242925
2084 -1466.934129792426
2085 -1466.972089906444
2086 -1466.936888241598
2087 -1466.97349347813
2088 -1466.940055808398
2089 -1466.967841210727
2090 -1466.927385098489
2091 -1466.960473966958
2092 -1466.921906176965
2093 -1466.958158937236
2094 -1466.914529262795
2095 -1466.950334170549
2096 -1466.915351354532
2097 -1466.959077791688
2098 -1466.9201597469
2099 -1466.959915502384
2100 -1466.921418808495
2101 -1466.962231255654
2102 -1466.920360115904
2103 -1466.960656717259
2104 -1466.921772491765
2105 -1466.967300662446
2106 -1466.929103084635
2107 -1466.971498926782
2108 -1466.93448875729
2109 -1466.967269649406
2110 -1466.925367373031
2111 -1466.961633521824
2112 -1466.925491347599
2113 -1466.956990020945
2114 -1466.91605940859
2115 -1466.949680523103
2116 -1466.912429483037
2117 -1466.946402002737
2118 -1466.908391295807
2119 -1466.946000487386
2120 -1466.915464502799
2121 -1466.949946591311
2122 -1466.916325803666
2123 -1466.955171065594
2124 -1466.924070780974
2125 -1466.960346693542
2126 -1466.926894427222
2127 -1466.964671257625
2128 -1466.931810161011
2129 -1466.962591111465
2130 -1466.931933735865
2131 -1466.960321273121
2132 -1466.925362538661
2133 -1466.957898291254
2134 -1466.920148477417
2135 -1466.957233962396
2136 -1466.92748174973
2137 -1466.969362336794
2138 -1466.937685111094
2139 -1466.970257626303
2140 -1466.936956021876
2141 -1466.973178397906
2142 -1466.932651943776
2143 -1466.967250950583
2144 -1466.932014306254
2145 -1466.965145103416
2146 -1466.922551120023
2147 -1466.955721149428
2148 -1466.922965983297
2149 -1466.958299416306
2150 -1466.921316331017
2151 -1466.957462689089
2152 -1466.921897288434
2153 -1466.952908683629
2154 -1466.917556831842
2155 -1466.952340692503
2156 -1466.920100144614
2157 -1466.953899080725
2158 -1466.921776785551
2159 -1466.9539034525
2160 -1466.930689822982
2161 -1466.95490982424
2162 -1466.925336923158
2163 -1466.957152599388
2164 -1466.930164600186
2165 -1466.962696802421
2166 -1466.928492537822
2167 -1466.96086267175
2168 -1466.927790937744
2169 -1466.964598883244
2170 -1466.933305279843
2171 -1466.963399490274
2172 -1466.928216378525
2173 -1466.962419197949
2174 -1466.926916985994
2175 -1466.960476795895
2176 -1466.932979677088
2177 -1466.964667155036
2178 -1466.934986753451
2179 -1466.964112936805
2180 -1466.933839255557
2181 -1466.964925454801
2182 -1466.930461587931
2183 -1466.961357278569
2184 -1466.926173116227
2185 -1466.963413231416
2186 -1466.922652569265
2187 -1466.963728609523
2188 -1466.923194636388
2189 -1466.964147961466
2190 -1466.921692184067
2191 -1466.962796005637
2192 -1466.92011507976
2193 -1466.960122013723
2194 -1466.921388141546
2195 -1466.963434316342
2196 -1466.923469200448
2197 -1466.967297341661
2198 -1466.924655188519
2199 -1466.965082219106
2200 -1466.926810005431
2201 -1466.970116576765
2202 -1466.927322393848
2203 -1466.971169472801
2204 -1466.931284981157
2205 -1466.970484704379
2206 -1466.922562386931
2207 -1466.963177310193
2208 -1466.918057010042
2209 -1466.957684571331
2210 -1466.914215448653
2211 -1466.954008826216
2212 -1466.922261043019
2213 -1466.961661863721
2214 -1466.924469915695
2215 -1466.962528299777
2216 -1466.92700501311
2217 -1466.962563711004
2218 -1466.927362233374
2219 -1466.962014032722
2220 -1466.927020622944
2221 -1466.95641141548
2222 -1466.91750076305
2223 -1466.947953210461
2224 -1466.914886608525
2225 -1466.943490983416
2226 -1466.91397837357
2227 -1466.94782785313
2228 -1466.926621974285
2229 -1466.961223736904
2230 -1466.930199215116
2231 -1466.964348742849
2232 -1466.935465954105
2233 -1466.967152782926
2234 -1466.930686842536
2235 -1466.963464461872
2236 -1466.925426296299
2237 -1466.960042662442
2238 -1466.92509580298
2239 -1466.956957963628
2240 -1466.922598862669
2241 -1466.954317617067
2242 -1466.917702582225
2243 -1466.953114524201
2244 -1466.922257375538
2245 -1466.960415403664
2246 -1466.925103989552
2247 -1466.964092285964
2248 -1466.935859586182
2249 -1466.96931312509
2250 -1466.932504632901
2251 -1466.9672713662
2252 -1466.926185694735
2253 -1466.96723468996
2254 -1466.918723708404
2255 -1466.955642989487
2256 -1466.912565989851
2257 -1466.953639813508
2258 -1466.913079836477
2259 -1466.952767960473
2260 -1466.914004546586
2261 -1466.955494844455
2262 -1466.916378484654
2263 -1466.951595657474
2264 -1466.915572926464
2265 -1466.952340707149
2266 -1466.918061032682
2267 -1466.95317782591
2268 -1466.91943515179
2269 -1466.952743378829
2270 -1466.918281092582
2271 -1466.95367928069
2272 -1466.923453286073
2273 -1466.963630640374
2274 -1466.926283683433
2275 -1466.964981635007
2276 -1466.934308206104
2277 -1466.972408868804
2278 -1466.935553112331
2279 -1466.969449817126
2280 -1466.938812375388
2281 -1466.966590561797
2282 -1466.926470033283
2283 -1466.957776942882
2284 -1466.921750244179
2285 -1466.955512985174
2286 -1466.920940472085
2287 -1466.955098411907
2288 -1466.922318557128
2289 -1466.953798578664
2290 -1466.926412197099
2291 -1466.957051325704
2292 -1466.926175614653
2293 -1466.958595409203
2294 -1466.92451807232
2295 -1466.956538480625
2296 -1466.924475260406
2297 -1466.956467010328
2298 -1466.930883219373
2299 -1466.959466994268
2300 -1466.925934925855
2301 -1466.958402853059
2302 -1466.926095462683
2303 -1466.960496823664
2304 -1466.933652164214
2305 -1466.96642675784
2306 -1466.932921014151
2307 -1466.965926972353
2308 -1466.932569887729
2309 -1466.966130395489
2310 -1466.930293909289
2311 -1466.959941737461
2312 -1466.929496583407
2313 -1466.95715951212
2314 -1466.923605656729
2315 -1466.954046145002
2316 -1466.923048834215
2317 -1466.958917880593
2318 -1466.920784067535
2319 -1466.961180602782
2320 -1466.921488159616
2321 -1466.960280487986
2322 -1466.921852621246
2323 -1466.95810780219
2324 -1466.920036133088
2325 -1466.958931952077
2326 -1466.917372699485
2327 -1466.955041153851
2328 -1466.923772338223
2329 -1466.95833172007
2330 -1466.92436025191
2331 -1466.95964638599
2332 -1466.925851837856
2333 -1466.962511123265
2334 -1466.924085145132
2335 -1466.957826047157
2336 -1466.921669963224
2337 -1466.956070953963
2338 -1466.916337258086
2339 -1466.959132432294
2340 -1466.920790154273
2341 -1466.959890594286
2342 -1466.920313393339
2343 -1466.959105140761
2344 -1466.92380583306
2345 -1466.961631163708
2346 -1466.918731154138
2347 -1466.957310357408
2348 -1466.920730803313
2349 -1466.963959602451
2350 -1466.922492101442
2351 -1466.961333371974
2352 -1466.918683519043
2353 -1466.95702673582
2354 -1466.919582566907
2355 -1466.958629777575
2356 -1466.920738952152
2357 -1466.961428562855
2358 -1466.920803533009
2359 -1466.964950966161
2360 -1466.925935284022
2361 -1466.964028062371
2362 -1466.930329312863
2363 -1466.965793445117
2364 -1466.929577739452
2365 -1466.9665222034
2366 -1466.932217287391
2367 -1466.967854307564
2368 -1466.929992454277
2369 -1466.963158885644
2370 -1466.9215959719
2371 -1466.957662469554
2372 -1466.917954171847
2373 -1466.952709760101
2374 -1466.911998378116
2375 -1466.948609306732
2376 -1466.917761337726
2377 -1466.951917507568
2378 -1466.91997679788
2379 -1466.952454103488
2380 -1466.926919671138
2381 -1466.965886752783
2382 -1466.938212495291
2383 -1466.971933666515
2384 -1466.941300142728
2385 -1466.970038355759
2386 -1466.939602829821
2387 -1466.965998295869
2388 -1466.931779363066
2389 -1466.959852225772
2390 -1466.923035721807
2391 -1466.955847138748
2392 -1466.926945932694
2393 -1466.958289880416
2394 -1466.924850755307
2395 -1466.963036725194
2396 -1466.932849490618
2397 -1466.966836381285
2398 -1466.930569008397
2399 -1466.965199403415
2400 -1466.930663751881
2401 -1466.963025141919
2402 -1466.927535762861
2403 -1466.961227392638
2404 -1466.933668384258
2405 -1466.964887751899
2406 -1466.929892881664
2407 -1466.961797004481
2408 -1466.929326439197
2409 -1466.963249636311
2410 -1466.930546281889
2411 -1466.965757272346
2412 -1466.935751907899
2413 -1466.96726088825
2414 -1466.93409400154
2415 -1466.963746147907
2416 -1466.927259928575
2417 -1466.958006312769
2418 -1466.925342043224
2419 -1466.956744786212
2420 -1466.924930281753
2421 -1466.959885285851
2422 -1466.924743978936
2423 -1466.96127757119
2424 -1466.926914394176
2425 -1466.965351873703
2426 -1466.927801519393
2427 -1466.968577234743
2428 -1466.933422188344
2429 -1466.972375619232
2430 -1466.932248774028
2431 -1466.970640120941
2432 -1466.929964324149
2433 -1466.967102010045
2434 -1466.923548352379
2435 -1466.961550442685
2436 -1466.92438609393
2437 -1466.96170220015
2438 -1466.921984864646
2439 -1466.957620757569
2440 -1466.919929440649
2441 -1466.955954418568
2442 -1466.923988414888
2443 -1466.959679535534
2444 -1466.931145947023
2445 -1466.963860648155
2446 -1466.928025385756
2447 -1466.9621418833
2448 -1466.927815984891
2449 -1466.962395888752
2450 -1466.928029882992
2451 -1466.964346724769
2452 -1466.926132163129
2453 -1466.966033296583
2454 -1466.925744246469
2455 -1466.968154101594
2456 -1466.930398170634
2457 -1466.968525240302
2458 -1466.931613998436
2459 -1466.96527147594
2460 -1466.931806655959
2461 -1466.963139612694
2462 -1466.925355321974
2463 -1466.953595720265
2464 -1466.922100007406
2465 -1466.94835542378
2466 -1466.918967992258
2467 -1466.946702269055
2468 -1466.921592563904
2469 -1466.953187641423
2470 -1466.92471921062
2471 -1466.961761584651
2472 -1466.935027532233
2473 -1466.968246588541
2474 -1466.93367369119
2475 -1466.967260789114
2476 -1466.931336002295
2477 -1466.967527640056
2478 -1466.932189211458
2479 -1466.969231361901
2480 -1466.934351416222
2481 -1466.96726295006
2482 -1466.936284203858
2483 -1466.973355332138
2484 -1466.937374428322
2485 -1466.971111375425
2486 -1466.929445856822
2487 -1466.964670074682
2488 -1466.925712620932
2489 -1466.964126243804
2490 -1466.922065141699
2491 -1466.959666173715
2492 -1466.925608142354
2493 -1466.962124019004
2494 -1466.925702712737
2495 -1466.961994293389
2496 -1466.92778107541
2497 -1466.969094083288
2498 -1466.930477452996
2499 -1466.968001636255
2500 -1466.933723486024
2501 -1466.969051056183
2502 -1466.928453601753
2503 -1466.965613317749
2504 -1466.930902007331
2505 -1466.968795874564
2506 -1466.929946061928
2507 -1466.967023247499
2508 -1466.930102332247
2509 -1466.964188357721
2510 -1466.927418237707
2511 -1466.963029157855
2512 -1466.926983830446
2513 -1466.961976769371
2514 -1466.930352985909
2515 -1466.96830756006
2516 -1466.931370810295
2517 -1466.968173355709
2518 -1466.924098976198
2519 -1466.962437369984
2520 -1466.923742945757
2521 -1466.962564981159
2522 -1466.922256042496
2523 -1466.958596595967
2524 -1466.927180025913
2525 -1466.963465312629
2526 -1466.925887873917
2527 -1466.959867332711
2528 -1466.923266480891
2529 -1466.956802652166
2530 -1466.92392757034
2531 -1466.960407028373
2532 -1466.93494350693
2533 -1466.964750873076
2534 -1466.93170597996
2535 -1466.965803806471
2536 -1466.934737444166
2537 -1466.966472737394
2538 -1466.92807237025
2539 -1466.963167130942
2540 -1466.929873906219
2541 -1466.96863393841
2542 -1466.931665120413
2543 -1466.970568756354
2544 -1466.934621846725
2545 -1466.967696456262
2546 -1466.933056913771
2547 -1466.961935253205
2548 -1466.928459631662
2549 -1466.962032037372
2550 -1466.922512808762
2551 -1466.95359815614
2552 -1466.920284774124
2553 -1466.953928201327
2554 -1466.916919919801
2555 -1466.951863195578
2556 -1466.924325587004
2557 -1466.95886960216
2558 -1466.928703236578
2559 -1466.967589078386
2560 -1466.936739767698
2561 -1466.97888628173
2562 -1466.946018631761
2563 -1466.979874383126
2564 -1466.949145218252
2565 -1466.977562509571
2566 -1466.939596618195
2567 -1466.965338027486
2568 -1466.930979830408
2569 -1466.957772756303
2570 -1466.924929905573
2571 -1466.956784737806
2572 -1466.924139562182
2573 -1466.95925349578
2574 -1466.92568594895
2575 -1466.961189847489
2576 -1466.930858970877
2577 -1466.960133495491
2578 -1466.930434555937
2579 -1466.959259317782
2580 -1466.92661696535
2581 -1466.960284465976
2582 -1466.921337751118
2583 -1466.954151886734
2584 -1466.919396087903
2585 -1466.9575189941
2586 -1466.922815716908
2587 -1466.963383388324
2588 -1466.933768984775
2589 -1466.971197020565
2590 -1466.932704450865
2591 -1466.96975108527
2592 -1466.930946175728
2593 -1466.969873306247
2594 -1466.930141571035
2595 -1466.967919624992
2596 -1466.930548663637
2597 -1466.963471568296
2598 -1466.931064371642
2599 -1466.958145872643
2600 -1466.927410562128
2601 -1466.960553162778
2602 -1466.925522478472
2603 -1466.962448416943
2604 -1466.932581603549
2605 -1466.971407496558
2606 -1466.939805821112
2607 -1466.974661272246
2608 -1466.940886445964
2609 -1466.972990912882
2610 -1466.934025914053
2611 -1466.96875893696
2612 -1466.936981419461
2613 -1466.971322453781
2614 -1466.93082480447
2615 -1466.962637561546
2616 -1466.927250697688
2617 -1466.96027043831
2618 -1466.92524308454
2619 -1466.959253399373
2620 -1466.927217855396
2621 -1466.963464517713
2622 -1466.922688890923
2623 -1466.957664009046
2624 -1466.923775338899
2625 -1466.96408701307
2626 -1466.922945268654
2627 -1466.961001383414
2628 -1466.927873366881
2629 -1466.96371225366
2630 -1466.933110175341
2631 -1466.962609624757
2632 -1466.930848843207
2633 -1466.963246177964
2634 -1466.929243216368
2635 -1466.964717824512
2636 -1466.934936258231
2637 -1466.973189478658
2638 -1466.941089291308
2639 -1466.975846285815
2640 -1466.942180896383
2641 -1466.972237467229
2642 -1466.935053928403
2643 -1466.967441225842
2644 -1466.926761334491
2645 -1466.960883765946
2646 -1466.91681395825
2647 -1466.956868353612
2648 -1466.917798913131
2649 -1466.954180111725
2650 -1466.917891138705
2651 -1466.958682101155
2652 -1466.927753436764
2653 -1466.968884707422
2654 -1466.930318968497
2655 -1466.971818862399
2656 -1466.933361488201
2657 -1466.971259457781
2658 -1466.927845167798
2659 -1466.96638440418
2660 -1466.929243716198
2661 -1466.961812738596
2662 -1466.931449942629
2663 -1466.958716768993
2664 -1466.924364477028
2665 -1466.956552568714
2666 -1466.918474476921
2667 -1466.954135420388
2668 -1466.920589458073
2669 -1466.964768362522
2670 -1466.92953201867
2671 -1466.968516913482
2672 -1466.928367415547
2673 -1466.964990425048
2674 -1466.924339207956
2675 -1466.963563904837
2676 -1466.927888128986
2677 -1466.968286601574
2678 -1466.931292085665
2679 -1466.973585289795
2680 -1466.938589748484
2681 -1466.973436514025
2682 -1466.933231337179
2683 -1466.96590935035
2684 -1466.932345233798
2685 -1466.964736550087
2686 -1466.921953237587
2687 -1466.955065536308
2688 -1466.919821469443
2689 -1466.958359327646
2690 -1466.926145204202
2691 -1466.962615629074
2692 -1466.931731211355
2693 -1466.9687705745
2694 -1466.936965570522
2695 -1466.970459536908
2696 -1466.93772439685
2697 -1466.973288237403
2698 -1466.936744570682
2699 -1466.971263337839
2700 -1466.937224359646
2701 -1466.971731032435
2702 -1466.935264733465
2703 -1466.967766055066
2704 -1466.936589559374
2705 -1466.964044906915
2706 -1466.930036665083
2707 -1466.961764831625
2708 -1466.929861713584
2709 -1466.966098386627
2710 -1466.932016197845
2711 -1466.964476636422
2712 -1466.933115317652
2713 -1466.963467793877
2714 -1466.93476871448
2715 -1466.959143749478
2716 -1466.928045505737
2717 -1466.956665990278
2718 -1466.92080619041
2719 -1466.952568974047
2720 -1466.921120109239
2721 -1466.954293602487
2722 -1466.924983505838
2723 -1466.962079944186
2724 -1466.932171945971
2725 -1466.96973330222
2726 -1466.936611134629
2727 -1466.972029892983
2728 -1466.945803544502
2729 -1466.98022101297
2730 -1466.946401123027
2731 -1466.974309057005
2732 -1466.940617977937
2733 -1466.969778625598
2734 -1466.935190726893
2735 -1466.96575243359
2736 -1466.931988837367
2737 -1466.960988442102
2738 -1466.919912440314
2739 -1466.959877530513
2740 -1466.920946921522
2741 -1466.963635139893
2742 -1466.926490921256
2743 -1466.968640750252
2744 -1466.934098251223
2745 -1466.97454983128
2746 -1466.938722767042
2747 -1466.973642946782
2748 -1466.936766415179
2749 -1466.968940430384
2750 -1466.929085678238
2751 -1466.960798866876
2752 -1466.929155237852
