"mz-rfile"
"Iteration" "mz"
("Iteration" "mz")
1 -22305.99274414031
2 -21758.34236271359
3 -19328.06545703737
4 -16836.55148939791
5 -14556.13264746652
6 -12060.27225554315
7 -9642.770094350759
8 -7276.657524692943
9 -4803.104689526211
10 -2574.907037795449
11 -1071.792169146595
12 63.45944359263618
13 839.0548279967286
14 1232.393613596414
15 1394.997133732157
16 1352.474638328563
17 1174.641562902337
18 895.5411265780526
19 537.8764621774455
20 53.63063494040903
21 -526.5681400242349
22 -1085.111971033852
23 -1603.643608035938
24 -2071.823481805984
25 -2464.495002794327
26 -2741.047847395714
27 -2969.014242000952
28 -3122.558888889925
29 -3244.463279175725
30 -3319.726355610768
31 -3375.738617724016
32 -3414.566808548159
33 -3437.964441590037
34 -3452.819192026507
35 -3454.920537097483
36 -3445.817028440546
37 -3430.170816008231
38 -3409.855358925547
39 -3387.316739154799
40 -3368.295097071121
41 -3348.735634004686
42 -3335.512353998725
43 -3322.963648148169
44 -3312.92944631882
45 -3304.941677977271
46 -3299.866397682449
47 -3297.607846542533
48 -3298.374509735146
49 -3301.962169126024
50 -3308.449826700156
51 -3317.211086753717
52 -3328.150888821755
53 -3340.880968038739
54 -3354.969226953206
55 -3370.295473493818
56 -3386.373405221256
57 -3397.572899681114
58 -3415.1970969723
59 -3426.947564553983
60 -3439.231717217707
61 -3457.498708747751
62 -3469.285103248787
63 -3485.793625864772
64 -3496.196543449612
65 -3510.503002452595
66 -3519.201239795277
67 -3530.421349891039
68 -3537.112706956626
69 -3545.396657070537
70 -3549.983071525274
71 -3555.12886669168
72 -3557.716163500136
73 -3559.427478219004
74 -3561.004035540366
75 -3561.113582347816
76 -3560.670752388849
77 -3559.18528157002
78 -3557.74699059332
79 -3555.780623520831
80 -3553.383198336601
81 -3550.642054239508
82 -3546.282553144184
83 -3543.380135270057
84 -3540.179694940844
85 -3536.854707641983
86 -3533.467380554926
87 -3530.000253134826
88 -3526.481331664847
89 -3523.144117827042
90 -3519.905040472968
91 -3516.696965086189
92 -3513.564815096064
93 -3510.492039251863
94 -3507.522158120051
95 -3504.695897929006
96 -3501.841854851187
97 -3498.99555169823
98 -3496.266045179965
99 -3493.672382789736
100 -3491.059424320405
101 -3488.500866449954
102 -3485.886950221564
103 -3483.316022916913
104 -3480.728214803121
105 -3478.100941810549
106 -3475.371112754226
107 -3472.752284544698
108 -3470.078898995723
109 -3467.323254919343
110 -3464.540274561436
111 -3461.728597854943
112 -3458.779852625082
113 -3455.740952904287
114 -3452.728145210539
115 -3449.770450434404
116 -3446.681131351661
117 -3443.57123352597
118 -3440.451204570539
119 -3437.23185934937
120 -3434.018442234525
121 -3430.736425290679
122 -3427.588163756226
123 -3423.006128371271
124 -3419.954052570557
125 -3416.89381992898
126 -3413.74482901559
127 -3410.708092233458
128 -3407.591850472841
129 -3403.083143385755
130 -3400.254188217426
131 -3397.437254105931
132 -3394.637975729742
133 -3391.917690630581
134 -3387.94978928964
135 -3385.493483589603
136 -3383.067921935141
137 -3380.635619116536
138 -3377.198040859952
139 -3375.021859208318
140 -3372.847086992777
141 -3369.727128973141
142 -3367.750424422318
143 -3365.758362534335
144 -3362.930721278304
145 -3361.141861034977
146 -3359.384342194271
147 -3356.809437587212
148 -3355.178769922711
149 -3352.821875326396
150 -3351.363488335795
151 -3349.277169256687
152 -3347.937022802426
153 -3345.968728362117
154 -3344.646963122534
155 -3342.824822468833
156 -3341.672408014695
157 -3340.023816523797
158 -3338.929206624705
159 -3337.325433179202
160 -3336.240222987061
161 -3334.573040131887
162 -3333.612343561635
163 -3332.14689480378
164 -3330.528056232927
165 -3329.443870934888
166 -3327.954212350702
167 -3326.489885029549
168 -3325.511789846453
169 -3323.919110357616
170 -3322.442705958479
171 -3321.2886286619
172 -3319.599408968378
173 -3317.917440897531
174 -3316.204068118417
175 -3314.972967543756
176 -3313.1843077566
177 -3311.345641284421
178 -3309.526600926994
179 -3307.679446691832
180 -3305.799603277304
181 -3303.975900880297
182 -3302.081638822646
183 -3300.217333121806
184 -3298.346023957179
185 -3296.540095459985
186 -3294.791024972803
187 -3293.008017806247
188 -3291.288957872348
189 -3289.727368231728
190 -3288.12194834536
191 -3286.613469146683
192 -3285.056598015015
193 -3283.584243059028
194 -3282.179012975628
195 -3280.784334357999
196 -3279.483829784115
197 -3278.22703641323
198 -3277.055010778263
199 -3275.86378398623
200 -3274.799772269052
201 -3273.811579607314
202 -3272.887770818184
203 -3272.188128296894
204 -3271.549482162613
205 -3270.928160529351
206 -3270.382763910643
207 -3270.052931449415
208 -3269.731515322068
209 -3269.516403276676
210 -3269.490935116634
211 -3269.506820331251
212 -3269.606826741568
213 -3269.906097929707
214 -3270.454605517152
215 -3271.143234560023
216 -3272.099290273221
217 -3273.227479888518
218 -3274.569183947813
219 -3275.991618215176
220 -3277.635989451952
221 -3279.420032831064
222 -3281.434655334887
223 -3283.523340684456
224 -3285.845274591806
225 -3288.246429047784
226 -3290.146075604681
227 -3293.19786172572
228 -3296.365080620363
229 -3299.752354361309
230 -3303.241329496748
231 -3306.916414936597
232 -3310.69103027551
233 -3314.639375810232
234 -3318.68539044321
235 -3322.826609659203
236 -3327.160986776232
237 -3331.731686835523
238 -3336.465837777168
239 -3341.177637772299
240 -3346.197813189801
241 -3351.06148488289
242 -3356.10954078319
243 -3361.255859350239
244 -3366.440022783867
245 -3371.765084216609
246 -3377.226369080043
247 -3382.679673485342
248 -3388.170223062692
249 -3393.85410239096
250 -3399.523136119549
251 -3405.245542486831
252 -3410.970965853935
253 -3416.792251822265
254 -3422.438862763541
255 -3428.123482751064
256 -3433.851424582841
257 -3439.618989552212
258 -3445.357184205549
259 -3451.311546787888
260 -3457.084654457811
261 -3462.942890971488
262 -3468.854172361548
263 -3474.721857174129
264 -3480.661349789844
265 -3486.45106272595
266 -3492.478049154362
267 -3498.379541743278
268 -3504.341064552878
269 -3510.360845603635
270 -3516.330737272341
271 -3522.365759097162
272 -3528.156251224502
273 -3534.04681012748
274 -3539.86723397309
275 -3545.534169211733
276 -3551.190267655832
277 -3556.856936967934
278 -3562.373009826455
279 -3568.004338629095
280 -3573.535279389129
281 -3579.09937192493
282 -3584.664651922118
283 -3590.168970808301
284 -3595.567003975581
285 -3600.939475100263
286 -3606.251680299413
287 -3611.561178121573
288 -3616.859804009648
289 -3622.215521563146
290 -3627.458444475569
291 -3632.555715528468
292 -3637.664804790681
293 -3642.82060197701
294 -3647.912356748868
295 -3652.973765007848
296 -3657.821256352138
297 -3662.582788644489
298 -3667.516211244816
299 -3672.354740166597
300 -3677.019987640238
301 -3681.501384759826
302 -3685.859612099284
303 -3688.643105027499
304 -3692.709391053164
305 -3696.892647175519
306 -3700.817999207258
307 -3703.281356410129
308 -3706.824869192973
309 -3710.028711277436
310 -3712.036274642689
311 -3714.86123505366
312 -3716.631041056293
313 -3719.057471377509
314 -3720.461562741802
315 -3722.162882011812
316 -3723.163300687994
317 -3724.338942015715
318 -3724.986297056893
319 -3725.6022931834
320 -3725.717406459499
321 -3725.54037648958
322 -3725.193730462083
323 -3724.559789282319
324 -3723.335223586597
325 -3722.254668246351
326 -3720.929695192168
327 -3718.626216702897
328 -3716.95327508755
329 -3714.947639510816
330 -3712.673341225011
331 -3708.919615828929
332 -3706.290530898145
333 -3703.421487553713
334 -3698.971665903598
335 -3695.895922529182
336 -3692.552302197717
337 -3687.477497921588
338 -3683.953068874204
339 -3678.347115483835
340 -3674.613709753247
341 -3668.845814873982
342 -3664.821844581895
343 -3658.695969213813
344 -3654.563651297255
345 -3648.316326932908
346 -3644.117239451822
347 -3637.749946339884
348 -3631.380914713891
349 -3627.129649843413
350 -3620.630472099888
351 -3614.318024196143
352 -3608.071328555246
353 -3604.019266602604
354 -3597.748836513578
355 -3591.769475148293
356 -3585.910935375486
357 -3582.01763601928
358 -3576.15845662197
359 -3570.477523282768
360 -3564.863618538152
361 -3561.211007464421
362 -3555.69266964717
363 -3550.439144205581
364 -3546.83758091413
365 -3541.610663530745
366 -3536.461447678287
367 -3533.082396669244
368 -3528.010472230402
369 -3524.702025309571
370 -3519.695828131275
371 -3516.42716393749
372 -3511.497669863862
373 -3508.338049009062
374 -3503.490829351594
375 -3500.344189353719
376 -3495.622942606069
377 -3492.618467390416
378 -3488.125670663918
379 -3485.193945366337
380 -3482.203438552154
381 -3477.916910430652
382 -3475.072448573239
383 -3472.263966346765
384 -3469.435977119596
385 -3466.603585710688
386 -3463.764981890156
387 -3460.906035426622
388 -3457.978090749131
389 -3455.122981163337
390 -3452.242059379284
391 -3449.407121565677
392 -3446.489877355959
393 -3443.646655977486
394 -3440.713511871867
395 -3437.867412721325
396 -3434.972923693091
397 -3432.13597026779
398 -3429.27030900845
399 -3426.459050440487
400 -3423.680838597755
401 -3420.962109934686
402 -3418.243997605556
403 -3415.633066286325
404 -3413.023763650238
405 -3410.475093612675
406 -3407.913852441746
407 -3405.356175525944
408 -3402.83316937475
409 -3400.317448067254
410 -3397.884199080102
411 -3395.46623208864
412 -3392.999002688777
413 -3390.606434408213
414 -3388.247662434214
415 -3385.871217955285
416 -3383.507614419213
417 -3381.18420471507
418 -3378.940098347629
419 -3376.653327671834
420 -3374.38013194141
421 -3372.047643076242
422 -3369.743427757559
423 -3367.475128190932
424 -3365.227023726672
425 -3362.979219885137
426 -3360.778110565447
427 -3358.573057486715
428 -3356.348097189628
429 -3354.183617837771
430 -3351.996868860681
431 -3349.8591917503
432 -3347.690007453379
433 -3345.533722786322
434 -3343.436367532466
435 -3341.352041134447
436 -3339.282720425545
437 -3337.253987271764
438 -3335.296827649914
439 -3333.333539432204
440 -3331.42013727083
441 -3329.558106373572
442 -3327.700643621469
443 -3325.889312477739
444 -3324.17990302347
445 -3322.483299081062
446 -3320.844352043859
447 -3319.232483708167
448 -3317.669455314716
449 -3316.148215637994
450 -3314.716772274926
451 -3313.362818195221
452 -3312.067704286766
453 -3310.855992295162
454 -3309.667970192276
455 -3308.582919291292
456 -3307.573748289509
457 -3306.588915815064
458 -3305.668796218268
459 -3304.814112657762
460 -3304.032672442087
461 -3303.296175918581
462 -3302.654323760673
463 -3302.074059026234
464 -3301.584048891494
465 -3301.128563111468
466 -3300.734372457751
467 -3300.403565431932
468 -3300.135842443221
469 -3299.916591387132
470 -3299.802773604358
471 -3299.708913572308
472 -3299.62103486755
473 -3299.563710859835
474 -3299.607625052422
475 -3299.645691441714
476 -3299.776285022837
477 -3299.924043089372
478 -3300.131015946316
479 -3300.376409151347
480 -3300.568529939271
481 -3300.753528320334
482 -3300.989355327441
483 -3301.298619435899
484 -3301.575391317951
485 -3301.787551713275
486 -3302.040933114868
487 -3302.231995736083
488 -3302.438495807109
489 -3302.681309884198
490 -3302.887477115421
491 -3303.05621650081
492 -3303.196943772333
493 -3303.292663671819
494 -3303.413524909711
495 -3303.43715915785
496 -3303.425159017094
497 -3303.369043055071
498 -3303.219111785579
499 -3303.076453545408
500 -3302.886410842651
501 -3302.714475428334
502 -3302.422329295636
503 -3302.098520234525
504 -3301.720443552908
505 -3301.316574259147
506 -3300.89050860678
507 -3300.483450995409
508 -3300.107833456153
509 -3299.656300079293
510 -3299.143400558221
511 -3298.594630321589
512 -3297.99283668456
513 -3297.388434988296
514 -3296.806964829122
515 -3296.195720149511
516 -3295.541458061835
517 -3294.88315993864
518 -3294.193841232775
519 -3293.517280518602
520 -3292.843279357976
521 -3292.236341498767
522 -3291.563871904985
523 -3290.9352926622
524 -3290.351278052582
525 -3289.747561713065
526 -3289.168852843519
527 -3288.692061161711
528 -3288.176936646737
529 -3287.732442085952
530 -3287.336157564085
531 -3286.975202665549
532 -3286.69791684935
533 -3286.477350612191
534 -3286.265121379289
535 -3286.122743203133
536 -3286.055582900121
537 -3286.124464394936
538 -3286.206887525784
539 -3286.316566411096
540 -3286.505876413644
541 -3286.776527678204
542 -3287.086086838014
543 -3287.520714327976
544 -3287.95511877941
545 -3288.464582359833
546 -3289.015741407974
547 -3289.608540337636
548 -3290.210136605529
549 -3290.879438246541
550 -3291.518921282722
551 -3292.186500964112
552 -3292.863037037708
553 -3293.538438553381
554 -3294.186713196033
555 -3294.86630532761
556 -3295.460079233319
557 -3296.115762404197
558 -3296.660908190181
559 -3297.209946217794
560 -3297.690993450467
561 -3298.167748107224
562 -3298.565934828394
563 -3298.912930315261
564 -3299.188242851532
565 -3299.426765560846
566 -3299.606046706679
567 -3299.724360416748
568 -3299.755292509152
569 -3299.717145899871
570 -3299.624208712315
571 -3299.438678703831
572 -3299.206250690415
573 -3298.904225426294
574 -3298.561828190389
575 -3298.150527630013
576 -3297.674701401723
577 -3297.124781500908
578 -3296.534246143262
579 -3295.937638068885
580 -3295.327351758601
581 -3294.682620971533
582 -3293.968943884181
583 -3293.264007289869
584 -3292.570445614434
585 -3291.850579822975
586 -3291.141254249162
587 -3290.455389376238
588 -3289.788361840851
589 -3289.195005725762
590 -3288.636569185857
591 -3288.119368644964
592 -3287.63102504775
593 -3287.268361121193
594 -3286.950898477372
595 -3286.688102913116
596 -3286.491169654932
597 -3286.389800232814
598 -3286.346769006603
599 -3286.416486275816
600 -3286.522296921902
601 -3286.724429403653
602 -3286.932988872172
603 -3287.268730195302
604 -3287.624387507839
605 -3288.034681475552
606 -3288.52005151402
607 -3289.051036799261
608 -3289.58491353477
609 -3290.17173778791
610 -3290.797029490002
611 -3291.439374460838
612 -3292.084475420669
613 -3292.79757175178
614 -3293.509750762744
615 -3294.212823845448
616 -3294.869548032642
617 -3295.539388579896
618 -3296.164080432944
619 -3296.791655172336
620 -3297.398602771461
621 -3297.926360874137
622 -3298.43469419213
623 -3298.919470086171
624 -3299.331867718716
625 -3299.686727677038
626 -3299.990995261296
627 -3300.231034887486
628 -3300.421143667926
629 -3300.532347944533
630 -3300.603841468176
631 -3300.616020705244
632 -3300.549536238718
633 -3300.41501500759
634 -3300.204451826783
635 -3299.952922254938
636 -3299.610403629385
637 -3299.183836243728
638 -3298.712385744449
639 -3298.142198047898
640 -3297.549745531346
641 -3296.881178875958
642 -3296.19416418053
643 -3295.482613760208
644 -3294.661832876362
645 -3293.862422565941
646 -3293.010283211923
647 -3292.17608465849
648 -3291.261095888897
649 -3290.360744574803
650 -3289.459172848402
651 -3288.550556799212
652 -3287.605636144197
653 -3286.713879587921
654 -3285.79918707378
655 -3284.938680473949
656 -3284.07235203039
657 -3283.299604051627
658 -3282.50805652893
659 -3281.77669972704
660 -3281.067400936601
661 -3280.416461479947
662 -3279.808730142141
663 -3279.24714874965
664 -3278.685793172113
665 -3278.21911469419
666 -3277.75118822348
667 -3277.385478263972
668 -3277.055693468487
669 -3276.78632699681
670 -3276.562337744906
671 -3276.410367773507
672 -3276.338118284893
673 -3276.31188780265
674 -3276.288475081636
675 -3276.320639906549
676 -3276.385250396098
677 -3276.492808411596
678 -3276.607918620234
679 -3276.820612749678
680 -3277.042681463362
681 -3277.300373025004
682 -3277.607755085737
683 -3277.915231973534
684 -3278.228822324053
685 -3278.556637277364
686 -3278.899747272821
687 -3279.263521328915
688 -3279.584566965205
689 -3279.950603999203
690 -3280.330502180759
691 -3280.713640010637
692 -3281.091056400416
693 -3281.442312404781
694 -3281.79423055786
695 -3282.116722785428
696 -3282.442656144851
697 -3282.739703668742
698 -3282.994865156335
699 -3283.234968373964
700 -3283.463419945384
701 -3283.666690036369
702 -3283.824150268562
703 -3283.942109604304
704 -3284.01445648768
705 -3284.075014700255
706 -3284.094781769944
707 -3284.065285476448
708 -3283.99790517191
709 -3283.878871812116
710 -3283.716740816636
711 -3283.531111388061
712 -3283.299296590692
713 -3283.016309688778
714 -3282.724899935906
715 -3282.412985512755
716 -3282.087301933122
717 -3281.699119150571
718 -3281.323204803014
719 -3280.952177550666
720 -3280.515031187154
721 -3280.078971278183
722 -3279.667784083219
723 -3279.248826589091
724 -3278.832228142188
725 -3278.412488890316
726 -3277.960454815878
727 -3277.547039735264
728 -3277.157221487662
729 -3276.79874881433
730 -3276.466305346109
731 -3276.198292250913
732 -3275.950000178961
733 -3275.730285849721
734 -3275.534381143275
735 -3275.37000831717
736 -3275.241999294918
737 -3275.133032659343
738 -3275.087236464478
739 -3275.119173872067
740 -3275.18496694432
741 -3275.29712092855
742 -3275.463617914961
743 -3275.63912485938
744 -3275.877934732601
745 -3276.178969965375
746 -3276.552217488895
747 -3276.933936117352
748 -3277.339112195309
749 -3277.777200511494
750 -3278.294364675904
751 -3278.846131907949
752 -3279.459161481428
753 -3280.111356707548
754 -3280.741728631747
755 -3281.433616448036
756 -3282.079290508562
757 -3282.742406294899
758 -3283.415184152682
759 -3284.10827501443
760 -3284.811327200575
761 -3285.503728118269
762 -3286.150258835055
763 -3286.848927890864
764 -3287.522300626385
765 -3288.171970451188
766 -3288.763787829083
767 -3289.373377039828
768 -3289.925770332398
769 -3290.494725731138
770 -3291.017407190697
771 -3291.543400191312
772 -3292.033615423986
773 -3292.495747447445
774 -3292.915548112255
775 -3293.337498525152
776 -3293.697570306726
777 -3294.084292824808
778 -3294.419346264513
779 -3294.747998647149
780 -3295.01595421694
781 -3295.284385072295
782 -3295.5164634644
783 -3295.748208976323
784 -3295.949634230349
785 -3296.168441302098
786 -3296.348461226335
787 -3296.557652510293
788 -3296.726836906863
789 -3296.911834828171
790 -3297.05262583676
791 -3297.191857427491
792 -3297.285797413233
793 -3297.379163948679
794 -3297.46501229818
795 -3297.567835189067
796 -3297.619668004618
797 -3297.702504180172
798 -3297.80496791049
799 -3297.910030586303
800 -3298.005149544833
801 -3298.058016105637
802 -3298.113116497002
803 -3298.152478833337
804 -3298.227204203646
805 -3298.262551439186
806 -3298.338892748068
807 -3298.368373102932
808 -3298.364506867507
809 -3298.340729995511
810 -3298.299821952038
811 -3298.261773006456
812 -3298.203752008248
813 -3298.148821334049
814 -3298.092470752071
815 -3298.012000603367
816 -3297.898435238483
817 -3297.793249449584
818 -3297.709150428004
819 -3297.620672362732
820 -3297.50406526392
821 -3297.330065994514
822 -3297.153027732225
823 -3296.977478478922
824 -3296.796878352808
825 -3296.653153079638
826 -3296.510840381731
827 -3296.362093464269
828 -3296.204914516357
829 -3296.078208494956
830 -3295.941560228398
831 -3295.816697975417
832 -3295.715335697583
833 -3295.691990950148
834 -3295.690357976249
835 -3295.69764042312
836 -3295.754934093407
837 -3295.791180111311
838 -3295.920740399207
839 -3296.056363057482
840 -3296.211368960115
841 -3296.414636086139
842 -3296.628036267292
843 -3296.878044442665
844 -3297.142739172518
845 -3297.515970418891
846 -3297.859435104678
847 -3298.167022413164
848 -3298.546840645639
849 -3298.982435138225
850 -3299.426780981944
851 -3299.900880366997
852 -3300.41062397646
853 -3300.869268344743
854 -3301.345253187283
855 -3301.765445690944
856 -3302.205537191938
857 -3302.649535807813
858 -3303.109697752425
859 -3303.53543717036
860 -3303.940645278936
861 -3304.30284485542
862 -3304.640163177284
863 -3304.916937081226
864 -3305.200268873659
865 -3305.451542546002
866 -3305.674874920766
867 -3305.886929906037
868 -3306.016136985353
869 -3306.125896280601
870 -3306.186971678515
871 -3306.155493251531
872 -3306.083625804784
873 -3305.988101708356
874 -3305.860233379021
875 -3305.668384948658
876 -3305.453956725346
877 -3305.170298134075
878 -3304.856294160069
879 -3304.528731646712
880 -3304.163223366851
881 -3303.775424965955
882 -3303.405010485781
883 -3302.979181871614
884 -3302.562198040643
885 -3302.104018278439
886 -3301.66324055117
887 -3301.225546687608
888 -3300.828165351067
889 -3300.427613787721
890 -3300.042732861635
891 -3299.691573693389
892 -3299.36327636988
893 -3299.047757484242
894 -3298.779260904627
895 -3298.535192065275
896 -3298.35426436337
897 -3298.186954139123
898 -3298.066101173889
899 -3297.952861186659
900 -3297.90378367714
901 -3297.872881404406
902 -3297.921931905746
903 -3297.97180712112
904 -3298.1027079902
905 -3298.25629981256
906 -3298.447913861095
907 -3298.651843263753
908 -3298.922451016729
909 -3299.202980056087
910 -3299.515810376028
911 -3299.867287522108
912 -3300.278091006709
913 -3300.678500398547
914 -3301.167385616891
915 -3301.66357333305
916 -3302.158979715078
917 -3302.677889877109
918 -3303.22857490825
919 -3303.763091912533
920 -3304.386295915917
921 -3304.927373313154
922 -3305.527527162538
923 -3306.099078390531
924 -3306.68014495441
925 -3307.253051945103
926 -3307.866093485839
927 -3308.451481024465
928 -3309.113880653311
929 -3309.693604045245
930 -3310.291750736994
931 -3310.859707420243
932 -3311.440924208046
933 -3312.033230589652
934 -3312.614211271099
935 -3313.181623554141
936 -3313.776297295953
937 -3314.299973340555
938 -3314.847063960582
939 -3315.393954933917
940 -3315.953812020993
941 -3316.476488790903
942 -3317.018549841072
943 -3317.495717201866
944 -3318.014715185555
945 -3318.474068713161
946 -3318.985401138707
947 -3319.460855998621
948 -3319.940567627421
949 -3320.376199981434
950 -3320.853852650922
951 -3321.256447942338
952 -3321.695226262804
953 -3322.112012968669
954 -3322.537897115169
955 -3322.923260779027
956 -3323.351548749148
957 -3323.739837861955
958 -3324.164967914234
959 -3324.525466462166
960 -3324.932910784181
961 -3325.303653159248
962 -3325.662388050631
963 -3325.9776714241
964 -3326.335293377004
965 -3326.680785222212
966 -3327.060784518667
967 -3327.431058121429
968 -3327.735025470086
969 -3328.058928142682
970 -3328.358017061784
971 -3328.639959965795
972 -3328.950340532163
973 -3329.259138324444
974 -3329.5728822225
975 -3329.834882868904
976 -3330.077567652701
977 -3330.313640545793
978 -3330.574335183183
979 -3330.816037453882
980 -3331.090297371059
981 -3331.357646254394
982 -3331.644135341846
983 -3331.922568160941
984 -3332.225916472195
985 -3332.529262339605
986 -3332.826428258559
987 -3333.111378309615
988 -3333.388926453721
989 -3333.631220277751
990 -3333.908577365444
991 -3334.169551370171
992 -3334.39013354182
993 -3334.620461702323
994 -3334.934895175543
995 -3335.210654200712
996 -3335.478010166597
997 -3335.784984352516
998 -3336.032800910578
999 -3336.266573740105
1000 -3336.540477584021
1001 -3336.7640767579
1002 -3336.983190278654
1003 -3337.270415812561
1004 -3337.49954440712
1005 -3337.779471424147
1006 -3338.047218855146
1007 -3338.308464364171
1008 -3338.535564163608
1009 -3338.781735942205
1010 -3339.050141874983
1011 -3339.308039843212
1012 -3339.582911194781
1013 -3339.815031201754
1014 -3340.112043894184
1015 -3340.37482721996
1016 -3340.638444486367
1017 -3340.912676084131
1018 -3341.19149104683
1019 -3341.481027899076
1020 -3341.766441861212
1021 -3342.028638846448
1022 -3342.270458860432
1023 -3342.536925217989
1024 -3342.780908869813
1025 -3342.995974831941
1026 -3343.207112087463
1027 -3343.405390492559
1028 -3343.590668345962
1029 -3343.751235729436
1030 -3343.884669536472
1031 -3343.946468486414
1032 -3343.975055506218
1033 -3343.960335600019
1034 -3343.9295160533
1035 -3343.849734634827
1036 -3343.720325464631
1037 -3343.544993328677
1038 -3343.336085442691
1039 -3343.043284683852
1040 -3342.724932496216
1041 -3342.375741066242
1042 -3342.018651323401
1043 -3341.564762826868
1044 -3341.125891400424
1045 -3340.591158802109
1046 -3340.056592588412
1047 -3339.451129424282
1048 -3338.860790287385
1049 -3338.231201992333
1050 -3337.606320387601
1051 -3336.914991047962
1052 -3336.205624613522
1053 -3335.499420091624
1054 -3334.824289607047
1055 -3334.100026158977
1056 -3333.408937271869
1057 -3332.711736323593
1058 -3332.058452882386
1059 -3331.36481510637
1060 -3330.716390820334
1061 -3330.085627052005
1062 -3329.513830559575
1063 -3328.933328133443
1064 -3328.440070748314
1065 -3327.940161452421
1066 -3327.509277734534
1067 -3327.088084196821
1068 -3326.726703684255
1069 -3326.369148612762
1070 -3326.111210612653
1071 -3325.874666480591
1072 -3325.703415426945
1073 -3325.555722365501
1074 -3325.469644974698
1075 -3325.381844616717
1076 -3325.369282156009
1077 -3325.368987598602
1078 -3325.461746643167
1079 -3325.557009470294
1080 -3325.719463197922
1081 -3325.899673066623
1082 -3326.17467557277
1083 -3326.42449380402
1084 -3326.730806809405
1085 -3327.056005861057
1086 -3327.433161280288
1087 -3327.812845451667
1088 -3328.214756978149
1089 -3328.629496174246
1090 -3329.097848898963
1091 -3329.56801333663
1092 -3330.071050054295
1093 -3330.569409476941
1094 -3331.10936691244
1095 -3331.615248964683
1096 -3332.153365824057
1097 -3332.686324058739
1098 -3333.246949518484
1099 -3333.803085859056
1100 -3334.375177861411
1101 -3334.950740849689
1102 -3335.519192848638
1103 -3336.108523522738
1104 -3336.681985371907
1105 -3337.21668453537
1106 -3337.780432758742
1107 -3338.333477831741
1108 -3338.886142985445
1109 -3339.417512354651
1110 -3339.914185816545
1111 -3340.426021354796
1112 -3340.910865479072
1113 -3341.390728441295
1114 -3341.848225881088
1115 -3342.279750816801
1116 -3342.690595193988
1117 -3343.072380215245
1118 -3343.454861831829
1119 -3343.803245382945
1120 -3344.13383076056
1121 -3344.459240041735
1122 -3344.770151916257
1123 -3345.043892539623
1124 -3345.291203088754
1125 -3345.506083587756
1126 -3345.710570796933
1127 -3345.88042804201
1128 -3346.018852196111
1129 -3346.115551050691
1130 -3346.212168916347
1131 -3346.280488411183
1132 -3346.328580174292
1133 -3346.355591623889
1134 -3346.379548945597
1135 -3346.371767470675
1136 -3346.344289227689
1137 -3346.301093091934
1138 -3346.256149725704
1139 -3346.182009404776
1140 -3346.103419481059
1141 -3346.000550780846
1142 -3345.915081376847
1143 -3345.810885376834
1144 -3345.694202583529
1145 -3345.584036609575
1146 -3345.4653262518
1147 -3345.324784361634
1148 -3345.172260880003
1149 -3345.01327593422
1150 -3344.880040053245
1151 -3344.739756100949
1152 -3344.588373061125
1153 -3344.433445710427
1154 -3344.303472270341
1155 -3344.159954661694
1156 -3344.024750724102
1157 -3343.892721840884
1158 -3343.791074638932
1159 -3343.654658112021
1160 -3343.54616305238
1161 -3343.421742613263
1162 -3343.324879537685
1163 -3343.193674657049
1164 -3343.106653800144
1165 -3342.991051018847
1166 -3342.903405632074
1167 -3342.823830460287
1168 -3342.791334451404
1169 -3342.74233033604
1170 -3342.712903560288
1171 -3342.666301736863
1172 -3342.640766484573
1173 -3342.606424072654
1174 -3342.618058011712
1175 -3342.637550819492
1176 -3342.655817902599
1177 -3342.669788612177
1178 -3342.739175484996
1179 -3342.758186339136
1180 -3342.787610735042
1181 -3342.807273606317
1182 -3342.866872053226
1183 -3342.916311451504
1184 -3342.968218995803
1185 -3343.019517706585
1186 -3343.122760183419
1187 -3343.167186723563
1188 -3343.250527211646
1189 -3343.314756670102
1190 -3343.4347400509
1191 -3343.506090289378
1192 -3343.597257654802
1193 -3343.667937846995
1194 -3343.799950062373
1195 -3343.876734188701
1196 -3343.975520989161
1197 -3344.054955272962
1198 -3344.16806957596
1199 -3344.240313156135
1200 -3344.358059246097
1201 -3344.41877315177
1202 -3344.517857820724
1203 -3344.586727737285
1204 -3344.669450648906
1205 -3344.724230944629
1206 -3344.820141982747
1207 -3344.876023725507
1208 -3344.952719495186
1209 -3345.002047717137
1210 -3345.097400973339
1211 -3345.129725894533
1212 -3345.196805420395
1213 -3345.221605169349
1214 -3345.278739148805
1215 -3345.298347578755
1216 -3345.327671886235
1217 -3345.335100457778
1218 -3345.385117119066
1219 -3345.397391689431
1220 -3345.459875559085
1221 -3345.481124250292
1222 -3345.563295772432
1223 -3345.584274010583
1224 -3345.632006012122
1225 -3345.683270252949
1226 -3345.764928544207
1227 -3345.813632304221
1228 -3345.894850382382
1229 -3345.936342667246
1230 -3346.044064084893
1231 -3346.108531279201
1232 -3346.220838891138
1233 -3346.284754889642
1234 -3346.402606595142
1235 -3346.491296726279
1236 -3346.60030504919
1237 -3346.683265126666
1238 -3346.817429669674
1239 -3346.93678470409
1240 -3347.088248287357
1241 -3347.21631079493
1242 -3347.385506198515
1243 -3347.532071249089
1244 -3347.707911516642
1245 -3347.860891174107
1246 -3348.063710616893
1247 -3348.232105244724
1248 -3348.440839275644
1249 -3348.614333130499
1250 -3348.854299174802
1251 -3349.053281464485
1252 -3349.285418684346
1253 -3349.482445947903
1254 -3349.747598911137
1255 -3349.980972328458
1256 -3350.254590595378
1257 -3350.49492202878
1258 -3350.795814567078
1259 -3351.058742357423
1260 -3351.362522899857
1261 -3351.63241999409
1262 -3351.929941224344
1263 -3352.192830815255
1264 -3352.478735595528
1265 -3352.716722473833
1266 -3353.011148646866
1267 -3353.232143664253
1268 -3353.477492539565
1269 -3353.673654000001
1270 -3353.9098404855
1271 -3354.091295436089
1272 -3354.295455417736
1273 -3354.42881339089
1274 -3354.605610761815
1275 -3354.720105603882
1276 -3354.839210475411
1277 -3354.906746293157
1278 -3354.993658528972
1279 -3355.018664218038
1280 -3355.050092340315
1281 -3355.01529401877
1282 -3354.98499124509
1283 -3354.907883792352
1284 -3354.841579543587
1285 -3354.69224467694
1286 -3354.594580959575
1287 -3354.407566624484
1288 -3354.26125402067
1289 -3354.038901872743
1290 -3353.854322181176
1291 -3353.619633686649
1292 -3353.421014750423
1293 -3353.168825032484
1294 -3352.968443329446
1295 -3352.722380980239
1296 -3352.508143604603
1297 -3352.244300905496
1298 -3352.054481380366
1299 -3351.800054645691
1300 -3351.590140459419
1301 -3351.342880373631
1302 -3351.155609409945
1303 -3350.922628778835
1304 -3350.762658971229
1305 -3350.573610081663
1306 -3350.47412989164
1307 -3350.348361170618
1308 -3350.25865558681
1309 -3350.148617074435
1310 -3350.112839084307
1311 -3350.050728265776
1312 -3350.050319712222
1313 -3350.014393429612
1314 -3350.052121228588
1315 -3350.058398033678
1316 -3350.149951729334
1317 -3350.204674493682
1318 -3350.337193212925
1319 -3350.445068352583
1320 -3350.599524111663
1321 -3350.731379626005
1322 -3350.93482417974
1323 -3351.109874952268
1324 -3351.340722990144
1325 -3351.542361195588
1326 -3351.830421380811
1327 -3352.094311229921
1328 -3352.385267760794
1329 -3352.664433402496
1330 -3353.013701827451
1331 -3353.32371728383
1332 -3353.674811500242
1333 -3354.014187801911
1334 -3354.410286787044
1335 -3354.786412058006
1336 -3355.200166170471
1337 -3355.576167771969
1338 -3355.997937622968
1339 -3356.394691306461
1340 -3356.850349927842
1341 -3357.251556664698
1342 -3357.709080070655
1343 -3358.13447408867
1344 -3358.573498994756
1345 -3358.988298017945
1346 -3359.449944319998
1347 -3359.872755798957
1348 -3360.35543193736
1349 -3360.771995379512
1350 -3361.253083603483
1351 -3361.667120117661
1352 -3362.138172554643
1353 -3362.563896635168
1354 -3363.009359517315
1355 -3363.429114124752
1356 -3363.913399478999
1357 -3364.338531040608
1358 -3364.82403386944
1359 -3365.24363587742
1360 -3365.717058218221
1361 -3366.100569806106
1362 -3366.533354745507
1363 -3366.915426517739
1364 -3367.342174041859
1365 -3367.726706095365
1366 -3368.137069038017
1367 -3368.493833857195
1368 -3368.885313928699
1369 -3369.212270734903
1370 -3369.608736738124
1371 -3369.92419640287
1372 -3370.262100258177
1373 -3370.567897747282
1374 -3370.897636401763
1375 -3371.164718620085
1376 -3371.472153858958
1377 -3371.714078796735
1378 -3371.976100614223
1379 -3372.202928677338
1380 -3372.430907924737
1381 -3372.611582123804
1382 -3372.857415479595
1383 -3373.046938049033
1384 -3373.269269198114
1385 -3373.452623144187
1386 -3373.626112583304
1387 -3373.772654942881
1388 -3373.960982643221
1389 -3374.083130109835
1390 -3374.223641426887
1391 -3374.336690499386
1392 -3374.463641961923
1393 -3374.523657929125
1394 -3374.653310306745
1395 -3374.704651145621
1396 -3374.79429750623
1397 -3374.79228336314
1398 -3374.86280651518
1399 -3374.884199533793
1400 -3374.902955901464
1401 -3374.842830003836
1402 -3374.810573890013
1403 -3374.711537430895
1404 -3374.640499076492
1405 -3374.507670226185
1406 -3374.42659527532
1407 -3374.249810299321
1408 -3374.09446006531
1409 -3373.898614338476
1410 -3373.756223900181
1411 -3373.548597500529
1412 -3373.348673770825
1413 -3373.098039671363
1414 -3372.877622967637
1415 -3372.62769853333
1416 -3372.361080221652
1417 -3372.053769030382
1418 -3371.78620386221
1419 -3371.486906091
1420 -3371.219986478679
1421 -3370.8787869496
1422 -3370.568132166832
1423 -3370.219431516807
1424 -3369.918644092208
1425 -3369.558236534892
1426 -3369.232544820453
1427 -3368.887193837564
1428 -3368.585720164468
1429 -3368.226234824256
1430 -3367.938170720319
1431 -3367.593662026452
1432 -3367.340981110011
1433 -3367.032313180169
1434 -3366.799308945903
1435 -3366.538177497172
1436 -3366.365012697284
1437 -3366.141817639034
1438 -3366.006703450812
1439 -3365.873446728295
1440 -3365.808010692226
1441 -3365.694578201385
1442 -3365.709746713952
1443 -3365.690143143723
1444 -3365.74671427018
1445 -3365.758288887792
1446 -3365.883608488538
1447 -3365.95316546228
1448 -3366.11827003934
1449 -3366.241239561693
1450 -3366.433464799812
1451 -3366.608820092932
1452 -3366.844412833092
1453 -3367.04440658354
1454 -3367.342644706915
1455 -3367.605998062587
1456 -3367.904846272939
1457 -3368.155430351052
1458 -3368.506605109686
1459 -3368.792351316971
1460 -3369.144828184804
1461 -3369.426561125773
1462 -3369.750908277699
1463 -3370.021714924243
1464 -3370.322191797921
1465 -3370.534681899713
1466 -3370.765925595635
1467 -3370.984942139233
1468 -3371.186424883992
1469 -3371.341400973799
1470 -3371.508592680005
1471 -3371.56945376038
1472 -3371.678387042832
1473 -3371.704741995829
1474 -3371.756865582421
1475 -3371.75351347535
1476 -3371.791785974346
1477 -3371.714009069442
1478 -3371.678136835894
1479 -3371.572933620048
1480 -3371.489137968365
1481 -3371.334991365325
1482 -3371.222138063174
1483 -3371.029263674924
1484 -3370.868592190538
1485 -3370.648331497307
1486 -3370.435501477054
1487 -3370.18605167322
1488 -3369.926391407395
1489 -3369.608227059148
1490 -3369.344535103824
1491 -3369.055139609616
1492 -3368.789618534286
1493 -3368.490103187112
1494 -3368.195482533823
1495 -3367.879485639909
1496 -3367.615067924655
1497 -3367.315237844014
1498 -3366.989984612502
1499 -3366.711133736547
1500 -3366.486273988949
1501 -3366.172339396059
1502 -3365.952774612964
1503 -3365.662542117544
1504 -3365.479719792726
1505 -3365.241158519573
1506 -3365.053014491164
1507 -3364.876808125575
1508 -3364.772653302639
1509 -3364.620929456827
1510 -3364.574108434039
1511 -3364.485858735639
1512 -3364.49819241008
1513 -3364.489428788395
1514 -3364.588901954154
1515 -3364.630486004874
1516 -3364.771178342171
1517 -3364.868234286857
1518 -3365.082274217657
1519 -3365.252779709805
1520 -3365.495466892502
1521 -3365.70797491568
1522 -3366.009844317572
1523 -3366.266075196346
1524 -3366.576359462668
1525 -3366.84028327805
1526 -3367.184393412901
1527 -3367.489927501205
1528 -3367.834690074935
1529 -3368.151440420846
1530 -3368.529479581686
1531 -3368.836730958306
1532 -3369.226074388892
1533 -3369.551110005783
1534 -3369.935092354574
1535 -3370.309810190088
1536 -3370.735254199719
1537 -3371.058965308298
1538 -3371.450377713132
1539 -3371.761467024728
1540 -3372.091165251913
1541 -3372.401312763126
1542 -3372.725664203213
1543 -3373.014841010096
1544 -3373.387569958668
1545 -3373.740725865623
1546 -3374.105729191893
1547 -3374.45433921021
1548 -3374.830194718197
1549 -3375.129087148968
1550 -3375.534149659216
1551 -3375.91593066728
1552 -3376.358995333764
1553 -3376.77440846457
1554 -3377.264506244858
1555 -3377.710046578733
1556 -3378.245187115567
1557 -3378.745702133151
1558 -3379.320595483382
1559 -3379.865022404751
1560 -3380.446073222177
1561 -3381.041362577074
1562 -3381.709137135498
1563 -3382.372052202691
1564 -3383.089595981701
1565 -3383.77066185562
1566 -3384.512784537353
1567 -3385.239371604123
1568 -3386.001227578003
1569 -3386.713874610523
1570 -3387.5031882832
1571 -3388.22901144513
1572 -3389.013708635572
1573 -3389.774599731146
1574 -3390.569789706646
1575 -3391.326975415685
1576 -3392.102097501317
1577 -3392.811520505636
1578 -3393.565657774123
1579 -3394.26151826317
1580 -3395.003672094874
1581 -3395.644550119276
1582 -3396.394599927388
1583 -3397.093523088637
1584 -3397.808289116635
1585 -3398.41073571629
1586 -3399.040223811715
1587 -3399.609508810209
1588 -3400.208461384326
1589 -3400.744053422416
1590 -3401.308506140037
1591 -3401.77159174612
1592 -3402.23137592286
1593 -3402.658805685376
1594 -3403.084973919488
1595 -3403.448249686884
1596 -3403.807547327071
1597 -3404.098573648567
1598 -3404.406843832305
1599 -3404.670393502875
1600 -3404.951040163838
1601 -3405.087547680754
1602 -3405.316926577071
1603 -3405.417669810112
1604 -3405.570084893106
1605 -3405.581073787926
1606 -3405.621485425493
1607 -3405.624685945643
1608 -3405.639363004118
1609 -3405.537571639396
1610 -3405.447778107008
1611 -3405.261324309561
1612 -3405.079481465742
1613 -3404.809598071296
1614 -3404.550396288884
1615 -3404.202744933551
1616 -3403.888521979821
1617 -3403.487608591787
1618 -3403.10773463197
1619 -3402.635829942093
1620 -3402.172616891032
1621 -3401.62853620257
1622 -3401.033901497357
1623 -3400.394522034494
1624 -3399.780557651092
1625 -3399.084976679796
1626 -3398.385564723053
1627 -3397.601305257472
1628 -3396.823639536114
1629 -3395.941625100763
1630 -3395.093822191591
1631 -3394.186473417906
1632 -3393.319039824466
1633 -3392.342917387918
1634 -3391.371278048578
1635 -3390.330913466915
1636 -3389.312532474488
1637 -3388.230051222868
1638 -3387.128118841991
1639 -3386.020085719641
1640 -3384.866387442318
1641 -3383.616185182737
1642 -3382.366480789313
1643 -3381.113465488439
1644 -3379.829545599122
1645 -3378.505357575138
1646 -3377.22862115497
1647 -3375.893202530521
1648 -3374.531261514948
1649 -3373.190332281633
1650 -3371.851721317083
1651 -3370.495248557142
1652 -3369.156918653913
1653 -3367.783557475408
1654 -3366.433543353384
1655 -3365.061995101296
1656 -3363.699652887333
1657 -3362.336280911263
1658 -3361.002181200098
1659 -3359.674678588945
1660 -3358.334017201512
1661 -3357.044243448129
1662 -3355.804787709283
1663 -3354.592373283052
1664 -3353.334829932268
1665 -3352.085874897794
1666 -3350.845700277602
1667 -3349.66649152543
1668 -3348.502199002234
1669 -3347.280007539006
1670 -3346.151182472661
1671 -3345.016070136401
1672 -3343.970996065401
1673 -3342.887536072469
1674 -3341.827872427122
1675 -3340.800953063971
1676 -3339.836555274213
1677 -3338.798960392536
1678 -3337.85921905052
1679 -3336.93849891457
1680 -3336.116136328013
1681 -3335.247518384577
1682 -3334.451006093952
1683 -3333.668375032043
1684 -3333.008295171507
1685 -3332.321623577619
1686 -3331.734403837868
1687 -3331.159794254541
1688 -3330.679666678244
1689 -3330.204635726343
1690 -3329.847089665848
1691 -3329.528344224336
1692 -3329.321258564343
1693 -3329.148308677687
1694 -3329.028012512058
1695 -3329.006532625398
1696 -3329.079192467247
1697 -3329.149012662086
1698 -3329.323705022922
1699 -3329.564800023897
1700 -3329.888989817271
1701 -3330.263765682396
1702 -3330.756564468722
1703 -3331.265697455437
1704 -3331.896355136528
1705 -3332.560907528368
1706 -3333.292015251771
1707 -3334.060755183833
1708 -3334.919614776416
1709 -3335.802233708556
1710 -3336.780135797016
1711 -3337.73255116364
1712 -3338.79195909066
1713 -3339.850889798288
1714 -3340.972951388408
1715 -3342.119989257104
1716 -3343.304252981438
1717 -3344.450670200074
1718 -3345.675268422573
1719 -3346.837925543037
1720 -3348.021937777941
1721 -3349.232916175084
1722 -3350.479132541967
1723 -3351.663696945685
1724 -3352.882245949953
1725 -3354.048653639377
1726 -3355.244655528755
1727 -3356.434132843238
1728 -3357.651161173625
1729 -3358.73102968972
1730 -3360.443360355041
1731 -3361.524364419749
1732 -3362.574308891567
1733 -3363.621470197048
1734 -3364.621499550886
1735 -3366.071901267046
1736 -3367.058929866177
1737 -3367.94488039486
1738 -3368.833848113086
1739 -3369.655307259363
1740 -3370.917907512861
1741 -3371.677890833036
1742 -3372.513459850709
1743 -3373.291583368194
1744 -3374.063269116549
1745 -3374.814231722782
1746 -3375.956768553958
1747 -3376.700328600178
1748 -3377.419365378073
1749 -3378.077774484123
1750 -3378.794138317006
1751 -3379.479419921582
1752 -3380.173389880876
1753 -3380.780936596409
1754 -3381.413412415611
1755 -3382.011266994131
1756 -3382.639853953467
1757 -3383.154918575778
1758 -3383.643492115376
1759 -3384.051506670754
1760 -3384.476691435863
1761 -3384.807603422319
1762 -3385.077613369071
1763 -3385.274212428931
1764 -3385.427484322639
1765 -3385.478487533846
1766 -3385.492789048943
1767 -3385.365594849324
1768 -3385.158199566947
1769 -3384.839848589565
1770 -3384.452726041657
1771 -3383.93791526553
1772 -3383.406644373401
1773 -3382.732215436068
1774 -3382.026339271189
1775 -3381.155303071617
1776 -3380.24795043842
1777 -3379.192958737515
1778 -3378.086748621157
1779 -3376.893668125244
1780 -3375.688973475524
1781 -3374.342876999706
1782 -3372.943034349883
1783 -3371.435663313935
1784 -3369.901918019969
1785 -3368.250129409594
1786 -3366.546392975589
1787 -3364.797324933837
1788 -3363.014654021668
1789 -3361.256782888599
1790 -3359.394646227704
1791 -3357.590588193502
1792 -3355.782617332557
1793 -3353.129874261876
1794 -3351.430862820302
1795 -3349.724006982677
1796 -3348.085824639026
1797 -3345.709351338153
1798 -3344.254568181558
1799 -3342.806853622929
1800 -3340.711420462647
1801 -3339.390026693181
1802 -3338.136014184127
1803 -3336.8973247568
1804 -3335.221210242225
1805 -3334.173590067089
1806 -3333.215727515856
1807 -3331.910073919114
1808 -3331.120577949713
1809 -3330.360656187346
1810 -3329.703165539499
1811 -3329.079124520791
1812 -3328.253201752874
1813 -3327.747801912109
1814 -3327.345797363376
1815 -3326.932458288557
1816 -3326.622461919751
1817 -3326.296193769468
1818 -3326.071690438364
1819 -3325.857883331586
1820 -3325.708917760665
1821 -3325.562671198362
1822 -3325.465661918089
1823 -3325.398045079315
1824 -3325.371898472412
1825 -3325.358875839371
1826 -3325.401924264967
1827 -3325.464577213529
1828 -3325.530637737919
1829 -3325.615382586617
1830 -3325.713020620743
1831 -3325.829946866095
1832 -3325.976866476205
1833 -3326.097174941654
1834 -3326.228754706235
1835 -3326.372086719502
1836 -3326.515859204888
1837 -3326.612860445674
1838 -3326.733525780465
1839 -3326.851217785523
1840 -3326.979581608625
1841 -3327.076219390436
1842 -3327.198310443588
1843 -3327.286472637154
1844 -3327.380211784478
1845 -3327.42219185217
1846 -3327.500033309923
1847 -3327.528787816174
1848 -3327.563745948004
1849 -3327.528075266847
1850 -3327.543410609343
1851 -3327.496664929221
1852 -3327.489618271085
1853 -3327.408036743584
1854 -3327.313708270189
1855 -3327.158779421674
1856 -3327.036177407846
1857 -3326.825488709298
1858 -3326.637206323487
1859 -3326.391397463459
1860 -3326.212862132922
1861 -3325.968668688745
1862 -3325.732058224305
1863 -3325.424296877581
1864 -3325.141168441886
1865 -3324.853050421186
1866 -3324.571980079744
1867 -3324.269048918628
1868 -3324.011417995983
1869 -3323.740335272313
1870 -3323.491922801016
1871 -3323.249991357626
1872 -3323.009533024271
1873 -3322.779136704555
1874 -3322.599342996866
1875 -3322.390971091241
1876 -3322.223798005286
1877 -3322.072217315468
1878 -3321.941968171752
1879 -3321.850795773982
1880 -3321.802542088492
1881 -3321.781236637915
1882 -3321.78565551054
1883 -3321.790298701515
1884 -3321.855961694094
1885 -3321.922560754503
1886 -3322.07124363547
1887 -3322.225779004588
1888 -3322.422661087526
1889 -3322.648240714305
1890 -3322.911997934955
1891 -3323.177811377149
1892 -3323.456460788624
1893 -3323.758322708467
1894 -3324.094853065338
1895 -3324.461545624357
1896 -3324.849736446417
1897 -3325.223089123265
1898 -3325.623403666852
1899 -3326.029853224432
1900 -3326.428296092965
1901 -3326.831452476354
1902 -3327.257473394798
1903 -3327.654451882888
1904 -3328.047786818883
1905 -3328.467262459705
1906 -3328.874165773313
1907 -3329.254682753302
1908 -3329.644032991626
1909 -3329.996855654529
1910 -3330.352213891589
1911 -3330.665560382733
1912 -3330.940837264416
1913 -3331.200135576114
1914 -3331.444081171529
1915 -3331.662371396356
1916 -3331.871598700838
1917 -3332.043049477874
1918 -3332.200002723296
1919 -3332.323686083026
1920 -3332.426914193511
1921 -3332.487310009177
1922 -3332.544180552489
1923 -3332.551062663284
1924 -3332.53698955218
1925 -3332.509644741527
1926 -3332.448274081939
1927 -3332.393551208535
1928 -3332.303278805868
1929 -3332.18448483629
1930 -3332.058276410618
1931 -3331.909585060188
1932 -3331.762736817612
1933 -3331.590917130212
1934 -3331.391127316438
1935 -3331.180399130852
1936 -3330.936491196869
1937 -3330.708067476834
1938 -3330.458572926847
1939 -3330.209913808584
1940 -3329.966299404128
1941 -3329.691951246108
1942 -3329.412855398643
1943 -3329.155687668903
1944 -3328.868622108214
1945 -3328.587416286078
1946 -3328.329917303038
1947 -3328.026467565552
1948 -3327.781951394736
1949 -3327.535316794274
1950 -3327.286890651347
1951 -3327.04114552857
1952 -3326.82351426609
1953 -3326.619946934452
1954 -3326.412443617103
1955 -3326.241941505669
1956 -3326.081311514509
1957 -3325.911390759882
1958 -3325.740153145964
1959 -3325.553151280403
1960 -3325.409441410436
1961 -3325.240139791362
1962 -3325.110064416026
1963 -3324.970755786695
1964 -3324.882709633332
1965 -3324.762589236019
1966 -3324.664639193945
1967 -3324.581848714128
1968 -3324.511599401819
1969 -3324.451209488007
1970 -3324.42650921143
1971 -3324.399517993967
1972 -3324.384433072492
1973 -3324.380410833437
1974 -3324.408261047845
1975 -3324.397594491862
1976 -3324.440993277115
1977 -3324.503544896679
1978 -3324.565726151296
1979 -3324.642416311543
1980 -3324.771273368225
1981 -3324.902776479465
1982 -3325.06285496905
1983 -3325.186441622825
1984 -3325.322300540827
1985 -3325.44956577041
1986 -3325.601497613065
1987 -3325.750530985338
1988 -3325.925832243698
1989 -3326.044000953603
1990 -3326.199138888137
1991 -3326.274334682047
1992 -3326.379813636047
1993 -3326.465912329907
1994 -3326.580485129051
1995 -3326.674058144431
1996 -3326.822534712293
1997 -3326.905783486134
1998 -3326.994627446823
1999 -3327.045355605041
2000 -3327.091407196929
2001 -3327.153410139244
2002 -3327.170334385377
2003 -3327.183946344226
2004 -3327.188289309518
2005 -3327.128940140115
2006 -3327.121444345789
2007 -3327.057936285359
2008 -3327.006685125893
2009 -3326.945566473761
2010 -3326.907168953643
2011 -3326.816404568847
2012 -3326.75337439953
2013 -3326.696388878537
2014 -3326.698908282099
2015 -3326.664281299989
2016 -3326.659993266499
2017 -3326.631347202098
2018 -3326.641834435851
2019 -3326.653587958227
2020 -3326.703401984198
2021 -3326.767921126579
2022 -3326.863964914813
2023 -3326.961252607032
2024 -3327.116021616162
2025 -3327.263973687905
2026 -3327.472473032093
2027 -3327.677372753365
2028 -3327.965755147802
2029 -3328.259417564473
2030 -3328.615671779451
2031 -3328.936513675478
2032 -3329.349909886468
2033 -3329.776168297908
2034 -3330.216014473511
2035 -3330.66855553992
2036 -3331.184775492462
2037 -3331.686199325013
2038 -3332.23363543174
2039 -3332.781918360394
2040 -3333.371926828537
2041 -3333.915317516013
2042 -3334.489408430729
2043 -3335.039304897581
2044 -3335.596592228172
2045 -3336.139701326433
2046 -3336.6681548518
2047 -3337.174184527013
2048 -3337.686004605684
2049 -3338.142039897385
2050 -3338.595740706897
2051 -3339.008745148711
2052 -3339.374850499544
2053 -3339.692747108679
2054 -3339.994070653225
2055 -3340.219579863475
2056 -3340.386258114956
2057 -3340.495319674152
2058 -3340.587342451135
2059 -3340.612455973367
2060 -3340.647775222632
2061 -3340.602358947504
2062 -3340.527653344874
2063 -3340.384148535511
2064 -3340.230763065398
2065 -3340.016396703587
2066 -3339.792224969391
2067 -3339.529530978505
2068 -3339.269130811091
2069 -3338.949382082942
2070 -3338.645866609048
2071 -3338.291790773358
2072 -3337.928652081725
2073 -3337.547811702103
2074 -3337.181054152948
2075 -3336.807470546036
2076 -3336.464039915626
2077 -3336.113498970424
2078 -3335.763323295934
2079 -3335.414306322216
2080 -3335.099225209866
2081 -3334.777990889502
2082 -3334.474912491879
2083 -3334.192539927178
2084 -3333.9434733748
2085 -3333.735003471586
2086 -3333.556321966538
2087 -3333.401567183228
2088 -3333.277711270928
2089 -3333.17911222456
2090 -3333.135177683801
2091 -3333.077709585671
2092 -3333.09771777572
2093 -3333.127538458823
2094 -3333.172939597666
2095 -3333.25394603031
2096 -3333.344154460907
2097 -3333.477256774874
2098 -3333.646078707869
2099 -3333.812624091085
2100 -3334.020654473478
2101 -3334.260067346774
2102 -3334.517055402188
2103 -3334.800374831908
2104 -3335.073471440382
2105 -3335.392269854156
2106 -3335.731858657157
2107 -3336.073869548696
2108 -3336.432602534171
2109 -3336.84228851335
2110 -3337.258097275431
2111 -3337.628974211083
2112 -3338.029402355271
2113 -3338.447848986471
2114 -3338.840647284459
2115 -3339.225782230225
2116 -3339.661662748053
2117 -3340.046584103509
2118 -3340.47062114981
2119 -3340.939186184065
2120 -3341.379180764092
2121 -3341.826304409419
2122 -3342.28721115848
2123 -3342.789147122561
2124 -3343.298517920855
2125 -3343.797632431423
2126 -3344.302591527161
2127 -3344.831400641237
2128 -3345.339422966107
2129 -3345.832692676872
2130 -3346.337972466632
2131 -3346.863748033129
2132 -3347.38166757668
2133 -3347.901499640409
2134 -3348.402471166805
2135 -3348.96611517375
2136 -3349.417236297048
2137 -3349.909075695725
2138 -3350.361863416579
2139 -3350.823772825013
2140 -3351.219344568998
2141 -3351.669337110834
2142 -3352.065512965872
2143 -3352.424451140029
2144 -3352.824768629624
2145 -3353.251177413454
2146 -3353.6231354949
2147 -3353.992911342041
2148 -3354.33832237496
2149 -3354.659859062329
2150 -3354.991360221892
2151 -3355.277744728112
2152 -3355.523220509117
2153 -3355.764566905213
2154 -3355.959890379815
2155 -3356.145805901142
2156 -3356.258797683448
2157 -3356.387379858568
2158 -3356.461779378581
2159 -3356.490375655968
2160 -3356.523411422491
2161 -3356.534903280545
2162 -3356.519155251317
2163 -3356.438805434751
2164 -3356.333030189714
2165 -3356.217421133745
2166 -3356.074961596236
2167 -3355.870813280619
2168 -3355.693325577463
2169 -3355.477433008518
2170 -3355.27542028083
2171 -3355.035819894996
2172 -3354.830530081453
2173 -3354.614535763078
2174 -3354.434009642475
2175 -3354.230141574055
2176 -3354.039325676423
2177 -3353.876590679205
2178 -3353.720263043951
2179 -3353.55285455537
2180 -3353.469819112056
2181 -3353.420191218141
2182 -3353.438541565154
2183 -3353.422882342995
2184 -3353.47876808642
2185 -3353.547616717361
2186 -3353.67718081581
2187 -3353.815915695151
2188 -3354.029599509509
2189 -3354.239076432874
2190 -3354.505335831178
2191 -3354.821063521209
2192 -3355.143512421867
2193 -3355.478161867099
2194 -3355.854464415895
2195 -3356.261692820071
2196 -3356.70194183845
2197 -3357.17754373545
2198 -3357.678287404154
2199 -3358.10484435088
2200 -3358.533541557107
2201 -3359.001555113143
2202 -3359.493876833009
2203 -3359.968880620603
2204 -3360.43679442418
2205 -3360.87844354437
2206 -3361.351962323384
2207 -3361.804167874057
2208 -3362.255502453439
2209 -3362.677358792816
2210 -3363.071264186649
2211 -3363.415630893065
2212 -3363.745549104643
2213 -3364.048287223506
2214 -3364.321155967153
2215 -3364.559358091804
2216 -3364.763629836997
2217 -3364.964792072585
2218 -3365.096026670714
2219 -3365.211400393765
2220 -3365.260287491781
2221 -3365.261616480997
2222 -3365.248463292148
2223 -3365.158363811591
2224 -3365.020730887377
2225 -3364.854349810212
2226 -3364.627383255697
2227 -3364.410962805906
2228 -3364.101555934714
2229 -3363.750490464095
2230 -3363.385458812446
2231 -3362.965995161273
2232 -3362.492447052396
2233 -3362.00267402149
2234 -3361.47349815738
2235 -3360.91613865286
2236 -3360.324965582029
2237 -3359.705106198802
2238 -3359.073886144402
2239 -3358.398751240929
2240 -3357.751394016147
2241 -3357.10445420657
2242 -3356.41037866685
2243 -3355.698261334909
2244 -3354.99606384505
2245 -3354.331876121464
2246 -3353.678106011947
2247 -3353.038551396886
2248 -3352.415198341888
2249 -3351.823843093088
2250 -3351.232223908851
2251 -3350.670012100391
2252 -3350.134103916256
2253 -3349.605708504603
2254 -3349.070302234152
2255 -3348.637190030886
2256 -3348.190475132434
2257 -3347.801327796298
2258 -3347.39297386101
2259 -3347.028045197372
2260 -3346.65507950295
2261 -3346.300567852002
2262 -3345.949339568624
2263 -3345.603279461502
2264 -3345.227131974137
2265 -3344.908576713368
2266 -3344.544982911295
2267 -3344.217977047876
2268 -3343.844359867764
2269 -3343.523378978471
2270 -3343.204734835368
2271 -3342.870726561666
2272 -3342.518815508198
2273 -3342.181499843266
2274 -3341.817236954839
2275 -3341.467430932161
2276 -3341.106260204508
2277 -3340.794524938858
2278 -3340.477939280192
2279 -3340.191073217145
2280 -3339.853451572029
2281 -3339.516087141712
2282 -3339.189831805138
2283 -3338.877030839183
2284 -3338.537606630647
2285 -3338.227331078946
2286 -3337.928300618103
2287 -3337.61622741264
2288 -3337.285903341014
2289 -3336.972392259707
2290 -3336.69796861149
2291 -3336.45557328436
2292 -3336.240106449624
2293 -3336.072125654504
2294 -3335.921932714501
2295 -3335.792266011855
2296 -3335.687411340175
2297 -3335.633808423634
2298 -3335.631261781999
2299 -3335.620128558148
2300 -3335.657640793162
2301 -3335.66150746744
2302 -3335.732100440601
2303 -3335.802866071602
2304 -3335.845297035694
2305 -3335.96219550303
2306 -3336.059111675605
2307 -3336.171364539061
2308 -3336.271908278233
2309 -3336.368030267945
2310 -3336.492490530232
2311 -3336.569401344018
2312 -3336.673151781105
2313 -3336.751465887776
2314 -3336.80972159076
2315 -3336.872464818827
2316 -3336.967750711508
2317 -3337.043059591687
2318 -3337.154080145086
2319 -3337.254052634138
2320 -3337.343827121735
2321 -3337.454510280498
2322 -3337.528490660162
2323 -3337.581977424376
2324 -3337.624278556554
2325 -3337.693482770854
2326 -3337.782875773826
2327 -3337.843078659297
2328 -3337.872164850427
2329 -3337.922403652049
2330 -3337.943029857895
2331 -3337.948076108886
2332 -3337.985034798753
2333 -3337.977601696436
2334 -3337.999959558489
2335 -3337.997272328021
2336 -3337.992080139258
2337 -3337.941255046273
2338 -3337.886328090254
2339 -3337.812329077546
2340 -3337.710015122852
2341 -3337.621550512758
2342 -3337.488382145139
2343 -3337.325449437097
2344 -3337.194916833465
2345 -3337.028980930176
2346 -3336.852427191663
2347 -3336.658140024372
2348 -3336.481643509381
2349 -3336.223815181994
2350 -3336.015232678265
2351 -3335.785117886172
2352 -3335.517373600616
2353 -3335.26738128129
2354 -3335.050384154799
2355 -3334.824303540184
2356 -3334.586625761583
2357 -3334.369786689861
2358 -3334.173974824833
2359 -3333.983488586969
2360 -3333.825047157281
2361 -3333.646625265794
2362 -3333.508606636834
2363 -3333.361609395507
2364 -3333.242859161791
2365 -3333.070927902356
2366 -3332.936207612364
2367 -3332.816884294587
2368 -3332.710091405168
2369 -3332.680822120649
2370 -3332.638880328096
2371 -3332.599711458326
2372 -3332.513776270664
2373 -3332.466608524482
2374 -3332.435852793158
2375 -3332.385862384248
2376 -3332.326114439285
2377 -3332.308942229145
2378 -3332.26645705405
2379 -3332.239126557056
2380 -3332.163452944656
2381 -3332.091805283332
2382 -3332.053203645378
2383 -3331.988772261817
2384 -3331.924313372007
2385 -3331.819051615882
2386 -3331.663303789345
2387 -3331.532926512544
2388 -3331.355493753221
2389 -3331.143788108914
2390 -3330.887964954325
2391 -3330.589860112871
2392 -3330.23579323484
2393 -3329.837868981242
2394 -3329.420723786398
2395 -3328.93603744545
2396 -3328.396125860804
2397 -3327.828477282139
2398 -3327.213427412106
2399 -3326.533003049032
2400 -3325.828308540952
2401 -3325.091995548302
2402 -3324.305583886682
2403 -3323.453041342075
2404 -3322.493698998642
2405 -3321.590000074982
2406 -3320.583287992722
2407 -3319.550099999413
2408 -3318.518096634959
2409 -3317.453077243413
2410 -3316.379000550482
2411 -3315.278468793769
2412 -3314.198640301619
2413 -3313.091815773816
2414 -3312.006210840144
2415 -3310.968762570444
2416 -3309.935376830061
2417 -3308.936525760985
2418 -3307.943312459664
2419 -3306.998302885953
2420 -3306.090071334002
2421 -3305.250660213657
2422 -3304.446851843489
2423 -3303.696823345789
2424 -3302.97556883298
2425 -3302.318171880598
2426 -3301.712113919688
2427 -3301.171141665204
2428 -3300.681598884577
2429 -3300.252615245024
2430 -3299.883793113459
2431 -3299.561819786986
2432 -3299.316050190088
2433 -3299.122536669381
2434 -3298.971375021636
2435 -3298.899333665157
2436 -3298.843722502606
2437 -3298.844921509619
2438 -3298.889205521919
2439 -3298.963129159199
2440 -3299.081716199116
2441 -3299.253782484791
2442 -3299.437771172084
2443 -3299.631918153801
2444 -3299.886710471678
2445 -3300.135914211618
2446 -3300.374987834392
2447 -3300.64030980184
2448 -3300.917759994994
2449 -3301.198074063077
2450 -3301.504982843408
2451 -3301.786257204562
2452 -3302.093713449073
2453 -3302.390120402199
2454 -3302.667554537909
2455 -3302.95167806755
2456 -3303.233796074579
2457 -3303.494767671611
2458 -3303.740794965098
2459 -3303.983510569433
2460 -3304.22021800426
2461 -3304.458856811081
2462 -3304.662447560046
2463 -3304.873393448149
2464 -3305.062967208517
2465 -3305.235767835362
2466 -3305.377766030777
2467 -3305.530734449659
2468 -3305.675778332362
2469 -3305.808444613986
2470 -3305.921829793467
2471 -3306.02153519809
2472 -3306.12532911813
2473 -3306.212250752621
2474 -3306.281471283199
2475 -3306.362126864223
2476 -3306.437466640218
2477 -3306.526658233852
2478 -3306.611371300962
2479 -3306.70291672507
2480 -3306.797684068777
2481 -3306.890475694518
2482 -3307.007112093324
2483 -3307.132131413042
2484 -3307.25673662921
2485 -3307.393400198476
2486 -3307.530472192341
2487 -3307.678617951029
2488 -3307.836319276616
2489 -3307.985041182723
2490 -3308.149159266369
2491 -3308.331992611894
2492 -3308.531079630795
2493 -3308.735588128528
2494 -3308.937931322444
2495 -3309.143390272425
2496 -3309.377271778221
2497 -3309.615699870489
2498 -3309.866734136058
2499 -3310.112933767619
2500 -3310.3734526971
2501 -3310.605138551436
2502 -3310.85024561826
2503 -3311.095860799528
2504 -3311.331817208446
2505 -3311.544397474614
2506 -3311.768684711136
2507 -3311.975248209623
2508 -3312.196261070523
2509 -3312.391614110925
2510 -3312.586964927018
2511 -3312.786590448065
2512 -3312.9712251891
2513 -3313.12190203128
2514 -3313.273224111144
2515 -3313.398318296552
2516 -3313.524527964476
2517 -3313.638451444167
2518 -3313.747442018351
2519 -3313.835081096909
2520 -3313.937219790386
2521 -3313.993626458984
2522 -3314.060010482862
2523 -3314.116278312647
2524 -3314.174713829683
2525 -3314.203540595301
2526 -3314.239107138727
2527 -3314.245997168982
2528 -3314.278479016954
2529 -3314.285350887532
2530 -3314.304772619055
2531 -3314.301358927292
2532 -3314.317623257017
2533 -3314.295639057457
2534 -3314.307563362237
2535 -3314.292035933077
2536 -3314.309849618694
2537 -3314.326630955367
2538 -3314.339362202768
2539 -3314.355456765254
2540 -3314.396639439673
2541 -3314.405073664688
2542 -3314.437261078045
2543 -3314.45300801383
2544 -3314.490258729391
2545 -3314.512159617993
2546 -3314.564596943957
2547 -3314.608733378177
2548 -3314.678660005789
2549 -3314.73260189482
2550 -3314.827091553432
2551 -3314.922325470509
2552 -3315.061621849185
2553 -3315.18633273306
2554 -3315.314083279662
2555 -3315.429797198664
2556 -3315.584296944162
2557 -3315.737159655832
2558 -3315.897205471689
2559 -3316.061108833179
2560 -3316.239667387062
2561 -3316.402014590436
2562 -3316.616804149315
2563 -3316.788274270708
2564 -3316.97688278814
2565 -3317.150665100686
2566 -3317.335723459404
2567 -3317.52577986337
2568 -3317.732957958302
2569 -3317.91160803869
2570 -3318.086847005562
2571 -3318.251660016129
2572 -3318.433062301814
2573 -3318.612742129779
2574 -3318.801030248878
2575 -3318.956465859901
2576 -3319.139633219513
2577 -3319.304257949532
2578 -3319.475595080613
2579 -3319.624852761425
2580 -3319.779596159084
2581 -3319.925975747658
2582 -3320.099749739527
2583 -3320.243563882733
2584 -3320.397955913938
2585 -3320.555673428627
2586 -3320.735668105996
2587 -3320.914272228591
2588 -3321.099294071659
2589 -3321.298017877572
2590 -3321.528070145904
2591 -3321.751857339248
2592 -3321.995574092644
2593 -3322.234181471177
2594 -3322.491208873744
2595 -3322.724929798293
2596 -3322.986711738569
2597 -3323.231168946482
2598 -3323.521878104789
2599 -3323.800181878354
2600 -3324.106546194665
2601 -3324.389287658233
2602 -3324.700006944674
2603 -3324.987325401072
2604 -3325.28017180776
2605 -3325.570503362947
2606 -3325.876295098371
2607 -3326.162735310083
2608 -3326.456481528849
2609 -3326.73237743229
2610 -3327.000118789421
2611 -3327.22284263635
2612 -3327.464773235993
2613 -3327.670725802761
2614 -3327.888477867584
2615 -3328.085183817807
2616 -3328.295238078798
2617 -3328.490058358611
2618 -3328.669682681078
2619 -3328.830179179971
2620 -3329.018641210493
2621 -3329.139759228693
2622 -3329.279126496203
2623 -3329.395276225734
2624 -3329.523664770216
2625 -3329.634516548672
2626 -3329.75144850237
2627 -3329.860448567548
2628 -3329.986395058022
2629 -3330.047999267163
2630 -3330.143373561471
2631 -3330.20705823237
2632 -3330.278893896964
2633 -3330.333732627578
2634 -3330.402087798641
2635 -3330.448802573939
2636 -3330.496630831278
2637 -3330.534999082105
2638 -3330.588979232553
2639 -3330.625904862915
2640 -3330.676346286811
2641 -3330.723471497055
2642 -3330.79367156428
2643 -3330.847347680819
2644 -3330.922869476829
2645 -3330.978264620138
2646 -3331.056587433618
2647 -3331.133315712569
2648 -3331.225508680048
2649 -3331.279056357136
2650 -3331.377162033048
2651 -3331.448031472997
2652 -3331.565241625874
2653 -3331.624153587732
2654 -3331.762069859538
2655 -3331.883876270784
2656 -3332.060802934237
2657 -3332.266359699348
2658 -3332.456655250202
2659 -3332.642885722112
2660 -3332.897291578913
2661 -3333.125552402288
2662 -3333.37241689757
2663 -3333.63376532742
2664 -3333.877619631197
2665 -3334.134637222497
2666 -3334.415377102805
2667 -3334.669248171288
2668 -3334.898651106938
2669 -3335.12115259139
2670 -3335.399206678157
2671 -3335.659076711122
2672 -3335.929089706709
2673 -3336.179772083678
2674 -3336.437501357736
2675 -3336.656985976064
2676 -3336.891698224481
2677 -3337.112671473746
2678 -3337.329363053817
2679 -3337.506128814927
2680 -3337.709484135949
2681 -3337.910037264085
2682 -3338.122810187473
2683 -3338.288108700687
2684 -3338.495640442115
2685 -3338.680623313503
2686 -3338.892977325058
2687 -3339.065776599364
2688 -3339.252763856429
2689 -3339.429904631517
2690 -3339.603328548954
2691 -3339.768119459893
2692 -3339.914741384354
2693 -3340.058480646879
2694 -3340.200726226152
2695 -3340.348855209315
2696 -3340.503186628795
2697 -3340.646310873805
2698 -3340.840470185033
2699 -3341.001399133058
2700 -3341.178837334533
2701 -3341.344429018773
2702 -3341.51636087022
2703 -3341.68887306344
2704 -3341.882035564517
2705 -3342.082252311526
2706 -3342.266196816599
2707 -3342.461107751858
2708 -3342.687312279276
2709 -3342.884858357952
2710 -3343.132442654713
2711 -3343.351945256389
2712 -3343.601557498495
2713 -3343.834517924725
2714 -3344.109259398605
2715 -3344.361537361156
2716 -3344.638474259619
2717 -3344.908328144431
2718 -3345.203690017611
2719 -3345.480103353931
2720 -3345.795802431689
2721 -3346.079138694725
2722 -3346.382330392052
2723 -3346.63972918837
2724 -3346.923823841812
2725 -3347.195428049432
2726 -3347.453676608996
2727 -3347.720461627604
2728 -3348.020353503711
2729 -3348.305037905897
2730 -3348.589622077362
2731 -3348.872880846849
2732 -3349.250699698479
2733 -3349.578797716711
2734 -3349.921050940185
2735 -3350.261179113772
2736 -3350.658638264819
2737 -3351.052947767259
2738 -3351.445700632113
2739 -3351.850775074255
2740 -3352.273912058497
2741 -3352.71669258335
2742 -3353.189909788347
2743 -3353.660795052632
2744 -3354.189822970237
2745 -3354.679026766023
2746 -3355.219358825843
2747 -3355.753689427422
2748 -3356.340079179083
2749 -3356.940359940102
2750 -3357.535093789234
2751 -3358.141100151053
2752 -3358.800681951564
2753 -3359.463200178488
2754 -3360.117405234101
2755 -3360.762665102437
2756 -3361.432170768705
2757 -3362.054828418747
2758 -3362.692942231722
2759 -3363.280636742239
2760 -3363.913859317864
2761 -3364.522575768459
2762 -3365.147743709411
2763 -3365.675074652973
2764 -3366.200306275805
2765 -3366.707665609643
2766 -3367.236429099249
2767 -3367.690917345698
2768 -3368.151694540299
2769 -3368.56083471166
2770 -3368.997075433074
2771 -3369.318782799331
2772 -3369.669176973077
2773 -3369.968374704715
2774 -3370.26976982849
2775 -3370.505688246767
2776 -3370.722961418216
2777 -3370.876053307153
2778 -3371.012229887754
2779 -3371.104215639842
2780 -3371.190930124294
2781 -3371.177712441602
2782 -3371.218650902862
2783 -3371.182952569054
2784 -3371.139194612166
2785 -3371.035586008972
2786 -3370.964448741799
2787 -3370.828835055627
2788 -3370.688654159973
2789 -3370.533199784856
2790 -3370.359063623576
2791 -3370.170814734912
2792 -3369.989690573012
2793 -3369.785990245282
2794 -3369.591108184977
2795 -3369.394989365107
2796 -3369.156312674515
2797 -3368.963101337458
2798 -3368.770150332183
2799 -3368.549961940798
2800 -3368.406420966653
2801 -3368.207277247013
2802 -3367.99041083173
2803 -3367.792166226721
2804 -3367.602187801274
2805 -3367.410231276788
2806 -3367.193699985215
2807 -3366.969697010709
2808 -3366.749781153545
2809 -3366.546479237035
2810 -3366.334318387789
2811 -3366.142242727472
2812 -3365.962540674322
2813 -3365.767093437078
2814 -3365.544425338609
2815 -3365.324658015537
2816 -3365.098777348456
2817 -3364.866265588692
2818 -3364.634386089552
2819 -3364.392215062523
2820 -3364.136565471547
2821 -3363.856463899983
2822 -3363.59267468593
2823 -3363.314448775995
2824 -3363.017978384144
2825 -3362.688451864245
2826 -3362.343347528391
2827 -3361.979787825211
2828 -3361.612536785871
2829 -3361.211139199146
2830 -3360.789651851886
2831 -3360.324977142757
2832 -3359.803146422829
2833 -3359.241703189526
2834 -3358.692987763037
2835 -3358.051439252637
2836 -3357.383626124817
2837 -3356.680219517232
2838 -3355.907473299713
2839 -3355.085122491752
2840 -3354.203307701799
2841 -3353.281883986916
2842 -3352.303158864747
2843 -3351.279416188747
2844 -3350.233924075211
2845 -3349.157572171126
2846 -3348.056455103138
2847 -3346.927922651095
2848 -3345.734873785401
2849 -3344.490435115752
2850 -3343.256672245659
2851 -3341.984839327833
2852 -3340.699499890366
2853 -3339.367085394959
2854 -3338.031647897253
2855 -3336.660409792725
2856 -3335.287679606598
2857 -3333.871582163787
2858 -3332.512069294094
2859 -3331.067486846244
2860 -3329.667111267794
2861 -3328.232943637404
2862 -3326.845892407251
2863 -3325.440832366858
2864 -3324.102317138125
2865 -3322.701604839634
2866 -3321.44745726743
2867 -3320.098090623381
2868 -3318.862548749667
2869 -3317.627697595854
2870 -3316.475274127565
2871 -3315.241848921197
2872 -3314.146909762486
2873 -3313.021381912809
2874 -3311.970718038601
2875 -3310.946465901569
2876 -3310.004740959217
2877 -3309.059539295183
2878 -3308.193147576159
2879 -3307.322090267356
2880 -3306.498689087038
2881 -3305.706272276721
2882 -3305.032241492261
2883 -3304.348398414933
2884 -3303.739369142404
2885 -3303.149117719255
2886 -3302.607762485748
2887 -3302.094206791193
2888 -3301.67312582935
2889 -3301.293742577947
2890 -3300.985444980625
2891 -3300.658521917533
2892 -3300.402255630228
2893 -3300.144548244891
2894 -3300.015878342416
2895 -3299.871646531086
2896 -3299.767243273737
2897 -3299.715886482502
2898 -3299.755551048646
2899 -3299.77216816423
2900 -3299.875553101897
2901 -3299.935104238215
2902 -3300.028644642822
2903 -3300.117631357768
2904 -3300.292202409835
2905 -3300.465672019063
2906 -3300.684767526395
2907 -3300.948347632622
2908 -3301.254319149687
2909 -3301.583952389919
2910 -3301.939909062544
2911 -3302.302718032115
2912 -3302.73337842305
2913 -3303.149125923069
2914 -3303.64474011792
2915 -3304.149174746089
2916 -3304.710404631826
2917 -3305.297137845102
2918 -3305.924721109947
2919 -3306.562905642207
2920 -3307.316863327108
2921 -3308.053172192533
2922 -3308.870542220245
2923 -3309.715081641616
2924 -3310.599399753966
2925 -3311.521494456088
2926 -3312.517101198581
2927 -3313.497695040146
2928 -3314.562424935681
2929 -3315.677195290034
2930 -3316.818054274423
2931 -3317.984498073995
2932 -3319.237660173847
2933 -3320.499198180511
2934 -3321.795735486595
2935 -3323.144451445437
2936 -3324.507091138824
2937 -3325.942216126989
2938 -3327.372951040287
2939 -3328.836766533724
2940 -3331.033419731987
2941 -3332.515612954694
2942 -3334.035980597076
2943 -3335.540173985433
2944 -3337.048887658912
2945 -3339.359652020838
2946 -3340.836924387152
2947 -3342.314279990524
2948 -3344.640876458848
2949 -3346.105569978737
2950 -3347.581960765211
2951 -3349.838786843679
2952 -3351.304699930461
2953 -3352.79218053296
2954 -3355.017479215423
2955 -3356.491695269945
2956 -3357.893969107266
2957 -3360.074218422182
2958 -3361.461681739474
2959 -3362.809144479735
2960 -3364.860207824619
2961 -3366.217529029613
2962 -3367.553158192775
2963 -3369.646088910868
2964 -3370.957944368476
2965 -3372.24764052946
2966 -3374.200421761184
2967 -3375.449553801173
2968 -3376.658733260515
2969 -3377.895954090895
2970 -3379.679716365673
2971 -3380.853430534527
2972 -3381.930317911107
2973 -3383.049345638195
2974 -3384.049098924749
2975 -3385.067618136921
2976 -3386.064768503103
2977 -3386.995339770333
2978 -3387.964385371783
2979 -3388.853214492413
2980 -3389.64363119001
2981 -3390.433391638128
2982 -3391.178014996433
2983 -3391.8637273208
2984 -3392.463441385738
2985 -3393.016470634296
2986 -3393.442844980637
2987 -3393.814708753528
2988 -3394.102006826437
2989 -3394.381497244109
2990 -3394.569454251568
2991 -3394.751744717548
2992 -3394.808192333281
2993 -3394.842975309247
2994 -3394.800538084407
2995 -3394.712234011693
2996 -3394.497062084279
2997 -3394.258629023881
2998 -3393.91958598461
2999 -3393.542095825173
3000 -3393.07867532986
3001 -3392.588571059863
3002 -3391.975585463379
3003 -3391.364243146073
3004 -3390.641391421415
3005 -3389.883349522408
3006 -3389.040999143279
3007 -3388.200879995461
3008 -3387.293401992935
3009 -3386.364917100404
3010 -3385.372221047244
3011 -3384.35916418541
3012 -3383.27134710816
3013 -3382.199521043171
3014 -3381.089152854003
3015 -3379.954714743745
3016 -3378.814458492453
3017 -3377.64793858379
3018 -3376.451092621775
3019 -3375.246941590553
3020 -3374.050489884927
3021 -3372.849105986609
3022 -3371.627823080404
3023 -3370.423811971589
3024 -3369.174828787317
3025 -3367.959383878527
3026 -3366.738668141216
3027 -3365.511684324682
3028 -3364.275360078836
3029 -3363.039091642266
3030 -3361.861006117103
3031 -3360.685980762145
3032 -3359.517534971352
3033 -3358.411338391641
3034 -3357.294511624791
3035 -3356.166523117977
3036 -3355.110632874885
3037 -3354.08202987514
3038 -3353.071417744728
3039 -3352.068956039703
3040 -3351.129020045547
3041 -3350.146146313163
3042 -3349.231702092238
3043 -3348.336119004237
3044 -3347.511374301457
3045 -3346.686795519171
3046 -3345.867565877903
3047 -3345.072963004666
3048 -3344.334406986376
3049 -3343.573862460386
3050 -3342.857705595435
3051 -3342.12867473503
3052 -3341.468373072127
3053 -3340.785023391845
3054 -3340.134210213097
3055 -3339.46140584987
3056 -3338.846146444137
3057 -3338.134778075619
3058 -3337.520530355918
3059 -3336.841886139058
3060 -3336.193192045662
3061 -3335.566431581918
3062 -3334.998301419372
3063 -3334.397517739301
3064 -3333.788618971487
3065 -3333.191369847468
3066 -3332.556408844224
3067 -3331.97223426496
3068 -3331.393381480284
3069 -3330.758420626305
3070 -3330.143528389598
3071 -3329.508888091181
3072 -3328.883161567067
3073 -3328.22950095274
3074 -3327.565223019437
3075 -3326.888331870404
3076 -3326.192056358788
3077 -3325.466238164815
3078 -3324.741975101252
3079 -3324.004583093214
3080 -3323.262468853669
3081 -3322.46554146109
3082 -3321.687752244217
3083 -3320.887711011552
3084 -3320.120984918961
3085 -3319.311440109113
3086 -3318.539429325978
3087 -3317.688086284241
3088 -3316.923749869257
3089 -3316.196048556774
3090 -3315.436812118566
3091 -3314.680471241632
3092 -3313.995229306287
3093 -3313.20413078742
3094 -3312.445621009238
3095 -3311.652508771412
3096 -3310.875471956202
3097 -3310.09339005037
3098 -3309.28367408633
3099 -3308.51316747723
3100 -3307.821972191317
3101 -3307.074998334374
3102 -3306.360866924938
3103 -3305.668330225109
3104 -3304.989151974307
3105 -3304.347856944676
3106 -3303.778293804228
3107 -3303.181585512471
3108 -3302.634169112975
3109 -3302.088732375781
3110 -3301.577349138446
3111 -3301.084348622223
3112 -3300.620279230311
3113 -3300.197387095894
3114 -3299.802319438446
3115 -3299.410586813944
3116 -3299.091314711458
3117 -3298.800224505575
3118 -3298.52728378881
3119 -3298.238654305416
3120 -3298.068920542924
3121 -3297.941483872945
3122 -3297.807207021998
3123 -3297.678738449143
3124 -3297.617224080077
3125 -3297.613306037209
3126 -3297.676196737894
3127 -3297.789030098758
3128 -3297.972428878235
3129 -3298.153351373532
3130 -3298.388227062599
3131 -3298.685133437255
3132 -3299.012391509782
3133 -3299.318935272789
3134 -3299.698758905625
3135 -3300.060603060646
3136 -3300.456923371815
3137 -3300.885816019371
3138 -3301.346708875687
3139 -3301.832230314476
3140 -3302.368780388253
3141 -3302.882429994514
3142 -3303.446365488089
3143 -3304.045458202943
3144 -3304.703928869246
3145 -3305.347584681246
3146 -3306.008135268694
3147 -3306.703181231056
3148 -3307.462798937854
3149 -3308.237617211711
3150 -3309.042831596564
3151 -3309.896266084488
3152 -3310.759059945395
3153 -3311.68026542738
3154 -3312.630816161087
3155 -3313.556174406423
3156 -3314.583809544777
3157 -3315.630333401709
3158 -3316.685185109201
3159 -3317.778900657966
3160 -3318.857927869523
3161 -3319.923303084328
3162 -3320.987910631439
3163 -3322.120847822664
3164 -3323.229079569566
3165 -3324.387672632341
3166 -3325.44946399095
3167 -3326.588775078815
3168 -3327.640077596418
3169 -3328.661329441162
3170 -3329.667625067354
3171 -3330.690248038703
3172 -3331.640659338041
3173 -3332.519968363268
3174 -3333.333339625106
3175 -3334.111554146622
3176 -3334.863198370245
3177 -3335.575561015961
3178 -3336.211029959632
3179 -3336.760102167614
3180 -3337.283062295317
3181 -3337.778798697466
3182 -3338.153078113425
3183 -3338.46623268831
3184 -3338.766065779306
3185 -3338.91340465877
3186 -3339.03749112702
3187 -3339.148538539837
3188 -3339.131903502309
3189 -3339.05251136429
3190 -3338.918545928868
3191 -3338.864387192377
3192 -3338.669116708395
3193 -3338.498758709331
3194 -3338.231535824137
3195 -3338.004675133707
3196 -3337.738685020318
3197 -3337.488324866772
3198 -3337.144742400152
3199 -3336.841660756013
