"mx-rfile"
"Iteration" "mx"
("Iteration" "mx")
1 407.7305518947229
2 408.256849466192
3 367.9073637955831
4 327.368551243871
5 268.2256444731957
6 229.3076514931609
7 174.5504905037234
8 133.8663206383918
9 91.48177033056976
10 56.39202259849529
11 24.63123656836592
12 1.429443807281553
13 -15.38718006654869
14 -23.90746547145313
15 -25.8207257064981
16 -22.87342933206017
17 -17.09235656192833
18 -9.136727352919252
19 0.0186700258782901
20 8.732355192324453
21 18.54498278854264
22 26.50668804398431
23 33.67885334573919
24 40.02289820182681
25 45.35079980684755
26 49.6087088311988
27 53.29748319820953
28 55.87894047702927
29 57.56280665640436
30 58.67318005895903
31 59.17280445723949
32 59.21758090594661
33 58.96803294885716
34 58.56097184670925
35 58.08988506229809
36 57.65898993150122
37 57.24243775042623
38 56.9307247043282
39 56.68528028640888
40 56.48933700012739
41 56.36729348383337
42 56.28404039437874
43 56.24312290431512
44 56.23578059490735
45 56.26959196691968
46 56.33271890583541
47 56.44083683354847
48 56.53875467976673
49 56.64634264603699
50 56.74250911380488
51 56.82807506552574
52 56.89069611007746
53 56.93873604503596
54 56.96429534259545
55 56.97859673579862
56 56.98130319734013
57 56.9796975586453
58 56.9735201786966
59 56.96343998360735
60 56.95362837541473
61 56.94021374341148
62 56.92844367640051
63 56.91711579882168
64 56.90348275273121
65 56.88806720085064
66 56.86950664988677
67 56.84144688168912
68 56.80806553805051
69 56.76821484158354
70 56.72092163577185
71 56.66614082214308
72 56.59282611745222
73 56.52954975813613
74 56.45896756371349
75 56.3803105940699
76 56.29820786052407
77 56.22881502924969
78 56.13844564814329
79 56.06262766916618
80 55.9850363268168
81 55.92441500653315
82 55.84257921087652
83 55.78079404890802
84 55.71796566444317
85 55.65304582494011
86 55.5853744032211
87 55.51572948166662
88 55.44241874425524
89 55.36720409142679
90 55.28982903982988
91 55.21118571718102
92 55.13054896263375
93 55.0476359320842
94 54.96241670028387
95 54.84703196737034
96 54.76070258815473
97 54.6728022073864
98 54.5547296461422
99 54.46594786620887
100 54.3758032395538
101 54.2836471273534
102 54.18932890501967
103 54.09308169527334
104 53.99429588465991
105 53.8964714571143
106 53.79733331760195
107 53.69836486954092
108 53.5999672089904
109 53.53299683750792
110 53.43126637918941
111 53.36419618858526
112 53.2927327250881
113 53.18551187571881
114 53.11504340788111
115 53.04254747106442
116 52.93385030847456
117 52.86211457960845
118 52.78858138740824
119 52.67865074713345
120 52.60647114040574
121 52.49896902398356
122 52.428984089829
123 52.32468118321002
124 52.2568499953433
125 52.15654122587065
126 52.09166230789276
127 52.0276698380701
128 51.93155047162442
129 51.8688805890761
130 51.807496425822
131 51.74598834109433
132 51.68605900699297
133 51.6254278622074
134 51.56558031118255
135 51.50715522120182
136 51.44856963537411
137 51.39132225468805
138 51.33520905102672
139 51.28014328211471
140 51.2266669791918
141 51.17522506120817
142 51.1249264983768
143 51.07694109303687
144 51.03075212383366
145 50.98627667116728
146 50.9438786221965
147 50.90327384404274
148 50.86462253750177
149 50.82759425515841
150 50.79214241780198
151 50.75877431922961
152 50.72733336701403
153 50.69673235695335
154 50.66804345523705
155 50.6277547640612
156 50.60447943947864
157 50.58188502985843
158 50.56076363124932
159 50.53140921093791
160 50.51374404998951
161 50.4971729782502
162 50.48134659565813
163 50.46760526941174
164 50.45496886540875
165 50.44348722309378
166 50.43286614455106
167 50.4244277764828
168 50.41773342468381
169 50.41432194508833
170 50.41313085004036
171 50.41409000400952
172 50.41733273980578
173 50.42429626510804
174 50.43382833920146
175 50.44674456775038
176 50.46169195520106
177 50.47994557294241
178 50.50128566055587
179 50.52544039435841
180 50.55291101741131
181 50.58308369716724
182 50.61555246714289
183 50.6510618144826
184 50.68921090478441
185 50.73070950268445
186 50.77530543405313
187 50.82202071652767
188 50.87121517770442
189 50.92244238266309
190 50.97627616176386
191 51.05795306365173
192 51.11335468284425
193 51.17079599553325
194 51.25803589216184
195 51.31546596926443
196 51.40197619926586
197 51.46016307646074
198 51.54717587595191
199 51.60374366481697
200 51.68849425392377
201 51.77162965689612
202 51.85214627952892
203 51.92941803565671
204 52.00516866988531
205 52.07876943998614
206 52.1488325677436
207 52.21606660238994
208 52.28056677527981
209 52.343083720796
210 52.40283034486968
211 52.46032825161819
212 52.51561820286634
213 52.56840056184328
214 52.61876247289759
215 52.66728113368989
216 52.71325411938813
217 52.75756168123554
218 52.80001836859201
219 52.84073065026657
220 52.87909889888953
221 52.91484777883964
222 52.94845605695276
223 52.97979823288969
224 53.00857314158349
225 53.03598636338865
226 53.0614090257199
227 53.08521064425408
228 53.10680593437807
229 53.12656253499679
230 53.14453680341222
231 53.16064284258753
232 53.17511545540937
233 53.18828939216537
234 53.20006444309661
235 53.21076739353022
236 53.21698208894657
237 53.22530149620638
238 53.23282391819988
239 53.23710620301868
240 53.24290235236662
241 53.24836199731958
242 53.25157644557177
243 53.25586680791689
244 53.2584368535211
245 53.26177777621952
246 53.26391610581845
247 53.2668277478467
248 53.2685135251289
249 53.27077361420839
250 53.27205116654812
251 53.27367057139445
252 53.27457544116248
253 53.2757007230793
254 53.27644441467908
255 53.27709850802788
256 53.27737614095535
257 53.27750462772656
258 53.2774576821495
259 53.27732033156318
260 53.27712119296856
261 53.27681313630064
262 53.27635943288285
263 53.27584889953929
264 53.27536308483474
265 53.27481831683694
266 53.27415826277362
267 53.27344414028348
268 53.2724792756918
269 53.2715083224665
270 53.27054974466184
271 53.26953438595618
272 53.26845267584658
273 53.26738105420473
274 53.26624469878744
275 53.26519668412829
276 53.26379830480739
277 53.26247340542897
278 53.26103424166337
279 53.25963595434727
280 53.25818056198339
281 53.25669864575188
282 53.25508382985951
283 53.25343731381808
284 53.2517293545301
285 53.25003537904956
286 53.24821615496403
287 53.24635319963164
288 53.24449039584026
289 53.24258888968063
290 53.24060726479407
291 53.23860220865257
292 53.23656348284569
293 53.23450897708106
294 53.23243458615638
295 53.23034504028801
296 53.22824016073308
297 53.22616686399073
298 53.22409677610041
299 53.22205443565112
300 53.22004033625893
301 53.21812473718281
302 53.21624133919414
303 53.21444322417182
304 53.21253159789818
305 53.21068335693692
306 53.20880793440942
307 53.20694022131772
308 53.20498390325693
309 53.20302547013085
310 53.201057747734
311 53.19909463941718
312 53.19712401808121
313 53.19513938760515
314 53.19304965541946
315 53.19104527939934
316 53.18900906877124
317 53.18701511579899
318 53.18500182088561
319 53.18307059437745
320 53.18111438136545
321 53.17914517557122
322 53.17716985226422
323 53.17521859547837
324 53.1732910226286
325 53.17138741744682
326 53.16953160050798
327 53.16774650273216
328 53.1659096139656
329 53.16408979122808
330 53.16230697439005
331 53.16057991452574
332 53.15885307733542
333 53.15722273087053
334 53.15560693336799
335 53.15406457776238
336 53.15254924763329
337 53.15110669384815
338 53.14970013580813
339 53.14836897668942
340 53.14708905489732
341 53.14588269550746
342 53.14470945902892
343 53.14360256982188
344 53.14255907509079
345 53.14160523291649
346 53.14071094353543
347 53.13989586892189
348 53.13916262045809
349 53.13851920290013
350 53.13795272395368
351 53.13747253862213
352 53.13707070918791
353 53.13673362022229
354 53.13647824705316
355 53.13629461345018
356 53.13618076492546
357 53.13612103145277
358 53.13615731089536
359 53.13626425814232
360 53.1364426978794
361 53.13669523357875
362 53.13702149912805
363 53.13745868292531
364 53.13797634800004
365 53.13857297800447
366 53.13923270753582
367 53.13996413058315
368 53.14076574770326
369 53.14166951807947
370 53.14263059668232
371 53.14366897789984
372 53.14478889084759
373 53.14599803604539
374 53.14725817291617
375 53.14861581142818
376 53.1500613759254
377 53.15159769210524
378 53.15320982281794
379 53.15493541020751
380 53.15674961965824
381 53.15865846274496
382 53.16066428051266
383 53.16274009211703
384 53.16489604011915
385 53.16714967154725
386 53.16949890467851
387 53.17194734346681
388 53.1744726313275
389 53.177101782738
390 53.17982130901415
391 53.18262267686192
392 53.1855021564383
393 53.18848497390258
394 53.19154359122623
395 53.19468725785708
396 53.19791386838576
397 53.20124601895559
398 53.20465917896451
399 53.20818339143391
400 53.21179454605301
401 53.21726258881752
402 53.22089002164833
403 53.22458482249692
404 53.23016206662846
405 53.23382185114938
406 53.23753159283148
407 53.24305498089163
408 53.24669155927266
409 53.25214676601002
410 53.25571859524041
411 53.26112666516607
412 53.26469435742313
413 53.27011748454591
414 53.27371532547647
415 53.27918820995315
416 53.28281159399543
417 53.28836051583002
418 53.29383945525751
419 53.29927879586466
420 53.30461107393688
421 53.30991432602481
422 53.31516318028478
423 53.31870028019339
424 53.3241067426966
425 53.32956190213614
426 53.3350164525443
427 53.34050559980978
428 53.34599588670595
429 53.35153587139784
430 53.35710602721882
431 53.3627313459635
432 53.36839031162182
433 53.37411673290416
434 53.37989992811398
435 53.38572477408971
436 53.39155340684547
437 53.3974823472733
438 53.40344402328373
439 53.40946720181536
440 53.41554453936759
441 53.42166116832476
442 53.4278353160458
443 53.43405922455738
444 53.44032424345369
445 53.44661320419707
446 53.45293621443404
447 53.45928798219474
448 53.46565414167
449 53.47203981076768
450 53.47842977808772
451 53.48484128405696
452 53.49125000495572
453 53.49765311550841
454 53.50404438064833
455 53.51044170902001
456 53.51682424947007
457 53.52322362705448
458 53.52957870100156
459 53.53596081146885
460 53.54229085153376
461 53.54863764142166
462 53.55495802092624
463 53.56132950536264
464 53.56771211614602
465 53.5741127834869
466 53.58050264005153
467 53.58690721362857
468 53.59330577733227
469 53.59972069346662
470 53.60611610455171
471 53.61251199787434
472 53.6188824954417
473 53.62523906009509
474 53.63158384546194
475 53.63793305111601
476 53.64424545174995
477 53.65059066308015
478 53.65689387212158
479 53.66320607552782
480 53.66950192726738
481 53.67581398204723
482 53.68208519613673
483 53.68833665798764
484 53.69455065242423
485 53.70075524694293
486 53.70690879143599
487 53.7130694967138
488 53.71917530383313
489 53.72527712119662
490 53.7313343165813
491 53.73738770758415
492 53.74337869660139
493 53.7493800583982
494 53.75533898449324
495 53.76121593224004
496 53.76710252063498
497 53.77298367270475
498 53.7788231685487
499 53.78466863270592
500 53.79043690896068
501 53.79621168028267
502 53.80195803025446
503 53.80770644549484
504 53.81342419847805
505 53.81912534184105
506 53.82479875224514
507 53.83047868565023
508 53.83610054369824
509 53.84171916565234
510 53.84728671852413
511 53.85284762025402
512 53.85836284341569
513 53.8638463427368
514 53.86928653761108
515 53.87472188217546
516 53.88010630414144
517 53.88549865408366
518 53.89080707216456
519 53.89611238479669
520 53.90135900110882
521 53.90662567079316
522 53.91183214414392
523 53.91702349226189
524 53.9221685462391
525 53.92732850743853
526 53.9324246324768
527 53.93753506482993
528 53.94257277260321
529 53.94762403930503
530 53.95261726058077
531 53.9575874118207
532 53.96250017208818
533 53.96739556502888
534 53.97222968708958
535 53.97703981394491
536 53.98179357662566
537 53.98656296626974
538 53.9912592975942
539 53.99595160516698
540 54.00057755449281
541 54.00520615390808
542 54.00975985989233
543 54.01433444511328
544 54.01883747435607
545 54.02337228264688
546 54.02784955628048
547 54.03233949492191
548 54.03677209224465
549 54.0412051178677
550 54.04559036303661
551 54.04995525356826
552 54.05427846623221
553 54.05860038887941
554 54.06286010822258
555 54.06711576973232
556 54.07131257143088
557 54.07549046757909
558 54.07960619879353
559 54.08371952164053
560 54.08777382962175
561 54.09181986026386
562 54.09582405477781
563 54.09981585782048
564 54.10377397469659
565 54.10772704824037
566 54.11162643718506
567 54.11552558824398
568 54.11937826284845
569 54.12323069114709
570 54.12703763702411
571 54.13084610502865
572 54.13460632236427
573 54.13836465004533
574 54.14207736120071
575 54.14576284839656
576 54.14939655826977
577 54.15301283386851
578 54.15657907071887
579 54.16011799586941
580 54.16360555298053
581 54.16707551562066
582 54.1705233832211
583 54.17395869759303
584 54.17735782854545
585 54.18075716128317
586 54.18412390527557
587 54.18748611948953
588 54.19078642239138
589 54.19406909375414
590 54.19729878249596
591 54.20051368943931
592 54.20369432407716
593 54.20687100763416
594 54.21000676538168
595 54.213143027924
596 54.21623939030841
597 54.21933783228233
598 54.22238414528235
599 54.22543612415745
600 54.22843103341594
601 54.23143660455591
602 54.23439187675134
603 54.23735058800597
604 54.24025353024793
605 54.2431599869408
606 54.24601501861196
607 54.2488612498551
608 54.25165611775066
609 54.25444107706875
610 54.25717318036546
611 54.25990494879068
612 54.26260322662535
613 54.2653077533729
614 54.26797726712341
615 54.27063640558352
616 54.27325567851747
617 54.27587142658319
618 54.27844903315845
619 54.28103050093571
620 54.28357566247311
621 54.28612184945154
622 54.28862870953173
623 54.29112600401577
624 54.29358225461236
625 54.29602949274101
626 54.2984357105265
627 54.30083941725592
628 54.30321286233475
629 54.30557729450143
630 54.30791266665415
631 54.31024817237886
632 54.31255403437473
633 54.31485522553366
634 54.31713301390528
635 54.31940252281392
636 54.32164479649194
637 54.32387116148313
638 54.32607414442371
639 54.32826518700818
640 54.33042890424894
641 54.33187905432302
642 54.33408911281543
643 54.33629770998067
644 54.33848824606567
645 54.34066730622202
646 54.34282399832
647 54.34496924817657
648 54.34709567779624
649 54.34919868324754
650 54.35060216616333
651 54.35274634507863
652 54.35485318222142
653 54.35626313215918
654 54.35840390085942
655 54.36052671306593
656 54.36261423239868
657 54.36468541082431
658 54.36671051280074
659 54.36868457261425
660 54.37060936983751
661 54.37188184882653
662 54.37379521439426
663 54.37567524590205
664 54.37752155232383
665 54.3793449661751
666 54.38113962410518
667 54.38234502180767
668 54.38416038708971
669 54.38537856466121
670 54.38722341942718
671 54.38904972113995
672 54.39025778213548
673 54.39209971792423
674 54.39390728104291
675 54.39569084094002
676 54.39743762054738
677 54.39859310757085
678 54.40033895955314
679 54.40205775672491
680 54.40319780848359
681 54.40492331730184
682 54.40661326623167
683 54.40827541017311
684 54.40989672907973
685 54.41098409656755
686 54.41260481106871
687 54.41368798260056
688 54.41531677134208
689 54.41691697675626
690 54.41847307444006
691 54.42000043592007
692 54.42148671582802
693 54.4229488289872
694 54.42437257781132
695 54.42577243021732
696 54.42713584642525
697 54.42848085580084
698 54.42936888908635
699 54.43074218122566
700 54.43208263317052
701 54.43299654861239
702 54.43437467153733
703 54.43575948552726
704 54.43667452050624
705 54.43809020999954
706 54.43946868566122
707 54.44039859646711
708 54.44179391854765
709 54.44316996674251
710 54.44450434626176
711 54.44582205140926
712 54.44710438346868
713 54.44796825803206
714 54.44926719133565
715 54.45014752044074
716 54.4514589305092
717 54.45234171003321
718 54.45365420672697
719 54.45495413637737
720 54.45581042083574
721 54.45711202252422
722 54.45837687095275
723 54.45923084356028
724 54.46049892121388
725 54.46135364791682
726 54.46262039275499
727 54.46386913884851
728 54.46506345694897
729 54.46623908527071
730 54.46737174863045
731 54.46849073220655
732 54.46921541987417
733 54.47031682628756
734 54.47103355821356
735 54.47213274271538
736 54.47320266697499
737 54.47392838165179
738 54.47501036538993
739 54.47574804766781
740 54.47684434026154
741 54.47759059020182
742 54.47870631612831
743 54.47982411270228
744 54.48055813243128
745 54.48167347173641
746 54.48274447375164
747 54.48345244933071
748 54.48451263418677
749 54.48555626114001
750 54.48623862157153
751 54.48727481125702
752 54.48794900047131
753 54.48898089791943
754 54.48964446730666
755 54.49065225170086
756 54.49129673184973
757 54.49229011454793
758 54.49293074717852
759 54.49391818639504
760 54.49456841409284
761 54.49556203251833
762 54.49621032311353
763 54.49719590896253
764 54.49813676538415
765 54.49876322428386
766 54.49968800592253
767 54.50030368951632
768 54.50120767963131
769 54.50182354457502
770 54.50271558059448
771 54.50333011862026
772 54.50420875462893
773 54.50481323493837
774 54.50567839951334
775 54.5062574767686
776 54.50710255121012
777 54.50766890752197
778 54.50849387142156
779 54.50931095578781
780 54.50983827648907
781 54.51063577923063
782 54.51114665554651
783 54.51192444049436
784 54.51266166725569
785 54.5131552185796
786 54.51387062247208
787 54.51434873625078
788 54.51504279652335
789 54.51550498317597
790 54.51618012158552
791 54.51663760038109
792 54.51730665490219
793 54.51776458205868
794 54.51844126928481
795 54.51912777007917
796 54.51957476061629
797 54.52026480343943
798 54.52070965358817
799 54.52139518130086
800 54.52205068592318
801 54.5224984525717
802 54.52314730725731
803 54.52358157326646
804 54.52421816621885
805 54.52464906157726
806 54.52527797282887
807 54.52590408097348
808 54.52631150026292
809 54.52694922051931
810 54.52736210119535
811 54.52800227862848
812 54.52841943233561
813 54.52905904536457
814 54.52946835889863
815 54.53009700904984
816 54.53049714257627
817 54.531122370118
818 54.53171862991753
819 54.53213163739532
820 54.53273169814683
821 54.53314568529922
822 54.53373306421068
823 54.53413293978905
824 54.5347032601425
825 54.53508786333336
826 54.53564029256908
827 54.53601053319747
828 54.53655435813757
829 54.53692734655343
830 54.53747249505148
831 54.5378459510133
832 54.53839245583882
833 54.53875980430715
834 54.53929704671603
835 54.53965708064473
836 54.54018861690781
837 54.54054692059346
838 54.541069755334
839 54.54142326462232
840 54.54193377571079
841 54.54227846063485
842 54.54277202354038
843 54.5431084793556
844 54.54359593854375
845 54.54392507555654
846 54.54439568257509
847 54.54471404182156
848 54.54517513249792
849 54.54549018102017
850 54.54594391473908
851 54.54625361803801
852 54.54670659258299
853 54.54702130088872
854 54.54747481231978
855 54.54793359298173
856 54.54822830315521
857 54.54868737312086
858 54.54897514192039
859 54.54941215225024
860 54.54968564556884
861 54.5501087554339
862 54.55036953251779
863 54.55076858421992
864 54.55113687920667
865 54.55138889863242
866 54.5517604415899
867 54.55202126557184
868 54.55240990766102
869 54.55268017530567
870 54.55307652488931
871 54.55335246838962
872 54.5537470357652
873 54.55414287951799
874 54.55450882118365
875 54.5548704129308
876 54.55508678580073
877 54.5554279393324
878 54.55573798473294
879 54.55595829305476
880 54.55627194995858
881 54.55649342632456
882 54.55680766446989
883 54.55713157332472
884 54.55733010399526
885 54.55765412604456
886 54.55785954706361
887 54.55820275986157
888 54.55842528102401
889 54.55879775912315
890 54.55914376560026
891 54.55939776220688
892 54.55975983446484
893 54.56013659899234
894 54.56036674589864
895 54.56073799313251
896 54.56107833035484
897 54.56132565420103
898 54.56165017040749
899 54.56188282280704
900 54.5621928536017
901 54.56241479771258
902 54.56272073324611
903 54.56304092812503
904 54.56323441266328
905 54.56354767499564
906 54.5637386029165
907 54.56404743468951
908 54.5642326937332
909 54.56453774327875
910 54.56481105805215
911 54.56509630897728
912 54.56535621804854
913 54.56554618532153
914 54.56579556992648
915 54.56598296811227
916 54.56623174085151
917 54.56641464316698
918 54.56664961217309
919 54.5668962986936
920 54.56703928434955
921 54.5672919850495
922 54.56751495053734
923 54.56768637218267
924 54.56793222538514
925 54.56812470339882
926 54.56839566576058
927 54.56868760637128
928 54.56895827130564
929 54.5692458041818
930 54.56941689154804
931 54.5696949477995
932 54.56985411500217
933 54.57011632626243
934 54.57026543225373
935 54.57052010118051
936 54.57066784713674
937 54.57091880507299
938 54.57114522707829
939 54.57131550430471
940 54.57154427680235
941 54.57171106559785
942 54.5719357167094
943 54.57210329909891
944 54.57233170160803
945 54.57249855690839
946 54.57271899926097
947 54.57295474109495
948 54.57316416612179
949 54.57331901171181
950 54.57352108088901
951 54.57372907389031
952 54.57384249611233
953 54.57403535508507
954 54.57419824873487
955 54.57432353324037
956 54.57448332906448
957 54.57465804967301
958 54.57475424684316
959 54.5749370572575
960 54.57504583554562
961 54.57524416697225
962 54.57536277994757
963 54.57556218774332
964 54.57568265213643
965 54.57588665947537
966 54.5760627672211
967 54.5761960782346
968 54.57636769712388
969 54.57649560579048
970 54.57665160341009
971 54.57683246524794
972 54.57698855189494
973 54.5771149811604
974 54.57728380488184
975 54.57747905339642
976 54.57759818628133
977 54.57780853046145
978 54.5779308826493
979 54.57813236856525
980 54.57824924579266
981 54.57844560060548
982 54.57855622001225
983 54.57875156650608
984 54.57892878649224
985 54.57906757754606
986 54.57924806356574
987 54.57943964543045
988 54.57959968563054
989 54.57978338008284
990 54.57993830651026
991 54.58005452367377
992 54.58020064738334
993 54.58037597963997
994 54.5804675819088
995 54.580641352511
996 54.58078965713584
997 54.58091235526538
998 54.58106384163295
999 54.58118050014861
1000 54.5813262772558
1001 54.58143903988648
1002 54.58157875514534
1003 54.58173933080991
1004 54.58182129790718
1005 54.58197305564908
1006 54.58204884405595
1007 54.58220330133326
1008 54.5823347633896
1009 54.58244072331278
1010 54.58257499936656
1011 54.58273039375543
1012 54.58281623969482
1013 54.58297616446227
1014 54.58305810778438
1015 54.5832061457287
1016 54.58328911120152
1017 54.58344736981134
1018 54.58359065514746
1019 54.58375923453092
1020 54.58391007771567
1021 54.58407866660626
1022 54.58421440250786
1023 54.58431344309215
1024 54.58443152657574
1025 54.58456213276102
1026 54.58466230520449
1027 54.58477612334934
1028 54.5848602152317
1029 54.58493445941787
1030 54.58501634691941
1031 54.58512563215021
1032 54.58517768099384
1033 54.58529047519618
1034 54.58538267870784
1035 54.58546382904573
1036 54.58556107250497
1037 54.58567743422739
1038 54.58576106482903
1039 54.58583101498318
1040 54.58590376350848
1041 54.58600131775013
1042 54.58606725618898
1043 54.58615388245773
1044 54.58622045682154
1045 54.58630903439146
1046 54.58637590099993
1047 54.58646879031836
1048 54.58653176905499
1049 54.58659369635122
1050 54.58665032942819
1051 54.58672943655373
1052 54.5867648790595
1053 54.58685762182444
1054 54.58693742072755
1055 54.5870151556223
1056 54.58711787979688
1057 54.58723959292153
1058 54.58733486359151
1059 54.58744877519668
1060 54.58753739077731
1061 54.58761617949555
1062 54.58770272371583
1063 54.58781124675156
1064 54.58789425592602
1065 54.58800534265374
1066 54.58808365676045
1067 54.58819102038651
1068 54.58827660150481
1069 54.58835296762665
1070 54.5884400532896
1071 54.58854701536509
1072 54.58862926845913
1073 54.58872746233435
1074 54.58879630470737
1075 54.58888116734499
1076 54.58891191612432
1077 54.58899001952654
1078 54.58904177062722
1079 54.58909136241316
1080 54.58914210201225
1081 54.58921693699845
1082 54.58926833707108
1083 54.58934144023648
1084 54.58938723665909
1085 54.58945627564712
1086 54.5894949939025
1087 54.58955597546272
1088 54.58958485434201
1089 54.58965790686924
1090 54.5897073520158
1091 54.58978012244582
1092 54.58983464629897
1093 54.5899125809885
1094 54.58995799198684
1095 54.59000377954552
1096 54.59004970033944
1097 54.59011994989227
1098 54.59016620304287
1099 54.59024651042675
1100 54.59028378168727
1101 54.59038019564452
1102 54.59045652621713
1103 54.59056321481959
1104 54.59062443705864
1105 54.59073873968993
1106 54.5907915901641
1107 54.59089086415341
1108 54.59095495652594
1109 54.59101060161971
1110 54.59106607074365
1111 54.59114255747663
1112 54.59119264278308
1113 54.59124345857764
1114 54.59129396344034
1115 54.59136380642981
1116 54.59141043081105
1117 54.59147346946054
1118 54.59150854109638
1119 54.59156598104136
1120 54.59160107027736
1121 54.59165984841588
1122 54.59168909989141
1123 54.59174105613311
1124 54.59175536438353
1125 54.59180957602265
1126 54.59183596742861
1127 54.59188605221676
1128 54.59191645274238
1129 54.59197658895871
1130 54.59200906049188
1131 54.59205427671967
1132 54.59207818933992
1133 54.5921249362604
1134 54.59215462409851
1135 54.59220514949802
1136 54.59222452348679
1137 54.59229301320914
1138 54.59234533586125
1139 54.59240335305083
1140 54.59246497681446
1141 54.59255364598472
1142 54.59259075644535
1143 54.59266691694678
1144 54.59268847129164
1145 54.59275653948486
1146 54.59279613609797
1147 54.59286325973357
1148 54.5929150078268
1149 54.59299122432551
1150 54.59304379262163
1151 54.59311652012465
1152 54.59314481759334
1153 54.59320699861863
1154 54.59323758196452
1155 54.59329018280973
1156 54.59331557992867
1157 54.59334930898281
1158 54.593372022212
1159 54.59342444319608
1160 54.59344704892313
1161 54.59347733104786
1162 54.59349692819598
1163 54.59354073399064
1164 54.59354326348208
1165 54.59357891226121
1166 54.59357784717382
1167 54.59359825843386
1168 54.59360059493508
1169 54.59362131933157
1170 54.59362540993834
1171 54.59366259958238
1172 54.59368423558159
1173 54.59372250284131
1174 54.59375250658584
1175 54.59380742364895
1176 54.5938233441409
1177 54.59386994486181
1178 54.59387996075751
1179 54.59390716452694
1180 54.59392062758447
1181 54.59394579987224
1182 54.59395379124496
1183 54.59399732497914
1184 54.59403113656361
1185 54.59410388311331
1186 54.59415594439696
1187 54.59423522851333
1188 54.5942872883395
1189 54.59436076822031
1190 54.59440270516455
1191 54.59444570815317
1192 54.59448253883131
1193 54.59453023246412
1194 54.59453730254742
1195 54.59457614902028
1196 54.59458904602714
1197 54.59462853630651
1198 54.59464236983499
1199 54.59468181035844
1200 54.5946899866562
1201 54.59473666675834
1202 54.59475726920028
1203 54.59479874828871
1204 54.59481740239923
1205 54.59485370762585
1206 54.5948625712006
1207 54.59489438781325
1208 54.59490468081
1209 54.59492678556997
1210 54.59492569632155
1211 54.59494468674849
1212 54.59493594074198
1213 54.59494759647605
1214 54.59492631535436
1215 54.59493352251911
1216 54.59492508803405
1217 54.59494206183512
1218 54.5949503219634
1219 54.59499469674387
1220 54.59503259044229
1221 54.59509900476996
1222 54.59513711711255
1223 54.59519718737995
1224 54.59522545855113
1225 54.59528026272254
1226 54.595294499953
1227 54.59534604958873
1228 54.59537305900406
1229 54.59540883351198
1230 54.59543764948134
1231 54.59549229237594
1232 54.59552201732043
1233 54.59556259002569
1234 54.59559062386622
1235 54.5956409322467
1236 54.5956638126029
1237 54.59570622048068
1238 54.59572512242741
1239 54.59575259779071
1240 54.59575354707094
1241 54.59577245631438
1242 54.59576481326646
1243 54.5957822189517
1244 54.59578040381444
1245 54.5958013647021
1246 54.5957952111873
1247 54.59580925179184
1248 54.59580148779971
1249 54.59582857449808
1250 54.59583174990986
1251 54.59586453422984
1252 54.59587714351012
1253 54.59591957246642
1254 54.59594129262128
1255 54.59599273600157
1256 54.59602918110351
1257 54.59608380789079
1258 54.59611177450054
1259 54.59615645997942
1260 54.59616808339368
1261 54.59619303047976
1262 54.59618233784847
1263 54.59619319810772
1264 54.5961818511119
1265 54.59619332990682
1266 54.59620405105417
1267 54.59624665258387
1268 54.59626849350288
1269 54.5963170224795
1270 54.59633575016755
1271 54.59638780167951
1272 54.59640344082547
1273 54.59644038879675
1274 54.59645023617917
1275 54.5964830243093
1276 54.59648802148255
1277 54.5965098819493
1278 54.59651014888085
1279 54.59652990294153
1280 54.59652105838624
1281 54.59653243854684
1282 54.59650497742965
1283 54.59649790110815
1284 54.59647369705022
1285 54.59648325785293
1286 54.5964688044705
1287 54.59648645569189
1288 54.59648115318318
1289 54.59650391286824
1290 54.59651025601173
1291 54.59654073429268
1292 54.59654539071132
1293 54.59658402852882
1294 54.59659625628887
1295 54.5966281691418
1296 54.59663648887321
1297 54.59665397155481
1298 54.59664552727072
1299 54.59665628767499
1300 54.59664722067733
1301 54.59666363519799
1302 54.59666454005352
1303 54.59669678668255
1304 54.59671082437873
1305 54.59675511914224
1306 54.59676757082531
1307 54.59681667690939
1308 54.59684475805027
1309 54.59687823499992
1310 54.59689306021438
1311 54.5969324334103
1312 54.59695572777186
1313 54.5970049629703
1314 54.59702463980295
1315 54.5970619276675
1316 54.59706998585244
1317 54.59708818797248
1318 54.59707138064275
1319 54.5970745409978
1320 54.59705396856767
1321 54.59706283620237
1322 54.59704915286554
1323 54.59706854267328
1324 54.59707676868081
1325 54.59711281336336
1326 54.59712871284677
1327 54.59716367209257
1328 54.59716386323542
1329 54.59719819445501
1330 54.59719486714837
1331 54.59721397408692
1332 54.59720230994564
1333 54.59720728737846
1334 54.59717978492645
1335 54.59717096224069
1336 54.59713885802785
1337 54.59713947410951
1338 54.59712091429539
1339 54.59712562213254
1340 54.59710684754471
1341 54.59712523217926
1342 54.5971233620356
1343 54.59714879514991
1344 54.59714413313311
1345 54.59717783846072
1346 54.5971870186214
1347 54.59722610901547
1348 54.59724843536544
1349 54.5973037156242
1350 54.59732881158245
1351 54.59736978572406
1352 54.5973814051405
1353 54.59739833193133
1354 54.59739518757279
1355 54.5974126782595
1356 54.59740200998641
1357 54.59742747604059
1358 54.59743006091865
1359 54.59746569378913
1360 54.59748254574108
1361 54.5975221209203
1362 54.59755176396925
1363 54.59759678220413
1364 54.59760333434378
1365 54.59764420207872
1366 54.59765051336471
1367 54.59767739982205
1368 54.59767084285762
1369 54.59767463204864
1370 54.59764782299588
1371 54.59765218186079
1372 54.59764083342078
1373 54.59765881010458
1374 54.59765899634607
1375 54.59769001445785
1376 54.59770500825507
1377 54.59774483427918
1378 54.59775203474054
1379 54.59778685240702
1380 54.59779350791982
1381 54.59782779092978
1382 54.59783222440554
1383 54.59786481932715
1384 54.59786521618626
1385 54.5978907138952
1386 54.59787805533456
1387 54.59788392593755
1388 54.59786188570997
1389 54.59786074674037
1390 54.59783357898817
1391 54.59783123523287
1392 54.59781236455314
1393 54.5978271556449
1394 54.59783276689041
1395 54.59786574051986
1396 54.59788922912533
1397 54.59793990043469
1398 54.59795890040174
1399 54.59799478268202
1400 54.59799167434652
1401 54.59800435049346
1402 54.59797825887645
1403 54.59797120203298
1404 54.59793520072221
1405 54.59792377682763
1406 54.59788321772439
1407 54.59786805452263
1408 54.59783714887816
1409 54.5978370166012
1410 54.59781820429804
1411 54.59783496670038
1412 54.59782327967532
1413 54.59783714666597
1414 54.59782040559056
1415 54.59783104207264
1416 54.59782144371181
1417 54.59783546478037
1418 54.59781739938391
1419 54.59782490706591
1420 54.59780839674417
1421 54.59782525258837
1422 54.59781230349279
1423 54.59783339766825
1424 54.5978300344798
1425 54.5978556584754
1426 54.59784622433811
1427 54.5978534628844
1428 54.59783704887408
1429 54.59785254192976
1430 54.59784325328768
1431 54.59786716626825
1432 54.59787194258679
1433 54.59791190904431
1434 54.59792369256217
1435 54.59795107852019
1436 54.59794991972083
1437 54.59797422385453
1438 54.59797076107511
1439 54.5979861653661
1440 54.59798251017297
1441 54.59801419446988
1442 54.59802388082188
1443 54.59806078084136
1444 54.59806857460659
1445 54.59810026233018
1446 54.59809769447953
1447 54.59811041033283
1448 54.598097639964
1449 54.59810843160452
1450 54.59808961830969
1451 54.59809429357335
1452 54.59807782273072
1453 54.59808973542123
1454 54.59806730479803
1455 54.59806794156155
1456 54.59803633013496
1457 54.59803524466544
1458 54.59801228023874
1459 54.59802174282156
1460 54.59800595115215
1461 54.59802055583138
1462 54.59800763848904
1463 54.5980205973152
1464 54.59800446213079
1465 54.59801569129509
1466 54.59800116170522
1467 54.59801861646132
1468 54.59801430694532
1469 54.59804380149298
1470 54.59805193513555
1471 54.5980869897927
1472 54.59808807448468
1473 54.59811386793868
1474 54.59812415191813
1475 54.59815723300089
1476 54.59816488155647
1477 54.59819094997676
1478 54.59820925282249
1479 54.59824836443973
1480 54.59826383488884
1481 54.59829345609621
1482 54.59829447721725
1483 54.59831068157214
1484 54.59829738204112
1485 54.5983083916931
1486 54.59829178618413
1487 54.59831031283618
1488 54.59830746859469
1489 54.59833165939106
1490 54.59833358566472
1491 54.59835721497238
1492 54.59834294609924
1493 54.59835493974927
1494 54.59834065854763
1495 54.59834941033666
1496 54.59833014821615
1497 54.59832970807967
1498 54.59830262168644
1499 54.59829848090024
1500 54.59826500775625
1501 54.59825780900389
1502 54.59822359774405
1503 54.59822231661042
1504 54.59819534243789
1505 54.59819299358856
1506 54.5981635202368
1507 54.59816074444932
1508 54.5981423899825
1509 54.59814287464732
1510 54.59811741075895
1511 54.59812482453497
1512 54.59811455416648
1513 54.59814221716432
1514 54.59813832925399
1515 54.59816237179263
1516 54.59817002420591
1517 54.59820025217374
1518 54.59820498369383
1519 54.59822864456897
1520 54.59823762962655
1521 54.59827019908892
1522 54.59827970454723
1523 54.59831364116229
1524 54.59831855835093
1525 54.59836648317268
1526 54.59838114265429
1527 54.59841234891168
1528 54.5984188610293
1529 54.59845044195071
1530 54.59844363932011
1531 54.59845823968993
1532 54.59844709665209
1533 54.59846357068755
1534 54.59844909236634
1535 54.59845229186406
1536 54.59843647693037
1537 54.59844732906338
1538 54.59843242676814
1539 54.59844486823287
1540 54.59843654111143
1541 54.59845269894991
1542 54.59843797077518
1543 54.59844251031519
1544 54.59842562452585
1545 54.59844445053462
1546 54.59843172225216
1547 54.59845088284916
1548 54.59845483247564
1549 54.59849717627907
1550 54.59851139231437
1551 54.59854556473361
1552 54.59854254896344
1553 54.59855827422457
1554 54.59854674090171
1555 54.59855479265361
1556 54.59853847922262
1557 54.59854298117418
1558 54.59852509890219
1559 54.59853001063602
1560 54.59851300162831
1561 54.5985242749675
1562 54.59851364729479
1563 54.59852994563686
1564 54.59852443976592
1565 54.59854072541688
1566 54.5985296566647
1567 54.59853983292402
1568 54.59851788414594
1569 54.59851964621829
1570 54.59849078613734
1571 54.59848265225845
1572 54.59845094110289
1573 54.59844652986124
1574 54.59841585334497
1575 54.59840893679592
1576 54.59837928422758
1577 54.59837351265809
1578 54.5983415262775
1579 54.59832789855579
1580 54.59829176758261
1581 54.59828525860394
1582 54.59826065065756
1583 54.59826585861865
1584 54.59825961696784
1585 54.5982873984669
1586 54.59828121207219
1587 54.59830255101729
1588 54.59829744228476
1589 54.59831232672467
1590 54.59830178795035
1591 54.59831932951941
1592 54.59831576031476
1593 54.59833679844727
1594 54.59833385833964
1595 54.59837267439211
1596 54.59839095105631
1597 54.59842788117369
1598 54.59845416826047
1599 54.5984989192976
1600 54.5985165621285
1601 54.5985580244302
1602 54.59855638693254
1603 54.59857883633715
1604 54.59858335358484
1605 54.59861438264671
1606 54.59862145465542
1607 54.59865778802921
1608 54.59867250698181
1609 54.59869857746013
1610 54.59870250094707
1611 54.59872298082686
1612 54.59871415605153
1613 54.59872296747257
1614 54.59870557990456
1615 54.59870966361866
1616 54.59869231173471
1617 54.59870337655093
1618 54.59869916159347
1619 54.59872620427606
1620 54.59873456514514
1621 54.59875688160992
1622 54.59875543375704
1623 54.59878443445186
1624 54.59877681398154
1625 54.59879898270177
1626 54.59878573863077
1627 54.5987824318011
1628 54.59875065328623
1629 54.59874388353721
1630 54.59871193689454
1631 54.59870557489308
1632 54.59867615938147
1633 54.59867415839848
1634 54.5986476041864
1635 54.59864825041693
1636 54.59863325725052
1637 54.59865231151118
1638 54.59863407780584
1639 54.59864599703373
1640 54.59864971991914
1641 54.59868565286232
1642 54.59869372102882
1643 54.59872493449117
1644 54.59872461022298
1645 54.59874554635264
1646 54.59873324812194
1647 54.59874022084079
1648 54.59871727594858
1649 54.59871554177182
1650 54.59868992926447
1651 54.5986860364573
1652 54.59866360328465
1653 54.59867421199056
1654 54.59867457527701
1655 54.59870142891883
1656 54.59870662505742
1657 54.59873714827792
1658 54.59873980456467
1659 54.59875383912678
1660 54.59872791136106
1661 54.59872551473779
1662 54.59869078555461
1663 54.59866885829329
1664 54.5986193810122
1665 54.59859832530027
1666 54.59856117648746
1667 54.5985571960842
1668 54.59853507397888
1669 54.59854727081884
1670 54.59853929650994
1671 54.59856700852206
1672 54.59857421117499
1673 54.59860242808319
1674 54.59860685150776
1675 54.5986348188623
1676 54.59863905338725
1677 54.59866679702928
1678 54.59866309213788
1679 54.59867249472556
1680 54.59864854037288
1681 54.59864826196017
1682 54.5986160853607
1683 54.59861280312151
1684 54.59858796354696
1685 54.59859425988895
1686 54.59857934333989
1687 54.59860027225128
1688 54.59860278228446
1689 54.59863224909534
1690 54.59864908287867
1691 54.59868728713361
1692 54.59869829310449
1693 54.59872518780711
1694 54.59873338624043
1695 54.59875268374481
1696 54.59872914245876
1697 54.59871984951904
1698 54.5986765964322
1699 54.59865650222512
1700 54.5986209778408
1701 54.59861867729961
1702 54.59859968603992
1703 54.5986117501115
1704 54.59860518749774
1705 54.59863124908153
1706 54.59863227599652
1707 54.59865769749299
1708 54.59865539315254
1709 54.59867377211256
1710 54.59867318713354
1711 54.59869811222038
1712 54.59870470055296
1713 54.59873623211143
1714 54.59872866619098
1715 54.59874075899307
1716 54.5987197901934
1717 54.59871784885412
1718 54.59868301829216
1719 54.59867466959125
1720 54.59865263435151
1721 54.59866223857424
1722 54.59865083663399
1723 54.59867695203624
1724 54.59868173683336
1725 54.59870912285353
1726 54.59871269204271
1727 54.59873946497613
1728 54.59873662556712
1729 54.59875831900278
1730 54.59875895816734
1731 54.59877479146159
1732 54.59875955515277
1733 54.598763559906
1734 54.59873629322201
1735 54.59873241035549
1736 54.59870792035904
1737 54.59870697296034
1738 54.59868271887606
1739 54.59867957436587
1740 54.59865619149571
1741 54.59866502517572
1742 54.59863733098452
1743 54.59863363495194
1744 54.5986046863194
1745 54.59860796594561
1746 54.59859747426497
1747 54.59861782527423
1748 54.59862056190131
1749 54.598653591229
1750 54.59865294516831
1751 54.59867333611412
1752 54.59866305400372
1753 54.59867392291321
1754 54.59864764526409
1755 54.59863570983156
1756 54.59860030432198
1757 54.59859551785006
1758 54.59857750047693
1759 54.59859267492854
1760 54.59859315333366
1761 54.59862044435603
1762 54.59863210219878
1763 54.59866927441184
1764 54.59868064670628
1765 54.59871463941494
1766 54.5987291679443
1767 54.59875362228378
1768 54.59875545230478
1769 54.59878106302829
1770 54.59877337590333
1771 54.59879622415561
1772 54.59879173357849
1773 54.59880698001557
1774 54.5987961779481
1775 54.59880767309298
1776 54.59879569730258
1777 54.59880634907989
1778 54.59879825022137
1779 54.5988198852514
1780 54.5988131337597
1781 54.59883282265383
1782 54.59883235496704
1783 54.59886272196453
1784 54.59885838786661
1785 54.59887041985886
1786 54.59884635924919
1787 54.59884206361255
1788 54.59880745909864
1789 54.59880121975797
1790 54.5987448912589
1791 54.59871794198439
1792 54.59867722006931
1793 54.59866866117599
1794 54.59864125993496
1795 54.59864869154378
1796 54.5986460108241
1797 54.59867144010952
1798 54.59867115868789
1799 54.59869880189509
1800 54.59869796653209
1801 54.59871771721846
1802 54.59870226423808
1803 54.59871057614647
1804 54.59868278260558
1805 54.59867744028634
1806 54.59864607981561
1807 54.59864894443126
1808 54.59863077428334
1809 54.59864440473769
1810 54.59864026159974
1811 54.59865924690828
1812 54.59866059510767
1813 54.59867909608973
1814 54.59868180786874
1815 54.5987013798345
1816 54.5987085392398
1817 54.59873742976946
1818 54.59873531713338
1819 54.59874817753791
1820 54.59873845690035
1821 54.59874900994777
1822 54.59872723399155
1823 54.59873009503791
1824 54.59870673743902
1825 54.5987086846329
1826 54.5986769446359
1827 54.59867885874059
1828 54.59865739206121
1829 54.59866387097036
1830 54.59865407700007
1831 54.59866098023687
1832 54.59864917671523
1833 54.5986517597833
1834 54.5986281889592
1835 54.59862447836769
1836 54.59860008467163
1837 54.59860154283601
1838 54.59857227137109
1839 54.59858788484278
1840 54.59858115376326
1841 54.59861412666579
1842 54.59862436344248
1843 54.59867062183699
1844 54.59869667144208
1845 54.59873617290948
1846 54.59875760531685
1847 54.59879638565386
1848 54.59879893336684
1849 54.59883062908389
1850 54.59883831775542
1851 54.59886572288102
1852 54.59887258048847
1853 54.59889701499866
1854 54.59890188936468
1855 54.5989230777721
1856 54.59891884684647
1857 54.59893150764664
1858 54.5989306187596
1859 54.59894712797754
1860 54.59893113667664
1861 54.59892935322986
1862 54.59889560030786
1863 54.59888355463053
1864 54.59884308679003
1865 54.59882829813112
1866 54.59878749339896
1867 54.5987767883142
1868 54.59875357720247
1869 54.59874897714178
1870 54.59872092828572
1871 54.59871751284119
1872 54.59869189359512
1873 54.59869155018934
1874 54.59867030756555
1875 54.59868390763999
1876 54.59868092390137
1877 54.59870137410584
1878 54.59869247619919
1879 54.59870957409181
1880 54.59869555125925
1881 54.59870762059491
1882 54.59868653256846
1883 54.59868769390139
1884 54.59866858885313
1885 54.59867901711761
1886 54.59867143014976
1887 54.59869276818493
1888 54.59870724024695
1889 54.59874981316941
1890 54.59876102654563
1891 54.59879704896812
1892 54.59879670979167
1893 54.59882310467001
1894 54.59882735499995
1895 54.59885523965411
1896 54.5988556766244
1897 54.5988774332593
1898 54.59886705336173
1899 54.59888466169128
1900 54.59886677884608
1901 54.59887603022815
1902 54.59884906038271
1903 54.59884352584499
1904 54.59881880742389
1905 54.59880596041341
1906 54.5987584686045
1907 54.59873320996937
1908 54.59869001526219
1909 54.59867730613814
1910 54.59864576717214
1911 54.59864168392932
1912 54.59862601582891
1913 54.59864306008012
1914 54.59864757471082
1915 54.59867760700862
1916 54.59867407076961
1917 54.5986937581368
1918 54.5986847471361
1919 54.59869784389304
1920 54.59867809488418
1921 54.59867883267096
1922 54.59864743606082
1923 54.59864544377103
1924 54.59862558255525
1925 54.59862848750358
1926 54.59861446659483
1927 54.5986329099986
1928 54.59863255225989
1929 54.5986647110495
1930 54.59867315286795
1931 54.59870449429716
1932 54.59871542683039
1933 54.59875483756515
1934 54.59875728473182
1935 54.59878855223137
1936 54.59878790320028
1937 54.59880275291244
1938 54.59878626668615
1939 54.59878860091903
1940 54.59875719646976
1941 54.59875142833814
1942 54.59871981054991
1943 54.59871864690024
1944 54.59870415683627
1945 54.59872861373043
1946 54.59873025292547
1947 54.59876388197466
1948 54.5987800522343
1949 54.59880771734122
1950 54.59880599970964
1951 54.59881866333948
1952 54.59879902057106
1953 54.59878440447536
1954 54.5987431619842
1955 54.59872014885765
1956 54.59866850263626
1957 54.5986453590315
1958 54.59859018185476
1959 54.59857219716095
1960 54.59854291940998
1961 54.59855691844821
1962 54.5985517056805
1963 54.59858759943304
1964 54.59859199607259
1965 54.59863151794941
1966 54.59864452983093
1967 54.59868012794337
1968 54.59869067084769
1969 54.59872577106526
1970 54.59873308694481
1971 54.59876136459948
1972 54.59876350685527
1973 54.59878671532588
1974 54.59877761866881
1975 54.59878613937821
1976 54.5987673722512
1977 54.598773996825
1978 54.59875718101826
1979 54.59876822986055
1980 54.598760244807
1981 54.59877971630873
1982 54.59878125086757
1983 54.59881278382852
1984 54.59881296257958
1985 54.5988346445878
1986 54.59882297370157
1987 54.59883516508182
1988 54.59881735354111
1989 54.59882280289259
1990 54.59879444238172
1991 54.59877889549015
1992 54.59874149716011
1993 54.59873755027412
1994 54.59871493955278
1995 54.59872411280033
1996 54.5987167547688
1997 54.59873302112136
1998 54.59873241944273
1999 54.5987532015259
2000 54.59874907135475
2001 54.59875781129959
2002 54.59873720938963
2003 54.59874180120226
2004 54.59873403575197
2005 54.59875864879323
2006 54.59875806257799
2007 54.59878038324334
2008 54.59877875221503
2009 54.59880372959552
2010 54.598798925943
2011 54.59882020810037
2012 54.598812225979
2013 54.5988249806778
2014 54.59881231979612
2015 54.59882102235787
2016 54.5988102258286
2017 54.59882588627505
2018 54.59882245785977
2019 54.59884122919623
2020 54.59883298361929
2021 54.59884866147078
2022 54.59884081603887
2023 54.59886100998202
2024 54.5988567745621
2025 54.59887782800153
2026 54.59886561933867
2027 54.59887256224366
2028 54.59885118854105
2029 54.59884879346556
2030 54.59882075973758
2031 54.59881409116166
2032 54.59877721518142
2033 54.598772339933
2034 54.59873036752975
2035 54.59871781124718
2036 54.59867943605709
2037 54.59866847615727
2038 54.59863146662613
2039 54.59862394542377
2040 54.59860553616451
2041 54.59863126752276
2042 54.59862933553966
2043 54.59864957783705
2044 54.59864025851972
2045 54.59865513045403
2046 54.59862542800794
2047 54.59861257446183
2048 54.59857905716338
2049 54.59857811870069
2050 54.5985405554907
2051 54.59853245922207
2052 54.5985164041301
2053 54.59852888907958
2054 54.59852108766562
2055 54.59854073687725
2056 54.59854453543461
2057 54.59856538791612
2058 54.59856502531355
2059 54.59859315735818
2060 54.59859404204948
2061 54.59861767336182
2062 54.59861051974782
2063 54.59863945568202
2064 54.59863882301467
2065 54.59866563154809
2066 54.59865855596606
2067 54.59867231050281
2068 54.59867007864118
2069 54.59869592189591
2070 54.59869897809526
2071 54.59872076919322
2072 54.59872930855046
2073 54.59876145539563
2074 54.59876267240934
2075 54.5987864771591
2076 54.59878633568269
2077 54.59880820281251
2078 54.59880539141256
2079 54.598824095711
2080 54.59881213304183
2081 54.59882205484049
2082 54.59879711845695
2083 54.59879751213559
2084 54.59876937091508
2085 54.59877118568074
2086 54.59875540188649
2087 54.5987779109162
2088 54.59878701154732
2089 54.59882343012377
2090 54.59883596796772
2091 54.59887508419933
2092 54.59889179693138
2093 54.59892703493595
2094 54.59893018802062
2095 54.59894889270812
2096 54.59894053426258
2097 54.59895839504343
2098 54.59894736188858
2099 54.59896700553025
2100 54.59896552915274
2101 54.59899028427044
2102 54.59898169884626
2103 54.59898922383775
2104 54.59897572328799
2105 54.59898491066559
2106 54.59895988001181
2107 54.59895638098325
2108 54.59893001917364
2109 54.5989284682191
2110 54.59890539150027
2111 54.59891039393069
2112 54.59889222696653
2113 54.59889761150274
2114 54.59887276499536
2115 54.59887924240724
2116 54.598857960242
2117 54.598861590849
2118 54.59883296699544
2119 54.59882453880483
2120 54.59879425576016
2121 54.59879766319656
2122 54.59878029714281
2123 54.59878494531738
2124 54.59876083291728
2125 54.59875984007482
2126 54.5987324658427
2127 54.59873243322647
2128 54.59871917782302
2129 54.59872806085074
2130 54.59870803026553
2131 54.59870267927134
2132 54.59867869637689
2133 54.59869688732844
2134 54.59869086077782
2135 54.59871551711505
2136 54.59871747370172
2137 54.59874054497973
2138 54.59873290183235
2139 54.59875489454488
2140 54.59874687276177
2141 54.59876170681655
2142 54.59874171161934
2143 54.59874524121865
2144 54.59872965439426
2145 54.59874810579054
2146 54.59874977172347
2147 54.59877465498255
2148 54.59877043252133
2149 54.59880174454943
2150 54.5988045526998
2151 54.59882869352108
2152 54.59882570209354
2153 54.59884189951764
2154 54.5988243474181
2155 54.59883383829406
2156 54.59881574518671
2157 54.59881831938023
2158 54.59879636885627
2159 54.59879939406892
2160 54.59878009812926
2161 54.59878740430783
2162 54.59877652317974
2163 54.59878721178787
2164 54.59876875022018
2165 54.59877525726178
2166 54.59875322999015
2167 54.59874565073316
2168 54.59871253562581
2169 54.5987134843062
2170 54.59869853329573
2171 54.59871103260738
2172 54.59870217237967
2173 54.5987176827128
2174 54.59870927745071
2175 54.59872061794046
2176 54.59871282611012
2177 54.59873181939646
2178 54.59872888280885
2179 54.59875229719537
2180 54.59875182706036
2181 54.59877745056814
2182 54.59877450530713
2183 54.59879104252989
2184 54.59878070740874
2185 54.59879212809037
2186 54.59877967215036
2187 54.59879426031505
2188 54.59878944478427
2189 54.5988039927866
2190 54.59879334704095
2191 54.59881436957353
2192 54.59880521704254
2193 54.59882324931345
2194 54.59880951440942
2195 54.5988201557577
2196 54.59880407468277
2197 54.59881484324952
2198 54.59878810922448
2199 54.59877562544074
2200 54.59874468932705
2201 54.5987243492154
2202 54.59867943732539
2203 54.59866462540156
2204 54.59862963500778
2205 54.59863316528635
2206 54.59862139048951
2207 54.5986390484959
2208 54.59863901821387
2209 54.59865880427454
2210 54.59864854962424
2211 54.59865809403667
2212 54.59863931374403
2213 54.59864593223444
2214 54.59862861283612
2215 54.5986373698227
2216 54.59862436630657
2217 54.59863658650694
2218 54.59863082730792
2219 54.59865114038082
2220 54.5986515161158
2221 54.59868178747487
2222 54.59868731733079
2223 54.59871484324634
2224 54.59872324609965
2225 54.59875924605139
2226 54.59875794032409
2227 54.59878079715411
2228 54.5987783801827
2229 54.59880326037698
2230 54.59879332765416
2231 54.59880832601414
2232 54.59879978768641
2233 54.59881101150494
2234 54.59879553816214
2235 54.59879837327387
2236 54.59877672947159
2237 54.59878187723984
2238 54.59876513190891
2239 54.59877247079888
2240 54.59876025809072
2241 54.5987742309901
2242 54.59875976947443
2243 54.59877605274414
2244 54.5987686674967
2245 54.59878985576483
2246 54.59878245059112
2247 54.59880201189257
2248 54.5987964516317
2249 54.59881303819699
2250 54.59880759209376
2251 54.59882359564791
2252 54.5988284583893
2253 54.59886117047061
2254 54.59886681499665
2255 54.59889447479659
2256 54.59890262611643
2257 54.598932486976
2258 54.59893312898338
2259 54.59894587630036
2260 54.59893919657646
2261 54.59895856894803
2262 54.59895488827446
2263 54.59897731232153
2264 54.59897735843759
2265 54.59900545896357
2266 54.5989952935745
2267 54.59901311579024
2268 54.59899489715139
2269 54.59899279796112
2270 54.59895805774526
2271 54.59894357897424
2272 54.59890994906573
2273 54.59890246139889
2274 54.59887201548166
2275 54.59886858522395
2276 54.59884223733657
2277 54.59883784984883
2278 54.59880949986362
2279 54.59880303780003
2280 54.59876633523246
2281 54.59875634977344
2282 54.59871889329381
2283 54.59870474010277
2284 54.59866584553105
2285 54.59865785483791
2286 54.59862456700073
2287 54.59861933523735
2288 54.59859399868304
2289 54.59859542645599
2290 54.59857100297054
2291 54.59857202849125
2292 54.59855278215313
2293 54.59856257368829
2294 54.59855134044633
2295 54.59856971924685
2296 54.5985641886712
2297 54.59858877693619
2298 54.59859284145094
2299 54.59863429471005
2300 54.59865636456967
2301 54.59870519923805
2302 54.59872812276233
2303 54.59876774368113
2304 54.59877385823977
2305 54.59879632580257
2306 54.59877971480623
2307 54.59878585289678
2308 54.59876876257485
2309 54.59877628457541
2310 54.5987634661996
2311 54.59878360172253
2312 54.59879007131671
2313 54.59881869267912
2314 54.59881825390726
2315 54.59883909967621
2316 54.59883231318801
2317 54.5988503202006
2318 54.59883685148684
2319 54.5988435860018
2320 54.59881998359556
2321 54.5988198364841
2322 54.59878678248177
2323 54.59878493339883
2324 54.59875948363502
2325 54.59876238825593
2326 54.59873521067122
2327 54.59873073016178
2328 54.59870915732622
2329 54.5987191508412
2330 54.59870874087186
2331 54.59872304970261
2332 54.59871903640767
2333 54.5987456852875
2334 54.59874876344111
2335 54.59877182105641
2336 54.5987692418589
2337 54.59879109489628
2338 54.59877589131865
2339 54.5987806396106
2340 54.59875606226075
2341 54.59875299349899
2342 54.59872458391575
2343 54.59872517423206
2344 54.59871188594601
2345 54.59873580382733
2346 54.59874441225617
2347 54.5987883096687
2348 54.59880821689653
2349 54.59884127083288
2350 54.59885044025989
2351 54.59886826504644
2352 54.59885675924777
2353 54.59886351712109
2354 54.59883375467461
2355 54.59881799865695
2356 54.5987810500514
2357 54.5987597017044
2358 54.59872492548438
2359 54.59872268543083
2360 54.59870551862675
2361 54.59872264267268
2362 54.59871889330004
2363 54.59874512388772
2364 54.59875052846825
2365 54.59878387488487
2366 54.59878750276063
2367 54.59880281405173
2368 54.59879728213229
2369 54.59881358985579
2370 54.59880203829886
2371 54.59880482193292
2372 54.598777152026
2373 54.59877455447274
2374 54.59874258580135
2375 54.59873854366404
2376 54.59871024961806
2377 54.59871049693547
2378 54.59869261069262
2379 54.59871463627127
2380 54.59871841161949
2381 54.59876284008204
2382 54.59878477556066
2383 54.59884190649844
2384 54.59886125011962
2385 54.5988933090113
2386 54.59889328780091
2387 54.59890270581462
2388 54.59888674954961
2389 54.598891104891
2390 54.59886057593922
2391 54.5988578289422
2392 54.59883295371712
2393 54.5988371823185
2394 54.59881746480367
2395 54.59882986474545
2396 54.59881946004523
2397 54.59883898328815
2398 54.59883015807456
2399 54.59884504035153
2400 54.59883116094565
2401 54.5988385820168
2402 54.59881106468307
2403 54.59880548915305
2404 54.59877362115882
2405 54.59876299789913
2406 54.59871578979929
2407 54.59868986459841
2408 54.5986389858546
2409 54.59861313003726
2410 54.59856288788282
2411 54.59854298081243
2412 54.59850650849931
2413 54.59850528063949
2414 54.59848377424098
2415 54.59849566939841
2416 54.59849410122534
2417 54.59852576681615
2418 54.59853033306106
2419 54.59856219586246
2420 54.59857504262659
2421 54.59861147891456
2422 54.59862019878791
2423 54.59865161655431
2424 54.59865759083141
2425 54.59868487738071
2426 54.59868118573829
2427 54.598700791467
2428 54.59870067980343
2429 54.5987258992199
2430 54.59872301902946
2431 54.59874537287587
2432 54.59874917850406
2433 54.59877431416258
2434 54.59876948640162
2435 54.59878294678774
2436 54.59876929973153
2437 54.59878681690225
2438 54.5987816362297
2439 54.59880311583188
2440 54.59880747230466
2441 54.59882957552119
2442 54.59881381310524
2443 54.59881666627921
2444 54.59878887533727
2445 54.59878186205247
2446 54.59874423610346
2447 54.5987346222748
2448 54.59870579887119
2449 54.59870738263582
2450 54.59869322885546
2451 54.59870998277339
2452 54.59870041107512
2453 54.59871791781627
2454 54.59870595596318
2455 54.59871094484059
2456 54.59869506737661
2457 54.59869834257287
2458 54.59867397979867
2459 54.59866827719249
2460 54.59863792031414
2461 54.59863661794363
2462 54.59861584720157
2463 54.59862253262835
2464 54.59861476681527
2465 54.59864229104605
2466 54.59865148956493
2467 54.59868990667285
2468 54.59871146405878
2469 54.59875271850401
2470 54.59877793504261
2471 54.59882234423084
2472 54.59883605143344
2473 54.59887345246482
2474 54.59888185909993
2475 54.59891947250651
2476 54.59893077303769
2477 54.59894901897228
2478 54.59894535940973
2479 54.59895880891109
2480 54.59894178231975
2481 54.59895144424318
2482 54.59892945986167
2483 54.59892905879286
2484 54.59891138328361
2485 54.59892496502017
2486 54.59891402819973
2487 54.59892787975797
2488 54.59891547533483
2489 54.59892562465376
2490 54.59890087382059
2491 54.59889631722957
2492 54.59886338709794
2493 54.59885087926581
2494 54.59880826829247
2495 54.59878677423896
2496 54.59874752534185
2497 54.59873841611486
2498 54.59871388700073
2499 54.59871844513998
2500 54.59869535979146
2501 54.59869011538076
2502 54.59866179107571
2503 54.59866102774534
2504 54.5986351455248
2505 54.59863927666727
2506 54.59862475860449
2507 54.59864148776456
2508 54.59863756821553
2509 54.59867009048195
2510 54.59868114292226
2511 54.59871532621571
2512 54.5987318142925
2513 54.59876616282298
2514 54.59877948960232
2515 54.59881344493103
2516 54.59882268782233
2517 54.59885478345495
2518 54.59885089989437
2519 54.59886527372102
2520 54.59885963551503
2521 54.59887720682089
2522 54.59886399013084
2523 54.59887348137161
2524 54.59885939208557
2525 54.59887310458178
2526 54.59885655808038
2527 54.59886322908197
2528 54.59883854648559
2529 54.59883329522708
2530 54.59880319395134
2531 54.59879504029739
2532 54.59876934288931
2533 54.59877120530963
2534 54.59875829737135
2535 54.59876829982094
2536 54.59875919837581
2537 54.59876840147511
2538 54.59874889990045
2539 54.59875079583264
2540 54.59872886255684
2541 54.5987399519218
2542 54.59872635730298
2543 54.59874832863073
2544 54.59875024155558
2545 54.59877651950533
2546 54.59878961649225
2547 54.59882677276432
2548 54.59884005037657
2549 54.59888107395548
2550 54.5988904796002
2551 54.59892089164862
2552 54.5989200979319
2553 54.59895293892455
2554 54.59895296907193
2555 54.59897777337861
2556 54.59897403158637
2557 54.59900098899825
2558 54.59898990177557
2559 54.59900088249891
2560 54.59898464266291
2561 54.59899128296697
2562 54.59897075078402
2563 54.59896902690258
2564 54.59893354852412
2565 54.59892489909671
2566 54.59889690888423
2567 54.59888740670443
2568 54.59885048706973
2569 54.59884449451241
2570 54.59881766459942
2571 54.59880999714961
2572 54.598781036004
2573 54.598774096715
2574 54.59873686560344
2575 54.5987186924733
2576 54.59867833148052
2577 54.59866205841965
2578 54.59862384514875
2579 54.5986085422221
2580 54.59857113262821
2581 54.59856780260858
2582 54.59854004657763
2583 54.59854257635384
2584 54.59851804927769
2585 54.59853330357538
2586 54.5985266052387
2587 54.59854293463366
2588 54.59853997501011
2589 54.59856975568972
2590 54.59858239813131
2591 54.59861867848294
2592 54.59863569298545
2593 54.59868185668357
2594 54.59870080963084
2595 54.59874366952533
2596 54.59875876106244
2597 54.59879512306767
2598 54.59879509993225
2599 54.59882416509728
2600 54.59881996644283
2601 54.59883852833915
2602 54.59882202555563
2603 54.598837238043
2604 54.59883316217202
2605 54.5988523327978
2606 54.5988511042338
2607 54.5988715575951
2608 54.59886404609644
2609 54.59887681779742
2610 54.59885536417116
2611 54.59885437633906
2612 54.59882554437119
2613 54.59882392558688
2614 54.59879372674438
2615 54.59879241630382
2616 54.59876507475035
2617 54.59876413513125
2618 54.59873191893063
2619 54.59872871116588
2620 54.59870226900973
2621 54.5987120343628
2622 54.5987010733236
2623 54.59871600805864
2624 54.59871165240882
2625 54.59872901127484
2626 54.59873749648838
2627 54.59877206793816
2628 54.59878115042027
2629 54.59880222250181
2630 54.59879974467672
2631 54.59882087537333
2632 54.59881251743468
2633 54.59882775696751
2634 54.59881366046199
2635 54.59882424303466
2636 54.5988142953703
2637 54.59883245990728
2638 54.59883743189248
2639 54.59887169630662
2640 54.59888612200075
2641 54.59892854062848
2642 54.59894237542168
2643 54.59896733898434
2644 54.59896234636179
2645 54.59897680978518
2646 54.59895074697597
2647 54.59894201949781
2648 54.59890272378797
2649 54.59888642413118
2650 54.59884381841706
2651 54.59882688339658
2652 54.59879177716016
2653 54.59878667197831
2654 54.59874844017565
2655 54.59874066435484
2656 54.59870934492479
2657 54.59870953925189
2658 54.59868272060543
2659 54.59868938261744
2660 54.59867484913875
2661 54.59868710787812
2662 54.59867748244852
2663 54.5986962689073
2664 54.59868900728475
2665 54.59870767442997
2666 54.59869669956783
2667 54.59869952412431
2668 54.5986785525424
2669 54.59868204853942
2670 54.59866445132026
2671 54.5986763976337
2672 54.5986622255395
2673 54.59868830539499
2674 54.59869530341826
2675 54.59872922885962
2676 54.5987406562166
2677 54.59877911168958
2678 54.59878495693516
2679 54.59880539582969
2680 54.59879934552895
2681 54.59880953674455
2682 54.59879434753663
2683 54.5987993848679
2684 54.59877440297132
2685 54.59877320941335
2686 54.598743755723
2687 54.59874676912347
2688 54.59872856665984
2689 54.59873667379033
2690 54.59871989397283
2691 54.59873168647042
2692 54.5987192422818
2693 54.59873275852052
2694 54.59871801936028
2695 54.59872898613879
2696 54.59872033874283
2697 54.59873733177061
2698 54.59873385567671
2699 54.5987615426396
2700 54.59876868291816
2701 54.59879715537472
2702 54.59879361422536
2703 54.59880671004603
2704 54.59878810975348
2705 54.59878527215046
2706 54.598761513095
2707 54.59877053855782
2708 54.59876458951763
2709 54.59879234750321
2710 54.59879724386662
2711 54.59882880371192
2712 54.59884204084371
2713 54.59887810897609
2714 54.59889179099007
2715 54.59892483970406
2716 54.59893205756951
2717 54.59895554524661
2718 54.59895763838257
2719 54.59898302347893
2720 54.598976864962
2721 54.59899615128664
2722 54.59898941400936
2723 54.59900378327713
2724 54.59899183706108
2725 54.59899908233285
2726 54.59897662503365
2727 54.59897928063669
2728 54.59895343900166
2729 54.59895411393037
2730 54.59891641102381
2731 54.59890967838091
2732 54.59888657038328
2733 54.59888947305377
2734 54.59886295989738
2735 54.59886026047776
2736 54.59883496763612
2737 54.59883469790251
2738 54.59880348299665
2739 54.59879004376707
2740 54.59875232081636
2741 54.59873158768112
2742 54.59868602345509
2743 54.59867427742154
2744 54.59865310215128
2745 54.59867483294385
2746 54.59866344689988
2747 54.5986758567914
2748 54.59866957198523
2749 54.59869214947021
2750 54.59868653714614
2751 54.59870477492041
2752 54.59869791167511
2753 54.59870827145105
2754 54.5986874439928
2755 54.59869013034369
2756 54.59867256654824
2757 54.59868842879106
2758 54.59867780176324
2759 54.59869295475456
2760 54.59868258375515
2761 54.59870567133247
2762 54.59870036239919
2763 54.59872276318375
2764 54.59871337807955
2765 54.59873846094456
2766 54.59874121290486
2767 54.59877528059716
2768 54.59879085452566
2769 54.59883398361746
2770 54.59884369689097
2771 54.59885909167667
2772 54.59884661423561
2773 54.59884791734003
2774 54.59880957126162
2775 54.59878980482436
2776 54.59874784168711
2777 54.59872790198339
2778 54.59868844335638
2779 54.59868614702473
2780 54.59867505326817
2781 54.59869753299091
2782 54.5987005827258
2783 54.59873145606129
2784 54.59873348477233
2785 54.59876602217629
2786 54.59877283949906
2787 54.59879783225732
2788 54.59879144117085
2789 54.59879670832395
2790 54.59877089164626
2791 54.59876777460739
2792 54.59874445378089
2793 54.59874504172196
2794 54.59872340874471
2795 54.59873467351645
2796 54.59873087901043
2797 54.59875828196228
2798 54.59876208871562
2799 54.59879205032112
2800 54.59879698135372
2801 54.5988380588022
2802 54.59885129141502
2803 54.59888881513209
2804 54.598906399388
2805 54.59893438980643
2806 54.59892992459202
2807 54.59893758562395
2808 54.59891523674604
2809 54.59890993546752
2810 54.5988742955109
2811 54.59886246602276
2812 54.59883018524845
2813 54.5988289334442
2814 54.59880422555739
2815 54.59881252882225
2816 54.59880614562335
2817 54.59882997035414
2818 54.59883134606986
2819 54.59885729333158
2820 54.5988457114162
2821 54.59885707597896
2822 54.59882484013084
2823 54.5988103640771
2824 54.59876881214787
2825 54.5987527744414
2826 54.59871575657063
2827 54.59870424629285
2828 54.59867486573985
2829 54.59867080396408
2830 54.5986444941902
2831 54.59864407726563
2832 54.5986274569246
2833 54.59863853171628
2834 54.59862729405742
2835 54.59864732246769
2836 54.59865489433331
2837 54.59870109918153
2838 54.59871507782606
2839 54.59875736936223
2840 54.59877023695073
2841 54.59880558753317
2842 54.59880895465704
2843 54.5988256573875
2844 54.59882740148649
2845 54.59885345397976
2846 54.59884604752596
2847 54.59886582333045
2848 54.59886859377878
2849 54.59890087307962
2850 54.59891274804151
2851 54.59894155790341
2852 54.59894521995776
2853 54.59897802518334
2854 54.59898058742134
2855 54.59900393507263
2856 54.5989910258517
2857 54.59898871711826
2858 54.59894243748189
2859 54.59891815478378
2860 54.59886859850399
2861 54.59885106706879
2862 54.59881187901045
2863 54.59880056724538
2864 54.59877521626277
2865 54.59877977088458
2866 54.59876240166803
2867 54.59877244642199
2868 54.59876262418658
2869 54.59877973856988
2870 54.59877012120527
2871 54.59878670983364
2872 54.59878447388201
2873 54.59881779999723
2874 54.59882751885534
2875 54.59885145697857
2876 54.5988430133708
2877 54.59885640721118
2878 54.59883935382689
2879 54.59884518668186
2880 54.59881883051517
2881 54.59881819959579
2882 54.59879801723176
2883 54.59880758397289
2884 54.59880522511855
2885 54.5988298225596
2886 54.59883785883397
2887 54.59886838051145
2888 54.59887170071998
2889 54.59889340407035
2890 54.59889001564945
2891 54.59890805943584
2892 54.59889017683707
2893 54.59888544403674
2894 54.59884029641881
2895 54.59882422130739
2896 54.59877775717029
2897 54.59876819962673
2898 54.5987293967999
2899 54.59871724704426
2900 54.59869146721618
2901 54.59868506938991
2902 54.59865232151845
2903 54.59864836672163
2904 54.59861195502842
2905 54.59860565336816
2906 54.59856546947873
2907 54.59854809915836
2908 54.59851158066347
2909 54.59850235799787
2910 54.59847094837864
2911 54.59846865768262
2912 54.59843463434234
2913 54.59843029380036
2914 54.59840926475106
2915 54.59841309307019
2916 54.59840159700773
2917 54.59841861815801
2918 54.59842146991017
2919 54.5984554416541
2920 54.59846026976647
2921 54.598503733066
2922 54.59852691335744
2923 54.59856848350393
2924 54.59859213418467
2925 54.59863496877984
2926 54.59864678317988
2927 54.5986782706417
2928 54.59868063562293
2929 54.5986976563472
2930 54.59868413867314
2931 54.59870057394287
2932 54.59870082305932
2933 54.59873416012181
2934 54.59873457999564
2935 54.59876781829444
2936 54.59876977974771
2937 54.59879842718553
2938 54.59878838068511
2939 54.59879694772359
2940 54.59878304270271
2941 54.59878621775251
2942 54.59876509233708
2943 54.59876754503826
2944 54.59875248273907
2945 54.59876539656442
2946 54.59874549599785
2947 54.59875945941697
2948 54.59875094956293
2949 54.59876675437792
2950 54.59874592660274
2951 54.59874999321991
2952 54.59872689168362
2953 54.59873674978589
2954 54.59871787643713
2955 54.59872009589316
2956 54.59870403027064
2957 54.59871284971666
2958 54.59869557323222
2959 54.59870243164691
2960 54.59869578585735
2961 54.59872289147198
2962 54.59873131230056
2963 54.59876251207564
2964 54.59877504309336
2965 54.59881280631815
2966 54.59882512640517
2967 54.59886051036852
2968 54.59887681119047
2969 54.59892168543673
2970 54.59893953428897
2971 54.59897010809916
2972 54.59897215451983
2973 54.59899021641032
2974 54.59897272340629
2975 54.59897103988096
2976 54.59893299742674
2977 54.59891834990347
2978 54.59887803516029
2979 54.59886635579819
2980 54.59883281162377
2981 54.59882299101949
2982 54.59878516817012
2983 54.59878159515083
2984 54.5987585174739
2985 54.59876202422273
2986 54.59874092748708
2987 54.59873435212872
2988 54.59870974694311
2989 54.59871480994496
2990 54.59869733580959
2991 54.59871226704755
2992 54.59870703308689
2993 54.59872379675186
2994 54.59871400933066
2995 54.59872401449714
2996 54.59870406733418
2997 54.59870519469852
2998 54.59868256081189
2999 54.59868818761328
3000 54.5986774237518
3001 54.59870541370287
3002 54.59871740795539
3003 54.59876351407263
3004 54.59877838131484
3005 54.59882229431291
3006 54.59883762548632
3007 54.59887234357224
3008 54.59887650238414
3009 54.59890639454078
3010 54.59890450260151
3011 54.5989217352116
3012 54.59891214697147
3013 54.59892590433397
3014 54.59891435900688
3015 54.59892590239397
3016 54.59891467699784
3017 54.59892525032927
3018 54.59891242347714
3019 54.59892519744574
3020 54.59891299874283
3021 54.5989293660441
3022 54.59891514436325
3023 54.59892003801797
3024 54.59889632871901
3025 54.59889913155991
3026 54.59887631769796
3027 54.59888280157428
3028 54.59886424693841
3029 54.59886821652992
3030 54.59884132592941
3031 54.59883035348693
3032 54.59879599093535
3033 54.5987744293997
3034 54.59873506656248
3035 54.59872622532388
3036 54.59869948290917
3037 54.59870725055539
3038 54.59870265531742
3039 54.59872940999632
3040 54.59874369707311
3041 54.59877423529203
3042 54.59877982248781
3043 54.59881192658069
3044 54.59881527381228
3045 54.59883772151994
3046 54.59882684433173
3047 54.59883955790333
3048 54.59882249910746
3049 54.59882839824166
3050 54.5988001008598
3051 54.59879532621984
3052 54.5987722726644
3053 54.59877460177979
3054 54.59875224101
3055 54.59875396780095
3056 54.59873758051428
3057 54.59875118988269
3058 54.59873608318023
3059 54.59874499583071
3060 54.59873586841817
3061 54.5987582801341
3062 54.59876040421826
3063 54.59878013479834
3064 54.59877608354901
3065 54.598785543273
3066 54.59875979100872
3067 54.59874349621636
3068 54.59870252182102
3069 54.59868818351639
3070 54.59865434237341
3071 54.59865173905182
3072 54.59863475935026
3073 54.59865940231736
3074 54.59866154601977
3075 54.5986932592884
3076 54.59870189785563
3077 54.5987407272147
3078 54.59875066886084
3079 54.59878182828437
3080 54.59878321707722
3081 54.59880234028761
3082 54.59878738802937
3083 54.59879127553621
3084 54.59876636477752
3085 54.59877224127886
3086 54.59875909942057
3087 54.59876684208616
3088 54.5987599904895
3089 54.59877975254143
3090 54.59878069101433
3091 54.59880644530841
3092 54.5988098454038
3093 54.59883807236908
3094 54.59884065235205
3095 54.59887162456944
3096 54.59887673782384
3097 54.59890875187095
3098 54.59891302236131
3099 54.59893766860802
3100 54.59892845293955
3101 54.59893608282972
3102 54.59890503310603
3103 54.59888637925572
3104 54.59884061490787
3105 54.5988151703444
3106 54.59877719865599
3107 54.59876798972223
3108 54.59874211517484
3109 54.59875545372044
3110 54.59874454381605
3111 54.59875684865197
3112 54.5987472899314
3113 54.59876931973407
3114 54.59876043645621
3115 54.59877362053234
3116 54.59875857663584
3117 54.59876165188006
3118 54.59873456141035
3119 54.59873589093156
3120 54.59870637451895
3121 54.59870661506412
3122 54.59868134932494
3123 54.59867753589594
3124 54.59865818561886
3125 54.59865658527193
3126 54.59864250833866
3127 54.5986549211268
3128 54.59865187050337
3129 54.59867488077296
3130 54.59867527846031
3131 54.59870804896669
3132 54.59872172800174
3133 54.59876246934368
3134 54.59877112404538
3135 54.59880841646189
3136 54.59881966340355
3137 54.59885305121008
3138 54.59885120020086
3139 54.59885545824383
3140 54.59883734182574
3141 54.59883699295003
3142 54.59880626572077
3143 54.59880555877115
3144 54.59879176399271
3145 54.59880232888417
3146 54.59879173580268
3147 54.59880111890133
3148 54.59878210162761
3149 54.59878349056282
3150 54.59875662462707
3151 54.59875164127773
3152 54.59872187416788
3153 54.59872013651655
3154 54.59868791703111
3155 54.59869282265693
3156 54.59866893164359
3157 54.59867581705228
3158 54.59865189548976
3159 54.5986500984111
3160 54.59862757992189
3161 54.59863145325946
3162 54.59861667469725
3163 54.59862282844179
3164 54.59861358354317
3165 54.59862932055848
3166 54.59863310284027
3167 54.59866753016271
3168 54.59868326867164
3169 54.59872539280183
3170 54.59873418885475
3171 54.59876012474177
3172 54.59875823685464
3173 54.59877946524425
3174 54.59876874794346
3175 54.59877422722983
3176 54.59875450922301
3177 54.59876339140653
3178 54.59874966839351
3179 54.59875939982219
3180 54.59874515034612
3181 54.59875879078047
3182 54.59875630706007
3183 54.59877363992423
3184 54.59876919897652
3185 54.59878554830385
3186 54.5987769612618
3187 54.59878818520003
3188 54.59877449928814
3189 54.5987822657892
3190 54.59876508233961
3191 54.59876879997046
3192 54.5987454213029
3193 54.59875723097252
3194 54.59873262232744
3195 54.59873054035305
3196 54.59870121583019
3197 54.59869264571039
3198 54.59865968764881
3199 54.59865427906041
3200 54.59863876868924
3201 54.59866076288451
3202 54.59866528543917
3203 54.59869992408482
3204 54.59871978774951
3205 54.59876291787621
3206 54.59877990806956
3207 54.59881040496028
3208 54.59881537286021
3209 54.59884108471599
3210 54.59883515264382
3211 54.59885141271599
3212 54.59883919633361
3213 54.59885930667156
3214 54.59884976568897
3215 54.59886758677028
3216 54.59886187218277
3217 54.59888137241156
3218 54.59888035146691
3219 54.59890577461336
3220 54.59890270938509
3221 54.59891595055024
3222 54.59891229923378
3223 54.59893212810593
3224 54.5989273994489
3225 54.59894648758083
3226 54.59893189714455
3227 54.59894642793014
3228 54.59893433598317
3229 54.59893392165982
3230 54.59890107334656
3231 54.59890888707572
3232 54.59887313125249
3233 54.59886308486325
3234 54.59883359671089
3235 54.59882458454385
3236 54.59880325915954
3237 54.59882016923601
3238 54.59882577049371
3239 54.59884667717972
3240 54.59883894782167
3241 54.59885598404332
3242 54.59884566073069
3243 54.59885411172876
3244 54.59883993566825
3245 54.59884444183411
3246 54.59882619728941
3247 54.59883788505115
3248 54.59883028043704
3249 54.59885217518953
3250 54.5988436303433
3251 54.59886825370808
3252 54.59887274182818
3253 54.59890606205724
3254 54.59891440039763
3255 54.59894193499601
3256 54.59893683771459
3257 54.5989467337855
3258 54.59893376286487
3259 54.59894236532799
3260 54.59893555176767
3261 54.59895353198326
3262 54.59895009353409
3263 54.59897409027856
3264 54.59896864048802
3265 54.59899361615224
3266 54.59897484293607
3267 54.59897081735381
3268 54.59893347056384
3269 54.59891693132858
3270 54.5988834094145
3271 54.5988555470331
3272 54.59880747443471
3273 54.59880064418538
3274 54.59875881008534
3275 54.59874880051938
3276 54.59869226432004
3277 54.59866417046172
3278 54.59861051957095
3279 54.59858391282005
3280 54.5985482196991
3281 54.59853031541343
3282 54.59849016383096
3283 54.59848232854944
3284 54.59845545649322
3285 54.59846478266879
3286 54.59845254564375
3287 54.59846838078518
3288 54.59846898884111
3289 54.59850193759883
3290 54.59850772006383
3291 54.5985371650066
3292 54.59854482044867
3293 54.59856637723269
3294 54.59857299354461
3295 54.59860969102164
3296 54.59862818045553
3297 54.59867971407648
3298 54.59869617900792
3299 54.59874755559842
3300 54.59877354609279
3301 54.59881257248913
3302 54.59883452415981
3303 54.59887532127117
3304 54.5988839170735
3305 54.59890959326377
3306 54.5989084442179
3307 54.59891688154673
3308 54.59890305986573
3309 54.5989110644097
3310 54.59889546474616
3311 54.59889446110348
3312 54.59886117274609
3313 54.598847026525
3314 54.59880972164838
3315 54.59880010562355
3316 54.598769231045
3317 54.59877267939535
3318 54.5987499632283
3319 54.59875854476169
3320 54.59875704959813
3321 54.59878547526579
3322 54.59879708723192
3323 54.59883637812338
3324 54.5988358752408
3325 54.59885171119583
3326 54.59883306945441
3327 54.5988318496776
3328 54.59880982574511
3329 54.59881327939632
3330 54.59879056441113
3331 54.59880428667007
3332 54.59879981017675
3333 54.59883107555363
3334 54.59884386398355
3335 54.59888348328279
3336 54.59889294231831
3337 54.59892470181443
3338 54.59893694982465
3339 54.5989710698033
3340 54.59897391263689
3341 54.59899400661685
3342 54.59897456308625
3343 54.59896946268053
3344 54.59893618741691
3345 54.59892184602291
3346 54.59888233340484
3347 54.59886699979021
3348 54.59883379702116
3349 54.59882586346733
3350 54.59878907151319
3351 54.59877825772086
3352 54.59875974654123
3353 54.59876086160492
3354 54.59873256977158
3355 54.59873800350277
3356 54.59870840283121
3357 54.59870457943573
3358 54.59868373815324
3359 54.59867731145422
3360 54.59864891222928
3361 54.59864183216369
3362 54.59860664252769
3363 54.59859088614816
3364 54.59856220909612
3365 54.59855939579408
3366 54.59854394796852
3367 54.59856196740824
3368 54.59856749672023
3369 54.5986069437227
3370 54.59862441976086
3371 54.59866766799507
3372 54.59867772844606
3373 54.5987162477884
3374 54.59872109634968
3375 54.59875236059525
3376 54.5987596441752
3377 54.59878457913671
3378 54.59878960830562
3379 54.59881239430915
3380 54.59880401987765
3381 54.59881603835444
3382 54.59880097185683
3383 54.5988073003376
3384 54.59879162036008
3385 54.59879954451745
3386 54.59877257595274
3387 54.59877512023878
3388 54.59875229864942
3389 54.59876155614431
3390 54.5987518669691
3391 54.59876839190638
3392 54.59875827442917
3393 54.59877504417695
3394 54.59875753433033
3395 54.59875724481119
3396 54.59872701625307
3397 54.59871932890213
3398 54.59868468896674
3399 54.59867646132769
3400 54.59865027842404
3401 54.59864804034436
3402 54.59863414693977
3403 54.59864864236845
3404 54.59864085818332
3405 54.59866396398053
3406 54.59865637027142
3407 54.5986788007003
3408 54.59867364708102
3409 54.59870240391901
3410 54.59869801451832
3411 54.59871943570953
3412 54.59871677356602
3413 54.59874850564292
3414 54.59875163462837
3415 54.59878373209445
3416 54.59878686233288
3417 54.59881299344117
3418 54.59881944495804
3419 54.59884328964571
3420 54.59885299700934
3421 54.5988833967717
3422 54.59887730764116
3423 54.59888878271604
3424 54.59887709906322
3425 54.59889433162472
3426 54.59889068888842
3427 54.59890971934721
3428 54.59890162417103
3429 54.59891366957915
3430 54.59889483211489
3431 54.59889518373735
3432 54.59886602641816
3433 54.59885711673891
3434 54.59882127600234
3435 54.59881405602604
3436 54.5987880820025
3437 54.5987961896682
3438 54.59878720508213
3439 54.59880201449339
3440 54.59878453382547
3441 54.59878673979549
3442 54.59875444889503
3443 54.59874006893914
3444 54.59869831317537
3445 54.5986801346008
3446 54.59862997906715
3447 54.59860350838893
3448 54.59856422949857
3449 54.59855834752632
3450 54.59853524331346
3451 54.59854114057354
3452 54.59852597346794
3453 54.59853850385714
3454 54.59852820911098
3455 54.59854520073144
3456 54.59854740995922
3457 54.59857621913811
3458 54.5985807317659
3459 54.59860479499758
3460 54.59860641360799
3461 54.59863375656825
3462 54.59863555298384
3463 54.59865789683865
3464 54.5986569144568
3465 54.59867482381392
3466 54.59867364807754
3467 54.59869338423638
3468 54.59868393334686
3469 54.59871051893749
3470 54.59870182728312
3471 54.59871535186591
3472 54.59871218103616
3473 54.59874018794158
3474 54.59875392947387
3475 54.59878892566751
3476 54.59879542556389
3477 54.59882965638209
3478 54.59882537055621
3479 54.5988339409562
3480 54.59881123797434
3481 54.59881470184855
3482 54.59879072254847
3483 54.59879601084874
3484 54.59877884900365
3485 54.59879620782549
3486 54.5987926272825
3487 54.59881004637131
3488 54.59880703148953
3489 54.59883516886853
3490 54.59883190092041
3491 54.5988528392993
3492 54.59884534574972
3493 54.59886623643106
3494 54.59886751789643
3495 54.59889198705767
3496 54.59889855149844
3497 54.59892459003134
3498 54.59892687008909
3499 54.59895289963157
3500 54.59894528104892
3501 54.59895262998193
3502 54.59892873467437
3503 54.59892665249003
3504 54.59889884054644
3505 54.59890425965323
3506 54.59888147647539
3507 54.59888567775079
3508 54.59886683277267
3509 54.59886786627665
3510 54.59884278159826
3511 54.59884589893133
3512 54.59883516429573
3513 54.59885122341991
3514 54.59883659414734
3515 54.59883861445945
3516 54.59880996048969
3517 54.59880120601422
3518 54.598755643903
3519 54.59873311991575
3520 54.59869295303997
3521 54.59868689688502
3522 54.59865745820165
3523 54.59865601135489
3524 54.59862611087342
3525 54.59862312159557
3526 54.59859490694369
3527 54.59859336357977
3528 54.59857439287396
3529 54.598591302416
3530 54.59858242006954
3531 54.59860117490968
3532 54.59860425908857
3533 54.59862631568072
3534 54.59862715633417
3535 54.59864281743951
3536 54.5986324416783
3537 54.59864989609738
3538 54.59863754786083
3539 54.59864854970673
3540 54.598643503907
3541 54.59867858576123
3542 54.59868782712583
3543 54.59872793096049
3544 54.5987473521865
3545 54.59878529876558
3546 54.5987942047683
3547 54.59882156063966
3548 54.59882466139801
3549 54.59884629607611
3550 54.59883516476901
3551 54.59884014032109
3552 54.5988177308549
3553 54.59882079931901
3554 54.59879771725677
3555 54.59880555796479
3556 54.59879573385557
3557 54.59881472294211
3558 54.5988079400047
3559 54.59883536341157
3560 54.59883532057361
3561 54.59885506279507
3562 54.5988416000863
3563 54.59885106244575
3564 54.59884278053043
3565 54.59886029133835
3566 54.59885181929678
3567 54.59887184602077
3568 54.59885978551605
3569 54.59887136524744
3570 54.59884636034019
3571 54.59884375370446
3572 54.59881586528202
3573 54.598816391281
3574 54.5987883741361
3575 54.59878510571225
3576 54.59876048288828
3577 54.59877275496791
3578 54.59876332913392
3579 54.59878025155309
3580 54.59877832627197
3581 54.59880731032047
3582 54.59881047303869
3583 54.59883501171703
3584 54.59883980059013
3585 54.59886650655354
3586 54.5988662919799
3587 54.59889137756201
3588 54.59888195305916
3589 54.59890222186528
3590 54.59890274605144
3591 54.59892582834143
3592 54.59892643977464
3593 54.59895451986689
3594 54.59895680611442
3595 54.5989720879256
3596 54.59895264340152
3597 54.59896104106078
3598 54.59893526385622
3599 54.5989319829185
3600 54.59890189097793
3601 54.59889622612252
3602 54.5988699752827
3603 54.59886719986353
3604 54.59882649602368
3605 54.598808398945
3606 54.59876799423015
3607 54.5987476061737
3608 54.59870848967061
3609 54.59870159952065
3610 54.59866432753617
3611 54.59865825590725
3612 54.59863483325525
3613 54.5986443556349
3614 54.59863073887504
3615 54.59863945298558
3616 54.59862600883008
3617 54.59863744041375
3618 54.5986247020579
3619 54.59863663260307
3620 54.5986277562223
3621 54.5986378511309
3622 54.59862960466979
3623 54.59865010244755
3624 54.59865448960166
3625 54.59868270117676
3626 54.5986893566093
3627 54.59871477749288
3628 54.5987173322231
3629 54.5987453046627
3630 54.59873656076722
3631 54.59874599239561
3632 54.59872171179059
3633 54.59872708809638
3634 54.59870114947325
3635 54.59870103879048
3636 54.59867886357674
3637 54.59868689796618
3638 54.59867690448837
3639 54.59868373343803
3640 54.59866534953954
3641 54.59866946939989
3642 54.59864778739389
3643 54.59865127135557
3644 54.5986307899748
3645 54.59862503856642
3646 54.59859297104419
3647 54.59858725449347
3648 54.59856239553959
3649 54.59857037847107
3650 54.59855207981101
3651 54.59856516702165
3652 54.5985626762836
3653 54.59859137938056
3654 54.59859239445226
3655 54.59860821466084
3656 54.59861587657177
3657 54.59863790754741
3658 54.59864966096317
3659 54.5986851895528
3660 54.59870211822476
3661 54.59875254224198
3662 54.59877765962567
3663 54.59882133924073
3664 54.59883940642852
3665 54.59887230779424
3666 54.59887050935047
3667 54.59889352707741
3668 54.59888184336138
3669 54.59889967861441
3670 54.59888233424416
3671 54.59889166835424
3672 54.59887886584227
3673 54.5988943965358
3674 54.59888282574406
3675 54.59888796454528
3676 54.5988671266818
3677 54.59887216474891
3678 54.5988517469184
3679 54.59884959976886
3680 54.59882566580469
3681 54.59882890621344
3682 54.59880389538203
3683 54.59879877961462
3684 54.59877123511252
3685 54.59877658192825
3686 54.59875815661706
3687 54.59877156030984
3688 54.59875743874023
3689 54.59877486772717
3690 54.59875763628322
3691 54.59875873427972
3692 54.59873805298257
3693 54.59874948922467
3694 54.59873871450731
3695 54.59875716825252
3696 54.59875700300299
3697 54.5987833542618
3698 54.59879134267716
3699 54.59881811952627
3700 54.59881923742265
3701 54.5988379404453
3702 54.59882971866322
3703 54.59884680874386
3704 54.5988400102575
3705 54.59886238471533
3706 54.59886525006046
3707 54.59889803026967
3708 54.59891297243058
3709 54.59896319117991
3710 54.59897955543252
3711 54.59900809820766
3712 54.59902587878879
3713 54.59905553825644
3714 54.599050445101
3715 54.59906131234383
3716 54.59904852423542
3717 54.59905744635076
3718 54.59904377383121
3719 54.59904923570006
3720 54.59902372536937
3721 54.59902279685114
3722 54.59899434781868
3723 54.59898666444492
3724 54.59895587404685
3725 54.59895062433598
3726 54.59890958929051
3727 54.59889770338228
3728 54.59886627413164
3729 54.59885750292354
3730 54.59882593367018
3731 54.59882098572223
3732 54.5987903304607
3733 54.59879098076593
3734 54.59876227872703
3735 54.59876113227104
3736 54.59873797090465
3737 54.59873770613611
3738 54.59871137667518
3739 54.59871698694482
3740 54.59870369990287
3741 54.5987149304359
3742 54.59870613935891
3743 54.59871914365076
3744 54.59871673358888
3745 54.59874673946641
3746 54.59875086430248
3747 54.59877746081352
3748 54.59878221886784
3749 54.59880623185722
3750 54.59880370245639
3751 54.5988207549895
3752 54.5988144867497
3753 54.59883523906738
3754 54.59883541571433
3755 54.59885946016426
3756 54.59884947980369
3757 54.59885902106046
3758 54.59883834184316
3759 54.59883346860929
3760 54.59879842730838
3761 54.59878762880624
3762 54.59873741744589
3763 54.59872144855149
3764 54.5986838450229
3765 54.59868338635986
3766 54.59865980382788
3767 54.59867388328448
3768 54.59866725346055
3769 54.59868302870472
3770 54.59866944069194
3771 54.59867675895931
3772 54.59866680677275
3773 54.59868091655477
3774 54.5986663101537
3775 54.59866764805028
3776 54.59865093409702
3777 54.5986578064388
3778 54.59863978154233
3779 54.59864692428852
3780 54.5986290605597
3781 54.59863921051618
3782 54.59862950250492
3783 54.59864471735414
3784 54.59864218990224
3785 54.59866533917052
3786 54.59867006059282
3787 54.59870228348438
3788 54.59870968259052
3789 54.59875986968002
3790 54.59879478903792
3791 54.59884297799075
3792 54.59885341868073
3793 54.59888751054461
3794 54.5988828253405
3795 54.59889405578096
3796 54.59887131384237
3797 54.59886765253514
3798 54.59883265499059
3799 54.5988240513831
3800 54.59879388356478
3801 54.59879365399111
3802 54.59877508775651
3803 54.59878613072235
3804 54.59877831907308
3805 54.59879396522563
3806 54.59877810640904
3807 54.59877445993417
3808 54.59874404318035
3809 54.59873492393961
3810 54.59868711965007
3811 54.59866846257977
3812 54.59862034658116
3813 54.59860566038133
3814 54.59857000722425
3815 54.59856425918867
3816 54.59854326742001
3817 54.59855527410956
3818 54.59854310041386
3819 54.59856347598144
3820 54.59856284976873
3821 54.59858135278593
3822 54.59858025593537
3823 54.59860506559989
3824 54.59861279608042
3825 54.59864385200049
3826 54.59865533461249
3827 54.59867820372713
3828 54.59867583614173
3829 54.59869425070564
3830 54.59867668146892
3831 54.59869133594981
3832 54.5986855187963
3833 54.59870921418612
3834 54.59871314304366
3835 54.59874557778188
3836 54.59875985643017
3837 54.59880463706831
3838 54.59882707384542
3839 54.59886694346422
3840 54.59887945705434
3841 54.59890770383164
3842 54.59890896998814
3843 54.59892625116566
3844 54.59891584910083
3845 54.59892272642336
3846 54.59890104100917
3847 54.59890324623291
3848 54.59888111155129
3849 54.59888806338174
3850 54.59886683696314
3851 54.59887830681843
3852 54.59886993252353
3853 54.59889037323662
3854 54.59888667092881
3855 54.59890242192819
3856 54.59888661241427
3857 54.59889410292701
3858 54.59887587218202
3859 54.59888291481698
3860 54.59886992111149
3861 54.59888116083076
3862 54.59886205394579
3863 54.59886279429089
3864 54.59883989164701
3865 54.59884015509462
3866 54.59880527503904
3867 54.59879266547605
3868 54.59876305613476
3869 54.59877417005002
3870 54.5987696337332
3871 54.59879996505997
3872 54.59881592809658
3873 54.59885645810667
3874 54.59886941704546
3875 54.59890214551655
3876 54.5989085193846
3877 54.59893476006657
3878 54.59892401380734
3879 54.59892832108005
3880 54.59890447568124
3881 54.59890298880719
3882 54.59887622086892
3883 54.59887364424975
3884 54.59885382705453
3885 54.59886187568323
3886 54.59884049353797
3887 54.5988454179839
3888 54.59882399005676
3889 54.59883388291597
3890 54.59881076402853
3891 54.59881274656088
3892 54.59879088210148
3893 54.59878954930602
3894 54.59876441554772
3895 54.59877466122336
3896 54.59875453755637
3897 54.5987489717219
3898 54.59870836023933
3899 54.59868663154514
3900 54.59865343293134
3901 54.59863371774229
3902 54.59858670087491
3903 54.59857368876889
3904 54.59853097767374
3905 54.59852415531042
3906 54.59849911831541
3907 54.59850561917925
3908 54.59849008049508
3909 54.59851045763478
3910 54.59851287609009
3911 54.59854729870442
3912 54.59855914007355
3913 54.59860186363561
3914 54.59861859980508
3915 54.59865468372037
3916 54.59866451151832
3917 54.59869921541651
3918 54.59870211124436
3919 54.59874369983267
3920 54.59876167842467
3921 54.59879041287859
3922 54.59880172639367
3923 54.59883657427761
3924 54.59884638923174
3925 54.5988739763021
3926 54.59887374599415
3927 54.59889361043635
3928 54.59888353127492
3929 54.59889900577121
3930 54.59888895911225
3931 54.59890011530821
3932 54.59888585659869
3933 54.59889295156377
3934 54.59886928601457
3935 54.59886515641142
3936 54.5988299192221
3937 54.59881832281546
3938 54.59877903860199
3939 54.5987704438426
3940 54.59874666242178
3941 54.59875476627131
3942 54.59874780671821
3943 54.59877127651539
3944 54.59876817064261
3945 54.59879027412644
3946 54.59877984464786
3947 54.59879505880579
3948 54.59878320867346
3949 54.59879467962155
3950 54.59877721621719
3951 54.59878005146668
3952 54.59875882109385
3953 54.59876760545506
3954 54.59875628388576
3955 54.59877464513094
3956 54.59877542941553
3957 54.5987948981191
3958 54.59881049100326
3959 54.59884745329654
3960 54.59886268789037
3961 54.59889950909287
3962 54.5989127089533
3963 54.5989489352976
3964 54.59895834609764
3965 54.59898539061042
3966 54.59898071795978
3967 54.59898854454164
3968 54.59896103068512
3969 54.59895516434243
3970 54.59892573324967
3971 54.59892166553166
3972 54.59888176317371
3973 54.59886321681412
3974 54.59881646742063
3975 54.59879509261044
3976 54.59876353125553
3977 54.5987586658283
3978 54.59873173875049
3979 54.59872698405167
3980 54.5987024232162
3981 54.59870458428757
3982 54.59868082836709
3983 54.59867677014468
3984 54.59864201685859
3985 54.59863381098849
3986 54.59860716174883
3987 54.59861267599126
3988 54.5985985137919
3989 54.59861944766205
3990 54.59862355118336
3991 54.59865101196438
3992 54.59865322653184
3993 54.59867919794802
3994 54.59867614385676
3995 54.59868564715372
3996 54.59866592427295
3997 54.59867634998242
3998 54.59866585466263
3999 54.59868654539834
4000 54.59868834165288
4001 54.59871266770723
4002 54.59871089364863
4003 54.59873422696267
4004 54.59872030903342
4005 54.59874178432602
4006 54.59874229701472
4007 54.59876545747048
4008 54.59875998566481
4009 54.59877290760443
4010 54.59876430140685
4011 54.59877719780876
4012 54.5987670765988
4013 54.59878510202156
4014 54.59878056281374
4015 54.5988029324532
4016 54.59880278429657
4017 54.59882571952598
4018 54.59882359906806
4019 54.59884064068002
4020 54.59882303423437
4021 54.59882639047123
4022 54.59880402938058
4023 54.59880636248384
4024 54.59878867837419
4025 54.59879147884363
4026 54.59877422295621
4027 54.59878092370153
4028 54.59876351672803
4029 54.59876540904192
4030 54.59874745726198
4031 54.59875033154866
4032 54.59872850344683
4033 54.59873585721957
4034 54.59872864818455
4035 54.59875662895492
4036 54.59876629115091
4037 54.59880113104551
4038 54.5988048283191
4039 54.59882446252109
4040 54.59882837541421
4041 54.59885563052975
4042 54.59886298293272
4043 54.59888939153804
4044 54.59889198570858
4045 54.59891306601214
4046 54.59890983719902
4047 54.59892337893539
4048 54.5989110059022
4049 54.59892432618308
4050 54.59891208510592
4051 54.59892163154265
4052 54.5988962736256
4053 54.59888904981876
4054 54.59884976031076
4055 54.59883045494804
4056 54.5987835701893
4057 54.59875804804217
4058 54.59872369292715
4059 54.59871972262472
4060 54.59869689524318
4061 54.59870584823233
4062 54.59870176718641
4063 54.59872145822051
4064 54.59871655393917
4065 54.59873006602162
4066 54.5987188431483
4067 54.5987259690182
4068 54.59870938386008
4069 54.59871554303443
4070 54.59869418693767
4071 54.59869458491671
4072 54.59866279860304
4073 54.59865911303062
4074 54.59863896560202
4075 54.59864540669356
4076 54.59863568374602
4077 54.5986671636894
4078 54.59868612193934
4079 54.5987339811791
4080 54.59875704627496
4081 54.59880666530589
4082 54.5988196205148
4083 54.59886741755199
4084 54.59888365250994
4085 54.59891450097053
4086 54.59891969045417
4087 54.59893752273398
4088 54.59892113676708
4089 54.59892447865194
4090 54.59889975243048
4091 54.59889910918284
4092 54.59887002300524
4093 54.59888093567199
4094 54.59886794058006
4095 54.59888919908063
4096 54.59887814765231
4097 54.59889480953387
4098 54.5988829430197
4099 54.59889124116662
4100 54.59886541507404
4101 54.59885571897792
4102 54.59882559371182
4103 54.59880973410812
4104 54.59876411812056
4105 54.59875385213612
4106 54.59872720581323
4107 54.59873197322445
4108 54.59871164673994
4109 54.59872478387398
4110 54.59872200680481
4111 54.59875018806224
4112 54.59874669089584
4113 54.5987738264341
4114 54.59878678900554
4115 54.59882694173837
4116 54.59883586236624
4117 54.59886971520967
4118 54.59887550126652
4119 54.59889470781305
4120 54.59887918752644
4121 54.59888031637386
4122 54.59885292056699
4123 54.59884858997199
4124 54.59881898741251
4125 54.59880975469503
4126 54.5987813902455
4127 54.59879310878015
4128 54.59878063029254
4129 54.59880264197744
4130 54.59879361769242
4131 54.59881076016948
4132 54.59880375425698
4133 54.59881345723475
4134 54.59879535519702
4135 54.59879597192939
4136 54.59876614998036
4137 54.59875904373749
4138 54.59872788009289
4139 54.59871917596897
4140 54.59867767114067
4141 54.59866660591326
4142 54.59864279649797
4143 54.59864993990998
4144 54.59863748974971
4145 54.59865345558679
4146 54.59865092927424
4147 54.59867045945355
4148 54.59865484971766
4149 54.59866179631966
4150 54.59864323696266
4151 54.59865494703951
4152 54.59864119075994
4153 54.59866118428555
4154 54.5986605544123
4155 54.59868348693241
4156 54.5986767233538
4157 54.59868770918261
4158 54.59867322818019
4159 54.59868128819031
4160 54.59866635033384
4161 54.59867318823162
4162 54.59866440125855
4163 54.59868536763963
4164 54.59868566436951
4165 54.59871415417794
4166 54.59872276804856
4167 54.59874978520743
4168 54.59874690153308
4169 54.5987631889458
4170 54.5987572170013
4171 54.5987774368956
4172 54.59877311502872
4173 54.59879346528713
4174 54.59879164726627
4175 54.59880341727674
4176 54.59879147560756
4177 54.59880487000754
4178 54.59879188665203
4179 54.59880634265394
4180 54.59879175065609
4181 54.59880491668139
4182 54.59879404998275
4183 54.59880977142512
4184 54.59880179383507
4185 54.59882130430045
4186 54.59882488811341
4187 54.59885195814015
4188 54.59887096251545
4189 54.59892272102207
4190 54.59895061390468
4191 54.59899530036746
4192 54.59899900280466
4193 54.59901881869742
4194 54.59900733380271
4195 54.59900569558326
4196 54.59897047622546
4197 54.59895647623344
4198 54.5989281869537
4199 54.5989312636223
4200 54.59891363593565
4201 54.59893406186825
4202 54.59893611466799
4203 54.59896979182012
4204 54.59896612494479
4205 54.5989881165761
4206 54.59898939410157
4207 54.59901606725585
4208 54.59900470391813
4209 54.59901679901302
4210 54.59900443063727
4211 54.59900952838685
4212 54.59898502824015
4213 54.59898085609752
4214 54.59895521000045
4215 54.59894885739729
4216 54.59891915059102
4217 54.59891528673005
4218 54.59889120871704
4219 54.59889998159794
4220 54.59888067680451
4221 54.59888813852544
4222 54.59887425665604
4223 54.59888376917515
4224 54.59886362334558
4225 54.59887138581598
4226 54.59883969189067
4227 54.5988336344487
4228 54.59878955989492
4229 54.59876381295744
4230 54.59872485674736
4231 54.59869712388613
4232 54.59865114616105
4233 54.59863895096228
4234 54.59861918275191
4235 54.59863913936363
4236 54.59863959624509
4237 54.59866454219168
4238 54.59867255413981
4239 54.59870951936983
4240 54.5987176917024
4241 54.59874050893093
4242 54.59873889059325
4243 54.59876230555859
4244 54.59875440929522
4245 54.59876907453335
4246 54.59875488496542
4247 54.59877414218479
4248 54.59876028367785
4249 54.59877851850145
4250 54.59878046395055
4251 54.59881097796708
4252 54.5988165387359
4253 54.59884841617339
4254 54.59884814806178
4255 54.59887063299277
4256 54.59886542395812
4257 54.59888404754118
4258 54.59888625670508
4259 54.5989101670411
4260 54.59890367255355
4261 54.59892093900911
4262 54.5989045028097
4263 54.59891238022934
4264 54.59888326778726
4265 54.59887403083081
4266 54.59884410144593
4267 54.59883083296882
4268 54.59879369600782
4269 54.59878384304747
4270 54.59875909037294
4271 54.59876569847724
4272 54.59874427043351
4273 54.59874808007272
4274 54.59872973944183
4275 54.59873885663317
4276 54.59872584423344
4277 54.59873967792274
4278 54.59872240628777
4279 54.59873316067841
4280 54.59871487637918
4281 54.59873275665824
4282 54.59872921332256
4283 54.59875485300104
4284 54.59874956562785
4285 54.59876550741993
4286 54.59875401080132
4287 54.59876519309209
4288 54.59875924769983
4289 54.59877616696073
4290 54.59877416011514
4291 54.59879376535169
4292 54.59878826259424
4293 54.59881308211666
4294 54.5988167813718
4295 54.59883937570459
4296 54.59882157812499
4297 54.5988383650136
4298 54.59882610416598
4299 54.59883235628585
4300 54.59880609925532
4301 54.59879836466599
4302 54.5987727228481
4303 54.59876297219166
4304 54.59873210500571
4305 54.5987349261416
4306 54.59871917578261
4307 54.59873349440464
4308 54.59872341387802
4309 54.59874256420431
4310 54.59873969112938
4311 54.59875963253859
4312 54.59875308650237
4313 54.59876334006262
4314 54.59874436780419
4315 54.59874207373414
4316 54.59871600243574
4317 54.59871935467815
4318 54.59870393692516
4319 54.59871844163064
4320 54.59870269501454
4321 54.59871098400198
4322 54.59870008822816
4323 54.59870957948964
4324 54.59869048897468
4325 54.59870024553751
4326 54.59869820228703
4327 54.59872303403316
4328 54.59872856648605
4329 54.5987566023888
4330 54.59876059431791
4331 54.59879204750333
4332 54.59878531824035
4333 54.59879464316286
4334 54.5987823981706
4335 54.59879583561006
4336 54.59878449239712
4337 54.59880414315426
4338 54.59880098269676
4339 54.59883153383223
4340 54.59884001511531
4341 54.59886781600797
4342 54.59886884225011
4343 54.59888490467863
4344 54.59887443547004
4345 54.59888186914142
4346 54.59885897601357
4347 54.59884940325122
4348 54.59881401332846
4349 54.59879201697213
4350 54.59874831654641
4351 54.59873587745366
4352 54.59869910055883
4353 54.59869872445047
4354 54.59867950757729
4355 54.59869626720667
4356 54.59868839361036
4357 54.59870743480359
4358 54.59869745964524
4359 54.59870423375627
4360 54.59868182371195
4361 54.59867996287001
4362 54.5986611179577
4363 54.59867196827845
4364 54.59866310466402
4365 54.59867919261082
4366 54.5986703183231
4367 54.59869262126116
4368 54.598693283996
4369 54.59871546809206
4370 54.59871768237785
4371 54.59874897748861
4372 54.59875017896494
4373 54.5987788603877
4374 54.59877989163525
4375 54.59881768662783
4376 54.59882180427866
4377 54.59885588007815
4378 54.59886012326102
4379 54.59887861571148
4380 54.59887116864521
4381 54.59888187997219
4382 54.59886335003787
4383 54.59885404592511
4384 54.5988184356155
4385 54.5988119359707
4386 54.59876841723111
4387 54.59876572721058
4388 54.59873887809493
4389 54.59873811170778
4390 54.59871724666299
4391 54.59872818495299
4392 54.5987100983907
4393 54.59871630787666
4394 54.59869085246284
4395 54.59868590046867
4396 54.59865619825413
4397 54.59865257291545
4398 54.59863363130346
4399 54.5986457916791
4400 54.59863033902761
4401 54.59864300805469
4402 54.5986294622937
4403 54.59864314236533
4404 54.59864554744861
4405 54.59867899296098
4406 54.59869307411196
4407 54.59872391400739
4408 54.59873523703629
4409 54.5987791222201
4410 54.59880122571052
4411 54.59884809988382
4412 54.5988739040849
4413 54.59891826184896
4414 54.5989348473224
4415 54.59896953431286
4416 54.59897236913029
4417 54.59899612050522
4418 54.59898876851916
4419 54.59899848265743
4420 54.59898180276678
4421 54.59898526624614
4422 54.59896860627738
4423 54.59897986064824
4424 54.5989647066968
4425 54.59897938402764
4426 54.59896741008064
4427 54.59898325458029
4428 54.59896632831373
4429 54.59897497362206
4430 54.59894545968046
4431 54.5989469496516
4432 54.5989218423345
4433 54.59892218386188
4434 54.59890529255233
4435 54.59891902716414
4436 54.59890772192857
4437 54.59891854063769
4438 54.59889893461356
4439 54.59889814334291
4440 54.59886166299954
4441 54.59885692032356
4442 54.5988288413161
4443 54.59883177485785
4444 54.59881298126133
4445 54.59881687571782
4446 54.59880526562338
4447 54.59882928505132
4448 54.59883163876229
4449 54.59885785705233
4450 54.59885586702561
4451 54.59886750773986
4452 54.59885234227091
4453 54.59885029601042
4454 54.59882767649903
4455 54.5988304999429
4456 54.59881336940505
4457 54.59881625471018
4458 54.59879863119583
4459 54.5988063383797
4460 54.59879417500085
4461 54.59881192741061
4462 54.59880454304205
4463 54.59882621903109
4464 54.5988253651123
4465 54.59885413640863
4466 54.59885275485947
4467 54.5988743232507
4468 54.59886547588928
4469 54.59887166756368
4470 54.5988486156634
4471 54.59884424450274
4472 54.59881853144211
4473 54.59881981089325
4474 54.59879654881966
4475 54.59879614295625
4476 54.59876863329268
4477 54.59876419054781
4478 54.59874385633864
4479 54.59874890318829
4480 54.59873961021075
4481 54.59876202095742
4482 54.59876407912886
4483 54.59879351676585
4484 54.59880197319449
4485 54.59883210358102
4486 54.59882290935245
4487 54.59881942013764
4488 54.59879047023315
4489 54.59877107214857
4490 54.59873475683201
4491 54.5987315434191
4492 54.59871264304867
4493 54.59872489263512
4494 54.59871752618931
4495 54.59872942588296
4496 54.5987224695027
4497 54.59873596812059
4498 54.59872298480346
4499 54.59872680650912
4500 54.59870118390167
4501 54.59871040722173
4502 54.59869429376234
4503 54.59869423445717
4504 54.59866676826674
4505 54.59866578408158
4506 54.59863467141033
4507 54.59863231034336
4508 54.59860014408108
4509 54.59859912008959
4510 54.5985846419075
4511 54.59859225538603
