"x-rfile"
"Iteration" "x"
("Iteration" "x")
1 1349.829250789852
2 1204.180614347696
3 828.4714794502025
4 632.0334738567329
5 448.1627495028049
6 352.0295224730124
7 254.1468326936521
8 192.3076091419695
9 137.7551644274777
10 96.73004192027373
11 62.23625242345794
12 37.30494042421706
13 18.47427102149323
14 6.434143376023202
15 -0.3536231362217649
16 -4.198442396051119
17 -5.407090648070934
18 -4.985999512859369
19 -3.745304599968513
20 -2.268641321363321
21 -0.3974285818695484
22 1.157855801161657
23 2.640129014433616
24 3.973090890327652
25 5.136629370904341
26 6.084067789383028
27 6.944484900692895
28 7.595237744409848
29 8.066091915168471
30 8.466911439131444
31 8.727702207187811
32 8.866195868479506
33 8.931128709930233
34 8.932497394215467
35 8.889950248610212
36 8.791408830319586
37 8.661474689665011
38 8.511465728277527
39 8.342931974476757
40 8.137569068114892
41 7.940382375296737
42 7.707667443250671
43 7.453703239495214
44 7.185420157107457
45 6.811831292451926
46 6.520927726203447
47 6.156615160833873
48 5.869593015649948
49 5.552542539093416
50 5.263716453938252
51 4.990294376837047
52 4.73032334890233
53 4.48582678583848
54 4.277712036606506
55 4.06386316553849
56 3.850771197432465
57 3.664911916901634
58 3.503707864208869
59 3.332826675591106
60 3.19007602921772
61 3.032925983244906
62 2.909864976460775
63 2.730511889924919
64 2.554370331067458
65 2.378984537314942
66 2.205313616500608
67 1.999854369717819
68 1.812838287089728
69 1.638753908605125
70 1.477333993195789
71 1.324407462279805
72 1.159481766256565
73 1.033285668657607
74 0.9107050845396195
75 0.7930877845308029
76 0.6806729865244517
77 0.5857928692653358
78 0.4705799559078737
79 0.3749606099965801
80 0.2752601071003491
81 0.1906808162149056
82 0.07965371161854651
83 -0.01214526970191798
84 -0.1090785276910309
85 -0.2108495014445583
86 -0.3153490217428152
87 -0.4221831702893186
88 -0.5299814762914006
89 -0.6394040468480557
90 -0.7490533031480023
91 -0.858481960304474
92 -0.9674542003181477
93 -1.075672855024332
94 -1.182257662347158
95 -1.308862265936095
96 -1.407892721854466
97 -1.5077339362291
98 -1.625437283273966
99 -1.717954728457938
100 -1.809977799167372
101 -1.901612756728801
102 -1.991078025511943
103 -2.079391215607043
104 -2.165718064867106
105 -2.251012687074464
106 -2.33442124482904
107 -2.416421021892865
108 -2.496060347384854
109 -2.559100411220781
110 -2.638416046302284
111 -2.699634198194073
112 -2.761207818563931
113 -2.839147591448193
114 -2.897725352815951
115 -2.956694159746576
116 -3.028994116985447
117 -3.084119722335058
118 -3.138600316312972
119 -3.205445331136963
120 -3.25571935540436
121 -3.317543868461228
122 -3.364874084415291
123 -3.422493621117283
124 -3.466317300537391
125 -3.519541480666673
126 -3.560440931190104
127 -3.601011654017781
128 -3.648288510770348
129 -3.68534048090064
130 -3.721568822840142
131 -3.757274956993441
132 -3.791184456764238
133 -3.824435277739633
134 -3.856053316556003
135 -3.887038616828277
136 -3.916689011276823
137 -3.945663039933413
138 -3.973435644496383
139 -4.000577550459109
140 -4.026606987482016
141 -4.051751748055617
142 -4.075465255803724
143 -4.098746974929679
144 -4.120992658168901
145 -4.142534944200055
146 -4.163233766488572
147 -4.183198471734219
148 -4.202406043225297
149 -4.220879231337116
150 -4.238523172571475
151 -4.255818588094725
152 -4.272355082073863
153 -4.288497414614173
154 -4.303868441719906
155 -4.320805603431518
156 -4.334239622232902
157 -4.348022529810279
158 -4.361323435641296
159 -4.376502553975535
160 -4.388910734027398
161 -4.401708056416385
162 -4.414218339882186
163 -4.426681392130887
164 -4.438394857206482
165 -4.450111022408588
166 -4.46143476604544
167 -4.472648281982313
168 -4.483308124162335
169 -4.493697962413239
170 -4.503378366005045
171 -4.512873636692975
172 -4.52164026934896
173 -4.530104150790004
174 -4.537941210331513
175 -4.545543653961229
176 -4.55248345064754
177 -4.559241850517104
178 -4.565234322011717
179 -4.570926003228734
180 -4.575860086681152
181 -4.580794883868687
182 -4.585208331808684
183 -4.589669426897303
184 -4.59354921203302
185 -4.597413052378187
186 -4.600651391019221
187 -4.603948622057819
188 -4.606943017439967
189 -4.609973936192831
190 -4.612815730190809
191 -4.6146700257679
192 -4.617133868842139
193 -4.619809792587736
194 -4.621846287301736
195 -4.624475459321992
196 -4.626878329397029
197 -4.62972954246978
198 -4.632557629099225
199 -4.635785566270856
200 -4.63936519278912
201 -4.643040159393756
202 -4.64692817467132
203 -4.650970766366548
204 -4.655202609364694
205 -4.659878664015125
206 -4.66497233630571
207 -4.670399133363304
208 -4.676301911001345
209 -4.682375293347915
210 -4.688832184285167
211 -4.695423842901552
212 -4.702268581431093
213 -4.709549502691776
214 -4.717188689288168
215 -4.724995491786416
216 -4.733039826567978
217 -4.74131805787154
218 -4.749666102435509
219 -4.75825574775008
220 -4.767082292107326
221 -4.776193992008528
222 -4.785683654645155
223 -4.795214493945351
224 -4.805086650087009
225 -4.815104565871744
226 -4.825259934814913
227 -4.835422622402404
228 -4.845831382736126
229 -4.856152252116616
230 -4.866492696061157
231 -4.876799520417362
232 -4.887241216985918
233 -4.897716029489541
234 -4.908290356490353
235 -4.918804845055752
236 -4.926495760965439
237 -4.938066911320717
238 -4.949270764823232
239 -4.957094559075963
240 -4.969061106304872
241 -4.980280376318536
242 -4.988187490062462
243 -4.999790191553056
244 -5.007747850914391
245 -5.019412697113036
246 -5.027348423091354
247 -5.039049574226866
248 -5.046865948975491
249 -5.058235102720842
250 -5.065922767297284
251 -5.077058316307628
252 -5.084491046588929
253 -5.095357074628975
254 -5.102495451048526
255 -5.109845516101025
256 -5.117361201591856
257 -5.128075806426653
258 -5.134987748311631
259 -5.141984229889484
260 -5.149031684827013
261 -5.156101252411256
262 -5.163183775575835
263 -5.17019224609934
264 -5.177143203192587
265 -5.184086159433216
266 -5.190916942205787
267 -5.197666535033842
268 -5.204324975443249
269 -5.210902840743139
270 -5.217354959416561
271 -5.223755313926437
272 -5.229975987600932
273 -5.236062279418495
274 -5.24201212773358
275 -5.247786094732269
276 -5.253404440802588
277 -5.258891061058212
278 -5.264113725410104
279 -5.269077236102355
280 -5.273882456690103
281 -5.278458935144401
282 -5.282894845075249
283 -5.287234074739756
284 -5.291353217412756
285 -5.295381409025641
286 -5.299397804073641
287 -5.303317779825173
288 -5.307135732303623
289 -5.310917260703019
290 -5.314590554296965
291 -5.318104669619214
292 -5.321526267769046
293 -5.324831201499946
294 -5.3279927229833
295 -5.331084609676964
296 -5.334051485456773
297 -5.336936328959666
298 -5.339785414425849
299 -5.34258340066747
300 -5.34526244574803
301 -5.347937613375741
302 -5.350526829522244
303 -5.353096614202939
304 -5.35571290206535
305 -5.358339422267462
306 -5.360973503455591
307 -5.363636807938315
308 -5.366248702081301
309 -5.368810976373886
310 -5.371342821559711
311 -5.373782568687699
312 -5.376099600992638
313 -5.378326231304303
314 -5.380406099903959
315 -5.382391702304777
316 -5.38433274142035
317 -5.38621387715909
318 -5.388087270723223
319 -5.389984110698885
320 -5.391880710534099
321 -5.393817380937957
322 -5.395791699795097
323 -5.397757585292971
324 -5.399721209085548
325 -5.401687778062466
326 -5.403579384163719
327 -5.405421840248883
328 -5.407155643779485
329 -5.40882011871059
330 -5.410350471964779
331 -5.411874419832576
332 -5.413282814825846
333 -5.414668952275967
334 -5.416035194664039
335 -5.417429961191869
336 -5.418795720020458
337 -5.420250297541044
338 -5.421657787577643
339 -5.423117445612929
340 -5.42459450247165
341 -5.426155019612509
342 -5.427669433695155
343 -5.429222245515791
344 -5.430689334771259
345 -5.432133090039062
346 -5.43349291959378
347 -5.434784395578146
348 -5.435954318176777
349 -5.437115944281557
350 -5.438191999373961
351 -5.439281335069355
352 -5.440434669697891
353 -5.441651236873877
354 -5.442907992257711
355 -5.444212280097993
356 -5.445512685084418
357 -5.446850556497031
358 -5.448170428771193
359 -5.449431849096585
360 -5.450652667163721
361 -5.451875702322361
362 -5.452991146103468
363 -5.454065167910794
364 -5.455150427415308
365 -5.456236881931688
366 -5.457267613534841
367 -5.458368835482434
368 -5.459427725853254
369 -5.46051492716475
370 -5.46164062551461
371 -5.46275233883344
372 -5.463801984408249
373 -5.464902483084849
374 -5.465926924935611
375 -5.466974702347422
376 -5.467989370280692
377 -5.469008616748284
378 -5.470021423961838
379 -5.471145549945539
380 -5.472255704799813
381 -5.473430664247613
382 -5.474579526355552
383 -5.475707648016806
384 -5.47676177435664
385 -5.47782557470835
386 -5.478783194532938
387 -5.479709808259027
388 -5.480653836055923
389 -5.48158184634547
390 -5.482547249157164
391 -5.483555696089861
392 -5.484514478925122
393 -5.485511386613014
394 -5.486569263225267
395 -5.487607085251885
396 -5.488646568254739
397 -5.489739471380671
398 -5.490797376063036
399 -5.491849950969322
400 -5.492908912400352
401 -5.494535431645057
402 -5.495440726417012
403 -5.496394382799041
404 -5.497807055811302
405 -5.49860249513897
406 -5.499451348642405
407 -5.500774523032399
408 -5.501522717400889
409 -5.502863263592025
410 -5.503605733286491
411 -5.504934967843283
412 -5.505712526573187
413 -5.507087794355572
414 -5.507840955116899
415 -5.509208566367046
416 -5.509936516751481
417 -5.511308546228612
418 -5.512495381247762
419 -5.513640397904981
420 -5.514657820342016
421 -5.515744771576324
422 -5.516742783866844
423 -5.51744750419497
424 -5.518564952938869
425 -5.519756388992849
426 -5.520897462244534
427 -5.522137535226629
428 -5.523264344601839
429 -5.524482104820207
430 -5.525601434002666
431 -5.526741438273774
432 -5.52775323987423
433 -5.528776438363317
434 -5.529693006129143
435 -5.530677641456213
436 -5.531631575310002
437 -5.532621217728032
438 -5.533629402672941
439 -5.534720212829659
440 -5.535787289214535
441 -5.536892982332694
442 -5.537975549962781
443 -5.539042270945053
444 -5.54008564875403
445 -5.541133529497362
446 -5.542150124580335
447 -5.5431823926493
448 -5.544207771313249
449 -5.545220003764419
450 -5.546187930821781
451 -5.547185698288796
452 -5.548171567794451
453 -5.549215349580289
454 -5.550271557393649
455 -5.551364192837878
456 -5.552436638581747
457 -5.553588502339236
458 -5.554691016412195
459 -5.555840553878587
460 -5.55695937580551
461 -5.558109309336549
462 -5.559207277751542
463 -5.560301136636491
464 -5.561329602710725
465 -5.562411198018855
466 -5.563413019299036
467 -5.56438607741776
468 -5.565315847733991
469 -5.566282440765288
470 -5.567204230150089
471 -5.568219940636706
472 -5.569220496502707
473 -5.57029382557969
474 -5.571329777407112
475 -5.572457291929504
476 -5.573511862856435
477 -5.574653365809078
478 -5.575762982302376
479 -5.576869991015853
480 -5.577997484622421
481 -5.579165886649704
482 -5.580302136346265
483 -5.581370769767573
484 -5.582399262586908
485 -5.583395479282149
486 -5.584369913395703
487 -5.585373724355811
488 -5.586280153535752
489 -5.58725854058806
490 -5.588192639488653
491 -5.589201489729311
492 -5.59021778463446
493 -5.591366097734191
494 -5.592493651092515
495 -5.593694700231604
496 -5.594863957672413
497 -5.596087811191836
498 -5.597195096832134
499 -5.598348981579043
500 -5.599347069283289
501 -5.600391841171366
502 -5.601331553840533
503 -5.602317059818787
504 -5.603250812720915
505 -5.604293565642403
506 -5.60524999617543
507 -5.606297989707405
508 -5.607334424705607
509 -5.608435859951161
510 -5.609479659768744
511 -5.610633318347189
512 -5.611680280143215
513 -5.612839873854789
514 -5.613829450116753
515 -5.614876509147417
516 -5.615819850716818
517 -5.616910255394613
518 -5.617857387399841
519 -5.618873291718459
520 -5.619823711190553
521 -5.620846145385247
522 -5.621799719859294
523 -5.622794993764154
524 -5.623702688140541
525 -5.624696046658676
526 -5.625661774976728
527 -5.626678503009034
528 -5.627644063214173
529 -5.628722500708178
530 -5.629706257145959
531 -5.630772947138333
532 -5.631727270797065
533 -5.632732302339647
534 -5.633628623825101
535 -5.634626191998735
536 -5.635516821918958
537 -5.636481601358581
538 -5.637362344397627
539 -5.638336219210428
540 -5.639311270451568
541 -5.640372779607366
542 -5.641366480992025
543 -5.642429512966794
544 -5.643409141288743
545 -5.644409888644929
546 -5.645276464479056
547 -5.646144351022982
548 -5.646874769176148
549 -5.64767697994778
550 -5.648404141926629
551 -5.649215242156337
552 -5.650003505110021
553 -5.650977735667152
554 -5.651916267970467
555 -5.652982573033493
556 -5.654018210414871
557 -5.655106056529886
558 -5.656090515880694
559 -5.657110771658365
560 -5.657910644035795
561 -5.658708202414735
562 -5.659375819200199
563 -5.66008529699084
564 -5.660713442155719
565 -5.661441286513941
566 -5.662095239497282
567 -5.662916191900244
568 -5.663717096702515
569 -5.664614380268002
570 -5.665438922685908
571 -5.666394559830702
572 -5.667277368418597
573 -5.668244087235209
574 -5.669091478309767
575 -5.669958128240628
576 -5.670728147561737
577 -5.671587334634701
578 -5.672310135751697
579 -5.673064836569966
580 -5.673737223659378
581 -5.674486842066909
582 -5.675149074106243
583 -5.675859489542811
584 -5.676450094947448
585 -5.677150896600736
586 -5.677827144762216
587 -5.678580964274962
588 -5.679285105333147
589 -5.680103534559061
590 -5.680869327614763
591 -5.68176751339732
592 -5.682580540146541
593 -5.683413898899575
594 -5.68413003086564
595 -5.684901003024503
596 -5.685498927163263
597 -5.686167093346865
598 -5.686750547770071
599 -5.687406511372327
600 -5.687966692785089
601 -5.688606679681006
602 -5.689142124307749
603 -5.689790264148092
604 -5.690385669056092
605 -5.691057156417764
606 -5.691650091963061
607 -5.69237188010846
608 -5.693002485410588
609 -5.693747686750409
610 -5.694392956624865
611 -5.695119389539729
612 -5.695766986335487
613 -5.696497945955842
614 -5.697068392327417
615 -5.697683871912784
616 -5.698168289575515
617 -5.698707504852655
618 -5.699160180460867
619 -5.6996615869767
620 -5.700104518686113
621 -5.700653497622747
622 -5.701151547787545
623 -5.70171360445265
624 -5.702242907011393
625 -5.702937759879544
626 -5.703563592148951
627 -5.704323066071894
628 -5.70498448931009
629 -5.705683539938636
630 -5.706287419793037
631 -5.706945080014898
632 -5.707444900854993
633 -5.707998518402361
634 -5.708466976962756
635 -5.708967888005176
636 -5.709355942391628
637 -5.709798534032937
638 -5.710160853633367
639 -5.710641458129155
640 -5.711095768479948
641 -5.711462716563
642 -5.711994540475195
643 -5.712594366461389
644 -5.713139100112448
645 -5.713782622202001
646 -5.714361825829132
647 -5.71497536472824
648 -5.715518858242111
649 -5.716096604194659
650 -5.716422956164141
651 -5.716847145104333
652 -5.717113368597618
653 -5.71733237470768
654 -5.717622217926301
655 -5.718039530382722
656 -5.718460802627758
657 -5.719036811436302
658 -5.719589478251228
659 -5.720233724468468
660 -5.720761889884889
661 -5.721149707871279
662 -5.721659158315975
663 -5.722216712838749
664 -5.722675395146023
665 -5.723164884077781
666 -5.723532088041658
667 -5.723839061164821
668 -5.724230944139197
669 -5.724479553838985
670 -5.724856893973658
671 -5.725259570388261
672 -5.725536210040448
673 -5.726079313090669
674 -5.726486897195247
675 -5.726988928017035
676 -5.727416123215053
677 -5.72777414552963
678 -5.728241140563536
679 -5.728696066526562
680 -5.728927052365075
681 -5.729384372956745
682 -5.729756565742533
683 -5.730215282938044
684 -5.730625747751621
685 -5.730961722985518
686 -5.731407512240741
687 -5.731691975357573
688 -5.732039702923875
689 -5.732341982597744
690 -5.732617392448455
691 -5.733052008638124
692 -5.733409189722868
693 -5.733812088274585
694 -5.734153474266118
695 -5.734590170862603
696 -5.734958058017136
697 -5.735301859925474
698 -5.735467435589185
699 -5.73579150539078
700 -5.736102868116317
701 -5.736260352121158
702 -5.736481107618136
703 -5.736752610933658
704 -5.737001900966373
705 -5.737374386539475
706 -5.737704190281095
707 -5.737952756968538
708 -5.738398679985346
709 -5.738812899824247
710 -5.739075390023173
711 -5.739392927873414
712 -5.739685102388261
713 -5.739815581379448
714 -5.740027204225683
715 -5.740169296302765
716 -5.740473547798789
717 -5.740616798140757
718 -5.740967142757027
719 -5.741301450958086
720 -5.741676617167357
721 -5.742131151428678
722 -5.742597625012015
723 -5.742842454189235
724 -5.743271311615388
725 -5.743416457929797
726 -5.743679018995581
727 -5.743927993743036
728 -5.744213458472347
729 -5.744396095964499
730 -5.744625069678932
731 -5.744861430383291
732 -5.745091924715688
733 -5.745249904002232
734 -5.745340076314065
735 -5.745463941412987
736 -5.745675682893357
737 -5.745723938487606
738 -5.745878793190259
739 -5.745988285162369
740 -5.746316864957471
741 -5.746438497346036
742 -5.746753468045662
743 -5.747042761835901
744 -5.747322574760173
745 -5.747590644107038
746 -5.747802601092319
747 -5.74790056249135
748 -5.748212855885724
749 -5.748365071398085
750 -5.748529757836917
751 -5.748826454439417
752 -5.749115386113189
753 -5.749330818439184
754 -5.749504724472633
755 -5.74980093983032
756 -5.750068792412884
757 -5.750319889348773
758 -5.750506911010579
759 -5.750810706490372
760 -5.751069422407011
761 -5.751185840584291
762 -5.751278316446752
763 -5.751440093843446
764 -5.751706807017484
765 -5.751748090956506
766 -5.751924826745682
767 -5.752018562601311
768 -5.752343488272461
769 -5.752415911904543
770 -5.752589588725337
771 -5.752699799615394
772 -5.753019370255235
773 -5.753090392008264
774 -5.75329317582115
775 -5.753420623771559
776 -5.753780901810247
777 -5.753894515968832
778 -5.754208350314332
779 -5.754493875762062
780 -5.754807428883417
781 -5.755052944440777
782 -5.755258477043325
783 -5.755479289902818
784 -5.75573093537684
785 -5.755753991574824
786 -5.755909580726609
787 -5.755976923040837
788 -5.756143254833683
789 -5.756084757230695
790 -5.756176074768973
791 -5.756215832296425
792 -5.756445165562533
793 -5.756513111308638
794 -5.756713655753102
795 -5.756931366733253
796 -5.757185224545543
797 -5.757288855140849
798 -5.757400507267122
799 -5.757639685906069
800 -5.757961278952271
801 -5.758034702141076
802 -5.758256158644563
803 -5.758369997292152
804 -5.758687258323385
805 -5.758721866047096
806 -5.758802266797705
807 -5.758861191698547
808 -5.759051285530892
809 -5.759075236053109
810 -5.759139200430861
811 -5.759283141594025
812 -5.759480601425352
813 -5.759606419646718
814 -5.759760937915257
815 -5.759998944737751
816 -5.760231843457556
817 -5.760379223125632
818 -5.760579606945455
819 -5.760672170390137
820 -5.760896210454664
821 -5.760895082137248
822 -5.76093578472404
823 -5.760969534854866
824 -5.761084684764362
825 -5.761008205569635
826 -5.761054056152208
827 -5.761108648892161
828 -5.761378803561882
829 -5.761443932300345
830 -5.761661702944486
831 -5.761823758122527
832 -5.762244180689077
833 -5.762319151422571
834 -5.762540197944928
835 -5.762650853013501
836 -5.762925550574832
837 -5.762932937612983
838 -5.763020288773066
839 -5.763012217627356
840 -5.763089061362168
841 -5.763009593972297
842 -5.762987929024325
843 -5.762953611558232
844 -5.76313422983224
845 -5.763168604061901
846 -5.763390860691042
847 -5.763510232271714
848 -5.763829245804463
849 -5.763887318326393
850 -5.764129842455502
851 -5.764245606275247
852 -5.76447644652076
853 -5.764427218450959
854 -5.764398130050616
855 -5.764391483864705
856 -5.764558301518062
857 -5.764537699338145
858 -5.764605359920254
859 -5.764809794706131
860 -5.76500373601746
861 -5.765065342463037
862 -5.765122100919198
863 -5.765236390965573
864 -5.765423010584105
865 -5.765428566752428
866 -5.765502103071652
867 -5.76550373725053
868 -5.765674263699004
869 -5.765648044917775
870 -5.765709172698886
871 -5.765685659396561
872 -5.765848940396747
873 -5.765872429002745
874 -5.766042869911017
875 -5.766177097396992
876 -5.766391360898689
877 -5.766476090867074
878 -5.766585386187901
879 -5.766618649069199
880 -5.766810322055925
881 -5.766814941457983
882 -5.766952513730232
883 -5.767044745021756
884 -5.767202023219532
885 -5.767194439685168
886 -5.767220361405389
887 -5.767229568754732
888 -5.76729864899409
889 -5.76721406776207
890 -5.767209968724429
891 -5.767245185054195
892 -5.76743383565934
893 -5.767455416016083
894 -5.767540774420232
895 -5.767675038472691
896 -5.767855817536512
897 -5.767841835139963
898 -5.76790169663632
899 -5.767928904895521
900 -5.768150571961994
901 -5.76814562855091
902 -5.768185116759387
903 -5.76823787340635
904 -5.768423282554788
905 -5.76838945112731
906 -5.768385791136973
907 -5.768468142877187
908 -5.768620585629367
909 -5.768684284428667
910 -5.768781961708084
911 -5.76886986172749
912 -5.769017617789862
913 -5.768989225305398
914 -5.769005942299901
915 -5.769034272422134
916 -5.769241730773867
917 -5.769230830380041
918 -5.769314765217043
919 -5.769395836457705
920 -5.769534144990058
921 -5.769484434962207
922 -5.769492095931621
923 -5.769500594887718
924 -5.76957906501146
925 -5.769489423079243
926 -5.769480287538771
927 -5.769559431103476
928 -5.769805901041384
929 -5.769851662030576
930 -5.769954290140146
931 -5.77011917498305
932 -5.770346367609011
933 -5.77045694268276
934 -5.770546447990135
935 -5.770612357842588
936 -5.770727561636954
937 -5.770693610149189
938 -5.770604056211702
939 -5.77050675188017
940 -5.770455290383693
941 -5.770316620030371
942 -5.770244931656102
943 -5.770219427650293
944 -5.770359773667135
945 -5.770342799572043
946 -5.770538715027816
947 -5.770687630472025
948 -5.770895488456548
949 -5.770879401639622
950 -5.770949338486643
951 -5.771010151906055
952 -5.771150119275068
953 -5.771078255124003
954 -5.771077401981553
955 -5.771127803108119
956 -5.771230217745103
957 -5.771124183670831
958 -5.771143115937824
959 -5.771197026986972
960 -5.771318706384107
961 -5.771273565990747
962 -5.77125779846626
963 -5.771284886965851
964 -5.771439882002556
965 -5.771423647556066
966 -5.771464233291474
967 -5.77148840607637
968 -5.771634653580207
969 -5.771601895061604
970 -5.771624743048159
971 -5.771605619223305
972 -5.771740177673843
973 -5.771761312284196
974 -5.7718244653289
975 -5.771871902046469
976 -5.772059079139601
977 -5.772054848306388
978 -5.772071813108214
979 -5.772155949930689
980 -5.772267760663601
981 -5.772212464819894
982 -5.772257123918179
983 -5.772289071834757
984 -5.77237745634182
985 -5.772306021467291
986 -5.772268124930277
987 -5.772259159582034
988 -5.772411186030773
989 -5.772420358839618
990 -5.772552348867406
991 -5.772658421598683
992 -5.772812750156573
993 -5.772737666133717
994 -5.772746865330815
995 -5.772727312376042
996 -5.772849377010345
997 -5.772825848860384
998 -5.772833198818638
999 -5.772828586991388
1000 -5.773021901605954
1001 -5.772988801840715
1002 -5.773016246198204
1003 -5.773013485443001
1004 -5.773111046238449
1005 -5.773010139335618
1006 -5.77301514213212
1007 -5.772960590363994
1008 -5.773004850733864
1009 -5.772990903675424
1010 -5.77304333443614
1011 -5.773128195075997
1012 -5.773334799451304
1013 -5.773314805042056
1014 -5.773372261845691
1015 -5.773470964953862
1016 -5.773628001367652
1017 -5.773580878838363
1018 -5.773606354509124
1019 -5.773595800391745
1020 -5.773659683563895
1021 -5.773532368346896
1022 -5.7734350459308
1023 -5.773348660670713
1024 -5.773358704533545
1025 -5.773183417815225
1026 -5.77318949708245
1027 -5.773368354052862
1028 -5.773691552797647
1029 -5.77377704499612
1030 -5.773948507541268
1031 -5.774138089775458
1032 -5.774348584362532
1033 -5.774450480147547
1034 -5.774502525355004
1035 -5.774435134048823
1036 -5.774406627012873
1037 -5.774200562467954
1038 -5.77406394050313
1039 -5.773922875686083
1040 -5.77381401390763
1041 -5.773634232696852
1042 -5.773615014079592
1043 -5.773562523422402
1044 -5.773735852609009
1045 -5.773928833386279
1046 -5.774254182077421
1047 -5.774493443879298
1048 -5.774745016235971
1049 -5.774766707298599
1050 -5.774882752771194
1051 -5.774837622020875
1052 -5.774823146891414
1053 -5.774581953132629
1054 -5.774419187997253
1055 -5.774260436323921
1056 -5.774124013039553
1057 -5.773890374314187
1058 -5.773809498803679
1059 -5.773804267149401
1060 -5.774002095965719
1061 -5.774022901299968
1062 -5.774205219934164
1063 -5.774371988701205
1064 -5.774691354675372
1065 -5.774839018957237
1066 -5.774963013572211
1067 -5.77498965169107
1068 -5.775055672035454
1069 -5.774981165445019
1070 -5.774833088521817
1071 -5.774604578769903
1072 -5.774518599746282
1073 -5.774337452380712
1074 -5.774290488390903
1075 -5.774250605975231
1076 -5.774339993716276
1077 -5.774324475949758
1078 -5.774402955397776
1079 -5.774385219847387
1080 -5.774525019135128
1081 -5.77459091791621
1082 -5.774751302489387
1083 -5.774964056113697
1084 -5.775235502708982
1085 -5.775270492422388
1086 -5.77529984627455
1087 -5.775283871972674
1088 -5.775328684991845
1089 -5.775093986686844
1090 -5.774909086105948
1091 -5.774787523396283
1092 -5.77485189464629
1093 -5.774821342908384
1094 -5.774877513880385
1095 -5.774907079300021
1096 -5.775113344782072
1097 -5.775057258064413
1098 -5.775042060886535
1099 -5.775060953797418
1100 -5.775179293831958
1101 -5.775147194930861
1102 -5.775131467194463
1103 -5.775119063015632
1104 -5.775227635695688
1105 -5.775156707511933
1106 -5.775141457219338
1107 -5.775168819582704
1108 -5.775299387178515
1109 -5.775267985914557
1110 -5.775332303399802
1111 -5.775393125174344
1112 -5.775505539991592
1113 -5.775399110653693
1114 -5.775324054344432
1115 -5.775244896178078
1116 -5.775293838703394
1117 -5.775233835507188
1118 -5.775297834308391
1119 -5.775469910657504
1120 -5.775737121550701
1121 -5.775794174602437
1122 -5.775883134479963
1123 -5.775958362813872
1124 -5.776060203824176
1125 -5.775969059057179
1126 -5.775941687873659
1127 -5.775884827913796
1128 -5.77592134548309
1129 -5.775787637165369
1130 -5.77566623680608
1131 -5.775543276402519
1132 -5.77557596194672
1133 -5.775461599064904
1134 -5.775473333039864
1135 -5.775486331696407
1136 -5.775588971239445
1137 -5.775590826832563
1138 -5.775668767945872
1139 -5.775671157741573
1140 -5.775821295441363
1141 -5.77584623333069
1142 -5.7759162275381
1143 -5.775943468454319
1144 -5.776011196978765
1145 -5.775789195374312
1146 -5.775644445397889
1147 -5.775575306419882
1148 -5.775584093274613
1149 -5.775481903680512
1150 -5.77554224699952
1151 -5.775647438507612
1152 -5.775815752861216
1153 -5.775790410559794
1154 -5.775803819183924
1155 -5.775869005027452
1156 -5.776012858564538
1157 -5.775968533658226
1158 -5.775946807650334
1159 -5.775926448528926
1160 -5.775988478376936
1161 -5.775898028261687
1162 -5.775859668986382
1163 -5.775829929676133
1164 -5.775937650973939
1165 -5.775852434607554
1166 -5.775804955857832
1167 -5.775811837102165
1168 -5.775946148799306
1169 -5.775910157751086
1170 -5.775944918230977
1171 -5.775926980484638
1172 -5.776002204144129
1173 -5.775943488691493
1174 -5.775951402287965
1175 -5.775945116401615
1176 -5.776064044125386
1177 -5.776009164397119
1178 -5.776029847348145
1179 -5.776096937226007
1180 -5.776226173452549
1181 -5.776188713180912
1182 -5.776221745202951
1183 -5.77624257503619
1184 -5.776309304985648
1185 -5.776217775133015
1186 -5.776191883702186
1187 -5.776153010895557
1188 -5.776204235748525
1189 -5.776116830322691
1190 -5.776097312328811
1191 -5.776094670482755
1192 -5.776219657050703
1193 -5.776119117551774
1194 -5.776117397615309
1195 -5.776110431822066
1196 -5.776231551266791
1197 -5.776213035472185
1198 -5.776228335401065
1199 -5.776230277395803
1200 -5.776327500629764
1201 -5.776224613630345
1202 -5.776153660206194
1203 -5.776066123190517
1204 -5.776087258570862
1205 -5.775987684169217
1206 -5.775999127017768
1207 -5.775984893019118
1208 -5.776029146222249
1209 -5.775952099974381
1210 -5.776018713513105
1211 -5.776109300622931
1212 -5.776331098776905
1213 -5.776402433943839
1214 -5.776565256203214
1215 -5.77671513733744
1216 -5.776858988362287
1217 -5.776734992667908
1218 -5.776583307495497
1219 -5.776435141469213
1220 -5.776404308453201
1221 -5.776225590783637
1222 -5.776147483303416
1223 -5.776101085872888
1224 -5.77618989275901
1225 -5.776137489561357
1226 -5.776144655391985
1227 -5.776188135486809
1228 -5.776358918963542
1229 -5.776325735017196
1230 -5.776342758960448
1231 -5.776349837004972
1232 -5.776478990654653
1233 -5.776453075707787
1234 -5.776481318901005
1235 -5.776486279899173
1236 -5.77661538855727
1237 -5.776623466330121
1238 -5.776639512787222
1239 -5.776576044008773
1240 -5.776543517804861
1241 -5.776344343596708
1242 -5.776304268059313
1243 -5.776299772643736
1244 -5.776422071873243
1245 -5.776428401581299
1246 -5.776565452936244
1247 -5.776674158866714
1248 -5.776901398338505
1249 -5.776946822278453
1250 -5.777032528548586
1251 -5.77710319452737
1252 -5.777220264063416
1253 -5.777078513539304
1254 -5.776986409152339
1255 -5.77689377278187
1256 -5.776860056668477
1257 -5.776678500606341
1258 -5.776602019122378
1259 -5.776539592434374
1260 -5.776617123379492
1261 -5.776535620726446
1262 -5.776516080707349
1263 -5.776482346520993
1264 -5.776571627622086
1265 -5.776494018135454
1266 -5.776513661172679
1267 -5.776589765766902
1268 -5.776790517560205
1269 -5.776847214786715
1270 -5.776947674421038
1271 -5.776964683601433
1272 -5.777038206703398
1273 -5.776908136031054
1274 -5.776767948984547
1275 -5.776605356494406
1276 -5.7765476683207
1277 -5.776368450415486
1278 -5.776258445513298
1279 -5.776204797405539
1280 -5.776303148493104
1281 -5.776306396456365
1282 -5.776401476036919
1283 -5.776504183815793
1284 -5.77671609320252
1285 -5.776806097300422
1286 -5.77694039882654
1287 -5.77704499874479
1288 -5.777179623321341
1289 -5.777071735918457
1290 -5.776946316563265
1291 -5.77681332357252
1292 -5.77681410460976
1293 -5.776678860137221
1294 -5.776633475458492
1295 -5.776570320285228
1296 -5.77665949492029
1297 -5.776602565453272
1298 -5.776552286239943
1299 -5.776470218749094
1300 -5.776559827027192
1301 -5.77655137737966
1302 -5.776681039227803
1303 -5.776808255063709
1304 -5.776975447831195
1305 -5.776989816481629
1306 -5.777071339477408
1307 -5.777095034936412
1308 -5.777180488534607
1309 -5.777078744136471
1310 -5.776996486410643
1311 -5.776839796797673
1312 -5.776805018300654
1313 -5.776593309609086
1314 -5.776536873956399
1315 -5.776535121584213
1316 -5.776631670579647
1317 -5.776594258280558
1318 -5.776677861589614
1319 -5.776798589586518
1320 -5.777021776118925
1321 -5.777044817265271
1322 -5.777045712131078
1323 -5.777054918039714
1324 -5.777148184058429
1325 -5.777047197344106
1326 -5.776959075914257
1327 -5.776829607019753
1328 -5.776864712330017
1329 -5.776769537951839
1330 -5.77675277021557
1331 -5.77672771411749
1332 -5.776828619527577
1333 -5.776804138654323
1334 -5.776828745873606
1335 -5.776802280531283
1336 -5.776916918794391
1337 -5.776858089242213
1338 -5.776877548241791
1339 -5.77686963108139
1340 -5.776919215730959
1341 -5.776805092651975
1342 -5.776782473178921
1343 -5.776784338202041
1344 -5.776901063959267
1345 -5.776776707580911
1346 -5.776736452909528
1347 -5.776757218932633
1348 -5.776868348499135
1349 -5.776809327884155
1350 -5.776884826510058
1351 -5.777016744257676
1352 -5.777190593671279
1353 -5.777136085713486
1354 -5.777150095814634
1355 -5.777135500666657
1356 -5.777206937330829
1357 -5.777032236313688
1358 -5.776848485264471
1359 -5.776705183911129
1360 -5.776715640458399
1361 -5.77662222820573
1362 -5.776606368629957
1363 -5.776695302754998
1364 -5.776876793089126
1365 -5.776938036858326
1366 -5.777055637849005
1367 -5.777123704336601
1368 -5.777243988557667
1369 -5.777169866649598
1370 -5.777152461718544
1371 -5.777092391984711
1372 -5.777159271716189
1373 -5.777051951847238
1374 -5.77705738707381
1375 -5.777046073351537
1376 -5.777120874375021
1377 -5.777059863346525
1378 -5.777120988673676
1379 -5.777139698963227
1380 -5.777267261360086
1381 -5.77723723109529
1382 -5.777185652177565
1383 -5.777153786147453
1384 -5.777226552697571
1385 -5.777125333439884
1386 -5.777114597548424
1387 -5.777118463817895
1388 -5.777206821190168
1389 -5.777098685994904
1390 -5.777004963632509
1391 -5.776844197650876
1392 -5.776727670858122
1393 -5.776542326068562
1394 -5.776352154754536
1395 -5.776221161726852
1396 -5.776272102643563
1397 -5.776229914173523
1398 -5.776346755193403
1399 -5.776503899993105
1400 -5.776669934740555
1401 -5.776739401894713
1402 -5.776842193132317
1403 -5.776926332747838
1404 -5.777063773017613
1405 -5.777006768320685
1406 -5.776970970651313
1407 -5.776919928197416
1408 -5.776996710350854
1409 -5.776888375350199
1410 -5.776918529655462
1411 -5.776946397264862
1412 -5.777022083418747
1413 -5.776881697182056
1414 -5.776878259101781
1415 -5.776915293329586
1416 -5.777056618746057
1417 -5.776996664205991
1418 -5.776966643560296
1419 -5.777044513174327
1420 -5.777205892013834
1421 -5.777143574620847
1422 -5.777125687172365
1423 -5.77718342846291
1424 -5.777306724828523
1425 -5.777251658229032
1426 -5.777231446953514
1427 -5.777130507965905
1428 -5.777148298436599
1429 -5.777013832957082
1430 -5.776961655770783
1431 -5.776927730468432
1432 -5.777037616753468
1433 -5.77705260455472
1434 -5.777120382794917
1435 -5.777148939087489
1436 -5.777243342640424
1437 -5.777220011407379
1438 -5.777245449615452
1439 -5.777190386898944
1440 -5.777189883375884
1441 -5.777042323959351
1442 -5.776969942579791
1443 -5.77689747687304
1444 -5.776916271648806
1445 -5.776794688955735
1446 -5.776821338095194
1447 -5.776886345890159
1448 -5.777055459305378
1449 -5.777059654345931
1450 -5.777165084230083
1451 -5.777263618274521
1452 -5.777454094762691
1453 -5.777456250546771
1454 -5.777469769469724
1455 -5.777425038164285
1456 -5.777444852105473
1457 -5.777262674863914
1458 -5.777138878051828
1459 -5.777011348638043
1460 -5.776973017788516
1461 -5.776867340746468
1462 -5.776804059634475
1463 -5.776720779991886
1464 -5.7767959478287
1465 -5.776776747299498
1466 -5.776853497483112
1467 -5.776927837404521
1468 -5.777130737488218
1469 -5.77718462664152
1470 -5.777312036201065
1471 -5.777381379958215
1472 -5.777482331375883
1473 -5.777367950432571
1474 -5.77728211707737
1475 -5.77714748439647
1476 -5.777067882196505
1477 -5.776904050067401
1478 -5.776756977608943
1479 -5.776719142853823
1480 -5.776909931429159
1481 -5.776917717539348
1482 -5.777051751489206
1483 -5.777169852632076
1484 -5.777357175024949
1485 -5.777370345568348
1486 -5.777409267651909
1487 -5.777362639193585
1488 -5.777367476282378
1489 -5.777247908040454
1490 -5.777077065516371
1491 -5.776886995873113
1492 -5.776930627003486
1493 -5.776743618800689
1494 -5.776663318138195
1495 -5.776684470283829
1496 -5.776820546634021
1497 -5.776882454721608
1498 -5.77695700849659
1499 -5.776924157398437
1500 -5.777038176442028
1501 -5.776982067548852
1502 -5.77700174877222
1503 -5.777054345844565
1504 -5.77721701421796
1505 -5.7771620512043
1506 -5.777194016449942
1507 -5.777233545503199
1508 -5.777336474552698
1509 -5.77718153789646
1510 -5.777098496380115
1511 -5.777048265366189
1512 -5.77709521970231
1513 -5.776989879762601
1514 -5.776979694727682
1515 -5.776999422472202
1516 -5.777134645625928
1517 -5.777031650246482
1518 -5.776996493202263
1519 -5.777032004089513
1520 -5.777152579012792
1521 -5.77706610032756
1522 -5.777042673142188
1523 -5.777039565251501
1524 -5.777160033364309
1525 -5.777088400674284
1526 -5.777045032328818
1527 -5.777056826169371
1528 -5.777199198153345
1529 -5.777192020293657
1530 -5.777282268182549
1531 -5.77735934930919
1532 -5.77747403189437
1533 -5.777382542060236
1534 -5.777309439493921
1535 -5.777146939169414
1536 -5.777122406146953
1537 -5.777009453900805
1538 -5.777033852519252
1539 -5.777076539073523
1540 -5.777227333022397
1541 -5.777208374001303
1542 -5.777302016477905
1543 -5.777379268011233
1544 -5.777487183092431
1545 -5.777411718351955
1546 -5.777390510088683
1547 -5.777362053472118
1548 -5.777433967279412
1549 -5.777344721164338
1550 -5.777260930646406
1551 -5.777186160128402
1552 -5.777195721498832
1553 -5.777040712231522
1554 -5.77701877487587
1555 -5.777020486813863
1556 -5.777117648703651
1557 -5.777049143144261
1558 -5.777035652259327
1559 -5.777001150054699
1560 -5.777091160975706
1561 -5.777054213464635
1562 -5.777060943356521
1563 -5.777027917835314
1564 -5.777083664094487
1565 -5.776988417789533
1566 -5.776983989454878
1567 -5.776979684421192
1568 -5.777047147468541
1569 -5.7769780608265
1570 -5.777022573803473
1571 -5.777069175940202
1572 -5.777219770844334
1573 -5.777222809741491
1574 -5.777296112394744
1575 -5.777343327346276
1576 -5.777442309269866
1577 -5.777318416811771
1578 -5.777281235924691
1579 -5.7771992301094
1580 -5.777159355510577
1581 -5.777004332415091
1582 -5.776917392989768
1583 -5.776936656104732
1584 -5.777094268583047
1585 -5.77708946999138
1586 -5.777137165902648
1587 -5.777205749454728
1588 -5.777396274820403
1589 -5.777368182199518
1590 -5.777376585967643
1591 -5.777352509516174
1592 -5.777387512977383
1593 -5.777220883443585
1594 -5.777153778455265
1595 -5.77696883095655
1596 -5.776912659558693
1597 -5.7768461600274
1598 -5.776859814380353
1599 -5.776895048532497
1600 -5.77709424224221
1601 -5.777146748033843
1602 -5.777276783183693
1603 -5.777383828743554
1604 -5.77750070811982
1605 -5.777407557186749
1606 -5.777382269635175
1607 -5.77732491099411
1608 -5.777340751954775
1609 -5.777224316944115
1610 -5.777135244070018
1611 -5.777089284242598
1612 -5.777226332547185
1613 -5.777198640318889
1614 -5.777248429845984
1615 -5.777275444165401
1616 -5.777377804323144
1617 -5.777279363249665
1618 -5.777224978334575
1619 -5.777165638977896
1620 -5.777184052972136
1621 -5.777100519240732
1622 -5.77703643470454
1623 -5.776965139020215
1624 -5.777069471778266
1625 -5.777012131622603
1626 -5.777065407322339
1627 -5.777103183718031
1628 -5.777209144741977
1629 -5.77715837709062
1630 -5.777203409163845
1631 -5.777196110004903
1632 -5.777310499040774
1633 -5.777234391816642
1634 -5.777233482546363
1635 -5.777244211603997
1636 -5.777352079918478
1637 -5.777247861130946
1638 -5.777150999951494
1639 -5.777028688527115
1640 -5.777002363023684
1641 -5.776833783180398
1642 -5.77674972291013
1643 -5.776722645137038
1644 -5.776832123698126
1645 -5.776829542122073
1646 -5.776909175851391
1647 -5.777068760003901
1648 -5.777317983994196
1649 -5.777321976966675
1650 -5.777333308547704
1651 -5.77730649240921
1652 -5.77734331791532
1653 -5.777205588924688
1654 -5.77711528574621
1655 -5.777042010846562
1656 -5.777126478723712
1657 -5.777088333510258
1658 -5.77709143043931
1659 -5.777087124354902
1660 -5.777186144783762
1661 -5.777122317329431
1662 -5.777155848904715
1663 -5.777231576632636
1664 -5.777374930711244
1665 -5.777361813653665
1666 -5.777410946473965
1667 -5.777447654151893
1668 -5.777565658507885
1669 -5.777472644688284
1670 -5.77742396300487
1671 -5.777382440344961
1672 -5.777491788013974
1673 -5.777412451901386
1674 -5.777370015540119
1675 -5.77733881816093
1676 -5.7773350669971
1677 -5.777177604764351
1678 -5.777111274181848
1679 -5.777102757724739
1680 -5.777201504973941
1681 -5.77716397548073
1682 -5.777198106246006
1683 -5.777265365701824
1684 -5.777435254037922
1685 -5.777389253104683
1686 -5.777392518905348
1687 -5.777361016121552
1688 -5.777421677880207
1689 -5.777313515574908
1690 -5.777244597593955
1691 -5.777166895137128
1692 -5.777235791231061
1693 -5.777180459595439
1694 -5.777116738738795
1695 -5.77700059346299
1696 -5.777012242467404
1697 -5.776896197482142
1698 -5.77686934530536
1699 -5.776894535297679
1700 -5.777011602715965
1701 -5.777028334125049
1702 -5.777173879781207
1703 -5.77731215336498
1704 -5.777528388998026
1705 -5.777589939370982
1706 -5.777671496903931
1707 -5.777726187961619
1708 -5.777815359825031
1709 -5.777677978661678
1710 -5.777552501157217
1711 -5.777438410828614
1712 -5.777381042143473
1713 -5.777167167697185
1714 -5.777043757235821
1715 -5.776961921210039
1716 -5.777017400345114
1717 -5.776951953033081
1718 -5.776942964670178
1719 -5.776969197063632
1720 -5.777177604359284
1721 -5.777222206466946
1722 -5.77731833891021
1723 -5.777376892042382
1724 -5.777476850879186
1725 -5.777405055336178
1726 -5.777354691515841
1727 -5.777258416941772
1728 -5.777287569280646
1729 -5.777153659564815
1730 -5.777075202341922
1731 -5.777009489151114
1732 -5.777028451746444
1733 -5.776870094346986
1734 -5.776825640326543
1735 -5.776843887631315
1736 -5.776949693796985
1737 -5.77692036105652
1738 -5.777045117191181
1739 -5.777155574006044
1740 -5.777377900957703
1741 -5.777422949542691
1742 -5.777461911396062
1743 -5.77746271736078
1744 -5.777506292660664
1745 -5.777325520536571
1746 -5.777224449674398
1747 -5.777176272885862
1748 -5.77722499420785
1749 -5.777168666334283
1750 -5.777181363892531
1751 -5.777205207843913
1752 -5.777337095216323
1753 -5.777319577745138
1754 -5.777352411933419
1755 -5.777371914219897
1756 -5.777537267590863
1757 -5.777512946206424
1758 -5.777510642088871
1759 -5.777427421459516
1760 -5.777348673428736
1761 -5.777173524526837
1762 -5.777052842653982
1763 -5.776931653000971
1764 -5.77696613952167
1765 -5.776888376176812
1766 -5.776921861752447
1767 -5.776995178055681
1768 -5.777121195365625
1769 -5.777039833171261
1770 -5.777083658278576
1771 -5.777122604738221
1772 -5.777285562631171
1773 -5.777322425337208
1774 -5.777473065288543
1775 -5.77757610267853
1776 -5.777716095165157
1777 -5.777609819646946
1778 -5.77755399332906
1779 -5.777420193590555
1780 -5.777357589618894
1781 -5.777168289614555
1782 -5.776988071805337
1783 -5.776925272151259
1784 -5.777052724873897
1785 -5.77704240769256
1786 -5.777156080539762
1787 -5.77726912623676
1788 -5.777473966844245
1789 -5.777479554179074
1790 -5.777544794666799
1791 -5.777513452559035
1792 -5.777548841994713
1793 -5.777390066328813
1794 -5.777286102466625
1795 -5.777193537255727
1796 -5.777233722347532
1797 -5.777091827554803
1798 -5.777109188539084
1799 -5.777099418310976
1800 -5.777201938152193
1801 -5.77723462090242
1802 -5.777331364014661
1803 -5.77741299073429
1804 -5.777512960954064
1805 -5.777399171378346
1806 -5.777384787481878
1807 -5.777377212901468
1808 -5.777445550324551
1809 -5.777315828539455
1810 -5.777323989612383
1811 -5.777330310564583
1812 -5.77742875381588
1813 -5.777363032272498
1814 -5.777269069369934
1815 -5.777179821634785
1816 -5.777204702029101
1817 -5.777010082614837
1818 -5.776932925855631
1819 -5.776953708347415
1820 -5.77708733713413
1821 -5.777108954462339
1822 -5.777215342485247
1823 -5.777254952684966
1824 -5.777434424118487
1825 -5.777412283446398
1826 -5.777369124183371
1827 -5.777297578376305
1828 -5.777359634048369
1829 -5.777253482116337
1830 -5.777270240635136
1831 -5.777247281183192
1832 -5.777333213109906
1833 -5.777194572061498
1834 -5.777119392302152
1835 -5.777104230223139
1836 -5.777208223756276
1837 -5.777152614639432
1838 -5.777179758242176
1839 -5.777260131347444
1840 -5.777393590297115
1841 -5.777304720596476
1842 -5.777260689311007
1843 -5.777271501506926
1844 -5.777349677289028
1845 -5.777285972918863
1846 -5.777291413677929
1847 -5.777289158181655
1848 -5.777422538716952
1849 -5.777365270527956
1850 -5.777309019757426
1851 -5.777232380208272
1852 -5.777286701917538
1853 -5.777180376187356
1854 -5.777114410695221
1855 -5.77705956266543
1856 -5.777127485186091
1857 -5.777097153204227
1858 -5.777168308028946
1859 -5.777240471769011
1860 -5.77736182378275
1861 -5.777342641374629
1862 -5.777331143656742
1863 -5.777267290350149
1864 -5.777281889161167
1865 -5.777138370721056
1866 -5.777124060467351
1867 -5.777098037600385
1868 -5.777172065900332
1869 -5.777097494251166
1870 -5.777145537167151
1871 -5.77721861175869
1872 -5.777410829124802
1873 -5.77742675821835
1874 -5.777485689925444
1875 -5.777487359268796
1876 -5.777561979152624
1877 -5.777393832797216
1878 -5.777255142411756
1879 -5.777176727946696
1880 -5.777179327884687
1881 -5.777063201578676
1882 -5.77706119094599
1883 -5.777036912514064
1884 -5.777159865535891
1885 -5.77707979968168
1886 -5.777075690676872
1887 -5.777029772347746
1888 -5.777146465681795
1889 -5.777089696313084
1890 -5.777128371983791
1891 -5.777177539792098
1892 -5.777301995869047
1893 -5.777263766125325
1894 -5.777241902745884
1895 -5.777209496684622
1896 -5.777210526245525
1897 -5.777080112282354
1898 -5.776897705046378
1899 -5.776766253061718
1900 -5.776810570939481
1901 -5.776746163542109
1902 -5.776836944574896
1903 -5.776982938957723
1904 -5.777183674484479
1905 -5.777207602291085
1906 -5.777278441980483
1907 -5.777376456607992
1908 -5.777522956115504
1909 -5.777493707548064
1910 -5.777484671971449
1911 -5.777403183983274
1912 -5.777439254769785
1913 -5.777328145444494
1914 -5.777274954593717
1915 -5.777206173993146
1916 -5.777272515019661
1917 -5.777220387290427
1918 -5.777234080707542
1919 -5.77721592530718
1920 -5.777266817687606
1921 -5.777180108372857
1922 -5.777129547680364
1923 -5.777021717562799
1924 -5.777076555710224
1925 -5.776989070182196
1926 -5.777039120716466
1927 -5.777104551379314
1928 -5.777273276106144
1929 -5.777288098824399
1930 -5.777353103742843
1931 -5.777373191375899
1932 -5.777494897877467
1933 -5.77742248619772
1934 -5.777409592445508
1935 -5.777319227438573
1936 -5.777327512403521
1937 -5.77717840355975
1938 -5.777087532917776
1939 -5.777024696205756
1940 -5.777100650649555
1941 -5.777051083386337
1942 -5.777073095193408
1943 -5.777050985421
1944 -5.777138132166733
1945 -5.777046402632886
1946 -5.777060873368733
1947 -5.777071237770292
1948 -5.777237006360425
1949 -5.777207474010397
1950 -5.77726434788186
1951 -5.777327482022859
1952 -5.777483352919639
1953 -5.777453683947096
1954 -5.777398465257174
1955 -5.777297636230144
1956 -5.777294842132272
1957 -5.777170174302956
1958 -5.777111361236053
1959 -5.777103644840178
1960 -5.777204169818548
1961 -5.777136991544425
1962 -5.7771570133126
1963 -5.777271697313409
1964 -5.777459953263619
1965 -5.777459069249177
1966 -5.777528579958576
1967 -5.777567652025579
1968 -5.777649458911553
1969 -5.777530928539021
1970 -5.7774733437019
1971 -5.77739033449028
1972 -5.777389844940719
1973 -5.777246111918769
1974 -5.777196571396012
1975 -5.777204661611526
1976 -5.777293217207909
1977 -5.777233408866545
1978 -5.777211137968354
1979 -5.777158043379194
1980 -5.777211510719
1981 -5.777128683361825
1982 -5.777096211900402
1983 -5.777052129843866
1984 -5.777190405080383
1985 -5.777167561638295
1986 -5.777226792952453
1987 -5.777302567923922
1988 -5.777459703668594
1989 -5.777453778671729
1990 -5.777471915573157
1991 -5.777349653901145
1992 -5.777271534253804
1993 -5.777082196747365
1994 -5.776982154114856
1995 -5.77689906556362
1996 -5.776947529597702
1997 -5.776866678660665
1998 -5.776928322469538
1999 -5.776979958663647
2000 -5.777143094763295
2001 -5.77722841164546
2002 -5.777351997023168
2003 -5.777440086563882
2004 -5.777623831900315
2005 -5.777617551463077
2006 -5.777607157528343
2007 -5.777552675945255
2008 -5.777526423909196
2009 -5.777306435931584
2010 -5.777197844168015
2011 -5.777099643531073
2012 -5.7771000445247
2013 -5.776969053176263
2014 -5.776833320837251
2015 -5.77671276941722
2016 -5.77678839530429
2017 -5.77673435005188
2018 -5.776796993953235
2019 -5.776980874954115
2020 -5.777249312264073
2021 -5.777283188536326
2022 -5.777402200588293
2023 -5.777540187942162
2024 -5.777696307132931
2025 -5.77764515532385
2026 -5.77760460139037
2027 -5.777498469409885
2028 -5.777429497043649
2029 -5.777168207215513
2030 -5.776983289381553
2031 -5.77692631457514
2032 -5.77707579926696
2033 -5.777046049504458
2034 -5.777171164346008
2035 -5.777339269160811
2036 -5.777581467124512
2037 -5.777598084240393
2038 -5.777612846827221
2039 -5.777602871013455
2040 -5.77767496575465
2041 -5.777536682185758
2042 -5.777426680670348
2043 -5.777368403053655
2044 -5.777444662665329
2045 -5.777266269725642
2046 -5.77717961733657
2047 -5.777189941117619
2048 -5.777308883870578
2049 -5.777273983422552
2050 -5.777310113122162
2051 -5.777291776740567
2052 -5.77738051659552
2053 -5.777281391678219
2054 -5.777230567967657
2055 -5.777156083256479
2056 -5.777175513276645
2057 -5.777058608410282
2058 -5.776988308823749
2059 -5.776908733561988
2060 -5.776951929885308
2061 -5.776920140436328
2062 -5.776995877293397
2063 -5.777027540710841
2064 -5.77716109539427
2065 -5.777148765769032
2066 -5.777206826099414
2067 -5.777209048837274
2068 -5.777330763884157
2069 -5.777269950578472
2070 -5.777316578055819
2071 -5.777343373884668
2072 -5.777449380633575
2073 -5.777308441762755
2074 -5.777290582489941
2075 -5.77725088096492
2076 -5.777287125619578
2077 -5.777196418258926
2078 -5.777181638488728
2079 -5.77726258032112
2080 -5.77743417823712
2081 -5.777373466518508
2082 -5.777351495317809
2083 -5.77732130567765
2084 -5.777358755720024
2085 -5.777222310755181
2086 -5.777157729762436
2087 -5.777058735260611
2088 -5.777092220784352
2089 -5.77698661559523
2090 -5.776967953254579
2091 -5.776986939699396
2092 -5.777136767763078
2093 -5.777106686229106
2094 -5.777175467357239
2095 -5.777229572968958
2096 -5.777341427932384
2097 -5.777300899535238
2098 -5.777321176707981
2099 -5.777355337057087
2100 -5.77747720091344
2101 -5.777423257668675
2102 -5.777397599993192
2103 -5.777395751072183
2104 -5.777461468471145
2105 -5.777348979032665
2106 -5.777287707417863
2107 -5.777278374543046
2108 -5.777370815075457
2109 -5.777321891738035
2110 -5.77736631921011
2111 -5.777414970653477
2112 -5.77752642233653
2113 -5.777413943693666
2114 -5.777338738283278
2115 -5.777288159563189
2116 -5.777343916175828
2117 -5.777234834185353
2118 -5.777216196112166
2119 -5.777214615907138
2120 -5.777293309903932
2121 -5.777248485959158
2122 -5.777282996126933
2123 -5.777301955521812
2124 -5.777416756960841
2125 -5.777396663495077
2126 -5.777438123224555
2127 -5.777471704242058
2128 -5.777582486945527
2129 -5.777496807629911
2130 -5.777479054930212
2131 -5.777333821309721
2132 -5.777263575426491
2133 -5.777053050869027
2134 -5.776955302867475
2135 -5.776901679521987
2136 -5.777037030911913
2137 -5.777069370504599
2138 -5.777163124107594
2139 -5.77730799838319
2140 -5.777541426612403
2141 -5.777559270931642
2142 -5.7776011458334
2143 -5.777580528762745
2144 -5.777594213711793
2145 -5.777399610665584
2146 -5.777264686552035
2147 -5.77708478144832
2148 -5.777072868385736
2149 -5.776943578137735
2150 -5.776897366496787
2151 -5.776910522201427
2152 -5.77705707944182
2153 -5.777101299796595
2154 -5.777235536769839
2155 -5.777370313496939
2156 -5.777517898700714
2157 -5.77750750107041
2158 -5.777518506118165
2159 -5.777469173293031
2160 -5.777518403555837
2161 -5.777400007120685
2162 -5.777361224350259
2163 -5.777242050182496
2164 -5.777233598714901
2165 -5.777025410061253
2166 -5.776929952666768
2167 -5.776855203684191
2168 -5.776845303683954
2169 -5.776697260465476
2170 -5.776756068544798
2171 -5.776862062194276
2172 -5.777104439102297
2173 -5.777195302167051
2174 -5.777316107404264
2175 -5.777464160803854
2176 -5.77767829884278
2177 -5.77762974952778
2178 -5.777594611083045
2179 -5.777527636528528
2180 -5.777469042292926
2181 -5.777192200135143
2182 -5.77700763310024
2183 -5.776895932602473
2184 -5.776973629432737
2185 -5.77694188531057
2186 -5.776974634229849
2187 -5.777057187233533
2188 -5.777258506833155
2189 -5.777267331604942
2190 -5.7773454052132
2191 -5.777408998065539
2192 -5.777512048841956
2193 -5.77746412730916
2194 -5.777448046096413
2195 -5.777362457911029
2196 -5.777369192991907
2197 -5.777251841173003
2198 -5.777163902749676
2199 -5.777062702958275
2200 -5.777150925960717
2201 -5.777056753082327
2202 -5.777061799695298
2203 -5.777062842693232
2204 -5.777125800922339
2205 -5.777056329151549
2206 -5.777129454419009
2207 -5.777223742431692
2208 -5.777431659466195
2209 -5.777456538037842
2210 -5.777528564354814
2211 -5.777569096038745
2212 -5.77771629925572
2213 -5.777626909611191
2214 -5.777592841710113
2215 -5.777455758205114
2216 -5.777391749022225
2217 -5.777204792736481
2218 -5.777012034270615
2219 -5.776890438524564
2220 -5.776973509413038
2221 -5.776933324040492
2222 -5.77699229514706
2223 -5.777102595480219
2224 -5.777332644011008
2225 -5.777342442016487
2226 -5.777406630994653
2227 -5.777467894750469
2228 -5.777555076239617
2229 -5.777450210930795
2230 -5.777406879628301
2231 -5.777352229874056
2232 -5.7773689435455
2233 -5.777229816717949
2234 -5.77712077624236
2235 -5.777047600888283
2236 -5.777114367269844
2237 -5.77696864271236
2238 -5.776956317100436
2239 -5.776991729455273
2240 -5.777128163728605
2241 -5.777112480242377
2242 -5.777163084819232
2243 -5.777232150413298
2244 -5.777423266207884
2245 -5.777442485856539
2246 -5.777480305637792
2247 -5.77748308831182
2248 -5.77758818829242
2249 -5.777494306277309
2250 -5.77746952920295
2251 -5.77743397724141
2252 -5.777432465081959
2253 -5.777257351856731
2254 -5.77718587450568
2255 -5.77712201365014
2256 -5.777170941531914
2257 -5.777114451851616
2258 -5.777171457974784
2259 -5.777226132867796
2260 -5.777434149700839
2261 -5.777384404764895
2262 -5.777416955394279
2263 -5.777439350632454
2264 -5.777509569669449
2265 -5.777381203473505
2266 -5.777324083438923
2267 -5.777297598211961
2268 -5.777359913051937
2269 -5.777252897667255
2270 -5.777205886074627
2271 -5.777235495815686
2272 -5.777307206419976
2273 -5.777172222517602
2274 -5.777136980430761
2275 -5.777194001711974
2276 -5.777302571861047
2277 -5.777290126369422
2278 -5.777354622899948
2279 -5.777363094513726
2280 -5.777465257594517
2281 -5.777441358130198
2282 -5.777452279356297
2283 -5.777437984097577
2284 -5.777503589148161
2285 -5.777405378435476
2286 -5.777388076710233
2287 -5.777358578663728
2288 -5.777395269487661
2289 -5.777320193274965
2290 -5.777264090852286
2291 -5.777162386745348
2292 -5.777236106105907
2293 -5.777219197041332
2294 -5.777284229137234
2295 -5.777313859702513
2296 -5.777425416190684
2297 -5.777359825268404
2298 -5.777351708187586
2299 -5.777345011648687
2300 -5.777412714746368
2301 -5.77736899042925
2302 -5.777397184929932
2303 -5.777410196513798
2304 -5.777518473668049
2305 -5.777506222386315
2306 -5.777533927670169
2307 -5.777559530763513
2308 -5.777663253183201
2309 -5.777523686298377
2310 -5.777437899727813
2311 -5.777322705150632
2312 -5.777291148604714
2313 -5.777150590355023
2314 -5.777122497524068
2315 -5.777065297371622
2316 -5.777128434063002
2317 -5.77706351563556
2318 -5.77704706099273
2319 -5.777030508630521
2320 -5.777124792108757
2321 -5.777106930587452
2322 -5.777185089056425
2323 -5.777293535031738
2324 -5.777481092501913
2325 -5.777505556974783
2326 -5.777555910705939
2327 -5.777521947453286
2328 -5.777543097656729
2329 -5.777420064652838
2330 -5.777280408675647
2331 -5.777087604550442
2332 -5.777089352857816
2333 -5.776846013830697
2334 -5.776720680791394
2335 -5.776715992044296
2336 -5.776821696165052
2337 -5.776856902413389
2338 -5.777017574208517
2339 -5.777168874689657
2340 -5.777417500798262
2341 -5.777438998633877
2342 -5.777486773724455
2343 -5.777456887842599
2344 -5.777529259993145
2345 -5.777363774725861
2346 -5.777340263542376
2347 -5.777221719092724
2348 -5.777223462258023
2349 -5.77710439758161
2350 -5.777063610990725
2351 -5.777010081909868
2352 -5.777151113077247
2353 -5.777153361027517
2354 -5.777224501202086
2355 -5.777249023275389
2356 -5.77738292080098
2357 -5.777324239866718
2358 -5.777357596813013
2359 -5.777391409498872
2360 -5.77746667581846
2361 -5.77739866922282
2362 -5.777444787482509
2363 -5.777463024495383
2364 -5.777566458481873
2365 -5.777477494569276
2366 -5.777400411735055
2367 -5.77734217673605
2368 -5.777372041626792
2369 -5.777225783973725
2370 -5.7771805488286
2371 -5.777099972246348
2372 -5.777128677321396
2373 -5.777036036125566
2374 -5.7770498709139
2375 -5.777086651178956
2376 -5.777251875101135
2377 -5.777225489713446
2378 -5.777243871385632
2379 -5.777255084338194
2380 -5.777364660428134
2381 -5.777276117007752
2382 -5.777272875587042
2383 -5.777249647487685
2384 -5.777328859613304
2385 -5.777239813144246
2386 -5.77724537317852
2387 -5.777248439117622
2388 -5.777366067681693
2389 -5.77729916525084
2390 -5.777215148644046
2391 -5.777084440367593
2392 -5.777060734756454
2393 -5.776885319451037
2394 -5.776849717338582
2395 -5.77688393778499
2396 -5.777017372884141
2397 -5.777045359959502
2398 -5.77715435397575
2399 -5.777247724008483
2400 -5.777429515644144
2401 -5.777415995188701
2402 -5.777443183613388
2403 -5.777471635445877
2404 -5.777574518079154
2405 -5.777441478800788
2406 -5.777337493498593
2407 -5.777190209819926
2408 -5.777161441102616
2409 -5.777010190096461
2410 -5.776987802041351
2411 -5.776987248092088
2412 -5.777108648656548
2413 -5.777074383714687
2414 -5.777057014291844
2415 -5.777060519474263
2416 -5.777157209436995
2417 -5.777097817626015
2418 -5.777125120828263
2419 -5.777191902053914
2420 -5.777330916152534
2421 -5.777339298151099
2422 -5.777415863613413
2423 -5.777427488071645
2424 -5.7775115870914
2425 -5.777392181013284
2426 -5.777323069721668
2427 -5.777243289118225
2428 -5.777239535999398
2429 -5.777076254692038
2430 -5.777032344337119
2431 -5.777033929955244
2432 -5.777100078804857
2433 -5.777064922412158
2434 -5.777113884220269
2435 -5.77719472359996
2436 -5.777366841584613
2437 -5.777392267531146
2438 -5.777455729121327
2439 -5.777516169151319
2440 -5.777652969035975
2441 -5.777533498294126
2442 -5.777444528995356
2443 -5.777355161095681
2444 -5.777361002027459
2445 -5.77713582215918
2446 -5.777005582150928
2447 -5.776885095813487
2448 -5.776891748624513
2449 -5.776791943369926
2450 -5.776748291388532
2451 -5.77674507868558
2452 -5.776889921157838
2453 -5.776875744450239
2454 -5.776984191543329
2455 -5.777109833376499
2456 -5.777329816768367
2457 -5.777397130920507
2458 -5.777539647258465
2459 -5.777637285738385
2460 -5.777759124834596
2461 -5.777670714824545
2462 -5.777531786503223
2463 -5.777316272355609
2464 -5.777213398287397
2465 -5.776994177834265
2466 -5.776932520277149
2467 -5.776962772736201
2468 -5.777092616570474
2469 -5.777075094511109
2470 -5.777175740313624
2471 -5.777257084543014
2472 -5.777429780337319
2473 -5.77742811643427
2474 -5.777460833787138
2475 -5.777519577962597
2476 -5.777660654777331
2477 -5.777567398537605
2478 -5.777506228198893
2479 -5.777377813486685
2480 -5.777374572101002
2481 -5.777168024698875
2482 -5.777056351147578
2483 -5.776951121911162
2484 -5.776969686667891
2485 -5.776904255851352
2486 -5.776940529632395
2487 -5.777017125551734
2488 -5.777198074293706
2489 -5.777179607199272
2490 -5.777267676957154
2491 -5.777352211345599
2492 -5.777498325329258
2493 -5.777457046459857
2494 -5.777476120538788
2495 -5.777453848039633
2496 -5.777521439504213
2497 -5.777384350414911
2498 -5.777284227930192
2499 -5.777208802998135
2500 -5.777228606853028
2501 -5.777065292333427
2502 -5.77701474847827
2503 -5.777024157616184
2504 -5.777142821598945
2505 -5.777090412531201
2506 -5.777091700672671
2507 -5.777065156312635
2508 -5.777190222884616
2509 -5.777118434416935
2510 -5.777102847692442
2511 -5.77713506307805
2512 -5.77729374600685
2513 -5.777288015389797
2514 -5.777349243415365
2515 -5.777375011906166
2516 -5.777420030859039
2517 -5.777299789214662
2518 -5.777228095186417
2519 -5.777121697387205
2520 -5.777133917813384
2521 -5.776993794074279
2522 -5.776939797342269
2523 -5.776948235296381
2524 -5.777086944231521
2525 -5.777063711486591
2526 -5.777189904545033
2527 -5.777341404623114
2528 -5.777553613026497
2529 -5.777577583866046
2530 -5.777612259617839
2531 -5.777583169913308
2532 -5.777591822777725
2533 -5.777425410602518
2534 -5.777311171307511
2535 -5.777248098892956
2536 -5.777277271088329
2537 -5.777154976062859
2538 -5.777074057764736
2539 -5.777048455522033
2540 -5.777163937061003
2541 -5.777120260247243
2542 -5.777132490819856
2543 -5.777131118493501
2544 -5.77721348622056
2545 -5.777151060865579
2546 -5.777144241042973
2547 -5.777143546748273
2548 -5.777307205691475
2549 -5.777284809063447
2550 -5.777337952482627
2551 -5.777363682978574
2552 -5.777445010330196
2553 -5.777315777880655
2554 -5.777234591956915
2555 -5.777108510032426
2556 -5.777112956786446
2557 -5.777007641320958
2558 -5.777023647094889
2559 -5.77707313093589
2560 -5.777243929047541
2561 -5.777252936496382
2562 -5.777330387801712
2563 -5.777424717227974
2564 -5.777546512307254
2565 -5.777488393953672
2566 -5.777463986363964
2567 -5.777385931531651
2568 -5.777374812167617
2569 -5.777210551446509
2570 -5.777142012662295
2571 -5.777126086258661
2572 -5.777237241234379
2573 -5.777155101916816
2574 -5.777188206243078
2575 -5.777260829839573
2576 -5.777429698590566
2577 -5.777407260806797
2578 -5.777427851590842
2579 -5.777406988489083
2580 -5.777464572721683
2581 -5.777358333794439
2582 -5.777281501666623
2583 -5.777234863759223
2584 -5.777290125560969
2585 -5.777217569951228
2586 -5.777239294166573
2587 -5.777249302642271
2588 -5.777315860838662
2589 -5.777231924975775
2590 -5.777222052095922
2591 -5.777182108665375
2592 -5.777224333259539
2593 -5.777120087457774
2594 -5.77708329002879
2595 -5.777093259209781
2596 -5.777204316166175
2597 -5.77715099949221
2598 -5.77718526669722
2599 -5.777236188623733
2600 -5.777302788587976
2601 -5.77719202072079
2602 -5.777169867095536
2603 -5.777139751162529
2604 -5.777225468164096
2605 -5.777127021218614
2606 -5.777002205937399
2607 -5.776885850497028
2608 -5.776991752912309
2609 -5.776890484095743
2610 -5.776901989581293
2611 -5.776982589983239
2612 -5.777165904291566
2613 -5.777236227331402
2614 -5.777334267255336
2615 -5.777380447322247
2616 -5.777452553297492
2617 -5.777352960731355
2618 -5.77727306890429
2619 -5.777195012650106
2620 -5.777240802885599
2621 -5.777134527243748
2622 -5.777157028889953
2623 -5.777153280571923
2624 -5.777206226399249
2625 -5.777119995884792
2626 -5.777174237708036
2627 -5.77724270769644
2628 -5.777428032895481
2629 -5.777407702745396
2630 -5.777440390092361
2631 -5.777422049153218
2632 -5.777494314595985
2633 -5.777371482607773
2634 -5.777335721987844
2635 -5.777266871142146
2636 -5.777233881663436
2637 -5.777071482747036
2638 -5.776914571083297
2639 -5.776777483618625
2640 -5.77687195060721
2641 -5.77684042068523
2642 -5.776937759023641
2643 -5.777077590161578
2644 -5.777380492234309
2645 -5.777517280562247
2646 -5.777679362907145
2647 -5.777773251655599
2648 -5.777859028766732
2649 -5.77774794460727
2650 -5.777663336513342
2651 -5.777513349093534
2652 -5.777471086632824
2653 -5.777331439071526
2654 -5.777185764587499
2655 -5.777063847914977
2656 -5.777132654636217
2657 -5.777094391777179
2658 -5.777189151121497
2659 -5.777290453785893
2660 -5.777425307586187
2661 -5.777394302316077
2662 -5.777445530547306
2663 -5.777475965398217
2664 -5.777584243528818
2665 -5.777524893996289
2666 -5.777476976880869
2667 -5.777385921747051
2668 -5.777371321332819
2669 -5.777231141195863
2670 -5.777115232784084
2671 -5.776996970803746
2672 -5.777038695334041
2673 -5.776880153714059
2674 -5.77685271199046
2675 -5.776850448710483
2676 -5.776992140069233
2677 -5.777030740709214
2678 -5.777131028924884
2679 -5.777189506607466
2680 -5.777384261871935
2681 -5.777354164494946
2682 -5.777343514879491
2683 -5.777329726649646
2684 -5.77739544101672
2685 -5.777285447106886
2686 -5.777267058957279
2687 -5.77724751541837
2688 -5.777364958776789
2689 -5.777302959195183
2690 -5.777299285565092
2691 -5.777303941944501
2692 -5.777404087706026
2693 -5.777331765595397
2694 -5.777344968604193
2695 -5.777375486330889
2696 -5.777465046053227
2697 -5.777376447083921
2698 -5.777367711599265
2699 -5.777387801681654
2700 -5.777521407456991
2701 -5.77745691736988
2702 -5.777451100957439
2703 -5.777463179895548
2704 -5.777564015402385
2705 -5.77744041217028
2706 -5.77730084717255
2707 -5.777181836094138
2708 -5.777214071697699
2709 -5.777051863683777
2710 -5.776980055731655
2711 -5.776912299534091
2712 -5.776962128036592
2713 -5.776901588391781
2714 -5.776914208302557
2715 -5.776969516870231
2716 -5.777148144095448
2717 -5.777145354433495
2718 -5.777216879901833
2719 -5.777229354159869
2720 -5.7773367739998
2721 -5.777263152012362
2722 -5.777284858471844
2723 -5.77727203487348
2724 -5.777370430932598
2725 -5.777302776016576
2726 -5.77733417810451
2727 -5.777322243243894
2728 -5.777374265710701
2729 -5.777240499078252
2730 -5.777123016588023
2731 -5.777090210886954
2732 -5.777150574197315
2733 -5.77707114754167
2734 -5.777068127523791
2735 -5.777130491974203
2736 -5.777326195377417
2737 -5.777317746355802
2738 -5.777360387044172
2739 -5.777360545915501
2740 -5.777481304603851
2741 -5.777357568125072
2742 -5.777326391160537
2743 -5.777315261314435
2744 -5.777372795077507
2745 -5.777270488778371
2746 -5.777193955134343
2747 -5.77708100445629
2748 -5.777120538151871
2749 -5.777038791970375
2750 -5.777045800266269
2751 -5.777090958652862
2752 -5.777224934065629
2753 -5.777171324180906
2754 -5.77718264718062
2755 -5.777175045485068
2756 -5.777259189619895
2757 -5.777201440239413
2758 -5.777227776225601
2759 -5.777234988707865
2760 -5.777351340798671
2761 -5.777324728712358
2762 -5.777368758192647
2763 -5.777415891094118
2764 -5.777538758236322
2765 -5.777415171439251
2766 -5.777317079900478
2767 -5.777197938561686
2768 -5.777155139952876
2769 -5.776970871137276
2770 -5.776927831197869
2771 -5.77690156140036
2772 -5.777095666989959
2773 -5.777161399477388
2774 -5.77732165945158
2775 -5.777476436153195
2776 -5.777658367857294
2777 -5.777624591838654
2778 -5.777587047144188
2779 -5.777540401243257
2780 -5.777535281973149
2781 -5.777424022602619
2782 -5.777319406183885
2783 -5.777202275769278
2784 -5.777260571281979
2785 -5.777080673802589
2786 -5.777020056753827
2787 -5.777006801887528
2788 -5.777148251592176
2789 -5.777094040949873
2790 -5.777151070531108
2791 -5.777238698519095
2792 -5.777380939645467
2793 -5.777374701512903
2794 -5.777419668167759
2795 -5.777479523034672
2796 -5.777599615050998
2797 -5.777532744920967
2798 -5.777523758035497
2799 -5.777540454368147
2800 -5.777652840848607
2801 -5.777467615201231
2802 -5.777334034616209
2803 -5.777260678150147
2804 -5.777289206069598
2805 -5.777167533168011
2806 -5.777131952086527
2807 -5.777117635794925
2808 -5.777296606302261
2809 -5.777343609268195
2810 -5.777445556031029
2811 -5.777517884191417
2812 -5.777631865445654
2813 -5.777513773736327
2814 -5.777434841667652
2815 -5.777365415720005
2816 -5.777368919569805
2817 -5.777261091699788
2818 -5.777241289901934
2819 -5.777172701681542
2820 -5.777175594002871
2821 -5.777069110077229
2822 -5.777094720522731
2823 -5.777146286053193
2824 -5.777284099593598
2825 -5.777266108430768
2826 -5.77734279100553
2827 -5.777445847229221
2828 -5.777591394279744
2829 -5.777561539398221
2830 -5.777570665332008
2831 -5.777550472676744
2832 -5.777557490916127
2833 -5.777363229460554
2834 -5.777210129622402
2835 -5.777091115539696
2836 -5.77712949536429
2837 -5.777018401215051
2838 -5.77704569520756
2839 -5.777130700133913
2840 -5.777294725993265
2841 -5.777260949988631
2842 -5.777231011199504
2843 -5.777161505754901
2844 -5.777225251715617
2845 -5.777140315948301
2846 -5.777121373305244
2847 -5.777119926887613
2848 -5.777178815790758
2849 -5.777032553993174
2850 -5.776952511039397
2851 -5.776924220466646
2852 -5.777019194574249
2853 -5.776987744902338
2854 -5.777078483586453
2855 -5.777180989561178
2856 -5.777360408915966
2857 -5.777349543529774
2858 -5.777367671337282
2859 -5.777415597768128
2860 -5.777513214646389
2861 -5.777387807777525
2862 -5.777326162013619
2863 -5.777313436872037
2864 -5.777351901463337
2865 -5.777197786419046
2866 -5.777125850875687
2867 -5.777088839430372
2868 -5.777181758624232
2869 -5.777113644450433
2870 -5.777056691888438
2871 -5.77703467333681
2872 -5.777197924708815
2873 -5.777198267935397
2874 -5.777278641301495
2875 -5.777388578972425
2876 -5.777559383659463
2877 -5.777553989184069
2878 -5.777547450921129
2879 -5.777497765733745
2880 -5.777508855104506
2881 -5.777394211359685
2882 -5.777294789229153
2883 -5.777187684012654
2884 -5.777205709146473
2885 -5.777073954761421
2886 -5.777101756676615
2887 -5.777140926520157
2888 -5.777234837402995
2889 -5.777168729017185
2890 -5.777197327107513
2891 -5.777240705384719
2892 -5.777413929432869
2893 -5.777435429289605
2894 -5.777466456146509
2895 -5.777486092659881
2896 -5.777539040671345
2897 -5.777392033692154
2898 -5.777243909606282
2899 -5.777122546182675
2900 -5.77717611268307
2901 -5.777072437271672
2902 -5.777074987573156
2903 -5.777061988804601
2904 -5.777213384473148
2905 -5.777157372990607
2906 -5.777159274054904
2907 -5.777149200204072
2908 -5.777298946094125
2909 -5.7773093206492
2910 -5.777376654801377
2911 -5.777450661101368
2912 -5.777578570257305
2913 -5.77754791200223
2914 -5.777580960020934
2915 -5.777531306803301
2916 -5.777521146767675
2917 -5.777392032311734
2918 -5.777256937060053
2919 -5.777100351352718
2920 -5.777142962605771
2921 -5.776933780673122
2922 -5.776896016099171
2923 -5.776931335518379
2924 -5.777057437640043
2925 -5.777043079966639
2926 -5.77713013594173
2927 -5.777214295478369
2928 -5.777382841783847
2929 -5.777376948557205
2930 -5.777385332752765
2931 -5.777395634031234
2932 -5.777509021405877
2933 -5.777388646174114
2934 -5.777357103783738
2935 -5.777299636723483
2936 -5.777324293321945
2937 -5.777113550853749
2938 -5.777028439560639
2939 -5.776892823942073
2940 -5.776865990938267
2941 -5.776727999291826
2942 -5.776602947459781
2943 -5.776498805634387
2944 -5.776628920549197
2945 -5.776631213839917
2946 -5.776801084123747
2947 -5.777013929769199
2948 -5.777325866020337
2949 -5.77747187652956
2950 -5.777631060112204
2951 -5.777672852332076
2952 -5.777682192339439
2953 -5.77747616753215
2954 -5.777304136356202
2955 -5.777121070637466
2956 -5.777065576288371
2957 -5.77690489757491
2958 -5.776769623041385
2959 -5.776711792267203
2960 -5.776809026202876
2961 -5.776862041724343
2962 -5.777058696126629
2963 -5.777245919413524
2964 -5.777511318690419
2965 -5.777587266261833
2966 -5.777668672708991
2967 -5.777706279781485
2968 -5.777782361605066
2969 -5.777620165421827
2970 -5.777493918432941
2971 -5.777376012245404
2972 -5.777280310770158
2973 -5.777056167816909
2974 -5.776966432688949
2975 -5.776874618618063
2976 -5.776925164409423
2977 -5.776880203528435
2978 -5.77691184296467
2979 -5.776993187223758
2980 -5.777200263982574
2981 -5.777232474265499
2982 -5.777353726957056
2983 -5.777469498688728
2984 -5.77763083623577
2985 -5.777605018257149
2986 -5.777641054142325
2987 -5.777611832000144
2988 -5.777630698312
2989 -5.777452916318992
2990 -5.777314569931862
2991 -5.777225491588623
2992 -5.777196951471281
2993 -5.776980509254606
2994 -5.776877582696547
2995 -5.776858399318527
2996 -5.776967479979758
2997 -5.776986664013847
2998 -5.777099686113069
2999 -5.77724685327437
3000 -5.777498579985072
3001 -5.777550048316447
3002 -5.777599616146922
3003 -5.777648708427193
3004 -5.777780071918098
3005 -5.777687290941937
3006 -5.777606380451104
3007 -5.777492436057321
3008 -5.777422669538622
3009 -5.777238938068253
3010 -5.777102558947031
3011 -5.776979012037206
3012 -5.776994008831036
3013 -5.776889216655146
3014 -5.776869727018589
3015 -5.776879799561495
3016 -5.776984073810334
3017 -5.776963683565271
3018 -5.77708334721027
3019 -5.777211450467434
3020 -5.777416743351817
3021 -5.777457635662213
3022 -5.777560414252548
3023 -5.777640022585175
3024 -5.77772713221437
3025 -5.777584494169703
3026 -5.777449302080565
3027 -5.777340693801581
3028 -5.777309308782123
3029 -5.777111931508104
3030 -5.777011896057394
3031 -5.776963906225234
3032 -5.777081062943743
3033 -5.77706317587662
3034 -5.77709638617016
3035 -5.777059118505528
3036 -5.777206187327105
3037 -5.777144033265921
3038 -5.777134138192237
3039 -5.777141244129721
3040 -5.777252981842087
3041 -5.777210559864392
3042 -5.777239429931909
3043 -5.777209004618852
3044 -5.777243328684131
3045 -5.777137427539361
3046 -5.777046718479929
3047 -5.776979405793506
3048 -5.777088301281574
3049 -5.777006368833561
3050 -5.776982788383815
3051 -5.777016933610689
3052 -5.777151824353273
3053 -5.777078941519209
3054 -5.777103170025362
3055 -5.777105667062161
3056 -5.777176915853039
3057 -5.777035593004834
3058 -5.776972091446832
3059 -5.776942949025778
3060 -5.777013985044825
3061 -5.776959284764947
3062 -5.776982244984244
3063 -5.777033846141222
3064 -5.777240886339259
3065 -5.777235702946964
3066 -5.777275539511584
3067 -5.777304683923716
3068 -5.777395742346246
3069 -5.777309426046472
3070 -5.7772614970093
3071 -5.777139316463244
3072 -5.77716070795119
3073 -5.776996507549787
3074 -5.776933080382994
3075 -5.776943862104478
3076 -5.777115443056088
3077 -5.777176256188485
3078 -5.77731514258605
3079 -5.777479414272162
3080 -5.777668974804589
3081 -5.777623111574739
3082 -5.777613452146095
3083 -5.77752657355416
3084 -5.777522771202292
3085 -5.777357652483854
3086 -5.777289757255133
3087 -5.777234432816225
3088 -5.777260721377439
3089 -5.777104491660656
3090 -5.777075569780833
3091 -5.777095262399507
3092 -5.777180765403457
3093 -5.777118202005584
3094 -5.777175674227378
3095 -5.777268104108311
3096 -5.777469246331998
3097 -5.777477474574326
3098 -5.777507981246237
3099 -5.777566718709761
3100 -5.777715764440641
3101 -5.777615199588142
3102 -5.777531528395219
3103 -5.777357072680157
3104 -5.777297974428583
3105 -5.777096719619109
3106 -5.777033406808003
3107 -5.776873156431455
3108 -5.776855980293066
3109 -5.776762405354333
3110 -5.776700367626565
3111 -5.776686360988955
3112 -5.776873565386879
3113 -5.77695852465121
3114 -5.777157789240009
3115 -5.777363921469927
3116 -5.777573032538053
3117 -5.777586782901905
3118 -5.777598772147576
3119 -5.777561762765459
3120 -5.777578721294173
3121 -5.777429048070876
3122 -5.777361956295452
3123 -5.777329922599293
3124 -5.777413050867503
3125 -5.777241852657776
3126 -5.777102697926708
3127 -5.777043582177506
3128 -5.77707803586023
3129 -5.776984599016517
3130 -5.777006576496695
3131 -5.777073290437596
3132 -5.777269338464937
3133 -5.777287538043859
3134 -5.777342586530531
3135 -5.777408970591539
3136 -5.777559396665557
3137 -5.777532686072347
3138 -5.777551146458889
3139 -5.777535183898573
3140 -5.777553533154364
3141 -5.777419606291572
3142 -5.777264744489995
3143 -5.777093202741083
3144 -5.777055116603924
3145 -5.776921399837361
3146 -5.77693239600081
3147 -5.776974775474381
3148 -5.777137571624232
3149 -5.777140267458462
3150 -5.777290687719475
3151 -5.777459149764748
3152 -5.777633601876496
3153 -5.777594003872814
3154 -5.777553500909093
3155 -5.777509295328576
3156 -5.777532537336702
3157 -5.777389568006026
3158 -5.777312109332122
3159 -5.777263116287456
3160 -5.777341782926491
3161 -5.777225851954648
3162 -5.777215584489023
3163 -5.777181691762714
3164 -5.777244675843727
3165 -5.777140022323355
3166 -5.777077856886256
3167 -5.777017508383439
3168 -5.777112777296812
3169 -5.777083361405221
3170 -5.777113243533433
3171 -5.777145288912761
3172 -5.777283427273746
3173 -5.777276096247052
3174 -5.77731445732601
3175 -5.777318296643607
3176 -5.777369027145409
3177 -5.777234343367585
3178 -5.77715974009781
3179 -5.77704059797537
3180 -5.777057539314391
3181 -5.776940454049581
3182 -5.776906501524348
3183 -5.776892842706468
3184 -5.77701815567515
3185 -5.776986738846087
3186 -5.777037970999415
3187 -5.777095861149964
3188 -5.777154087764066
3189 -5.77707130917667
3190 -5.777064297235382
3191 -5.777104158593854
3192 -5.777257737417545
3193 -5.77724405519402
3194 -5.77727282666271
3195 -5.777329394895975
3196 -5.777486905143144
3197 -5.77741836438503
3198 -5.77741370664693
3199 -5.777382833012343
3200 -5.777443127489148
3201 -5.777271499393699
3202 -5.777142773859536
3203 -5.777005672064633
3204 -5.777007862716557
3205 -5.776945363195031
3206 -5.776979896308114
3207 -5.777100954581174
3208 -5.777344633854481
3209 -5.777399703983825
3210 -5.777483324681756
3211 -5.777495874431655
3212 -5.777560137989398
3213 -5.777460124974071
3214 -5.777458438609665
3215 -5.777399657876896
3216 -5.777419214803921
3217 -5.777259900031454
3218 -5.77721098482054
3219 -5.7770934896973
3220 -5.777071836081506
3221 -5.776928850679291
3222 -5.776867296453706
3223 -5.776895289291561
3224 -5.777088945045264
3225 -5.777165897142282
3226 -5.777312673613796
3227 -5.777449041538458
3228 -5.777630676065469
3229 -5.777654850595296
3230 -5.777664587681482
3231 -5.777645532283407
3232 -5.777685972429377
3233 -5.777445939668659
3234 -5.777334496115527
3235 -5.777151332163951
3236 -5.777093089929616
3237 -5.776956432284225
3238 -5.77690104712268
3239 -5.776911548928025
3240 -5.777095042060073
3241 -5.777099669665791
3242 -5.777218277819765
3243 -5.777329457391108
3244 -5.777538283000678
3245 -5.777566225666271
3246 -5.77763507493529
3247 -5.777669713157524
3248 -5.777704008357326
3249 -5.777542519025117
3250 -5.77749455524242
3251 -5.777456873150324
3252 -5.777480149455836
3253 -5.77735451372244
3254 -5.777259084754117
3255 -5.77720918478502
3256 -5.777310143297989
3257 -5.777169251835568
3258 -5.777114934996607
3259 -5.777152606173196
3260 -5.777282012251145
3261 -5.777235166260192
3262 -5.777207215947378
3263 -5.777131270873124
3264 -5.777229103807571
3265 -5.77719710832596
3266 -5.777206928399083
3267 -5.777234239580155
3268 -5.777364341878227
3269 -5.77729596615759
3270 -5.777289749341452
3271 -5.777195103074933
3272 -5.777188902321373
3273 -5.777091524708161
3274 -5.77706545528324
3275 -5.777015354532699
3276 -5.777108799399722
3277 -5.777058331698425
3278 -5.777132653491866
3279 -5.777193187381251
3280 -5.777318567445787
3281 -5.777193635104918
3282 -5.777126378590285
3283 -5.777106492920867
3284 -5.77714071440593
3285 -5.777068762143313
3286 -5.777099285698476
3287 -5.777163597183335
3288 -5.777325078573856
3289 -5.777303530665891
3290 -5.777314814443076
3291 -5.777298727508271
3292 -5.777363786923964
3293 -5.777219073733912
3294 -5.777151023989118
3295 -5.777105450718779
3296 -5.777214561026467
3297 -5.777164352232668
3298 -5.777184147486833
3299 -5.777229480084767
3300 -5.777376937521476
3301 -5.777370293210003
3302 -5.777401390619923
3303 -5.777431773198626
3304 -5.777536611834925
3305 -5.777424489230172
3306 -5.777254251614387
3307 -5.777077654990826
3308 -5.777070521217345
3309 -5.776851545503341
3310 -5.776821806469235
3311 -5.776805377132356
3312 -5.776928247344954
3313 -5.776960296098261
3314 -5.777079003484052
3315 -5.777224359645993
3316 -5.777443309260121
3317 -5.777388347673137
3318 -5.777340226385871
3319 -5.777312684337285
3320 -5.777374692549892
3321 -5.777278478203272
3322 -5.777277763639311
3323 -5.777319806893611
3324 -5.777458200056303
3325 -5.77739827951605
3326 -5.777375474796428
3327 -5.777308019770436
3328 -5.777329923374533
3329 -5.777176483125726
3330 -5.777150116585775
3331 -5.777164386661309
3332 -5.777294549867332
3333 -5.777266556562852
3334 -5.777302591129226
3335 -5.777325280276892
3336 -5.77745620596742
3337 -5.777442082368973
3338 -5.77745232018944
3339 -5.777438598946913
3340 -5.777486792099324
3341 -5.777380067615545
3342 -5.7772994534387
3343 -5.777218897408727
3344 -5.777231018680154
3345 -5.777118325473627
3346 -5.777174996175979
3347 -5.777232372368131
3348 -5.777417632640767
3349 -5.77745671623619
3350 -5.777543613962192
3351 -5.77762823627628
3352 -5.777750042659084
3353 -5.777595916512424
3354 -5.777484585219915
3355 -5.777413879599928
3356 -5.777386156755563
3357 -5.777178819944413
3358 -5.777146246679384
3359 -5.7771225942859
3360 -5.77725581877269
3361 -5.777191402485903
3362 -5.777155917250152
3363 -5.777113089906371
3364 -5.77723938575711
3365 -5.777187132800039
3366 -5.777164392174682
3367 -5.777196121564284
3368 -5.777348333917642
3369 -5.777350902279679
3370 -5.777417477761341
3371 -5.777423498385801
3372 -5.77753204417551
3373 -5.777454172663111
3374 -5.777429824905421
3375 -5.777369709824126
3376 -5.777416078036515
3377 -5.777288123999766
3378 -5.777223526654707
3379 -5.777188705374002
3380 -5.777253913103904
3381 -5.777101321447832
3382 -5.777078453670264
3383 -5.777067452289781
3384 -5.777234924077372
3385 -5.777189989247415
3386 -5.777188449331766
3387 -5.777251809024245
3388 -5.777369620052287
3389 -5.777253632053407
3390 -5.777224163356276
3391 -5.777225357771258
3392 -5.777341994926796
3393 -5.777210817838373
3394 -5.777146574806117
3395 -5.777127333457145
3396 -5.777244293768034
3397 -5.777227359014616
3398 -5.777253372630025
3399 -5.777233127032081
3400 -5.777328317488358
3401 -5.777276105320984
3402 -5.777219970457939
3403 -5.777164355675942
3404 -5.777213621272666
3405 -5.777172997474992
3406 -5.777228323939586
3407 -5.777223734991309
3408 -5.777307747857171
3409 -5.777220378613055
3410 -5.777225112565053
3411 -5.77718298185609
3412 -5.777223277441827
3413 -5.777092764736775
3414 -5.777053280153688
3415 -5.777070809189556
3416 -5.777161838860708
3417 -5.77710371502973
3418 -5.777172059484795
3419 -5.777225744803106
3420 -5.777447763176013
3421 -5.777421269658642
3422 -5.777425812967759
3423 -5.777454074117174
3424 -5.777581522309384
3425 -5.777465936596173
3426 -5.777366815987256
3427 -5.777290548801778
3428 -5.777335397726019
3429 -5.777148212012943
3430 -5.777048380070442
3431 -5.776985202528904
3432 -5.777045151966287
3433 -5.776985886281047
3434 -5.77698877271078
3435 -5.777000336604456
3436 -5.777138617675643
3437 -5.777102510295824
3438 -5.777206738449268
3439 -5.77729039910814
3440 -5.777440291034869
3441 -5.777394294360373
3442 -5.777405672885045
3443 -5.777372233224527
3444 -5.777395171532381
3445 -5.777192596776642
3446 -5.777057729037056
3447 -5.776992951991322
3448 -5.77702728852286
3449 -5.776897323812282
3450 -5.776882535493108
3451 -5.777007928398917
3452 -5.777234965588777
3453 -5.777313330665939
3454 -5.777480930809936
3455 -5.777576654416598
3456 -5.777839610441115
3457 -5.77777799824393
3458 -5.777641258726334
3459 -5.77746242157194
3460 -5.777395597185262
3461 -5.777113041834777
3462 -5.776940211670405
3463 -5.77686826647467
3464 -5.776932628568407
3465 -5.776861303637265
3466 -5.77685027756114
3467 -5.776892467594049
3468 -5.777092081271184
3469 -5.777195530404024
3470 -5.777325765603988
3471 -5.777433073089557
3472 -5.777621411067095
3473 -5.777604435158474
3474 -5.777705493532977
3475 -5.777707065711032
3476 -5.777761048433175
3477 -5.777638667419656
3478 -5.777538009537292
3479 -5.777327838087855
3480 -5.777209375775207
3481 -5.777063387295789
3482 -5.776953153534552
3483 -5.77690170755395
3484 -5.777023392194019
3485 -5.776972316764905
3486 -5.777042199450705
3487 -5.777178064901162
3488 -5.777332761276719
3489 -5.777315610986544
3490 -5.777360784724131
3491 -5.777360747667808
3492 -5.777476332738288
3493 -5.777345590298941
3494 -5.777261532459683
3495 -5.777157863515283
3496 -5.777207595727111
3497 -5.777120126747109
3498 -5.777101286161125
3499 -5.777129271824033
3500 -5.777253488863655
3501 -5.777253572895141
3502 -5.777296888251389
3503 -5.777297165965603
3504 -5.777320299839126
3505 -5.777213127414575
3506 -5.777131189367521
3507 -5.777060515288311
3508 -5.777105691465133
3509 -5.777005810913266
3510 -5.777045120816754
3511 -5.777126919832137
3512 -5.777301980289018
3513 -5.777330983401964
3514 -5.777416739933774
3515 -5.777478509048972
3516 -5.777578488441047
3517 -5.777468137661279
3518 -5.777342606919469
3519 -5.777241073529443
3520 -5.777290689671383
3521 -5.777147197421834
3522 -5.777064265120571
3523 -5.777010652860174
3524 -5.777054466044556
3525 -5.776970645262627
3526 -5.776995769350226
3527 -5.777027464681006
3528 -5.777177737207936
3529 -5.777193716615564
3530 -5.777256531055356
3531 -5.777308962748779
3532 -5.777460978841677
3533 -5.777403008932043
3534 -5.777377858570027
3535 -5.777302347796141
3536 -5.777376580325166
3537 -5.77729687619777
3538 -5.777273978855698
3539 -5.777199043232117
3540 -5.777160816541294
3541 -5.77698483115253
3542 -5.776907896950785
3543 -5.776864224685333
3544 -5.776934357069566
3545 -5.776829889297265
3546 -5.776876537535133
3547 -5.777005510913966
3548 -5.777238469105143
3549 -5.777308379133117
3550 -5.777446724229416
3551 -5.777532900728718
3552 -5.777645025887599
3553 -5.777524788585207
3554 -5.777424752206687
3555 -5.777356033857667
3556 -5.777426426531831
3557 -5.777301180874274
3558 -5.777240133084168
3559 -5.777210198825506
3560 -5.777287882427044
3561 -5.777205467831927
3562 -5.777163337971024
3563 -5.777114817135255
3564 -5.777178543882849
3565 -5.777131297603672
3566 -5.777131338108492
3567 -5.777176399225469
3568 -5.777331088179109
3569 -5.777339496705658
3570 -5.777396457393298
3571 -5.777451375368618
3572 -5.777556866409914
3573 -5.77749660753619
3574 -5.77752135769614
3575 -5.777480442921147
3576 -5.777506830908941
3577 -5.777365334928051
3578 -5.777277424804023
3579 -5.77720309683462
3580 -5.777214271810468
3581 -5.777075700891775
3582 -5.777055950892121
3583 -5.777112187828219
3584 -5.777262487456851
3585 -5.777273284033793
3586 -5.777357510351037
3587 -5.777429833501902
3588 -5.777531114090752
3589 -5.777445040798563
3590 -5.777365486327477
3591 -5.777286151435352
3592 -5.777332160114773
3593 -5.777232271997224
3594 -5.777232381468995
3595 -5.777231353895989
3596 -5.777299233090672
3597 -5.777210895486447
3598 -5.777139835091639
3599 -5.777061709564062
3600 -5.777122094262234
3601 -5.777091870358733
3602 -5.777142375513314
3603 -5.77715994384432
3604 -5.777352214581235
3605 -5.777339593511279
3606 -5.777396837587309
3607 -5.777427274158925
3608 -5.777469926470032
3609 -5.777338756104097
3610 -5.777201443296442
3611 -5.777068593075086
3612 -5.777090199334543
3613 -5.776978571251679
3614 -5.776961180290923
3615 -5.777014785274132
3616 -5.777159957376568
3617 -5.777112020686588
3618 -5.777122315621196
3619 -5.777186376480411
3620 -5.777317954969993
3621 -5.77725687136811
3622 -5.777198168831701
3623 -5.777098182749783
3624 -5.777147596369339
3625 -5.777043363202456
3626 -5.7769340444369
3627 -5.776854315172099
3628 -5.777007479902265
3629 -5.777060479874199
3630 -5.777178707282436
3631 -5.777324206570715
3632 -5.777490357039841
3633 -5.777468146429388
3634 -5.777426524098244
3635 -5.777297056620622
3636 -5.777252313556367
3637 -5.777068212189208
3638 -5.777015521670785
3639 -5.776900919993261
3640 -5.776892236009345
3641 -5.776773692939273
3642 -5.776821064399206
3643 -5.776932698117093
3644 -5.777109651739321
3645 -5.777154093839615
3646 -5.777283202366434
3647 -5.777393725364361
3648 -5.777580812313152
3649 -5.777587525839276
3650 -5.777614211033186
3651 -5.777636480655763
3652 -5.777707741779213
3653 -5.777509689747997
3654 -5.777353174230582
3655 -5.777267604696223
3656 -5.77724519287877
3657 -5.777085652154622
3658 -5.77703175616268
3659 -5.777023366389249
3660 -5.77721036734448
3661 -5.777280508927035
3662 -5.777370561860854
3663 -5.777434557870309
3664 -5.777596588853113
3665 -5.777594786002139
3666 -5.777632274652985
3667 -5.777652552406136
3668 -5.777674811587821
3669 -5.777484153963566
3670 -5.777359709922916
3671 -5.777222598448432
3672 -5.777193591180286
3673 -5.777074933315564
3674 -5.77703348870542
3675 -5.777026295702428
3676 -5.777214013055797
3677 -5.777225280603903
3678 -5.777355364410171
3679 -5.777472396972495
3680 -5.777629540119564
3681 -5.777551699242307
3682 -5.777488859674474
3683 -5.777386478352384
3684 -5.777363139993535
3685 -5.777199158715135
3686 -5.777117367554507
3687 -5.777129614238923
3688 -5.777265754176989
3689 -5.777229978377178
3690 -5.777277270272458
3691 -5.777322544409706
3692 -5.77742027433826
3693 -5.777333430811516
3694 -5.777332817510722
3695 -5.777224430638435
3696 -5.777223163069107
3697 -5.777110689924045
3698 -5.777085957593664
3699 -5.777108401094004
3700 -5.777261575346543
3701 -5.777242552331592
3702 -5.777297740818948
3703 -5.777349521088027
3704 -5.777440860797639
3705 -5.777367428630846
3706 -5.777299370461969
3707 -5.77720751999422
3708 -5.777199022699802
3709 -5.777052950923711
3710 -5.777007157933743
3711 -5.776999863949478
3712 -5.777082409327189
3713 -5.776967473006418
3714 -5.776986426778683
3715 -5.777054371740848
3716 -5.77720675823744
3717 -5.777202856661398
3718 -5.777251970815732
3719 -5.777267969162062
3720 -5.777375886924727
3721 -5.777329296748746
3722 -5.777342486671871
3723 -5.777403921549613
3724 -5.777561006177841
3725 -5.777482878624587
3726 -5.777390658182251
3727 -5.777286108226303
3728 -5.777287966833831
3729 -5.777067161442809
3730 -5.776941242525484
3731 -5.776799523276098
3732 -5.776847629606017
3733 -5.776829127519433
3734 -5.776932423823435
3735 -5.777048467851371
3736 -5.777268474366841
3737 -5.777309962376701
3738 -5.777423992868141
3739 -5.777522075282532
3740 -5.777641690147799
3741 -5.777516880092801
3742 -5.777434909665891
3743 -5.77736892135172
3744 -5.777362416190118
3745 -5.777192512297676
3746 -5.777097161098506
3747 -5.777088395284798
3748 -5.777197475178703
3749 -5.777122103304801
3750 -5.777172897001712
3751 -5.777238260518012
3752 -5.777383714970903
3753 -5.777320757738785
3754 -5.777317753085672
3755 -5.777264925016107
3756 -5.777328375749692
3757 -5.777220791686964
3758 -5.777155242669789
3759 -5.77714413484705
3760 -5.77727129687425
3761 -5.777226285653975
3762 -5.777145089774951
3763 -5.777046355786958
3764 -5.77704749935297
3765 -5.776980067396008
3766 -5.776990350113177
3767 -5.777017586318439
3768 -5.777156102649999
3769 -5.77715722962565
3770 -5.777267643214986
3771 -5.777321637151249
3772 -5.777491501582908
3773 -5.77746369236573
3774 -5.777469081504771
3775 -5.777467991596792
3776 -5.777519948779529
3777 -5.777418662223349
3778 -5.77742879274959
3779 -5.777369765478461
3780 -5.777400586094422
3781 -5.777276033463735
3782 -5.77716197641803
3783 -5.777104845022353
3784 -5.777210487063227
3785 -5.777165440351985
3786 -5.77715671873044
3787 -5.777153140328456
3788 -5.777269994006086
3789 -5.777238874216203
3790 -5.777257474100245
3791 -5.777225451380184
3792 -5.777317531990519
3793 -5.777265124319976
3794 -5.777257872070366
3795 -5.777211423892842
3796 -5.777268075461943
3797 -5.777206701312776
3798 -5.777137302712632
3799 -5.77706480446195
3800 -5.77707245115517
3801 -5.776963204199868
3802 -5.776973796970365
3803 -5.77701631951767
3804 -5.777164473182645
3805 -5.777141626217596
3806 -5.777230030060307
3807 -5.777312738539191
3808 -5.777511237608347
3809 -5.777470199996799
3810 -5.777525660589955
3811 -5.777520128509752
3812 -5.777573968207538
3813 -5.777410817487961
3814 -5.777368194821475
3815 -5.777345344291392
3816 -5.777447210439345
3817 -5.777412750611375
3818 -5.777387117443231
3819 -5.777349391592834
3820 -5.777472798695936
3821 -5.777360866245536
3822 -5.777281277307173
3823 -5.7772200138159
3824 -5.777277205922093
3825 -5.77722194642415
3826 -5.77727486021743
3827 -5.777261767450283
3828 -5.777407761462739
3829 -5.777382071822732
3830 -5.777416080232848
3831 -5.777421811407087
3832 -5.777494828539091
3833 -5.777359268930457
3834 -5.777272884313326
3835 -5.777188254698206
3836 -5.777166530165572
3837 -5.777016899509445
3838 -5.776991224480592
3839 -5.777043225684629
3840 -5.777236530270751
3841 -5.777236960737372
3842 -5.777353858627267
3843 -5.777462248090233
3844 -5.777650318872197
3845 -5.777620935343477
3846 -5.777623956644639
3847 -5.777580312197248
3848 -5.77754593274059
3849 -5.777290257573771
3850 -5.777124497710153
3851 -5.777038911420802
3852 -5.777140491835357
3853 -5.777114560186208
3854 -5.777168913057807
3855 -5.777259734588924
3856 -5.777435436467128
3857 -5.777381033920548
3858 -5.777377920190296
3859 -5.777365645541185
3860 -5.777454361890646
3861 -5.777413110967728
3862 -5.777435076370423
3863 -5.777408914871261
3864 -5.777444583422701
3865 -5.777284782162243
3866 -5.777193208907723
3867 -5.777117177658523
3868 -5.777164079843351
3869 -5.777062350157427
3870 -5.777066936506527
3871 -5.77709083878782
3872 -5.777225167690474
3873 -5.777224943902389
3874 -5.777319643521261
3875 -5.777405867393377
3876 -5.777556257515673
3877 -5.777489254386446
3878 -5.777451720706275
3879 -5.777392833511921
3880 -5.777383023753866
3881 -5.777177680253764
3882 -5.777025838614222
3883 -5.776922029078654
3884 -5.776982160531437
3885 -5.776851264577101
3886 -5.776827288545554
3887 -5.776858615781639
3888 -5.777085559224706
3889 -5.777187025448827
3890 -5.777326513857965
3891 -5.777388643741065
3892 -5.777492766072421
3893 -5.777409229259474
3894 -5.777297406121908
3895 -5.777193041090096
3896 -5.777123093365518
3897 -5.776948619978366
3898 -5.776946371735305
3899 -5.776971576486389
3900 -5.777145741011462
3901 -5.777139184162519
3902 -5.777214623147829
3903 -5.777244427004572
3904 -5.777396008629733
3905 -5.77737510101657
3906 -5.777425382628636
3907 -5.777537311596038
3908 -5.777651189779085
3909 -5.777547947242659
3910 -5.777446785413451
3911 -5.777406102548453
3912 -5.777484210730348
3913 -5.777294322223211
3914 -5.777138497880174
3915 -5.777082101953118
3916 -5.7771478574293
3917 -5.77712370758907
3918 -5.77719764676817
3919 -5.777189590274856
3920 -5.777298198754361
3921 -5.777295841252916
3922 -5.777378002193077
3923 -5.777362627652371
3924 -5.777460599291758
3925 -5.777517659346958
3926 -5.777540766378461
3927 -5.77741724505533
3928 -5.777429084162956
3929 -5.777277670836344
3930 -5.777204534099742
3931 -5.777052098640728
3932 -5.777002887403459
3933 -5.776969125992168
3934 -5.777122052471213
3935 -5.777173644941443
3936 -5.777345692020594
3937 -5.777365796603194
3938 -5.777478831022111
3939 -5.777401645995903
3940 -5.777442750576251
3941 -5.777353573890514
3942 -5.777342493794859
3943 -5.777251311209559
3944 -5.777224142641027
3945 -5.777178838740004
3946 -5.777243228584185
3947 -5.777222143233272
3948 -5.777293408848943
3949 -5.77727473056208
3950 -5.777323877041336
3951 -5.777266544286261
3952 -5.777320617085017
3953 -5.777283356537789
3954 -5.777316393857127
3955 -5.777187958162146
3956 -5.777110897247854
3957 -5.777036607643064
3958 -5.777011357323343
3959 -5.776913959425419
3960 -5.776918326024762
3961 -5.776946379620951
3962 -5.777011018360767
3963 -5.777021885549366
3964 -5.777073068674883
3965 -5.777129117801243
3966 -5.777219051846075
3967 -5.777225427786727
3968 -5.777239716997425
3969 -5.777261371310864
3970 -5.777361365653142
3971 -5.777334191610243
3972 -5.777339657160844
3973 -5.777236856215652
3974 -5.777204994828641
3975 -5.77710782425613
3976 -5.77708726699716
3977 -5.777072480058541
3978 -5.777164114138239
3979 -5.77717718894794
3980 -5.777247533751316
3981 -5.777307199539568
3982 -5.777444940317955
3983 -5.777381581408148
3984 -5.777397103628199
3985 -5.777411878645791
3986 -5.777474634131547
3987 -5.777331234276003
3988 -5.777282244353307
3989 -5.777247003118091
3990 -5.777286692308477
3991 -5.777173556073653
3992 -5.777138491597822
3993 -5.777114559963421
3994 -5.777202578106063
3995 -5.777127091209721
3996 -5.777141026609813
3997 -5.777122874237874
3998 -5.777214113449989
3999 -5.77717049478497
4000 -5.777200620205451
4001 -5.77717908471555
4002 -5.777295735338406
4003 -5.777294598304403
4004 -5.777352126024815
4005 -5.77739729145741
4006 -5.777545928707242
4007 -5.777524245815133
4008 -5.777492768076172
4009 -5.77734306015759
4010 -5.777298299794061
4011 -5.777151012068731
4012 -5.777106249391587
4013 -5.77701556271467
4014 -5.777054817343889
4015 -5.777005845590931
4016 -5.77707046902434
4017 -5.777129119656667
4018 -5.777305639903089
4019 -5.777300411619259
4020 -5.777435555291589
4021 -5.777514921902535
4022 -5.777621349517681
4023 -5.77754152029856
4024 -5.777563145613837
4025 -5.777553444795107
4026 -5.777604535711601
4027 -5.77748012490518
4028 -5.777433728884554
4029 -5.777382990600673
4030 -5.777422132621615
4031 -5.777224970339852
4032 -5.777119248005203
4033 -5.777037832948461
4034 -5.777107586638723
4035 -5.777059877381152
4036 -5.777094098947742
4037 -5.777122193242841
4038 -5.777269057983792
4039 -5.777266182837981
4040 -5.777348676483781
4041 -5.777364863788866
4042 -5.777454346855223
4043 -5.777360146999659
4044 -5.777304596729995
4045 -5.777223098512097
4046 -5.77710183446523
4047 -5.776855671303196
4048 -5.776724465414466
4049 -5.77662910151713
4050 -5.776738870702468
4051 -5.776767192730427
4052 -5.776926152616041
4053 -5.777087840641995
4054 -5.777314712820244
4055 -5.777296820655605
4056 -5.777346657301333
4057 -5.777419803350943
4058 -5.777540064247422
4059 -5.777447955970093
4060 -5.77738124537967
4061 -5.777334412020492
4062 -5.777352061368355
4063 -5.77722181575236
4064 -5.777116738173732
4065 -5.777037155655915
4066 -5.777151405530183
4067 -5.777068288188307
4068 -5.777068514312635
4069 -5.777105983659813
4070 -5.777214125402102
4071 -5.777156779030403
4072 -5.777166799949049
4073 -5.777157377102595
4074 -5.777235391367675
4075 -5.777207090566431
4076 -5.777266503185578
4077 -5.777367347789693
4078 -5.777520754206808
4079 -5.777472974986004
4080 -5.777517051856539
4081 -5.777516007259219
4082 -5.777554269795106
4083 -5.77736671339703
4084 -5.777241383991626
4085 -5.777148351635654
4086 -5.77719750688702
4087 -5.777111680832874
4088 -5.777107449999161
4089 -5.777138303841114
4090 -5.777243462267525
4091 -5.777155246745068
4092 -5.77711497661418
4093 -5.777129008002783
4094 -5.777239595576471
4095 -5.777178919180162
4096 -5.77719639764877
4097 -5.777259957683453
4098 -5.77741812977739
4099 -5.777394821879594
4100 -5.777408066027356
4101 -5.777412129149784
4102 -5.777512609406472
4103 -5.777354861738092
4104 -5.777263452619178
4105 -5.777216290859903
4106 -5.777253967437606
4107 -5.777183674337929
4108 -5.777209613891741
4109 -5.777242928517516
4110 -5.777377013338187
4111 -5.777378263499758
4112 -5.777433257638061
4113 -5.777483329839907
4114 -5.777580523545192
4115 -5.777503686186486
4116 -5.777474435105813
4117 -5.777383870239097
4118 -5.777339708183276
4119 -5.777189987867427
4120 -5.777128847615037
4121 -5.777058859904441
4122 -5.777115537075064
4123 -5.777104546008887
4124 -5.777160257657477
4125 -5.777222266741648
4126 -5.777305487475973
4127 -5.7771721107703
4128 -5.777117080149581
4129 -5.777106334522987
4130 -5.777163101292389
4131 -5.777036530097857
4132 -5.777017605353011
4133 -5.777037151584276
4134 -5.777196977777743
4135 -5.777200027968918
4136 -5.777261045711509
4137 -5.777315036034935
4138 -5.777435492559988
4139 -5.777353615430172
4140 -5.777309917117218
4141 -5.777262753069618
4142 -5.777291560997054
4143 -5.777169770940957
4144 -5.777130800442717
4145 -5.777103032805829
4146 -5.777174835393389
4147 -5.777121680086859
4148 -5.777138589923094
4149 -5.777141776319322
4150 -5.777290358836522
4151 -5.777284894362579
4152 -5.777320756878793
4153 -5.77737058987011
4154 -5.777445221993402
4155 -5.777357214521832
4156 -5.77732126078293
4157 -5.777274318515856
4158 -5.777345878930299
4159 -5.777202365416668
4160 -5.777119581714244
4161 -5.777086663917002
4162 -5.777108210780119
4163 -5.776929423909447
4164 -5.776872735248094
4165 -5.776876686015298
4166 -5.777012352375562
4167 -5.776963641164041
4168 -5.777022870681896
4169 -5.777098518155694
4170 -5.777297560695088
4171 -5.777324236107037
4172 -5.777359783833206
4173 -5.777367179946228
4174 -5.777422837462157
4175 -5.777301216378249
4176 -5.777245029964392
4177 -5.777193193031091
4178 -5.777270300662076
4179 -5.777160990439532
4180 -5.777178226679224
4181 -5.777187770846296
4182 -5.777278350298385
4183 -5.777211929749251
4184 -5.777229375080796
4185 -5.777243710755007
4186 -5.777327712082554
4187 -5.777199711641547
4188 -5.777131568357601
4189 -5.777105801647981
4190 -5.777177919646925
4191 -5.777110407760838
4192 -5.777146859028842
4193 -5.777258414381579
4194 -5.777465325898138
4195 -5.777498111446064
4196 -5.777514184649617
4197 -5.777519433268853
4198 -5.777580408336055
4199 -5.777432237227621
4200 -5.777301501308017
4201 -5.777195782650216
4202 -5.77721751785098
4203 -5.777150026343383
4204 -5.777186308544441
4205 -5.777213988813128
4206 -5.777316717449581
4207 -5.77728793644054
4208 -5.777311093793857
4209 -5.777340853068462
4210 -5.777443409792478
4211 -5.777360448041837
4212 -5.777350405669408
4213 -5.777289854098798
4214 -5.77734139710916
4215 -5.777185607051879
4216 -5.777158385189423
4217 -5.777090137247629
4218 -5.77714119870754
4219 -5.77702370880189
4220 -5.77699780362858
4221 -5.777021565960073
4222 -5.777132433294134
4223 -5.777095365591475
4224 -5.777164198866698
4225 -5.777296094103977
4226 -5.777513080897282
4227 -5.777559291176487
4228 -5.777665728974682
4229 -5.777717176032492
4230 -5.777826339088057
4231 -5.777678599811254
4232 -5.777531360580861
4233 -5.777356866946127
4234 -5.777282069792872
4235 -5.777025447935679
4236 -5.776899770228568
4237 -5.776847407293304
4238 -5.776919122395327
4239 -5.776900457104698
4240 -5.777037229112125
4241 -5.777211926290681
4242 -5.777471530399315
4243 -5.777559788741459
4244 -5.777656512296733
4245 -5.77772556709718
4246 -5.777821812082586
4247 -5.777605079332178
4248 -5.777489114345402
4249 -5.777265192998405
4250 -5.777161792306748
4251 -5.776949334514205
4252 -5.776897738351114
4253 -5.7769293717817
4254 -5.777091465031137
4255 -5.777056086166473
4256 -5.777071673225548
4257 -5.77716452670859
4258 -5.777368244673291
4259 -5.7773682169632
4260 -5.777433216915382
4261 -5.777511068529365
4262 -5.777621768750482
4263 -5.777540737434804
4264 -5.77748165157149
4265 -5.777384042035599
4266 -5.777435225874489
4267 -5.7772750059787
4268 -5.777172964296414
4269 -5.777083851086423
4270 -5.777110525373946
4271 -5.777014620778802
4272 -5.776993585902214
4273 -5.777001823101538
4274 -5.777164817032538
4275 -5.777226607461601
4276 -5.777397393856048
4277 -5.777505139864037
4278 -5.7776365104032
4279 -5.777593079542363
4280 -5.777606398865525
4281 -5.777568993373492
4282 -5.777556480837083
4283 -5.777306848512731
4284 -5.777196263415071
4285 -5.776997698857414
4286 -5.776897374858208
4287 -5.776718335204059
4288 -5.776663717854055
4289 -5.776694079234984
4290 -5.77685013769943
4291 -5.776825970451179
4292 -5.776863222372173
4293 -5.776981347515017
4294 -5.777202348168409
4295 -5.777183744891537
4296 -5.777260152291105
4297 -5.777317643685376
4298 -5.77744384699068
4299 -5.777386039955624
4300 -5.777395321579026
4301 -5.777369415422114
4302 -5.777450975154887
4303 -5.777343382958652
4304 -5.777313930164965
4305 -5.777252043803348
4306 -5.777254137033804
4307 -5.777075194249229
4308 -5.777041121776148
4309 -5.77704421970344
4310 -5.777154747957749
4311 -5.777141315179295
4312 -5.777173761540798
4313 -5.777186882861834
4314 -5.7772596182902
4315 -5.77721196450589
4316 -5.777221311233384
4317 -5.777225941902584
4318 -5.777344921185274
4319 -5.777269208688248
4320 -5.777264806148289
4321 -5.77730957914786
4322 -5.77744922276368
4323 -5.777342594189649
4324 -5.777314820785702
4325 -5.777305801441103
4326 -5.777394408509386
4327 -5.777318191843376
4328 -5.777258366233172
4329 -5.777207545866092
4330 -5.777301855375135
4331 -5.777208443911429
4332 -5.777227725824339
4333 -5.777317735969864
4334 -5.777449489453118
4335 -5.777394477081297
4336 -5.777422046457226
4337 -5.777446869075863
4338 -5.777562766058274
4339 -5.777451408325322
4340 -5.777392943232897
4341 -5.777348195905405
4342 -5.777395637848134
4343 -5.777265017283026
4344 -5.777237611262048
4345 -5.777221988722942
4346 -5.777318918786876
4347 -5.777265444505966
4348 -5.777338452021028
4349 -5.77735956254838
4350 -5.777456510915062
4351 -5.777387896587141
4352 -5.777363602763556
4353 -5.777370413242026
4354 -5.777487735090249
4355 -5.777444377585679
4356 -5.777503176507972
4357 -5.777566483209942
4358 -5.777672885622713
4359 -5.777591854507034
4360 -5.777547709798986
4361 -5.777454519509809
4362 -5.777475497663363
4363 -5.777338358448644
4364 -5.777276018915789
4365 -5.777212758126047
4366 -5.777302469822057
4367 -5.777266632669856
4368 -5.777330105544626
4369 -5.777361329445682
4370 -5.777491042443547
4371 -5.777429828828814
4372 -5.77744450517296
4373 -5.777432058387702
4374 -5.777511052222607
4375 -5.777369946137969
4376 -5.777330159277391
4377 -5.777217578429353
4378 -5.777188016590713
4379 -5.777014001406764
4380 -5.77690483723056
4381 -5.776830171820421
4382 -5.776889243693244
4383 -5.776754116451809
4384 -5.776729728488247
4385 -5.776714349656613
4386 -5.776807468203411
4387 -5.776735326706528
4388 -5.776778858475672
4389 -5.77690941893327
4390 -5.777125571587163
4391 -5.777141752266941
4392 -5.777207978953099
4393 -5.777290199913571
4394 -5.777489158781989
4395 -5.777393975101829
4396 -5.777379762682929
4397 -5.777393262025005
4398 -5.77748037497034
4399 -5.777325592222398
4400 -5.777218182978004
4401 -5.777200548691973
4402 -5.777291798349631
4403 -5.777274663412298
4404 -5.777339409895852
4405 -5.777371598618082
4406 -5.777459414344812
4407 -5.777443623966559
4408 -5.777464316053915
4409 -5.777375175393738
4410 -5.777381739849344
4411 -5.777338890055838
4412 -5.777382507537527
4413 -5.777345625869062
4414 -5.777377356999514
4415 -5.777279597627022
4416 -5.777279789049315
4417 -5.77717345166013
4418 -5.77714337290884
4419 -5.777040590393409
4420 -5.777069555928417
4421 -5.77703989446447
4422 -5.777104868599108
4423 -5.777088642860574
4424 -5.777177537053051
4425 -5.777215504538332
4426 -5.777365532650308
4427 -5.777377763639135
4428 -5.777487963044309
4429 -5.777516778486246
4430 -5.777582811342734
4431 -5.777491773300808
4432 -5.777450338571204
4433 -5.777285991521198
4434 -5.777211084961457
4435 -5.777043089356802
4436 -5.776964458441952
4437 -5.776917398285874
4438 -5.777023331339201
4439 -5.777098937199572
4440 -5.777321787269023
4441 -5.777499034129619
4442 -5.777693365888472
4443 -5.777739671605416
4444 -5.777793157292345
4445 -5.777698645236609
4446 -5.777596892403302
4447 -5.777379767366317
4448 -5.777178810916114
4449 -5.777043915063298
4450 -5.776963838726325
4451 -5.776841348137239
4452 -5.776806548153293
4453 -5.776847889761632
4454 -5.77697498235545
4455 -5.777012236169973
4456 -5.777177420044784
4457 -5.777214525298836
4458 -5.777289916292558
4459 -5.777297830479544
4460 -5.77735142703837
4461 -5.777370356472924
4462 -5.777445915570826
4463 -5.777410036215213
4464 -5.777407818237722
4465 -5.777334984458172
4466 -5.777292071443932
4467 -5.777178168370393
4468 -5.777138792067515
4469 -5.777068609274362
4470 -5.777137340654873
4471 -5.77714793209536
4472 -5.777231802444518
4473 -5.777234386217468
4474 -5.777373461973284
4475 -5.777325817565208
4476 -5.777383820552469
4477 -5.77740297197122
4478 -5.777483347763056
4479 -5.777405937518411
4480 -5.77742317770236
4481 -5.777273068246632
4482 -5.77716308758471
4483 -5.777047445617614
4484 -5.776926850365389
4485 -5.776879318932445
4486 -5.777009071517179
4487 -5.777054077762414
4488 -5.77714357523962
4489 -5.777227152423417
4490 -5.777313615946377
4491 -5.777241906911185
4492 -5.777312096109911
4493 -5.777278541444494
4494 -5.777314025251993
4495 -5.777203591714616
4496 -5.777120285560849
4497 -5.777055387536027
4498 -5.777115101206216
4499 -5.777087969595971
4500 -5.777084593854863
4501 -5.777050619875289
4502 -5.777098759560417
4503 -5.777043240631248
4504 -5.777055934470265
4505 -5.777041513668005
4506 -5.777143290347398
4507 -5.777112464212848
4508 -5.777171513641693
4509 -5.777149749834109
4510 -5.777270896133704
4511 -5.777245915091846
