"y-rfile"
"Iteration" "y"
("Iteration" "y")
1 1915.372722165994
2 1872.788168395731
3 1635.398639047071
4 1455.300966749083
5 1216.078060492116
6 1064.806735858919
7 861.330114971664
8 714.7556864787882
9 565.5302541039737
10 442.3441652856359
11 329.8736299029123
12 246.1571595202891
13 183.1905389555862
14 149.3445538950346
15 139.0586369733176
16 145.6526247952044
17 162.6170845103996
18 187.357465637088
19 216.6112435082216
20 244.9035594180361
21 277.1699919594345
22 303.5923791758374
23 327.899263755218
24 349.9328245727446
25 368.9674709605389
26 384.8388179748301
27 399.3338936596531
28 410.3224240185357
29 418.5250404989998
30 425.0761323637931
31 429.5321062944063
32 432.1700623614107
33 433.8308141729032
34 434.8817673544918
35 435.5757390394659
36 436.0840823118025
37 436.597041783979
38 437.1887339673108
39 437.8110765435612
40 438.6254573181077
41 439.4746003018348
42 440.5110555329544
43 441.706643480903
44 443.0029812312785
45 444.8185231762948
46 446.310294587981
47 448.1648074497219
48 449.5997664957363
49 451.0755671415354
50 452.3779993253638
51 453.5509228745605
52 454.5866316942972
53 455.5465586564446
54 456.3356147350673
55 457.114920890312
56 457.8750849867064
57 458.5492320999288
58 459.1558723038278
59 459.8185617354202
60 460.3997453125476
61 461.0323508776002
62 461.5581905428913
63 462.337492410836
64 463.0989530701358
65 463.845951416686
66 464.5638760934075
67 465.3737932490315
68 466.0639777606756
69 466.6494314774899
70 467.1315423422558
71 467.5274944298491
72 467.8970001538224
73 468.1407368246386
74 468.3356438015857
75 468.4790373833586
76 468.5965482080355
77 468.6833860153561
78 468.7847076993602
79 468.8557692647967
80 468.9398729254682
81 469.0150544521009
82 469.1366717039445
83 469.2379623709919
84 469.3618295458752
85 469.4983131595002
86 469.6366594594899
87 469.778541301154
88 469.9104913848934
89 470.0363342670106
90 470.1503849312726
91 470.2562029735073
92 470.3466840571252
93 470.4210085442609
94 470.4776074729772
95 470.515522331187
96 470.519548774113
97 470.5102648739627
98 470.4711645300104
99 470.42221083277
100 470.3638132951492
101 470.2921328106392
102 470.2064614257768
103 470.1105457008984
104 470.0033099577947
105 469.8979249661015
106 469.7866882152391
107 469.6763884810882
108 469.5674685302647
109 469.4936709784316
110 469.3859667965303
111 469.3213583832557
112 469.2511172118429
113 469.1504042149323
114 469.0869101214518
115 469.024515862494
116 468.932274284797
117 468.8702291644128
118 468.8063737853968
119 468.7088746749066
120 468.642662670172
121 468.5395889498208
122 468.4696121384288
123 468.3617356158144
124 468.2879141287506
125 468.1768846588823
126 468.1023620642844
127 468.0311419042488
128 467.9162274487961
129 467.8395902911143
130 467.7675070596673
131 467.6956051137136
132 467.6281656024992
133 467.5605818944443
134 467.4958916927104
135 467.437798726635
136 467.3786052212686
137 467.3241327512648
138 467.2727872543169
139 467.2245817975555
140 467.1813636683628
141 467.1440501491894
142 467.1083245394764
143 467.0792469568686
144 467.0537679683336
145 467.0332615641094
146 467.0172431300988
147 467.0058837837974
148 466.9989702861614
149 466.9960208622642
150 466.9955760595493
151 467.0013587411565
152 467.010950244608
153 467.0229538438343
154 467.0389606109664
155 467.0659693945889
156 467.0888348429876
157 467.1137738318923
158 467.1424863387305
159 467.1890015914235
160 467.2212114447918
161 467.2581397111119
162 467.2972990311372
163 467.3434115520238
164 467.392248434358
165 467.4457133314424
166 467.5013186600863
167 467.5639479937863
168 467.631287717309
169 467.7079587011681
170 467.7903825847281
171 467.8783034058617
172 467.9708776971162
173 468.0734400665671
174 468.1812011503453
175 468.2977427370809
176 468.4173841774619
177 468.5452145766388
178 468.6793161602175
179 468.8194851356467
180 468.9667146271617
181 469.1197660258574
182 469.2765586987726
183 469.4404511707592
184 469.6093621033154
185 469.7867538540517
186 469.9705062593481
187 470.1589718077365
188 470.3526081842348
189 470.5513984004266
190 470.7564048198159
191 471.0631067860735
192 471.2674812271079
193 471.4781248099291
194 471.7940614882692
195 472.00058603567
196 472.3105724040113
197 472.518416149133
198 472.8290679633456
199 473.0320019310325
200 473.3368827896832
201 473.6369945614533
202 473.9295234450242
203 474.2127486834041
204 474.4925577850264
205 474.7680650184899
206 475.0339384994159
207 475.2935537445891
208 475.5465052204643
209 475.7964892311558
210 476.0399877307658
211 476.2794051592547
212 476.5140905020221
213 476.744077804903
214 476.9682005933582
215 477.1892637888381
216 477.4038572403076
217 477.6155607078722
218 477.8230978689793
219 478.0271357430788
220 478.22503678924
221 478.4156613238927
222 478.6001839124893
223 478.7787844951741
224 478.9496460331829
225 479.1172541520187
226 479.2785270116409
227 479.4356637231145
228 479.5851743324005
229 479.7287379168642
230 479.8656863886102
231 479.9967833555511
232 480.1212573072164
233 480.2415492348053
234 480.3559657004711
235 480.4668550279937
236 480.5381999236685
237 480.6444081360302
238 480.7460357899892
239 480.8120911502918
240 480.9098929317914
241 481.0044173577218
242 481.0655317368233
243 481.1567191839128
244 481.2155508320073
245 481.3033057676212
246 481.360222706968
247 481.4448043584327
248 481.498832012633
249 481.5787204348825
250 481.6294244937405
251 481.7040234874379
252 481.7512656599159
253 481.8206371220181
254 481.8649209991501
255 481.9097900648596
256 481.9532548823573
257 482.0162387764797
258 482.0557256955411
259 482.0953979631138
260 482.1346688106812
261 482.1738720763017
262 482.2122259389458
263 482.2505162961212
264 482.2883046935939
265 482.3257081433224
266 482.3622631605816
267 482.3982448409347
268 482.4322831045695
269 482.4657976324434
270 482.4983471062992
271 482.530082979975
272 482.5603568151706
273 482.5899936878331
274 482.6181338416175
275 482.6458758011106
276 482.6713057407104
277 482.6962424567996
278 482.719650456311
279 482.7425894553976
280 482.7644869953793
281 482.7857923594914
282 482.8058086463981
283 482.8253311013256
284 482.8437457313213
285 482.8619680772085
286 482.879082173997
287 482.8958632798318
288 482.9119209917932
289 482.9275854794436
290 482.9424673175695
291 482.9571166775576
292 482.9709536056014
293 482.9846802893474
294 482.9977462685375
295 483.0107757082905
296 483.0231762918153
297 483.0356770316235
298 483.0476714662243
299 483.0599336102518
300 483.0718342477419
301 483.0841021796025
302 483.096061703366
303 483.1083552717126
304 483.1196388301627
305 483.1311429211132
306 483.1421059469491
307 483.1531671104305
308 483.1634866269014
309 483.1738946644634
310 483.1837730660536
311 483.1939089995411
312 483.2034963549506
313 483.2131553556814
314 483.2220029098665
315 483.2313009228278
316 483.2399729143916
317 483.2489647292875
318 483.2574665730425
319 483.2663504834998
320 483.2746368348284
321 483.2830523040423
322 483.2909048217862
323 483.2990041030492
324 483.3067062659883
325 483.3146643575795
326 483.322345761175
327 483.3305163194881
328 483.3380398318579
329 483.3459427754588
330 483.3534177366031
331 483.3612391538799
332 483.3685008815905
333 483.3763210801371
334 483.3836455727441
335 483.391410539801
336 483.398823571032
337 483.4066328514153
338 483.4141057142883
339 483.422105007142
340 483.4298066853822
341 483.4380397689166
342 483.4459635706005
343 483.4543966718394
344 483.4626292901916
345 483.4715002590007
346 483.4800842892813
347 483.4891500867014
348 483.4979828296499
349 483.5072603712209
350 483.5163263017082
351 483.5258232590507
352 483.5350764383793
353 483.5447664192794
354 483.5543148374258
355 483.5642905064225
356 483.5741424834601
357 483.5845072947045
358 483.5948144469908
359 483.6056567485959
360 483.6163561230297
361 483.6275547451391
362 483.6385980040168
363 483.6503315214727
364 483.6618579297908
365 483.6738970970921
366 483.6857075234128
367 483.6978796918331
368 483.709831115311
369 483.7223195950656
370 483.73455636809
371 483.7473498635298
372 483.7601127053211
373 483.7734469454729
374 483.7866854717958
375 483.8005475244451
376 483.8142750756931
377 483.828567709847
378 483.8426654858796
379 483.8573650384557
380 483.8719321045671
381 483.8870551121915
382 483.9020036514318
383 483.9174127983624
384 483.9326200985747
385 483.9483935840296
386 483.9640517396738
387 483.9802839333894
388 483.996364125697
389 484.0131774783603
390 484.029878622518
391 484.047088150173
392 484.0642044980907
393 484.0819913569802
394 484.0996201125921
395 484.1178503286877
396 484.1359564649235
397 484.1546388559179
398 484.1731864559258
399 484.1924246312453
400 484.2114724602349
401 484.2403023383806
402 484.2588310466992
403 484.2779630878135
404 484.3061015002863
405 484.324615530313
406 484.3429543727156
407 484.3704739588703
408 484.3882194094864
409 484.4150366112777
410 484.4323464454838
411 484.4588514211866
412 484.4760089333977
413 484.5025139460345
414 484.5197529328095
415 484.5462896530054
416 484.5634583073911
417 484.5901582129247
418 484.6157912163608
419 484.6414354374386
420 484.6660799605207
421 484.690735448192
422 484.7146687600573
423 484.7311576402693
424 484.7558295689561
425 484.7809439599712
426 484.8055645587867
427 484.8304593752915
428 484.8548948290148
429 484.8798133462616
430 484.9044205945405
431 484.9296197032106
432 484.9545157948351
433 484.9799338707537
434 485.0051884442551
435 485.0309046326324
436 485.0562354742526
437 485.0822703627226
438 485.1080297302805
439 485.1342738092541
440 485.1602709873973
441 485.186732179984
442 485.2130121856152
443 485.2398817596366
444 485.2666086651786
445 485.2937074969167
446 485.3206546606675
447 485.3480478317076
448 485.3752270664702
449 485.4029230469023
450 485.4302439478266
451 485.4579554097256
452 485.485331871532
453 485.5129422005077
454 485.5401235425522
455 485.5676080185108
456 485.5946738390205
457 485.6221011116419
458 485.6489471680912
459 485.6762265134413
460 485.7028896925355
461 485.7300326606998
462 485.7567656754267
463 485.784007062345
464 485.8109643503639
465 485.8383518883305
466 485.8654004799008
467 485.8929214999588
468 485.9201307839006
469 485.9477200194857
470 485.9748501411551
471 486.0022970188496
472 486.0292839711207
473 486.0565476524746
474 486.0833484311967
475 486.11057382436
476 486.1372693841072
477 486.1644555905919
478 486.1910254215981
479 486.2180672345806
480 486.2446438496672
481 486.2717275748605
482 486.2983077999152
483 486.3252214810256
484 486.3517231345849
485 486.3785532657882
486 486.4048663965208
487 486.4314864706315
488 486.4575311077136
489 486.4838381393456
490 486.5096420522172
491 486.5357495529514
492 486.5611797533014
493 486.5870680200738
494 486.6124339442426
495 486.6379073228377
496 486.6630181030436
497 486.6885573435045
498 486.7135410527309
499 486.7389250745207
500 486.763713847699
501 486.7888543444768
502 486.8135099443418
503 486.8385293405365
504 486.8630407511901
505 486.8877991471803
506 486.9121118467065
507 486.9367440154767
508 486.9607672212464
509 486.9851470952531
510 487.0089130908297
511 487.0330166099797
512 487.0566572208605
513 487.0805279523972
514 487.1038751612703
515 487.1276020772132
516 487.1507383690823
517 487.1742954299316
518 487.1972100056441
519 487.2204396436231
520 487.2430410906681
521 487.266094815155
522 487.2886048638325
523 487.3113906515326
524 487.3336363288748
525 487.3564214668997
526 487.3785170804387
527 487.4010866692738
528 487.4228610885575
529 487.4450383177986
530 487.4666223001464
531 487.4884962151835
532 487.5097477387846
533 487.5312594567707
534 487.5521793725885
535 487.5733728138097
536 487.593980823539
537 487.6150086954406
538 487.6354226756545
539 487.6561969992306
540 487.6763796107073
541 487.6969187952442
542 487.7168170355198
543 487.7372081294367
544 487.7568910668128
545 487.7770598466392
546 487.7966242751482
547 487.8165120282972
548 487.835845038144
549 487.8554599929045
550 487.8745168109847
551 487.893790384236
552 487.9125568035502
553 487.9317348702057
554 487.950407818899
555 487.9694287711451
556 487.9879306045717
557 488.0066967065842
558 488.0248775784548
559 488.0433432508365
560 488.0611976583398
561 488.0792656696499
562 488.0967643448443
563 488.1145064368459
564 488.1317752868962
565 488.1493268839216
566 488.1662938269012
567 488.1836295786359
568 488.2005051795609
569 488.2177704626272
570 488.2345511249147
571 488.2517307746225
572 488.2684498304736
573 488.2854461250035
574 488.3019967608661
575 488.3186877946729
576 488.3348635766046
577 488.3512665715041
578 488.3670818163815
579 488.3829694357894
580 488.3982949767696
581 488.4138596344237
582 488.4290362327619
583 488.4445001098942
584 488.4595271236164
585 488.4748987453036
586 488.4898833639867
587 488.5052035494455
588 488.5199498914934
589 488.5349293318594
590 488.5494259963055
591 488.5641707182349
592 488.5784650791651
593 488.5930289567224
594 488.6070870535643
595 488.6214270200584
596 488.6352889863365
597 488.6494310164606
598 488.6630370530951
599 488.6770088395375
600 488.690374713149
601 488.7040908498569
602 488.7172926047855
603 488.7308569251286
604 488.7438546237183
605 488.7572267878083
606 488.7700418950762
607 488.7831296160115
608 488.7956635346575
609 488.808439835222
610 488.8206315057017
611 488.8332059150617
612 488.8453931295974
613 488.857962302797
614 488.8701057928511
615 488.882448107608
616 488.8942498895993
617 488.9063970063638
618 488.918058662017
619 488.929962900995
620 488.9414187607703
621 488.9532108378968
622 488.9645028819622
623 488.9760870258707
624 488.9871603690573
625 488.9985754230938
626 489.009544711095
627 489.0208407059657
628 489.0316444230232
629 489.0426828953544
630 489.0533108811388
631 489.064192354788
632 489.0746877386436
633 489.0854113251706
634 489.0957751125425
635 489.1064420202318
636 489.1166450920961
637 489.1269613603513
638 489.1368185623826
639 489.1469055567543
640 489.1565577095212
641 489.1633702879077
642 489.1733382567452
643 489.1836086306673
644 489.1934907309009
645 489.2035945841911
646 489.21327991463
647 489.2232840887577
648 489.2329795893526
649 489.2428752209419
650 489.249331852257
651 489.2596459455368
652 489.2693128440396
653 489.2760427741694
654 489.2858202518442
655 489.2956560306381
656 489.304934152202
657 489.3143987094307
658 489.3233732799433
659 489.3324787280225
660 489.3410271030504
661 489.3469811670086
662 489.3556100128827
663 489.3644734711822
664 489.3729219655125
665 489.3816790298563
666 489.3900348679827
667 489.3959866391063
668 489.4045930492677
669 489.4106409899364
670 489.419270859681
671 489.4280373882281
672 489.433545519877
673 489.44236178507
674 489.4506215595616
675 489.4590134881338
676 489.4669025323546
677 489.4724800943454
678 489.4803680241229
679 489.4884054230595
680 489.4934742581967
681 489.5017066448655
682 489.5093666595827
683 489.5172476109755
684 489.5246374747114
685 489.52994757452
686 489.5374464077462
687 489.5427462050744
688 489.5502093032265
689 489.5578021342449
690 489.5648036849448
691 489.5719087011723
692 489.5784634516891
693 489.5852208687856
694 489.5914807222949
695 489.5980893695776
696 489.6042593094396
697 489.6107713367894
698 489.6148449830989
699 489.6217636327765
700 489.6281112649382
701 489.6328200746947
702 489.6393265559349
703 489.6461355116897
704 489.6504377214112
705 489.6574644972754
706 489.6637687934895
707 489.6683163263056
708 489.6746817746707
709 489.6811001193859
710 489.6869342481574
711 489.6929456787192
712 489.6986267007597
713 489.7027957810572
714 489.7087375458354
715 489.7130091559667
716 489.7190909855316
717 489.7234238116748
718 489.7294435558521
719 489.7356301850402
720 489.7395219768235
721 489.7457684641402
722 489.7515885465562
723 489.7557907205068
724 489.7616632217147
725 489.7658127762864
726 489.7715407273901
727 489.7774276220558
728 489.7828987916204
729 489.7884019320057
730 489.7934728333801
731 489.7987377366791
732 489.8019433646866
733 489.8072079280778
734 489.8103151211614
735 489.815532583889
736 489.8204009890132
737 489.8239723516005
738 489.8288421293362
739 489.8324372531331
740 489.8374793251415
741 489.8411964411591
742 489.8463413723303
743 489.8517734199397
744 489.8552150116258
745 489.8607046175317
746 489.865651768854
747 489.8691209128252
748 489.8740181888306
749 489.8789583688254
750 489.8818815053692
751 489.8867791956168
752 489.8897717343847
753 489.8947519628256
754 489.8976243354654
755 489.9023807405393
756 489.9052304172549
757 489.9099662180968
758 489.9127718874955
759 489.9176399664217
760 489.9206728025164
761 489.9256544070486
762 489.9286177211705
763 489.9335124038839
764 489.9379486946511
765 489.9410788309996
766 489.9452092881161
767 489.948152051778
768 489.9521969354499
769 489.9551295423078
770 489.9590382289506
771 489.9619958493075
772 489.9659560465839
773 489.9689936382551
774 489.9728934506812
775 489.9757824173574
776 489.9797301845065
777 489.9826709381957
778 489.9865113088314
779 489.9905750069836
780 489.9930888444282
781 489.9971737168473
782 489.9994718196412
783 490.0033926296801
784 490.0067488478045
785 490.0091837579965
786 490.0123746030274
787 490.0147182686126
788 490.0178663277035
789 490.0202123333568
790 490.0233173391676
791 490.0257287002843
792 490.0289808747323
793 490.0314027037823
794 490.0346480932898
795 490.0381836333279
796 490.0403322298703
797 490.0438813536039
798 490.0458744925204
799 490.0493201950029
800 490.0524665383204
801 490.0548200012922
802 490.0577615200133
803 490.0599237820109
804 490.0628141447541
805 490.0649399019302
806 490.0677277162657
807 490.0707382270265
808 490.0724926308744
809 490.0757792384637
810 490.0775602051741
811 490.0806530399548
812 490.0824873362857
813 490.085603381537
814 490.0873651109812
815 490.0904166594567
816 490.0922010042869
817 490.0953320526842
818 490.0980268416838
819 490.1001624322643
820 490.1029980159317
821 490.1050813084348
822 490.1076559366048
823 490.1095957735235
824 490.1122005112722
825 490.1141845571395
826 490.1165642031382
827 490.1184513610308
828 490.1208405858489
829 490.1227186952724
830 490.1250196856951
831 490.1269381962281
832 490.129406074088
833 490.1313500339181
834 490.1337382355135
835 490.1355303858161
836 490.137993318138
837 490.1398332194053
838 490.1421491323913
839 490.1438827180237
840 490.1461436285555
841 490.1478563378188
842 490.1499525051901
843 490.1516476368395
844 490.1538316954717
845 490.1555817530995
846 490.157700956516
847 490.1593900671166
848 490.1615815325183
849 490.1633812986252
850 490.1655386942228
851 490.1672825897349
852 490.169501591272
853 490.17120108258
854 490.1732221933786
855 490.1754543998445
856 490.1767099720485
857 490.1790790315358
858 490.1801422848565
859 490.1822356540472
860 490.1833508498191
861 490.1855013475636
862 490.1864767951599
863 490.1885237149031
864 490.190261860936
865 490.1916529448798
866 490.1933693930071
867 490.1949014219447
868 490.1968167156168
869 490.1984097889684
870 490.2002988159388
871 490.2018192897573
872 490.2037189373571
873 490.2057538345659
874 490.2072950649249
875 490.2089707889616
876 490.2097138867663
877 490.2113547612572
878 490.2124625135758
879 490.2135117041933
880 490.214838964711
881 490.2160817515782
882 490.2174547500558
883 490.2192063972463
884 490.2201239537082
885 490.2219265133643
886 490.2228618846396
887 490.2248169202009
888 490.2258873761841
889 490.2279236087478
890 490.2293762447867
891 490.2307067394477
892 490.2323419385737
893 490.2342144939701
894 490.234986215092
895 490.2367632980929
896 490.2382011719185
897 490.2394710347918
898 490.2406845866984
899 490.2418986469986
900 490.2432022904925
901 490.2444337701707
902 490.245711965273
903 490.2473398387967
904 490.2481598970978
905 490.249891496825
906 490.2506337318859
907 490.2522129575261
908 490.2529722633545
909 490.2547134048879
910 490.2558714194591
911 490.2573633008441
912 490.2584931773949
913 490.2594750500683
914 490.2603249719173
915 490.2612550484084
916 490.2621630041137
917 490.2631278046085
918 490.2640635119035
919 490.2653715640994
920 490.2659851365146
921 490.2675515890674
922 490.268540044691
923 490.2696252198222
924 490.2708946443949
925 490.2720589243023
926 490.2732367499839
927 490.2747987298759
928 490.2759934795562
929 490.2774415097147
930 490.2779811157044
931 490.279203701084
932 490.2796247877817
933 490.2807875577535
934 490.281089149665
935 490.282303770801
936 490.2827822878391
937 490.2841433995933
938 490.2850815780589
939 490.2860548744572
940 490.2870522984191
941 490.2880723390685
942 490.2889897152161
943 490.2899337594447
944 490.2909571125339
945 490.2919719522063
946 490.2928592691183
947 490.2940546578033
948 490.294929783844
949 490.2957448300061
950 490.2964033625524
951 490.2973154732705
952 490.297599278057
953 490.2986830138952
954 490.2993227788434
955 490.3001095678741
956 490.3009770482768
957 490.3021692614711
958 490.3024852022597
959 490.3036749565616
960 490.3041941396135
961 490.3054054810286
962 490.3058503984001
963 490.3069068997464
964 490.3073749067584
965 490.3085094124357
966 490.3091133195342
967 490.3097990261346
968 490.3104668796861
969 490.3111804240895
970 490.3116559067082
971 490.3125609486654
972 490.3132304532151
973 490.3140632525397
974 490.3148767890897
975 490.3160586189996
976 490.3165064600794
977 490.3177759413694
978 490.3182124652766
979 490.3192055094826
980 490.3195981704854
981 490.3204931400481
982 490.320653176959
983 490.3215340536764
984 490.3221124494276
985 490.3228273632956
986 490.3234349289327
987 490.3243566432116
988 490.3249571436496
989 490.3260074766073
990 490.3266878338154
991 490.32749961734
992 490.3283132864697
993 490.329494351672
994 490.3297588177538
995 490.3307158903903
996 490.3312845157504
997 490.3320449028849
998 490.3324611885351
999 490.3330821444935
1000 490.333521154346
1001 490.3341673543337
1002 490.3346102785687
1003 490.3353994646596
1004 490.3356383121066
1005 490.3365774586522
1006 490.3366970886599
1007 490.3376444110464
1008 490.3382500437552
1009 490.338942339465
1010 490.3395334233726
1011 490.340507014379
1012 490.3407688709941
1013 490.3416594367993
1014 490.3418262775255
1015 490.3425192060885
1016 490.3427231553537
1017 490.343545881121
1018 490.3439248256793
1019 490.344816719999
1020 490.3455132350858
1021 490.3465346020301
1022 490.3470485897548
1023 490.3476631164685
1024 490.3481515103013
1025 490.3489147960886
1026 490.3491372326418
1027 490.3497703789242
1028 490.3501694872461
1029 490.3507840466389
1030 490.3509914931576
1031 490.3516536353584
1032 490.3518023985993
1033 490.3525163978747
1034 490.352754945281
1035 490.3533105024051
1036 490.3536566567519
1037 490.3543462313323
1038 490.3545768082433
1039 490.3550338787855
1040 490.3552648358126
1041 490.3558133477296
1042 490.3558279700793
1043 490.3562376072641
1044 490.3563914519258
1045 490.3569904351842
1046 490.3573801211726
1047 490.3582138841209
1048 490.3585642629746
1049 490.3592187432093
1050 490.3594798247728
1051 490.3600447707047
1052 490.3601176779152
1053 490.3606840691751
1054 490.3607684029756
1055 490.3612605359938
1056 490.3616758596216
1057 490.3622195261575
1058 490.3622901557581
1059 490.3626996575592
1060 490.3628223229534
1061 490.3632296595638
1062 490.3632910783628
1063 490.3638388934397
1064 490.3641334846919
1065 490.3648975250664
1066 490.3651911549147
1067 490.3659882875676
1068 490.3664425139262
1069 490.3671209623106
1070 490.3675162638767
1071 490.3681019628065
1072 490.368272078152
1073 490.3687780802841
1074 490.3688675509515
1075 490.3692624139372
1076 490.3691886668482
1077 490.3696430158216
1078 490.3697226069677
1079 490.3701229785455
1080 490.3702807534294
1081 490.3708111989619
1082 490.3710144984179
1083 490.3716773974363
1084 490.3719827030953
1085 490.3726739047364
1086 490.3727650306043
1087 490.3731865258767
1088 490.3731673718682
1089 490.373588640563
1090 490.3735045059818
1091 490.3738512195325
1092 490.3740046293184
1093 490.3745045672181
1094 490.3744770657602
1095 490.3747975119174
1096 490.3748801517907
1097 490.3753957165218
1098 490.375372988302
1099 490.3757977785834
1100 490.375836377891
1101 490.3765547905101
1102 490.3768018996827
1103 490.3775026138094
1104 490.3777128299557
1105 490.3785354192147
1106 490.3785833663712
1107 490.3791985569895
1108 490.3793923076985
1109 490.3798376487663
1110 490.3798031268193
1111 490.3801563532884
1112 490.3801606389653
1113 490.3804259712272
1114 490.380319883056
1115 490.3806674129584
1116 490.3807225225244
1117 490.3810777288132
1118 490.3811159132865
1119 490.3816840156846
1120 490.3819742936209
1121 490.3826251559516
1122 490.3827715278334
1123 490.3832801865643
1124 490.3833273565871
1125 490.3839058209603
1126 490.3839134055908
1127 490.3843081874696
1128 490.3843747416249
1129 490.3847780306357
1130 490.3846387497916
1131 490.3847778933888
1132 490.3846093902385
1133 490.3848448733884
1134 490.3846659454411
1135 490.3848576227182
1136 490.3847113555243
1137 490.385243298495
1138 490.3854703186512
1139 490.3860158072952
1140 490.3864020323496
1141 490.3871474349094
1142 490.3872192675939
1143 490.3878233531225
1144 490.3877733797242
1145 490.3882548138415
1146 490.3881327494004
1147 490.3884269855553
1148 490.3884816751506
1149 490.3888357006426
1150 490.3887397764116
1151 490.389106115884
1152 490.3890532749612
1153 490.3895301777669
1154 490.389490575822
1155 490.3899328362692
1156 490.3900561928778
1157 490.3904857474651
1158 490.390532863825
1159 490.3909673349468
1160 490.391046783409
1161 490.3914421860813
1162 490.3913920291386
1163 490.3917416106216
1164 490.3916067887592
1165 490.3918922484162
1166 490.3915936141412
1167 490.391694115242
1168 490.3915641157822
1169 490.3918388285082
1170 490.3917196988447
1171 490.3920272991427
1172 490.3921486759658
1173 490.3925931718012
1174 490.3926902679265
1175 490.3932033550773
1176 490.3932090249342
1177 490.3936773720256
1178 490.3935816796866
1179 490.3938289303221
1180 490.3937624943964
1181 490.3939333958265
1182 490.3936063154779
1183 490.3937366436834
1184 490.3936799271395
1185 490.3941138428546
1186 490.3940875398462
1187 490.394504261148
1188 490.3946140325961
1189 490.3951062128403
1190 490.3951548008416
1191 490.3955094832825
1192 490.3955958653862
1193 490.3959847641651
1194 490.3958221606793
1195 490.3962155847534
1196 490.3963035853482
1197 490.3968212328791
1198 490.3968490752816
1199 490.3972279969154
1200 490.3971457711611
1201 490.3975248248846
1202 490.3973911742664
1203 490.3975708472584
1204 490.3974368437746
1205 490.3976492142431
1206 490.3974248599076
1207 490.3976341627442
1208 490.3975419212612
1209 490.39775085327
1210 490.3975627069764
1211 490.3978394628713
1212 490.3978290843664
1213 490.3982072326526
1214 490.3981654214234
1215 490.3985838762308
1216 490.398633846985
1217 490.3990094864649
1218 490.3988228124332
1219 490.3990639227733
1220 490.3991290637997
1221 490.3994679533611
1222 490.3992773349804
1223 490.3994826618363
1224 490.3993582096822
1225 490.3995985720417
1226 490.3993216003303
1227 490.3996754913424
1228 490.3996824139641
1229 490.4000547318621
1230 490.4001743377333
1231 490.4007466063143
1232 490.4009343168718
1233 490.4014560567202
1234 490.4015131081013
1235 490.4019618781619
1236 490.402006658011
1237 490.4023401232712
1238 490.4021745658008
1239 490.402204202006
1240 490.4018382788904
1241 490.4017759538003
1242 490.4013276722321
1243 490.4013681209474
1244 490.401233458681
1245 490.4015271453841
1246 490.4013940738723
1247 490.4017373038228
1248 490.4018221726984
1249 490.4023917992052
1250 490.4025193523902
1251 490.4031014652715
1252 490.403267920744
1253 490.4037782503145
1254 490.4036820568242
1255 490.4038914359161
1256 490.4037944415319
1257 490.4039990983883
1258 490.4037039773797
1259 490.4037627326464
1260 490.403503097242
1261 490.4035434842994
1262 490.4031598225529
1263 490.4033068976846
1264 490.4031689400351
1265 490.4035003567401
1266 490.4036285629984
1267 490.4042297039751
1268 490.4044836181882
1269 490.4050916863549
1270 490.4050794084499
1271 490.4055687785816
1272 490.4055055376845
1273 490.4058044570805
1274 490.4055969143047
1275 490.4057206543277
1276 490.4054451406084
1277 490.4055623495002
1278 490.4051474987839
1279 490.4050810122428
1280 490.404780300219
1281 490.4050169012809
1282 490.4047559461775
1283 490.4049882611037
1284 490.4050172658758
1285 490.405476660888
1286 490.4054253163438
1287 490.4058231220083
1288 490.4058309466668
1289 490.4062592789877
1290 490.4061463781265
1291 490.4063867287381
1292 490.4062660278192
1293 490.4065666616328
1294 490.4063504347023
1295 490.4065018101477
1296 490.4063526477378
1297 490.4065175722912
1298 490.4062515891093
1299 490.4063412261646
1300 490.4061024982303
1301 490.4062607670841
1302 490.4061054328079
1303 490.4063933463717
1304 490.4063761908783
1305 490.4067823405578
1306 490.4067235266633
1307 490.4071849390099
1308 490.4072916457431
1309 490.4076932276415
1310 490.4075605804733
1311 490.4078026634754
1312 490.4077620463487
1313 490.4080380767351
1314 490.4077835776335
1315 490.4078901660444
1316 490.4076424408256
1317 490.4076434918468
1318 490.4071657805313
1319 490.4072007291768
1320 490.4069991310589
1321 490.4072311047036
1322 490.4070908353227
1323 490.4075149982385
1324 490.4077240165574
1325 490.4083422725776
1326 490.4085351178986
1327 490.4089837338653
1328 490.4089392164959
1329 490.4093783253435
1330 490.4091097290662
1331 490.4091681351742
1332 490.4087956915722
1333 490.4088049885973
1334 490.4082286522502
1335 490.4081551862518
1336 490.4076791926049
1337 490.4077434426251
1338 490.4074418051491
1339 490.4076678977713
1340 490.4076456117439
1341 490.4081045236603
1342 490.4081835304643
1343 490.408725138571
1344 490.4087343040693
1345 490.4092877670914
1346 490.4092282790872
1347 490.4095800424375
1348 490.4095563141971
1349 490.4098749207063
1350 490.4095853251357
1351 490.4096217496234
1352 490.4093183935549
1353 490.4093982998812
1354 490.4089835474027
1355 490.4090680641356
1356 490.4088692902548
1357 490.4092259489022
1358 490.4091176755953
1359 490.4094831961903
1360 490.4096287407307
1361 490.4101372637162
1362 490.4102384455962
1363 490.4106142898859
1364 490.4105504134986
1365 490.4109281863794
1366 490.4107537190334
1367 490.4109108519842
1368 490.4106680834703
1369 490.4107771336334
1370 490.4102832814079
1371 490.4102369695219
1372 490.4099699395152
1373 490.4101637321622
1374 490.4100471523467
1375 490.4103782450608
1376 490.410471112052
1377 490.4109085827149
1378 490.4108271473755
1379 490.4113565569142
1380 490.4115409394831
1381 490.4120265863315
1382 490.4119473393738
1383 490.4121890312891
1384 490.4119843725899
1385 490.4122553293273
1386 490.4118436574741
1387 490.4117496669527
1388 490.4113759238133
1389 490.411435050179
1390 490.4110017838003
1391 490.4110385390387
1392 490.4109085778145
1393 490.4111954583075
1394 490.4112489453563
1395 490.4116750609435
1396 490.4119105753747
1397 490.41258909122
1398 490.412687483492
1399 490.4130421158568
1400 490.4128848310962
1401 490.4129868327174
1402 490.4124946106571
1403 490.4124518495761
1404 490.4120137913575
1405 490.4119395923265
1406 490.4114218045247
1407 490.4113553806944
1408 490.4110763036407
1409 490.411301114073
1410 490.4111990557773
1411 490.411546472334
1412 490.4117192353754
1413 490.4122690801782
1414 490.4121961002497
1415 490.4125403945208
1416 490.4126039392918
1417 490.4129137388655
1418 490.4126031305581
1419 490.4126543524478
1420 490.4123216684533
1421 490.4124560598844
1422 490.4120436895843
1423 490.4121285158025
1424 490.4119603391941
1425 490.4122136052598
1426 490.4119363452975
1427 490.4119731701645
1428 490.4117301286959
1429 490.4119431760984
1430 490.4117120367911
1431 490.4119544732129
1432 490.4118702721419
1433 490.4123357141591
1434 490.4122623971169
1435 490.4124878857499
1436 490.4123209049801
1437 490.4125116140742
1438 490.4122179739574
1439 490.4123017435589
1440 490.4121036572233
1441 490.4123077843619
1442 490.4121843298537
1443 490.4124657320181
1444 490.4123886431009
1445 490.4126858885359
1446 490.4125004505632
1447 490.4127730665571
1448 490.4127472987603
1449 490.4130526142747
1450 490.4128325066451
1451 490.4131368754433
1452 490.4131419992437
1453 490.4135530498932
1454 490.4134219263139
1455 490.4136508829441
1456 490.4133838420482
1457 490.4134973985693
1458 490.413117421637
1459 490.4130846411687
1460 490.412757998004
1461 490.4128933702883
1462 490.4124768716194
1463 490.4124409851037
1464 490.4120978700221
1465 490.4121836381865
1466 490.4119682179745
1467 490.4122508235233
1468 490.4122505892729
1469 490.4128008499333
1470 490.4129326794247
1471 490.4134942844127
1472 490.4136058596332
1473 490.4140180862581
1474 490.4138827060688
1475 490.4140814146108
1476 490.4138331032995
1477 490.4139357825628
1478 490.4135192467385
1479 490.4134519675305
1480 490.4131608647164
1481 490.4133070230058
1482 490.4129572181337
1483 490.4130102827106
1484 490.4128174587843
1485 490.4130937377596
1486 490.4128531509189
1487 490.4132939447798
1488 490.4134176905886
1489 490.4139241311972
1490 490.4140719142131
1491 490.4144981360209
1492 490.4143266670694
1493 490.4145950719177
1494 490.4143681923198
1495 490.4144382624104
1496 490.4141206193997
1497 490.4141203497796
1498 490.4136586057489
1499 490.4137166537157
1500 490.4133843668736
1501 490.413465636884
1502 490.4131694836604
1503 490.4133958446325
1504 490.4133426282054
1505 490.4136348507563
1506 490.4134601496103
1507 490.4137207325892
1508 490.4136157489916
1509 490.4139150341588
1510 490.4136078294241
1511 490.4138006975807
1512 490.4135556558675
1513 490.4137333224664
1514 490.4133006549929
1515 490.4134224619918
1516 490.4131509841089
1517 490.4133371146028
1518 490.4130869555121
1519 490.4132320593104
1520 490.4132767650773
1521 490.4136910987558
1522 490.413635128771
1523 490.4140140835884
1524 490.4139818552292
1525 490.4146207857993
1526 490.4146528682273
1527 490.4150653756456
1528 490.4150195331439
1529 490.4153887041981
1530 490.4151322746199
1531 490.4151910277058
1532 490.4148693656362
1533 490.4149094560222
1534 490.4144495473825
1535 490.4143116944733
1536 490.4139488580265
1537 490.4139932915638
1538 490.4137378402254
1539 490.4139702161499
1540 490.4139704752846
1541 490.4143685828638
1542 490.4142776927051
1543 490.4145451629132
1544 490.4144830296527
1545 490.4148562085498
1546 490.4146090696326
1547 490.4148656666648
1548 490.4148193378373
1549 490.4152378986329
1550 490.4150701792028
1551 490.4152477523294
1552 490.4149752928142
1553 490.4150482291107
1554 490.4146510455598
1555 490.4146279417513
1556 490.4143757365584
1557 490.4144802469793
1558 490.4142062389175
1559 490.414383665386
1560 490.4142889129331
1561 490.4146224063173
1562 490.4145914238514
1563 490.4150096774827
1564 490.41504111167
1565 490.415477600743
1566 490.4153090344886
1567 490.41546090061
1568 490.4151642359308
1569 490.4151860659636
1570 490.4146899108244
1571 490.4146394139218
1572 490.4143501528898
1573 490.4145251590878
1574 490.4143394538218
1575 490.4146138213229
1576 490.4146223728651
1577 490.4149899856795
1578 490.4146890206444
1579 490.4148279131012
1580 490.4145640847169
1581 490.4146564308356
1582 490.4142910826486
1583 490.4143853896415
1584 490.4141953315531
1585 490.4144333351811
1586 490.4141333541521
1587 490.4142104553229
1588 490.4139457181994
1589 490.4140980691876
1590 490.4137950310753
1591 490.4139635076426
1592 490.4138918122414
1593 490.4142248816623
1594 490.4140527659485
1595 490.4144977897913
1596 490.4145447939283
1597 490.4149013930586
1598 490.4149445344214
1599 490.4153743531631
1600 490.4153720114026
1601 490.4157361852305
1602 490.415468193332
1603 490.415556120186
1604 490.415315648431
1605 490.4154290891715
1606 490.4150694495163
1607 490.4152136498583
1608 490.4150236502717
1609 490.4152272504916
1610 490.4149801332144
1611 490.4151890822018
1612 490.4150634388063
1613 490.4153202775464
1614 490.4151510665982
1615 490.4152837374899
1616 490.4150910975034
1617 490.4154161344738
1618 490.4152942361014
1619 490.4156124275287
1620 490.4156710141972
1621 490.4160482528308
1622 490.4159474070531
1623 490.4162578426038
1624 490.4160338491262
1625 490.4162287832353
1626 490.4159219182519
1627 490.4159185439387
1628 490.4155729658444
1629 490.4157129204104
1630 490.4154697112648
1631 490.4155886245587
1632 490.4154729266868
1633 490.4156675195522
1634 490.4154221619635
1635 490.4156131263055
1636 490.4155452482578
1637 490.4158766449799
1638 490.4156213395956
1639 490.4157722678321
1640 490.4156610238295
1641 490.4159052102221
1642 490.4155600099767
1643 490.4156696201512
1644 490.4154157670632
1645 490.4155884287534
1646 490.4152915309446
1647 490.4155779597623
1648 490.4154681685254
1649 490.4157836564452
1650 490.4156520463199
1651 490.415848114488
1652 490.4157336662345
1653 490.4159917105712
1654 490.4158196199774
1655 490.4161038023227
1656 490.4160543404276
1657 490.4163007445903
1658 490.4161199553549
1659 490.4161916840781
1660 490.4158123043944
1661 490.4158018703654
1662 490.4152622830659
1663 490.4150777348343
1664 490.4145663042719
1665 490.4145541972265
1666 490.4142248788544
1667 490.4145024138357
1668 490.4145480742958
1669 490.4149865327082
1670 490.4150957614115
1671 490.415663611741
1672 490.4158171038679
1673 490.4162442305536
1674 490.4161423201736
1675 490.4163274448077
1676 490.4161213197903
1677 490.4162041204006
1678 490.4156826976345
1679 490.4154789710545
1680 490.4149428955578
1681 490.4148213975105
1682 490.4143216341056
1683 490.4143775083431
1684 490.4142589826147
1685 490.4146472162431
1686 490.4145318268068
1687 490.4150161402403
1688 490.4151195155977
1689 490.415544091723
1690 490.4155831277229
1691 490.4159932465213
1692 490.4159512802329
1693 490.416252051086
1694 490.4161202993801
1695 490.4162270746275
1696 490.4157681825989
1697 490.4156634635316
1698 490.415084324543
1699 490.4149446236592
1700 490.414612542744
1701 490.4147738403017
1702 490.4146011387168
1703 490.414958777132
1704 490.415071376498
1705 490.4155848838641
1706 490.4155458789423
1707 490.4160088608316
1708 490.4159606487977
1709 490.4162681564096
1710 490.4160568792391
1711 490.4161803832292
1712 490.4159874138804
1713 490.416182488343
1714 490.4157925980303
1715 490.4158010089873
1716 490.4154621600762
1717 490.4155415641726
1718 490.4151079810014
1719 490.4151108531663
1720 490.4149386795089
1721 490.4151947351658
1722 490.4150722465039
1723 490.415411445219
1724 490.4154515748346
1725 490.4158656223709
1726 490.4157324236556
1727 490.4160023965721
1728 490.4158687775271
1729 490.4162388944314
1730 490.4161723367757
1731 490.4164361394153
1732 490.4162596398132
1733 490.4163381371127
1734 490.4158568687757
1735 490.4157844809776
1736 490.4154245243504
1737 490.4154166981042
1738 490.4150282870653
1739 490.4151094898751
1740 490.41497121978
1741 490.4153075800942
1742 490.415156117486
1743 490.4154269006078
1744 490.4153611331155
1745 490.4157463513047
1746 490.4157221187183
1747 490.4161587562
1748 490.4162844346884
1749 490.4168036459433
1750 490.4166831886988
1751 490.4168603649733
1752 490.4165313521033
1753 490.4165961994067
1754 490.4159444696939
1755 490.415634410413
1756 490.4150871654389
1757 490.4150369625441
1758 490.414736545428
1759 490.4149724360972
1760 490.4150130671269
1761 490.4154281164684
1762 490.4154856606038
1763 490.4159232082098
1764 490.4159052954307
1765 490.4163846908802
1766 490.4164201221093
1767 490.4167257380977
1768 490.4166469120908
1769 490.4168582358558
1770 490.4164560213623
1771 490.4163882761256
1772 490.4159242412055
1773 490.4158184358969
1774 490.4153686494186
1775 490.4153989003568
1776 490.4152865949998
1777 490.4155660820907
1778 490.4154238083784
1779 490.4158916622994
1780 490.415939977853
1781 490.4163189920508
1782 490.4163107139253
1783 490.4166662941026
1784 490.4165731430779
1785 490.4168967773481
1786 490.4166346987228
1787 490.4166998461055
1788 490.4163175691062
1789 490.4164063909679
1790 490.4157474107059
1791 490.4155311863943
1792 490.4151178201921
1793 490.415242087887
1794 490.4150205200634
1795 490.4153125883767
1796 490.4152922598067
1797 490.415866179055
1798 490.4157985561645
1799 490.4163234947389
1800 490.4164390423153
1801 490.4167413148264
1802 490.4164845323826
1803 490.4165054371745
1804 490.4160067382151
1805 490.4158590101084
1806 490.415166269093
1807 490.4151114038435
1808 490.414667253364
1809 490.4147324362156
1810 490.4144763553428
1811 490.414753712555
1812 490.4148506179607
1813 490.4152330561683
1814 490.4153136676451
1815 490.4156799902484
1816 490.4157580206231
1817 490.4161547545898
1818 490.4159988514969
1819 490.4161354577708
1820 490.41598604495
1821 490.416206994995
1822 490.4158673512962
1823 490.4160435739458
1824 490.4158063692027
1825 490.415919795842
1826 490.415462817956
1827 490.4154540110043
1828 490.4151521738161
1829 490.4153095575842
1830 490.4150547121273
1831 490.4152398947657
1832 490.4151011260936
1833 490.4153277158399
1834 490.4151084566357
1835 490.415315191055
1836 490.4152139087491
1837 490.4154530781157
1838 490.4150901079715
1839 490.4152768800987
1840 490.4150479729158
1841 490.4153703963236
1842 490.4151332193028
1843 490.4153968066792
1844 490.4153775694537
1845 490.4157059373993
1846 490.4155302557422
1847 490.4157544644003
1848 490.4155811701071
1849 490.415881062678
1850 490.4157939619098
1851 490.4160735047479
1852 490.4160847568876
1853 490.4164952900866
1854 490.4164228207149
1855 490.4166232336063
1856 490.416462936104
1857 490.4166545485353
1858 490.4164256779441
1859 490.4166139124244
1860 490.4163905386406
1861 490.416459985054
1862 490.4159955249115
1863 490.4159709778238
1864 490.4156218303066
1865 490.4157599517583
1866 490.4154676576255
1867 490.4157064035947
1868 490.415625065772
1869 490.4160728346806
1870 490.4160611467657
1871 490.4164588993721
1872 490.4165238503819
1873 490.4168387125293
1874 490.4166266672633
1875 490.4168742227392
1876 490.4166489774719
1877 490.4166944284784
1878 490.4161357151927
1879 490.4159895861303
1880 490.4155696704546
1881 490.4155714874565
1882 490.4150932756116
1883 490.415076618866
1884 490.4147800129944
1885 490.4150064560554
1886 490.4149040754655
1887 490.415298786161
1888 490.4155818067858
1889 490.4162972705597
1890 490.4164449293442
1891 490.4168899619611
1892 490.4168282293113
1893 490.4171501083209
1894 490.4168590225842
1895 490.4170187271873
1896 490.4168326217399
1897 490.4170139516887
1898 490.4165708868394
1899 490.4165576288887
1900 490.4160876552136
1901 490.4160946681882
1902 490.4156505016254
1903 490.4156850031935
1904 490.4155148184918
1905 490.4159086071984
1906 490.4157348048217
1907 490.4160616047113
1908 490.4160125157088
1909 490.416294379856
1910 490.4160319392715
1911 490.4162294803687
1912 490.4160123369867
1913 490.4162377487822
1914 490.4160893479118
1915 490.4162941147351
1916 490.416025663687
1917 490.4160894531885
1918 490.4157354044947
1919 490.4158409497845
1920 490.4155294975641
1921 490.4156412169352
1922 490.4152639106392
1923 490.4153964444346
1924 490.4151854352694
1925 490.4153652097459
1926 490.4151993738142
1927 490.415491870983
1928 490.4154429816789
1929 490.4158755900058
1930 490.4157551885105
1931 490.416044954184
1932 490.4159453929104
1933 490.4162058218811
1934 490.4158978506254
1935 490.4159485883838
1936 490.4156052383537
1937 490.4157125810661
1938 490.4152710336718
1939 490.4152205609129
1940 490.4149280237019
1941 490.4151007310693
1942 490.4149205551393
1943 490.4152172318089
1944 490.4153290137941
1945 490.4158708919869
1946 490.4158571308324
1947 490.4163014233901
1948 490.4163965673866
1949 490.4167488095198
1950 490.4165505761376
1951 490.4166618948483
1952 490.4163719423244
1953 490.4162574400445
1954 490.4156288986868
1955 490.4154533840089
1956 490.4149301530343
1957 490.4148909350305
1958 490.4143795752224
1959 490.4144755483051
1960 490.4142895395206
1961 490.4148823881137
1962 490.4149720419144
1963 490.4155853583266
1964 490.4158467125615
1965 490.4164315046819
1966 490.4163329792462
1967 490.416581239477
1968 490.4163606262342
1969 490.416454466635
1970 490.4160739038524
1971 490.4160937908599
1972 490.4157670416147
1973 490.4159046420961
1974 490.4155736127757
1975 490.4157399927645
1976 490.415643086144
1977 490.415958549535
1978 490.4158312837414
1979 490.4161226702556
1980 490.4160894796257
1981 490.416426458087
1982 490.4163488195551
1983 490.4166288378638
1984 490.4164207599555
1985 490.4165328167822
1986 490.416117931573
1987 490.4161426341348
1988 490.4159091593787
1989 490.4161120677073
1990 490.415739926859
1991 490.4158520888432
1992 490.41558279119
1993 490.4158085141489
1994 490.4157468201802
1995 490.4161308430139
1996 490.4161854876035
1997 490.4165459923528
1998 490.4165622040288
1999 490.4168432029481
2000 490.4167026808989
2001 490.4167906338518
2002 490.4164055391842
2003 490.4163975134933
2004 490.416125494935
2005 490.4162897035434
2006 490.4160196167929
2007 490.4162501937885
2008 490.4161164895975
2009 490.4164137782599
2010 490.4162489067207
2011 490.4164737694122
2012 490.4163618348314
2013 490.4166039203827
2014 490.416268821122
2015 490.4163357883905
2016 490.4159936091395
2017 490.4160293367358
2018 490.4157622418537
2019 490.4159913384697
2020 490.4158764241882
2021 490.4161484154067
2022 490.4159632273538
2023 490.4162775257414
2024 490.4162766522733
2025 490.4166797400327
2026 490.4165398644158
2027 490.416783995604
2028 490.4165868893139
2029 490.4166065363544
2030 490.4160976367035
2031 490.4160077640811
2032 490.4156242902152
2033 490.4157326462562
2034 490.4153523531903
2035 490.41551961005
2036 490.4154637993169
2037 490.4157774630144
2038 490.4155940759597
2039 490.4158033684697
2040 490.4157662793049
2041 490.4161991770603
2042 490.4160450116139
2043 490.4162473476688
2044 490.4160337292899
2045 490.4162588432605
2046 490.4158204810676
2047 490.4157426423091
2048 490.4154034611836
2049 490.4155380013715
2050 490.4151243532244
2051 490.4151047467
2052 490.4148196015607
2053 490.4150173492187
2054 490.4148487124666
2055 490.4151314512619
2056 490.4152086321234
2057 490.4155838114802
2058 490.4153776019435
2059 490.4154934155501
2060 490.4152444629951
2061 490.4153158251289
2062 490.4149301011612
2063 490.4151306175889
2064 490.4149158744654
2065 490.4151344864393
2066 490.4149458746738
2067 490.4151835331588
2068 490.4151168400586
2069 490.4155058984159
2070 490.4154544060619
2071 490.4158027051639
2072 490.4159599859074
2073 490.4164021209217
2074 490.4162271927983
2075 490.4164101697535
2076 490.416188013997
2077 490.4162680713176
2078 490.4159209863018
2079 490.4159987615574
2080 490.415769103895
2081 490.416026456149
2082 490.4157372097139
2083 490.4158711194594
2084 490.4156422346165
2085 490.4158537370089
2086 490.4156331343148
2087 490.4158875993531
2088 490.4158972627548
2089 490.4162516728458
2090 490.4161365573241
2091 490.4164129915365
2092 490.4163811250112
2093 490.4167265209572
2094 490.4165374822447
2095 490.4166855620115
2096 490.4165278942083
2097 490.4167721233442
2098 490.4165073375219
2099 490.4167504003985
2100 490.4167025419864
2101 490.4170299535654
2102 490.4168179794858
2103 490.4169540213429
2104 490.4167501981743
2105 490.4170254654538
2106 490.4166786788382
2107 490.4166513023677
2108 490.4163438693556
2109 490.4164304333003
2110 490.4161203861672
2111 490.4163136193602
2112 490.416231900133
2113 490.4164698906225
2114 490.4162538187684
2115 490.4165264477501
2116 490.4164462012829
2117 490.4167754021778
2118 490.4165960577615
2119 490.4167653660511
2120 490.4165593736824
2121 490.4167466814579
2122 490.4164548274961
2123 490.4166156111857
2124 490.4163758489345
2125 490.416483464577
2126 490.4161561382955
2127 490.4163036288763
2128 490.4161874524494
2129 490.4164378702577
2130 490.4161614621277
2131 490.4162477010352
2132 490.4159953074158
2133 490.4162498107651
2134 490.4160061728122
2135 490.4161830273937
2136 490.4160704267505
2137 490.4162367131677
2138 490.4158778008093
2139 490.4160275913623
2140 490.4158171092839
2141 490.4160473360458
2142 490.4157628013081
2143 490.4158597866721
2144 490.4157219494812
2145 490.4160247997671
2146 490.4159293964611
2147 490.4162555858646
2148 490.4162115620934
2149 490.4166303856452
2150 490.4165176349483
2151 490.4167937336466
2152 490.4166385431337
2153 490.4168109803936
2154 490.4164585116408
2155 490.4165557320594
2156 490.4162919817329
2157 490.4163639755687
2158 490.4160063062947
2159 490.416114322667
2160 490.415918956189
2161 490.4161140584758
2162 490.415945878001
2163 490.4163043566961
2164 490.416248477534
2165 490.4165539604404
2166 490.4163553069532
2167 490.4164427253297
2168 490.4161366829481
2169 490.4162092262718
2170 490.4158416801739
2171 490.4159292407492
2172 490.4157346806977
2173 490.4159171953635
2174 490.4156289216982
2175 490.4157477376122
2176 490.4155744300443
2177 490.4158216010619
2178 490.4156676441858
2179 490.4158979335627
2180 490.4158266634075
2181 490.4160845583402
2182 490.4158247711439
2183 490.4159587023714
2184 490.415796771232
2185 490.416033267195
2186 490.4158382052385
2187 490.4160638823956
2188 490.4159731316209
2189 490.4162587680599
2190 490.4160204360108
2191 490.4162568909611
2192 490.4161272389526
2193 490.4163644538041
2194 490.4161031027988
2195 490.4162729123105
2196 490.4161442141378
2197 490.4164357441204
2198 490.4162153209929
2199 490.4162516206659
2200 490.4159669451315
2201 490.4161442379523
2202 490.4158120138781
2203 490.4158726289206
2204 490.4156337514069
2205 490.415818829353
2206 490.4155169187925
2207 490.4156876521529
2208 490.4155110701818
2209 490.4157098583834
2210 490.4153879720131
2211 490.4154769612643
2212 490.4151517422183
2213 490.4152360199946
2214 490.4148602902961
2215 490.4150600064317
2216 490.4148872104248
2217 490.4151309379193
2218 490.4149804595995
2219 490.4152808536538
2220 490.4152829913473
2221 490.4157776876066
2222 490.4157953762037
2223 490.4161492269457
2224 490.4161569875771
2225 490.4164667317413
2226 490.4161383436065
2227 490.4161826820368
2228 490.4158680750756
2229 490.4159974070625
2230 490.4156536428442
2231 490.4158313166612
2232 490.4157269818534
2233 490.416012710751
2234 490.4159605560876
2235 490.4162756435014
2236 490.4162114839679
2237 490.4164937238194
2238 490.4163213465094
2239 490.4164725172168
2240 490.4162964457526
2241 490.4164176162059
2242 490.4159506170963
2243 490.4159526769081
2244 490.4156353881368
2245 490.4158270224353
2246 490.4155440188151
2247 490.4157435388908
2248 490.4156535009505
2249 490.4160240044998
2250 490.4159793739374
2251 490.4163388824305
2252 490.4164784987212
2253 490.4169442621069
2254 490.4168082854849
2255 490.4169823618395
2256 490.4168255094146
2257 490.4169277026051
2258 490.4165310504161
2259 490.4165617558697
2260 490.4162010714448
2261 490.4162205840132
2262 490.4158773828029
2263 490.4160383834197
2264 490.4160209164432
2265 490.4164504623017
2266 490.4163302855064
2267 490.4167578870013
2268 490.4168057919885
2269 490.4171938399668
2270 490.4170361675649
2271 490.4172269016884
2272 490.4170819474584
2273 490.4172677289878
2274 490.4169309935961
2275 490.4169424987277
2276 490.4166024762667
2277 490.4165658314384
2278 490.4161374674246
2279 490.4161820113675
2280 490.4158895114579
2281 490.4160426829168
2282 490.4157970535879
2283 490.4159449268016
2284 490.415723765977
2285 490.4159617066879
2286 490.4157462794677
2287 490.4159401633379
2288 490.4157647014517
2289 490.4160035623249
2290 490.4156921687067
2291 490.4157629065369
2292 490.4155604191234
2293 490.4157119516482
2294 490.4154094887249
2295 490.4155117867094
2296 490.4153067396591
2297 490.4155314713491
2298 490.415307979861
2299 490.4155605649254
2300 490.4155047733332
2301 490.4159026906236
2302 490.4158042282071
2303 490.416132806665
2304 490.4160060433596
2305 490.4162551861697
2306 490.4159766403764
2307 490.4161333460961
2308 490.4159099214591
2309 490.4161475418591
2310 490.4158891976896
2311 490.4160721681797
2312 490.4160156687373
2313 490.416289871277
2314 490.4160991793267
2315 490.4163235894248
2316 490.4162067557997
2317 490.4163966692504
2318 490.4161024902904
2319 490.4161923100555
2320 490.4158938825937
2321 490.4160223349488
2322 490.4157021589178
2323 490.4158850583385
2324 490.4157693923163
2325 490.41608928559
2326 490.4158921945248
2327 490.4160875536499
2328 490.4160025618845
2329 490.416297015821
2330 490.4161380408024
2331 490.4162729886191
2332 490.4160593789743
2333 490.4162756610819
2334 490.4159988552676
2335 490.4160170659585
2336 490.4157775817715
2337 490.4159779512528
2338 490.4156943592394
2339 490.4158681167632
2340 490.4157183522374
2341 490.4160043905237
2342 490.4158737512324
2343 490.4161906716038
2344 490.4162134769421
2345 490.4166324132847
2346 490.416608995071
2347 490.4170033514293
2348 490.4169069146621
2349 490.4171164103678
2350 490.4167767268344
2351 490.416688749567
2352 490.4162666422037
2353 490.4162521280435
2354 490.4157577084159
2355 490.4156619305036
2356 490.4152503593747
2357 490.4153356540024
2358 490.4150841187384
2359 490.4153271433699
2360 490.4153882333952
2361 490.4158543820795
2362 490.4158238695574
2363 490.4162300896573
2364 490.416213944563
2365 490.4166135670314
2366 490.4164266591662
2367 490.416584534382
2368 490.4163653886445
2369 490.4164815423915
2370 490.4160825677362
2371 490.4160581069555
2372 490.4157493378013
2373 490.4158127565961
2374 490.4154945940277
2375 490.4156733465983
2376 490.4155714748071
2377 490.4158369211504
2378 490.4156782611362
2379 490.4159844336694
2380 490.415944041946
2381 490.4163097536136
2382 490.4161970633195
2383 490.4165465909991
2384 490.416447651339
2385 490.4166333648369
2386 490.4162875671744
2387 490.4162775354774
2388 490.4160354684495
2389 490.4161818359445
2390 490.4158701869971
2391 490.4160300679426
2392 490.4158431537779
2393 490.4160888793905
2394 490.4158855696936
2395 490.4161468172665
2396 490.4161292017533
2397 490.4165502255004
2398 490.4165003464992
2399 490.4168550688757
2400 490.4168177417129
2401 490.4170960198543
2402 490.416812974659
2403 490.416855991922
2404 490.4164879159507
2405 490.416492152859
2406 490.4159113064417
2407 490.4157453711488
2408 490.4153161523614
2409 490.4153059006152
2410 490.4148926966687
2411 490.4149998365549
2412 490.4148747226562
2413 490.4151888190272
2414 490.4151146672545
2415 490.4154796678873
2416 490.4154917432774
2417 490.4159057960935
2418 490.4157213679354
2419 490.4159255531115
2420 490.4157881440315
2421 490.4160172521232
2422 490.4157564033147
2423 490.4159390011349
2424 490.4157794356851
2425 490.4159956090379
2426 490.4157076766645
2427 490.4157855389831
2428 490.4155062985925
2429 490.415680028595
2430 490.4153904348957
2431 490.4155895284611
2432 490.4155546027608
2433 490.4159322487683
2434 490.415777368278
2435 490.4160246166037
2436 490.4158612528509
2437 490.4161081066773
2438 490.415933264145
2439 490.4161554110372
2440 490.4161103170979
2441 490.4164316874363
2442 490.4161651553042
2443 490.4162939707349
2444 490.4159797221171
2445 490.4161371960764
2446 490.4157498018364
2447 490.4158885250275
2448 490.4157572232597
2449 490.4160183232568
2450 490.4158827017064
2451 490.4162049674646
2452 490.4161656227641
2453 490.416519366311
2454 490.4162687992517
2455 490.4163248527817
2456 490.4161551730348
2457 490.4162494462656
2458 490.4158987558943
2459 490.415948646545
2460 490.4156846162764
2461 490.4158180826593
2462 490.4155100346014
2463 490.4155102612708
2464 490.4151732437059
2465 490.4153452270036
2466 490.4151179784046
2467 490.4154228169804
2468 490.4154902043459
2469 490.4159484280339
2470 490.4160212166126
2471 490.4165286744492
2472 490.4165948998227
2473 490.4169427516073
2474 490.4167748878024
2475 490.4170102314846
2476 490.4169225514513
2477 490.4171229075425
2478 490.4168086249986
2479 490.4167571189849
2480 490.4164524561779
2481 490.4165479106276
2482 490.4161109121478
2483 490.4161870839777
2484 490.4160010420008
2485 490.4162670104564
2486 490.4161102953344
2487 490.4164679498693
2488 490.416505956125
2489 490.4169201852348
2490 490.416776428111
2491 490.4169758903076
2492 490.4168138485818
2493 490.4169370389959
2494 490.416540934844
2495 490.4164951030747
2496 490.4162548606492
2497 490.416415365063
2498 490.4161801466638
2499 490.4163446747511
2500 490.416088946284
2501 490.4161162948208
2502 490.4156817119282
2503 490.4157095819726
2504 490.4154436920713
2505 490.4156507854884
2506 490.4154470856287
2507 490.41567880861
2508 490.4155617271215
2509 490.4159342125324
2510 490.415856778412
2511 490.4161853734479
2512 490.4161870467688
2513 490.4165251707374
2514 490.4164324770458
2515 490.4166713298339
2516 490.4165790681711
2517 490.4168280228752
2518 490.4165057120384
2519 490.4165368885924
2520 490.4162921169686
2521 490.4164725803659
2522 490.4162047393585
2523 490.4163707097842
2524 490.4162267841062
2525 490.4165683331769
2526 490.4164291910752
2527 490.4167065341397
2528 490.4166096602203
2529 490.4168114524938
2530 490.4165226711974
2531 490.4165932584188
2532 490.4163204256016
2533 490.4163856260218
2534 490.4160656577308
2535 490.4161447384735
2536 490.4158997201587
2537 490.4159898913487
2538 490.4155769108963
2539 490.4156021980532
2540 490.4153506720401
2541 490.4155429513978
2542 490.4152952458006
2543 490.4157285187993
2544 490.4157804025301
2545 490.4161867749098
2546 490.4161123810022
2547 490.4163735118572
2548 490.4162646198994
2549 490.4165240366406
2550 490.4162485159698
2551 490.4163456665589
2552 490.4161040482269
2553 490.4163342983876
2554 490.4159929912356
2555 490.4160831699491
2556 490.4159217800689
2557 490.4162076791758
2558 490.4160119066685
2559 490.4163135715026
2560 490.4162992209646
2561 490.4167244414899
2562 490.4166457903404
2563 490.4169288891347
2564 490.4168000552856
2565 490.4170343301362
2566 490.4168044618526
2567 490.416906317924
2568 490.4166137345051
2569 490.4167050401728
2570 490.4164297618665
2571 490.4165305733497
2572 490.4163442811457
2573 490.4164982961491
2574 490.416186517381
2575 490.4162075434048
2576 490.4159224238242
2577 490.4159832273118
2578 490.4156099329826
2579 490.4156405724514
2580 490.4153809246221
2581 490.4155996579821
2582 490.4153433142737
2583 490.4155605309176
2584 490.4153815222779
2585 490.4157010825593
2586 490.4155043127821
2587 490.415621901387
2588 490.4154377321975
2589 490.4156759170201
2590 490.415510365864
2591 490.4157518199302
2592 490.4156775220828
2593 490.4159527000627
2594 490.4157413488659
2595 490.4159605577033
2596 490.4158278239394
2597 490.4161911290987
2598 490.4160350001301
2599 490.4164710701733
2600 490.4164296680119
2601 490.4167828231654
2602 490.4165298288565
2603 490.4167839761171
2604 490.4166691906854
2605 490.4168968635154
2606 490.4166463493758
2607 490.4167401690165
2608 490.4165166932647
2609 490.4166728447926
2610 490.4162714119588
2611 490.41622623874
2612 490.4159148584471
2613 490.4160371126288
2614 490.4156948555546
2615 490.4158818427208
2616 490.4157816392864
2617 490.4161432208004
2618 490.4160042124794
2619 490.4162756086378
2620 490.4161911818935
2621 490.4165660321991
2622 490.4164056356179
2623 490.4166204217234
2624 490.4163640155676
2625 490.4165108958049
2626 490.4162988497134
2627 490.4164902330863
2628 490.416287652462
2629 490.4163900891662
2630 490.4159976833733
2631 490.4159959149813
2632 490.4156585624294
2633 490.4158010141538
2634 490.4155941216564
2635 490.4158576014372
2636 490.4159112362393
2637 490.4163281408468
2638 490.4163412598973
2639 490.4166848009431
2640 490.4167125671809
2641 490.4170402302717
2642 490.4168960860333
2643 490.4170651471983
2644 490.4168899089004
2645 490.4171447752667
2646 490.4167962660748
2647 490.4168059899432
2648 490.4164442502255
2649 490.4164670978609
2650 490.4160681909009
2651 490.4161456359783
2652 490.415978067893
2653 490.4161933289435
2654 490.4159634960519
2655 490.4161383792722
2656 490.4159227682963
2657 490.4160839763279
2658 490.4157294248317
2659 490.4157847958136
2660 490.4155121248584
2661 490.4156828369243
2662 490.4153034323529
2663 490.4154016767263
2664 490.4152241629399
2665 490.4154789977883
2666 490.4153342669799
2667 490.4154978708902
2668 490.4153589766977
2669 490.4156169593933
2670 490.4155151191323
2671 490.4158488928792
2672 490.4157345243589
2673 490.4161822666081
2674 490.4160959511932
2675 490.4164227468268
2676 490.4163318277818
2677 490.4165472865296
2678 490.4161732057628
2679 490.4162847046225
2680 490.4158802255432
2681 490.4158708714174
2682 490.4154805436706
2683 490.4154990316944
2684 490.4152919180604
2685 490.4155039784545
2686 490.415249122594
2687 490.415533878257
2688 490.4155776399603
2689 490.415991483729
2690 490.4159809089577
2691 490.416397784741
2692 490.4164235841982
2693 490.4167636163647
2694 490.4164648478107
2695 490.416552419696
2696 490.4162448110943
2697 490.4162418528474
2698 490.4157928887558
2699 490.4158563911384
2700 490.4157109895929
2701 490.4159475534509
2702 490.4157894776296
2703 490.416018151427
2704 490.4158691017286
2705 490.4160459850447
2706 490.4157875753741
2707 490.4160094524162
2708 490.4159184589722
2709 490.4163304045576
2710 490.4162525229517
2711 490.4166072536503
2712 490.4165335828063
2713 490.4167815850279
2714 490.4165569739808
2715 490.416654842614
2716 490.4164261967463
2717 490.4166660764206
2718 490.4164753542001
2719 490.4166440914091
2720 490.4164315710901
2721 490.4167548562705
2722 490.4165762932342
2723 490.4167542501063
2724 490.4166414336536
2725 490.4168677550227
2726 490.4166487229492
2727 490.4168892418435
2728 490.416692771215
2729 490.4169049927424
2730 490.4164789853689
2731 490.4164567420609
2732 490.4161737347081
2733 490.4162248184873
2734 490.4158599738991
2735 490.4159404652146
2736 490.4158003408749
2737 490.4160339660049
2738 490.4159016120958
2739 490.4160994559928
2740 490.415946215375
2741 490.4160673776921
2742 490.4157028836348
2743 490.4158635349676
2744 490.4158111020211
2745 490.4162344940086
2746 490.4161179272311
2747 490.4164346223793
2748 490.4164207167469
2749 490.4167043911372
2750 490.4164682428699
2751 490.416555031424
2752 490.4162528431472
2753 490.4163118620294
2754 490.4157675616255
2755 490.4156706946233
2756 490.4153298980838
2757 490.4154393489804
2758 490.4151126764816
2759 490.4152370029598
2760 490.4150730424271
2761 490.4154177075541
2762 490.4153399908172
2763 490.4158046111068
2764 490.4158733167459
2765 490.4164292873859
2766 490.4164642674851
2767 490.4168857381906
2768 490.4168588839738
2769 490.4170883101509
2770 490.4167473269105
2771 490.4168343029526
2772 490.416489071212
2773 490.4164936346168
2774 490.4160117816822
2775 490.4159261034668
2776 490.4155406863807
2777 490.4156662605722
2778 490.4152727607823
2779 490.4154216065957
2780 490.4153790466938
2781 490.4157670402956
2782 490.415748345815
2783 490.416169676747
2784 490.4160997733102
2785 490.4164491355269
2786 490.4163142084723
2787 490.4164967822531
2788 490.4162658078622
2789 490.4163612607045
2790 490.4158800273551
2791 490.4158026735145
2792 490.4154761382198
2793 490.4155714267013
2794 490.415183550286
2795 490.4153791312002
2796 490.415376306011
2797 490.4157132944908
2798 490.4155496715516
2799 490.4158614810392
2800 490.4158105665543
2801 490.416382751341
2802 490.4163388039645
2803 490.4166516997704
2804 490.4166344222416
2805 490.4169131458119
2806 490.4164993680564
2807 490.4164200538509
2808 490.4160486530104
2809 490.4160647805419
2810 490.4156948099281
2811 490.4157727821415
2812 490.4155973667564
2813 490.4158865274026
2814 490.4156781121049
2815 490.4159120880122
2816 490.4159214547462
2817 490.4164049206833
2818 490.416451110841
2819 490.4169132963802
2820 490.41692254823
2821 490.4172879751428
2822 490.4169942491933
2823 490.4169571658281
2824 490.4164062004099
2825 490.4162957947469
2826 490.4157759593766
2827 490.41571716535
2828 490.4153846683168
2829 490.4154568613749
2830 490.4151328020146
2831 490.4152894449895
2832 490.4152154387597
2833 490.4154887555383
2834 490.4153627959912
2835 490.4156913648778
2836 490.4157495432151
2837 490.4162450156619
2838 490.4161354332451
2839 490.4164249652826
2840 490.4163072901028
2841 490.4165279553133
2842 490.4161303918492
2843 490.4162902101496
2844 490.4160700258844
2845 490.4163043244435
2846 490.4160817969129
2847 490.416348717578
2848 490.4162370716181
2849 490.4166075883422
2850 490.4165772417377
2851 490.4168603020726
2852 490.4168283524468
2853 490.4171881758259
2854 490.4170494893315
2855 490.4172959727944
2856 490.4171336314298
2857 490.4172256869341
2858 490.4167502561246
2859 490.4167558672808
2860 490.4164136798012
2861 490.4165506928866
2862 490.416212969991
2863 490.4162982508482
2864 490.416154609997
2865 490.4163635741068
2866 490.4160784367839
2867 490.4162478627555
2868 490.4162064443354
2869 490.4165026755491
2870 490.4163225518736
2871 490.4165719506853
2872 490.4165098820392
2873 490.4169032791157
2874 490.4168214525275
2875 490.4170621312326
2876 490.4168874151844
2877 490.4170282384177
2878 490.4165592109547
2879 490.4164983166975
2880 490.4160327242745
2881 490.4160478553694
2882 490.4156306679644
2883 490.4157036806632
2884 490.4155568550686
2885 490.4158643377935
2886 490.4158315858202
2887 490.4161890081506
2888 490.4162225263886
2889 490.4165754615738
2890 490.4165287724998
2891 490.4169856459477
2892 490.4170161693178
2893 490.4172785662196
2894 490.4169377732808
2895 490.416997270612
2896 490.4166331151861
2897 490.4167245662495
2898 490.4162056207884
2899 490.4160375266653
2900 490.4156792361526
2901 490.4157480756662
2902 490.4153561559787
2903 490.4154622130744
2904 490.4152488991738
2905 490.4154546324704
2906 490.4151850759793
2907 490.4153045964037
2908 490.415144663958
2909 490.4154120422838
2910 490.415188547643
2911 490.4153352877136
2912 490.4150784274532
2913 490.4151854557816
2914 490.4147929807783
2915 490.4147732586168
2916 490.4143936011241
2917 490.414516156698
2918 490.4141981369444
2919 490.4143219149074
2920 490.4140868965308
2921 490.4144361952504
2922 490.4144305240198
2923 490.4148369792141
2924 490.4150227840427
2925 490.4155099731922
2926 490.4154855679818
2927 490.4158600767048
2928 490.4158472708419
2929 490.4161631307023
2930 490.4158949722229
2931 490.416040904992
2932 490.4158224154222
2933 490.4159908326126
2934 490.4156256751451
2935 490.4157500288347
2936 490.4155392734866
2937 490.415786588256
2938 490.4154576928031
2939 490.4156448746388
2940 490.4155338460371
2941 490.4157373453297
2942 490.4155922414894
2943 490.4158473985968
2944 490.4157978710136
2945 490.4162010262565
2946 490.416134332436
2947 490.4164944110327
2948 490.4164740009491
2949 490.4167449333529
2950 490.4164210720521
2951 490.4164645076874
2952 490.4160723447391
2953 490.4160876527823
2954 490.4156600752898
2955 490.4156056978737
2956 490.4152865547273
2957 490.415396528311
2958 490.4150288068467
2959 490.4151232932709
2960 490.4150435401662
2961 490.4154654462622
2962 490.4155469949829
2963 490.416077599633
2964 490.4162797007794
2965 490.4167778272418
2966 490.4167608136713
2967 490.417096096449
2968 490.4170396716011
2969 490.4173324067538
2970 490.4170870391438
2971 490.4172338115482
2972 490.4169468179779
2973 490.4169872420871
2974 490.4164773296731
2975 490.4163735345163
2976 490.4159703089002
2977 490.4160005485907
2978 490.4156991821212
2979 490.4159390710189
2980 490.4159178802828
2981 490.4163031073141
2982 490.4162083424573
2983 490.4165573961687
2984 490.4165539820054
2985 490.4168759359536
2986 490.4166350676493
2987 490.4166873932392
2988 490.4163726096093
2989 490.4164236589365
2990 490.4160134672638
2991 490.4161310142781
2992 490.4159471909978
2993 490.4160904026961
2994 490.4157409953585
2995 490.4158355392317
2996 490.4156326952601
2997 490.4158236259261
2998 490.4155976047857
2999 490.4158438567149
3000 490.4158127247423
3001 490.4162088600477
3002 490.4161520065616
3003 490.4165431403931
3004 490.4165404475553
3005 490.4169362067504
3006 490.4167166360816
3007 490.4168277546934
3008 490.4165667627435
3009 490.4167255673701
3010 490.4163630770888
3011 490.416400744497
3012 490.4161391558587
3013 490.4163062644029
3014 490.4161100540319
3015 490.4163238552936
3016 490.4162023851156
3017 490.4165171977858
3018 490.4164506015345
3019 490.4167762493855
3020 490.4167326403166
3021 490.4170687012471
3022 490.4168587997606
3023 490.4170496091429
3024 490.4168532504244
3025 490.416979153155
3026 490.4166281431745
3027 490.4167581559923
3028 490.4165098174664
3029 490.4166030677977
3030 490.4161711438706
3031 490.4160549907639
3032 490.4156900353817
3033 490.4156645909124
3034 490.415263467618
3035 490.4154253816714
3036 490.4153973495479
3037 490.4156977972498
3038 490.4156145877476
3039 490.4159578968408
3040 490.4160378730319
3041 490.4164712375434
3042 490.4163730979351
3043 490.4167548216334
3044 490.4166885197837
3045 490.4169537534989
3046 490.4165623672244
3047 490.4165936300027
3048 490.4162646257238
3049 490.4162374263933
3050 490.4156955754437
3051 490.4156612124388
3052 490.4154429018241
3053 490.4156684728797
3054 490.4155712938222
3055 490.4158326484788
3056 490.4157144780182
3057 490.4161334845683
3058 490.4159512699263
3059 490.4161750142873
3060 490.4160887561077
3061 490.4164036493493
3062 490.4162382681363
3063 490.4164540233916
3064 490.4162905173308
3065 490.4164230577065
3066 490.4160344556832
3067 490.415945408666
3068 490.4155646699645
3069 490.415610610034
3070 490.41526742726
3071 490.4153880165544
3072 490.4152219287874
3073 490.4157244323583
3074 490.4157109911978
3075 490.416015884568
3076 490.4159989674981
3077 490.4164249869625
3078 490.4162723627214
3079 490.4166027928927
3080 490.4164703296645
3081 490.4167130957387
3082 490.4162754536138
3083 490.416238537341
3084 490.4158175284015
3085 490.415788437466
3086 490.4154180913901
3087 490.4154770804499
3088 490.415316199745
3089 490.4156298232934
3090 490.415599215623
3091 490.4160021049676
3092 490.4160728159104
3093 490.4164884625282
3094 490.4163525961584
3095 490.4166652259546
3096 490.416637941988
3097 490.416963137103
3098 490.4167180434022
3099 490.4168898016658
3100 490.4166407170105
3101 490.4167960518533
3102 490.4164009732222
3103 490.4163087863663
3104 490.415931936979
3105 490.4158960024786
3106 490.4154753018165
3107 490.4156597393717
3108 490.4155481758101
3109 490.4159031800676
3110 490.4159586459139
3111 490.4163665436747
3112 490.4163897513725
3113 490.4168070689154
3114 490.4166782355952
3115 490.4168463376792
3116 490.41659768057
3117 490.4166925834279
3118 490.41620765801
3119 490.4162810253011
3120 490.4159976260474
3121 490.4161335841588
3122 490.4158239273784
3123 490.4159198943632
3124 490.4156259714558
3125 490.4157758921359
3126 490.4155831003413
3127 490.4157929565284
3128 490.4157748203668
3129 490.4160110290587
3130 490.4157391598068
3131 490.4159582896763
3132 490.4158531480505
3133 490.4160878701687
3134 490.4158395358856
3135 490.4160900163589
3136 490.4160177683146
3137 490.4164050552607
3138 490.4162613284122
3139 490.4163765159905
3140 490.4161639315132
3141 490.4163054565968
3142 490.4159326146053
3143 490.4160143221649
3144 490.4158559987584
3145 490.4161112038698
3146 490.4159501133677
3147 490.4162473368302
3148 490.4160912173899
3149 490.4162873341526
3150 490.4159967148098
3151 490.4160849217268
3152 490.4158276092033
3153 490.4160335971039
3154 490.4156647808849
3155 490.4158824743703
3156 490.4156561391532
3157 490.4157992218906
3158 490.4154731332396
3159 490.4155129343487
3160 490.4152841753278
3161 490.4154386670283
3162 490.415164665918
3163 490.4154141276966
3164 490.4154032497053
3165 490.4157391162364
3166 490.4156945567289
3167 490.4160340812262
3168 490.4160398882694
3169 490.4164069735519
3170 490.4162584189222
3171 490.4164769187797
3172 490.4163176976411
3173 490.4165619781939
3174 490.4162468355295
3175 490.4162177913617
3176 490.4158515993163
3177 490.4158871998279
3178 490.4154745896104
3179 490.4154901187392
3180 490.4152565907561
3181 490.4155287611997
3182 490.4155026906849
3183 490.415922851848
3184 490.4158858613038
3185 490.4163423233916
3186 490.4163100445115
3187 490.416659787726
3188 490.4166685567977
3189 490.4169084314196
3190 490.4165903302868
3191 490.4166568184063
3192 490.4163692972516
3193 490.4164771755312
3194 490.4160248804666
3195 490.4160170352251
3196 490.4157026275459
3197 490.4157902116842
3198 490.4154308262587
3199 490.4155225517928
3200 490.4153726731812
3201 490.4158780440325
3202 490.4157759287104
3203 490.4160800970417
3204 490.416111103392
3205 490.4164779175948
3206 490.4163290585115
3207 490.416487160546
3208 490.4163240736688
3209 490.4164692439795
3210 490.416109196872
3211 490.4161282941557
3212 490.4158410397042
3213 490.4159912780784
3214 490.415714041037
3215 490.4159323039466
3216 490.4158648077496
3217 490.4162088664446
3218 490.4161022627226
3219 490.4165835753266
3220 490.416568943874
3221 490.4168811173215
3222 490.4167629598597
3223 490.4170366671243
3224 490.4169435125869
3225 490.4171562098073
3226 490.4167805742572
3227 490.4168796564578
3228 490.4166274490892
3229 490.4167510992962
3230 490.4163373160442
3231 490.4165243417372
3232 490.4162514080293
3233 490.4162929210402
3234 490.4158805960143
3235 490.4158895815635
3236 490.4156624883209
3237 490.4160039763024
3238 490.4160894809926
3239 490.4165068302757
3240 490.4164959223555
3241 490.4168510149091
3242 490.4167199690266
3243 490.4169221065461
3244 490.4166762963792
3245 490.4167876446476
3246 490.4164027584203
3247 490.4164469252498
3248 490.4161740436992
3249 490.4162607165519
3250 490.4158588611803
3251 490.4159618592296
3252 490.415784896425
3253 490.4160493112943
3254 490.4158849178962
3255 490.4161861172129
3256 490.4160728126686
3257 490.4163559240362
3258 490.4161780370776
3259 490.4164027573607
3260 490.4163789597441
3261 490.4167092162197
3262 490.4165119818775
3263 490.416770318428
3264 490.4166811416683
3265 490.4169859083724
3266 490.4167026221258
3267 490.4167814518049
3268 490.4164999647339
3269 490.4165905312872
3270 490.4162079045585
3271 490.4162401145743
3272 490.4159753654179
3273 490.4162095302883
3274 490.4160227093114
3275 490.4162729946905
3276 490.4160433947481
3277 490.4161495871687
3278 490.4157804063345
3279 490.4158178942501
3280 490.4155102861425
3281 490.4155848079237
3282 490.4150949527445
3283 490.4150607556077
3284 490.4147536194193
3285 490.4149028719466
3286 490.4146072776337
3287 490.4148100361714
3288 490.4147582256981
3289 490.4150804473037
3290 490.4149482322264
3291 490.4152880035093
3292 490.4152967949623
3293 490.4156334364586
3294 490.4154605582088
3295 490.4156778729448
3296 490.4156360853358
3297 490.415963613042
3298 490.4157629996194
3299 490.416057971601
3300 490.4159262423627
3301 490.4161980774468
3302 490.4160272694335
3303 490.4162609882142
3304 490.4160589747847
3305 490.4163257534875
3306 490.4159858249319
3307 490.4159654025173
3308 490.4157294809833
3309 490.4159271809464
3310 490.4156743546774
3311 490.415910961596
3312 490.4157773143154
3313 490.4159903101032
3314 490.4158033378882
3315 490.4160593290191
3316 490.4159581804299
3317 490.416273707454
3318 490.4160798519017
3319 490.4163262949104
3320 490.416269975712
3321 490.4165678432726
3322 490.4163874256878
3323 490.4166864473029
3324 490.4165003257162
3325 490.416627740989
3326 490.4162277663214
3327 490.4162204501484
3328 490.4159362670319
3329 490.4160711957508
3330 490.4157415069831
3331 490.4158740113785
3332 490.4157716799646
3333 490.416111801205
3334 490.4160172844411
3335 490.4163598497891
3336 490.4162806267288
3337 490.4167111355779
3338 490.4167752290002
3339 490.4171894508223
3340 490.4171546576241
3341 490.4174847467645
3342 490.417175612416
3343 490.4171345521636
3344 490.4167606148155
3345 490.4167226056535
3346 490.4163562795688
3347 490.4164709687012
3348 490.4163104862124
3349 490.4165013650044
3350 490.416195165644
3351 490.4163005797031
3352 490.4160490176573
3353 490.4162611811933
3354 490.4159471946692
3355 490.4161688060063
3356 490.4159967202231
3357 490.4161843083781
3358 490.4158684138019
3359 490.4159902714362
3360 490.4157893013882
3361 490.415916728398
3362 490.4156367385428
3363 490.4156719543313
3364 490.4154295554694
3365 490.4156458033344
3366 490.4154220628845
3367 490.4155974166903
3368 490.4155462294787
3369 490.4159147725929
3370 490.4157568437358
3371 490.4160078192456
3372 490.4158523646221
3373 490.4161475430946
3374 490.4158780799722
3375 490.416051728695
3376 490.4158729737633
3377 490.4161231420545
3378 490.4159251000749
3379 490.4160971706756
3380 490.4158948022627
3381 490.416044264457
3382 490.4157524579497
3383 490.415998551036
3384 490.4159748107041
3385 490.4161914427753
3386 490.4158632672763
3387 490.4159495471521
3388 490.4156922480076
3389 490.4158722379895
3390 490.4155338124394
3391 490.4157871262046
3392 490.4156327147147
3393 490.4160679695404
3394 490.4159268797363
3395 490.4161674123106
3396 490.4160323678743
3397 490.4162389159178
3398 490.4158950899121
3399 490.4159449468584
3400 490.4156318031978
3401 490.4157524108984
3402 490.4154831520113
3403 490.4155437760087
3404 490.4153074333556
3405 490.4154972759941
3406 490.4151932088284
3407 490.4154180370278
3408 490.4152844510896
3409 490.4156273260773
3410 490.4154454755845
3411 490.4157780320696
3412 490.4157320994218
3413 490.4161461405478
3414 490.4160240381577
3415 490.4162778266801
3416 490.4161681303601
3417 490.4163716699138
3418 490.4161485225077
3419 490.416416714488
3420 490.4163661344192
3421 490.4165512368335
3422 490.4161754090989
3423 490.4161778792146
3424 490.4159140140019
3425 490.4161091027935
3426 490.415852837523
3427 490.4159938784292
3428 490.4158197105766
3429 490.416152408714
3430 490.4159480100966
3431 490.4161696379407
3432 490.4160300359664
3433 490.416221416941
3434 490.4159245867408
3435 490.4160162761959
3436 490.415793604447
3437 490.4160766425493
3438 490.4160101731364
3439 490.4163025170564
3440 490.4162188719002
3441 490.4164593504344
3442 490.4162171569315
3443 490.4163141015526
3444 490.4160464251852
3445 490.4160890964545
3446 490.4156563474006
3447 490.4156984517547
3448 490.4154843825373
3449 490.415715286262
3450 490.4154188659501
3451 490.4155781701868
3452 490.4154087080134
3453 490.4155926383684
3454 490.4153384751473
3455 490.4156560501198
3456 490.4157018952192
3457 490.4160992684371
3458 490.4160179609925
3459 490.4161990124022
3460 490.4160332997207
3461 490.4161926009098
3462 490.4158550013752
3463 490.4158701860225
3464 490.4156684458572
3465 490.4158811157803
3466 490.4156776338748
3467 490.415908151929
3468 490.4157204923404
3469 490.4159443751576
3470 490.41560584634
3471 490.4156828577218
3472 490.4154753620746
3473 490.4158357769271
3474 490.4158230895705
3475 490.4162217805952
3476 490.4162078872178
3477 490.4167096137567
3478 490.4165403589374
3479 490.4165834468319
3480 490.4162349085386
3481 490.4162751546253
3482 490.4158677635334
3483 490.4159596680528
3484 490.4156537592474
3485 490.4159022435899
3486 490.4157490815155
3487 490.4159753681176
3488 490.4159539646494
3489 490.4163184856874
3490 490.416102075539
3491 490.4163377998788
3492 490.4162422096587
3493 490.416610159138
3494 490.4164310589668
3495 490.4166054874705
3496 490.4165258359407
3497 490.4167974741688
3498 490.416555445727
3499 490.4167398335678
3500 490.4165162572835
3501 490.4166600086165
3502 490.4163252085252
3503 490.4164336107027
3504 490.4161741845525
3505 490.4163312896031
3506 490.4160303731138
3507 490.416134034696
3508 490.4158792915705
3509 490.4159713297135
3510 490.4156975528697
3511 490.4159380349424
3512 490.4159328520002
3513 490.4165859852282
3514 490.4165915994381
3515 490.4169697127795
3516 490.4168789684767
3517 490.4170099608135
3518 490.4164938581273
3519 490.4164210641164
3520 490.4160178801031
3521 490.4160885800346
3522 490.4156880428559
3523 490.4156929926503
3524 490.4153702671643
3525 490.4154109374352
3526 490.4150172302275
3527 490.4150809701713
3528 490.4148614911991
3529 490.4152414314194
3530 490.4151783511243
3531 490.4155359865319
3532 490.4156319224401
3533 490.4160610276564
3534 490.4159356065249
3535 490.4160264659984
3536 490.4157702641716
3537 490.4159842679996
3538 490.4156193641487
3539 490.4156922398864
3540 490.415489642553
3541 490.4157096214797
3542 490.4155046392741
3543 490.4157435282858
3544 490.4156844253977
3545 490.4159191535402
3546 490.4157870394574
3547 490.416092306154
3548 490.4161309930162
3549 490.4164439776341
3550 490.4162401335895
3551 490.416416635996
3552 490.4161732983729
3553 490.4162442356904
3554 490.4157739116343
3555 490.4158528391711
3556 490.4156971194664
3557 490.4160178648147
3558 490.4158789737924
3559 490.416220821001
3560 490.4162680406378
3561 490.4166265762135
3562 490.4164349469708
3563 490.4166509807594
3564 490.4165740699832
3565 490.4168695011913
3566 490.4167522778241
3567 490.4170025795098
3568 490.4168323971772
3569 490.4170713704644
3570 490.4167327607798
3571 490.4167598906709
3572 490.4164400547945
3573 490.4165357800129
3574 490.4161827491536
3575 490.4163425797581
3576 490.4161694424238
3577 490.4164014563602
3578 490.4161890221775
3579 490.416366333597
3580 490.416128305231
3581 490.4162815586492
3582 490.4159955385992
3583 490.4161064199316
3584 490.4160343399187
3585 490.4163123357162
3586 490.4161323137009
3587 490.4164370877306
3588 490.4163659583711
3589 490.4166349945988
3590 490.4164603478199
3591 490.4166716110456
3592 490.4165888691133
3593 490.4170095100753
3594 490.4169608927098
3595 490.4172059822502
3596 490.4170186900312
3597 490.417239199266
3598 490.4168002002277
3599 490.4168193938637
3600 490.4165021877351
3601 490.4165348253811
3602 490.4162338935397
3603 490.4163673294308
3604 490.4161362370498
3605 490.4163079183074
3606 490.4160792628392
3607 490.416182184707
3608 490.4160213198128
3609 490.4161659791205
3610 490.4157558279506
3611 490.4158272191714
3612 490.415588286013
3613 490.4157219767175
3614 490.4154261629984
3615 490.4156031087949
3616 490.4154429470818
3617 490.4157059419065
3618 490.4154487704713
3619 490.4156160372992
3620 490.4155756349235
3621 490.4158660864842
3622 490.41572037256
3623 490.4159312964507
3624 490.4159163012566
3625 490.4162287164883
3626 490.4160499042098
3627 490.4161500902761
3628 490.4159092368189
3629 490.4161464860289
3630 490.4158825172245
3631 490.4160308268804
3632 490.4157965188468
3633 490.4160297032305
3634 490.4157366024684
3635 490.4158157012408
3636 490.4155968691662
3637 490.4158327566515
3638 490.4156775218219
3639 490.4159643279108
3640 490.4158329270263
3641 490.4160817763731
3642 490.4158730462561
3643 490.4160418252818
3644 490.4158068194212
3645 490.4158369809971
3646 490.4153015191151
3647 490.4152828401179
3648 490.414974191824
3649 490.4151049555781
3650 490.4147553257225
3651 490.4149632602313
3652 490.4148829943406
3653 490.4152287348927
3654 490.4150253447733
3655 490.4152855159247
3656 490.4152738803338
3657 490.4156329086053
3658 490.4154908353119
3659 490.4156626493067
3660 490.4155965399036
3661 490.4159500284786
3662 490.4158593526709
3663 490.4160815838811
3664 490.4159700323976
3665 490.4162331134644
3666 490.415994854049
3667 490.4162028557996
3668 490.4160031158455
3669 490.4161959976507
3670 490.4158836112283
3671 490.4161005719447
3672 490.4159805639339
3673 490.4163506737956
3674 490.4163191516394
3675 490.4166229342745
3676 490.4165303924185
3677 490.416773308189
3678 490.4165299024287
3679 490.4165966075873
3680 490.4163724072152
3681 490.4164708921525
3682 490.4160428740874
3683 490.4159950252825
3684 490.4156944022376
3685 490.4158121799822
3686 490.4155451021581
3687 490.4157664491336
3688 490.4156593399366
3689 490.4160592023623
3690 490.4159257956439
3691 490.4161613688399
3692 490.4160691462135
3693 490.4164139412105
3694 490.4162108072103
3695 490.4164785413234
3696 490.4164214159754
3697 490.4166844807831
3698 490.4165458790554
3699 490.4166851350471
3700 490.4164879329733
3701 490.4165853094822
3702 490.4161915681079
3703 490.4162042240916
3704 490.4159308146433
3705 490.4160927631549
3706 490.415842409212
3707 490.416066392234
3708 490.4160614395772
3709 490.416511097299
3710 490.416513459104
3711 490.4169122902005
3712 490.4170292983591
3713 490.4174323390565
3714 490.4172185124201
3715 490.4173132338819
3716 490.4171597545109
3717 490.417378454456
3718 490.4171140239924
3719 490.4173010617316
3720 490.4170211253552
3721 490.4171130649835
3722 490.4167900854707
3723 490.4168526232203
3724 490.416629962888
3725 490.4168651863874
3726 490.416501636818
3727 490.4165751918344
3728 490.416302814037
3729 490.4164751839929
3730 490.4161712963935
3731 490.4162828842954
3732 490.4160806976494
3733 490.4162930559899
3734 490.4160821992077
3735 490.4163110974061
3736 490.4162008145027
3737 490.416423359111
3738 490.4161407741444
3739 490.4162828157482
3740 490.4161479273855
3741 490.4163512340481
3742 490.4161228416063
3743 490.4163434064067
3744 490.4162286692226
3745 490.4165056197041
3746 490.4162533336813
3747 490.4164643261302
3748 490.4163542821499
3749 490.41661974173
3750 490.4163822746751
3751 490.4165117575427
3752 490.4163799620885
3753 490.4166053044927
3754 490.4163570955449
3755 490.41660531319
3756 490.416427205827
3757 490.4165719985596
3758 490.4163096586767
3759 490.4164386377018
3760 490.4162227476372
3761 490.4164320736459
3762 490.4160255758654
3763 490.4160392157307
3764 490.4157410433048
3765 490.4159158007926
3766 490.4156205698266
3767 490.4158271346086
3768 490.4156819486377
3769 490.4159176659514
3770 490.4156774187457
3771 490.4157946518228
3772 490.4156063089287
3773 490.4158486879834
3774 490.4155606539252
3775 490.4156014341037
3776 490.41539580765
3777 490.4155465442446
3778 490.4152052701679
3779 490.4153892025651
3780 490.4151834816953
3781 490.4153777322742
3782 490.4151968523326
3783 490.4154362654073
3784 490.4153673848214
3785 490.4157047153801
3786 490.4155142514236
3787 490.4156756557517
3788 490.4155373362321
3789 490.4159052710568
3790 490.4158276389292
3791 490.4161055888544
3792 490.4160140043015
3793 490.4163882969791
3794 490.4161454988927
3795 490.4163889423565
3796 490.4161616014215
3797 490.4163307632492
3798 490.4160057530442
3799 490.4160584938548
3800 490.4157855807438
3801 490.4159710160934
3802 490.4157566506398
3803 490.4160369688821
3804 490.4160120518525
3805 490.4163148219409
3806 490.4160590135215
3807 490.41613246767
3808 490.4158667199229
3809 490.4159586451719
3810 490.4154770639718
3811 490.4154644814384
3812 490.4152082708735
3813 490.4153457318337
3814 490.41499645413
3815 490.4151476150162
3816 490.4151111808703
3817 490.4154900011695
3818 490.4154622320926
3819 490.4158496571855
3820 490.4157638229108
3821 490.4160531111439
3822 490.4158272739512
3823 490.4158936324411
3824 490.4156747364485
3825 490.4158838222364
3826 490.4155336414624
3827 490.4156176385416
3828 490.4153020535128
3829 490.4153989374204
3830 490.4150702866974
3831 490.4153576236206
3832 490.4152861909889
3833 490.4156555300192
3834 490.4156187332257
3835 490.4159671462356
3836 490.4159606224343
3837 490.4163048126655
3838 490.4161559392513
3839 490.4164379727504
3840 490.4163634678197
3841 490.4166466441798
3842 490.4163776601355
3843 490.4164380764866
3844 490.4162025404732
3845 490.4163717225663
3846 490.416096561821
3847 490.4162783776003
3848 490.4161557430292
3849 490.4164136909604
3850 490.4161454430563
3851 490.4163883175443
3852 490.4163528906554
3853 490.4166926324458
3854 490.4165896881377
3855 490.4168693615873
3856 490.4166863822047
3857 490.4169062418316
3858 490.4165604801211
3859 490.4165745472366
3860 490.4163392277686
3861 490.4164931377255
3862 490.4162595399903
3863 490.4164673018834
3864 490.4163884376152
3865 490.4166563508991
3866 490.4164270527956
3867 490.4165508048724
3868 490.4163340408165
3869 490.4165480407811
3870 490.4162991181307
3871 490.4164614745494
3872 490.4162981710784
3873 490.4164833046137
3874 490.4161991941365
3875 490.4163837611758
3876 490.4162935023826
3877 490.4165953207842
3878 490.4163828210215
3879 490.4165846515126
3880 490.4164102875492
3881 490.4166042351856
3882 490.416324413016
3883 490.4164373054016
3884 490.4162292840801
3885 490.4165115429089
3886 490.4162466225605
3887 490.4163881387769
3888 490.4162419102389
3889 490.4165113593327
3890 490.4162700526804
3891 490.4164681059069
3892 490.4162609350373
3893 490.4165517420344
3894 490.4163187823181
3895 490.416574861136
3896 490.4164233196183
3897 490.4164981086593
3898 490.4160392374445
3899 490.4159873797156
3900 490.4157031498909
3901 490.4157992573377
3902 490.4154140387326
3903 490.4155111330454
3904 490.4151789372753
3905 490.4152772372171
3906 490.4148668965375
3907 490.4149535402564
3908 490.4147866592818
3909 490.4151184302172
3910 490.4149259449167
3911 490.4152273360718
3912 490.4152311259809
3913 490.415642119194
3914 490.4154578528905
3915 490.4156704019415
3916 490.415536338622
3917 490.4158152357223
3918 490.4155551533423
3919 490.415781561444
3920 490.4156404222203
3921 490.4158847003195
3922 490.4157241188409
3923 490.4159673398844
3924 490.4158756948129
3925 490.4161602798104
3926 490.4161490794057
3927 490.4164280903028
3928 490.4162013340975
3929 490.4164404745981
3930 490.4162256589443
3931 490.4163329688058
3932 490.416122194976
3933 490.416276218542
3934 490.416083551206
3935 490.4162888653432
3936 490.4160908593437
3937 490.4162398645332
3938 490.4160635500393
3939 490.4163419890492
3940 490.4162630484362
3941 490.4165233725607
3942 490.4164681881105
3943 490.4167979276084
3944 490.4166638664514
3945 490.4169139668611
3946 490.4166782140522
3947 490.4169084083686
3948 490.4166207858028
3949 490.4166736815466
3950 490.4162999960999
3951 490.41624991113
3952 490.4158206406875
3953 490.4158614372344
3954 490.4155452155328
3955 490.4156274225007
3956 490.4153459857841
3957 490.4155252984693
3958 490.4155347063174
3959 490.415914114725
3960 490.415937854729
3961 490.4163172184771
3962 490.4164679890479
3963 490.4169620352797
3964 490.4170193980102
3965 490.4173603701263
3966 490.417194781967
3967 490.4174294280159
3968 490.4171802806874
3969 490.417261152418
3970 490.4169951422199
3971 490.4171269738246
3972 490.4166861485263
3973 490.4165202313516
3974 490.4160283135794
3975 490.4159371122888
3976 490.4156574050448
3977 490.4158316521113
3978 490.4156808014926
3979 490.415850424351
3980 490.4156900366213
3981 490.4159532932425
3982 490.4158218250842
3983 490.4160486738553
3984 490.4158078650398
3985 490.4160085130177
3986 490.4158960907151
3987 490.4161302035669
3988 490.4158469200033
3989 490.4160140024603
3990 490.4158399636641
3991 490.41595283795
3992 490.4156105893931
3993 490.4157177815864
3994 490.4154865148371
3995 490.4156816806558
3996 490.4154097772046
3997 490.4155999595873
3998 490.4154895910245
3999 490.4157906361239
4000 490.4156828273632
4001 490.4159584692414
4002 490.4158665665029
4003 490.4161404591863
4004 490.4159037102715
4005 490.4160778245642
4006 490.4159022076811
4007 490.4160925706578
4008 490.415834782474
4009 490.4158550773448
4010 490.415610242817
4011 490.4157140665712
4012 490.4155165413453
4013 490.4158434965411
4014 490.4158634504099
4015 490.416253664774
4016 490.4162662959234
4017 490.4166580122354
4018 490.4166700260855
4019 490.4170716470829
4020 490.4169172023743
4021 490.4170672933513
4022 490.4168223089604
4023 490.4168073404769
4024 490.4162936400995
4025 490.4161640231229
4026 490.4157337141256
4027 490.4156529912358
4028 490.4152261154122
4029 490.4152770331685
4030 490.4151285032244
4031 490.4154183834422
4032 490.4152502515394
4033 490.4155001294738
4034 490.4155474819515
4035 490.4160341184179
4036 490.416049433974
4037 490.4164915401598
4038 490.4164595084413
4039 490.4167388782627
4040 490.4166218617849
4041 490.4168068035262
4042 490.4165965462361
4043 490.4167554473096
4044 490.4164612030048
4045 490.4165871724312
4046 490.4162994152438
4047 490.4164201443858
4048 490.4160015109593
4049 490.4161270399744
4050 490.416024806357
4051 490.4162642054656
4052 490.4160971201843
4053 490.4163649074303
4054 490.4162422944659
4055 490.4164111321561
4056 490.4160877662445
4057 490.4161626670654
4058 490.4160669251539
4059 490.416372084623
4060 490.4161370475983
4061 490.4163683449316
4062 490.4162918993193
4063 490.416587516909
4064 490.4163865948482
4065 490.4165108761813
4066 490.4162935427919
4067 490.4164819440486
4068 490.4162372284428
4069 490.4163771328647
4070 490.4161876409844
4071 490.4163010204135
4072 490.4158338409562
4073 490.4158382295286
4074 490.4155143528464
4075 490.4156183919337
4076 490.4153691659248
4077 490.4157179193826
4078 490.4157307923059
4079 490.4161724844598
4080 490.4161581298898
4081 490.4165013701415
4082 490.4164010318632
4083 490.416690465605
4084 490.4164197147547
4085 490.4165608351775
4086 490.4164343149639
4087 490.4166082154458
4088 490.4163102074723
4089 490.4164474566505
4090 490.4162739923805
4091 490.4165344918694
4092 490.4162889760925
4093 490.4165807444706
4094 490.4164735362534
4095 490.4169596294485
4096 490.4168211367094
4097 490.4171078467759
4098 490.4170271726564
4099 490.4172266555144
4100 490.4168472506972
4101 490.4167420106489
4102 490.4163020964928
4103 490.4162088125261
4104 490.4156115939862
4105 490.4155605387374
4106 490.4153419587881
4107 490.4155894810909
4108 490.415379728264
4109 490.4157094957087
4110 490.4157197007985
4111 490.4161975604257
4112 490.4162025661241
4113 490.4166331084411
4114 490.4167033479548
4115 490.4171054924295
4116 490.416912148609
4117 490.4170136477499
4118 490.4167151429203
4119 490.4168090100372
4120 490.4162399420672
4121 490.4161334408154
4122 490.415754466427
4123 490.415874681953
4124 490.4156239848014
4125 490.4157717076815
4126 490.4156361716801
4127 490.4160125422732
4128 490.4159275786607
4129 490.4162926079521
4130 490.4162749452964
4131 490.4165870594778
4132 490.4163578700242
4133 490.4164722029413
4134 490.4161973017159
4135 490.4162732518062
4136 490.4158876257948
4137 490.4159189541457
4138 490.4156718032432
4139 490.4158036833287
4140 490.415441372528
4141 490.4155728605709
4142 490.4155141841079
4143 490.4158628700227
4144 490.4157387332788
4145 490.4160572109491
4146 490.4159971954364
4147 490.416276508391
4148 490.4159435186429
4149 490.4159791343423
4150 490.4156391396227
4151 490.4157033548872
4152 490.4153273162626
4153 490.4154792287734
4154 490.4154083339266
4155 490.415728158613
4156 490.4155012278395
4157 490.4156634403937
4158 490.4154954194456
4159 490.4157528005963
4160 490.4155316833646
4161 490.4157305519552
4162 490.4156479748447
4163 490.4159049430791
4164 490.4156555355812
4165 490.4157937430446
4166 490.4157217728658
4167 490.4160117393338
4168 490.4157993585753
4169 490.4159993545834
4170 490.4159249310925
4171 490.4162449203093
4172 490.416086999835
4173 490.4163002954039
4174 490.4161527818715
4175 490.4163554303548
4176 490.4160927827864
4177 490.4161826822652
4178 490.4159292065578
4179 490.4161076799391
4180 490.4157993447523
4181 490.4159476570427
4182 490.4158051464902
4183 490.4160071949248
4184 490.4157702566329
4185 490.4161136134873
4186 490.4161386469962
4187 490.4165615596891
4188 490.4166598980495
4189 490.4171047452647
4190 490.4171687368197
4191 490.4175099000798
4192 490.4172204572465
4193 490.4173167178675
4194 490.4170477305462
4195 490.4170765153418
4196 490.4165351578044
4197 490.4164276476017
4198 490.4161463837142
4199 490.4163038177456
4200 490.4160155398372
4201 490.4162064121655
4202 490.4161618961873
4203 490.4166473052088
4204 490.416613428966
4205 490.4169715459005
4206 490.416965992528
4207 490.4172510311698
4208 490.4169406782666
4209 490.4169729456565
4210 490.4166552851119
4211 490.4167559170724
4212 490.4163250741177
4213 490.4163839073157
4214 490.4161647006556
4215 490.4163030935322
4216 490.4161000796788
4217 490.4163692823071
4218 490.4163599620504
4219 490.4167559714927
4220 490.4166429619955
4221 490.4169275428644
4222 490.4168595638864
4223 490.4171182023193
4224 490.4167873370583
4225 490.416865077038
4226 490.4164982672493
4227 490.4165691432534
4228 490.4161172020332
4229 490.416098121708
4230 490.4157871842265
4231 490.4158636132526
4232 490.4154996568558
4233 490.4156899390345
4234 490.4156765666964
4235 490.4160905652703
4236 490.4160296515834
4237 490.4163451566223
4238 490.416337924806
4239 490.4166732238547
4240 490.41648567064
4241 490.4166363653814
4242 490.4164062781276
4243 490.4165096658282
4244 490.4160774812668
4245 490.4160810451851
4246 490.4157558339069
4247 490.4158750329613
4248 490.4154502818346
4249 490.4155541101075
4250 490.4154653907406
4251 490.4158413647806
4252 490.4157914553931
4253 490.4162034557393
4254 490.4161175725135
4255 490.4164953600787
4256 490.4162925287822
4257 490.4165003096539
4258 490.4164848628768
4259 490.4168039134966
4260 490.4165790643117
4261 490.4167600988461
4262 490.4165636506686
4263 490.4168117306047
4264 490.4164560876126
4265 490.4164890016536
4266 490.4162428904168
4267 490.4164281843078
4268 490.4160351775736
4269 490.4160608920568
4270 490.4157868943132
4271 490.4159688226077
4272 490.4156653121728
4273 490.4157713214634
4274 490.4155477268779
4275 490.4157599608705
4276 490.4156053558965
4277 490.4158977621809
4278 490.4157922713161
4279 490.4160660275452
4280 490.4158530963168
4281 490.4161215808372
4282 490.4160215897766
4283 490.416256159188
4284 490.4159508808522
4285 490.4160271913086
4286 490.4157297149681
4287 490.4158823237583
4288 490.4156480068237
4289 490.4158944352027
4290 490.4158427600848
4291 490.4160761463462
4292 490.4158353793476
4293 490.4160777656877
4294 490.4160498577003
4295 490.416464606339
4296 490.4163177473313
4297 490.4166569354563
4298 490.4166223483765
4299 490.416835099972
4300 490.4164383742046
4301 490.4163965439717
4302 490.4160256396299
4303 490.4160583612857
4304 490.4156771531557
4305 490.4158094504168
4306 490.4156947757238
4307 490.415954793743
4308 490.415735975018
4309 490.4159909546993
4310 490.4158845921369
4311 490.4162237052836
4312 490.4160838405979
4313 490.4164561795299
4314 490.4163923257115
4315 490.4166370156267
4316 490.4164248647066
4317 490.4165008407829
4318 490.416173993135
4319 490.4162927072977
4320 490.4158457004305
4321 490.4158109393925
4322 490.4155173801107
4323 490.4155869620003
4324 490.4151785061359
4325 490.4153070319185
4326 490.415223161996
4327 490.4155519094487
4328 490.4154070545435
4329 490.4155941357081
4330 490.4154618755834
4331 490.415854806601
4332 490.4156793083292
4333 490.4159296928944
4334 490.4159428535139
4335 490.4162336716434
4336 490.4160526743495
4337 490.4163408527716
4338 490.4162602568128
4339 490.4166617139854
4340 490.4165796223611
4341 490.4168649477327
4342 490.4167636258514
4343 490.4169746706478
4344 490.4166534594101
4345 490.4166908976164
4346 490.4163727874424
4347 490.4163455495864
4348 490.4159125853321
4349 490.4159849342493
4350 490.415746747704
4351 490.4159494185677
4352 490.4157107305732
4353 490.4159407717983
4354 490.4157959574169
4355 490.4160851792067
4356 490.4158632218358
4357 490.4160774852353
4358 490.4159065753786
4359 490.4160637915796
4360 490.4156752323208
4361 490.4156872274258
4362 490.4154534141552
4363 490.4156085099323
4364 490.4153763045325
4365 490.4154850564678
4366 490.4152576935764
4367 490.4155796862642
4368 490.4154936690215
4369 490.4158340532162
4370 490.4159007810263
4371 490.4163936821523
4372 490.4162300062998
4373 490.4164562521972
4374 490.416255766162
4375 490.4164283860678
4376 490.416091071181
4377 490.4161808928789
4378 490.4158913881984
4379 490.4160699405772
4380 490.4157837853714
4381 490.41591677372
4382 490.4157285286845
4383 490.4159216944265
4384 490.4156497345115
4385 490.415895173451
4386 490.415885009482
4387 490.4163098651647
4388 490.4160859088153
4389 490.4164146425901
4390 490.4163132297869
4391 490.4165424414501
4392 490.41615607924
4393 490.4162318117934
4394 490.4158188745106
4395 490.4157654194669
4396 490.4152433351582
4397 490.4152072235438
4398 490.4150079223899
4399 490.4152524123965
4400 490.4150568969042
4401 490.4153360193893
4402 490.4152422417334
4403 490.4156010978675
4404 490.4155989827553
4405 490.4159938480172
4406 490.4159744903442
4407 490.4162652535771
4408 490.4159741825284
4409 490.4161623055447
4410 490.4159708929332
4411 490.416166474123
4412 490.4161055551166
4413 490.4164247150076
4414 490.4163896566155
4415 490.4167305555402
4416 490.4166939488767
4417 490.4170083703013
4418 490.4169234658042
4419 490.4171191470907
4420 490.4168588723476
4421 490.4169376248245
4422 490.4165871437233
4423 490.4166475662864
4424 490.4163132021289
4425 490.4164214885744
4426 490.4161652862506
4427 490.4164197723895
4428 490.4162846607616
4429 490.4166072069774
4430 490.4164774041933
4431 490.4168055224723
4432 490.4167483820872
4433 490.4170816997815
4434 490.4171321712473
4435 490.4175072281939
4436 490.4173977857543
4437 490.4175672320042
4438 490.417240024099
4439 490.4172062746285
4440 490.4166747431156
4441 490.4166366963071
4442 490.4163092945502
4443 490.4163957930509
4444 490.4160628566261
4445 490.4162782817818
4446 490.4161428052029
4447 490.4164158464361
4448 490.4163635075029
4449 490.4166426833166
4450 490.4165501857221
4451 490.4167032481446
4452 490.4164949784485
4453 490.4165294036031
4454 490.4163419368355
4455 490.4165857387372
4456 490.4164490638469
4457 490.4165400588544
4458 490.416298731144
4459 490.4163855171112
4460 490.4161234457874
4461 490.4162828299363
4462 490.4161232924986
4463 490.4164411318022
4464 490.416396253498
4465 490.416725926431
4466 490.4166288899959
4467 490.4168627098512
4468 490.416675505838
4469 490.4167753796381
4470 490.4164863078224
4471 490.4165204662073
4472 490.4162619722098
4473 490.4164673877531
4474 490.4162967499234
4475 490.4164266233577
4476 490.4161089161609
4477 490.4161487048611
4478 490.4159176165738
4479 490.4160912592757
4480 490.4158383347925
4481 490.4161251107265
4482 490.41600912592
4483 490.4162602957799
4484 490.4161022295687
4485 490.4163602398299
4486 490.416146242173
4487 490.4162572941381
4488 490.4159606984103
4489 490.4160077403617
4490 490.4157922744626
4491 490.4160760272239
4492 490.4160544677227
4493 490.4163301141484
4494 490.4162299424921
4495 490.41624073782
4496 490.4159133704485
4497 490.4159564975689
4498 490.4156601940585
4499 490.4157388541244
4500 490.4153595090668
4501 490.4154870959089
4502 490.41523403847
4503 490.4153584981098
4504 490.4150802451794
4505 490.4152503106619
4506 490.4150430192861
4507 490.4152664536001
4508 490.415039544855
4509 490.4152407645969
4510 490.4151428687508
4511 490.4155197416289
