"mz-rfile"
"Iteration" "mz"
("Iteration" "mz")
1746 6708.872541579119
1747 6812.507704040904
1748 6963.763848118975
1749 7289.984587435083
1750 7678.443083880881
1751 7993.860635534204
1752 8324.968517633346
1753 8643.397494354222
1754 8928.90981424958
1755 9156.048761157313
1756 9358.609121014921
1757 9474.190233699466
1758 9509.411786475599
1759 9463.044952657401
1760 9394.387315866787
1761 9298.03506888548
1762 9206.962125440559
1763 9115.536137260173
1764 9054.111027304685
1765 9013.547610091871
1766 8991.735505514733
1767 8998.259965382496
1768 9035.730270535083
1769 9085.842224637574
1770 9181.665943388502
1771 9274.351980892085
1772 9425.081954112125
1773 9555.187427785393
1774 9745.829367579059
1775 9895.42723098963
1776 10099.88991560146
1777 10255.02459356623
1778 10460.45171143121
1779 10609.00802505614
1780 10800.50157094885
1781 10932.98015600943
1782 11057.52211098285
1783 11174.83136734358
1784 11281.47828688568
1785 11378.88988960097
1786 11465.77410816295
1787 11541.14266592555
1788 11605.09766440525
1789 11658.47718833416
1790 11702.13934359528
1791 11734.7033797991
1792 11759.78316770693
1793 11774.25721766194
1794 11781.98355621188
1795 11781.60759727852
1796 11775.26151608602
1797 11763.13707986309
1798 11751.39982662566
1799 11730.00733478433
1800 11713.77949292549
1801 11687.04550035061
1802 11667.56279137647
1803 11637.41338807431
1804 11616.28932771355
1805 11594.42480701429
1806 11562.11002295825
1807 11540.34216031613
1808 11519.20809817676
1809 11498.1614852707
1810 11477.75234517069
1811 11456.67819282927
1812 11436.54268193012
1813 11417.4657041531
1814 11398.97303787531
1815 11380.54247769495
1816 11364.07192172631
1817 11347.9970322624
1818 11333.39947927581
1819 11319.66074833798
1820 11307.3094567239
1821 11295.73758354765
1822 11285.81680198564
1823 11276.71697954223
1824 11269.25965297346
1825 11262.52287401522
1826 11257.07441020777
1827 11253.2327905211
1828 11250.60987643849
1829 11248.92613881373
1830 11248.3941771481
1831 11248.33326322904
1832 11249.21179308502
1833 11250.45368068248
1834 11252.19665249054
1835 11254.20602090337
1836 11256.12222287739
1837 11257.89075912948
1838 11259.77780712879
1839 11261.95047831157
1840 11263.75665838779
1841 11265.61469700239
1842 11266.56339303496
1843 11266.8548023848
1844 11266.85288395709
1845 11266.07457407722
1846 11264.79950780649
1847 11262.70042925864
1848 11259.71947555723
1849 11256.15374462915
1850 11251.85577490114
1851 11247.45955922484
1852 11242.38923032492
1853 11236.75552440996
1854 11230.44122466203
1855 11224.24804476778
1856 11217.98805129968
1857 11211.01808527861
1858 11203.92285060353
1859 11196.20059567833
1860 11188.27124601549
1861 11180.46973776586
1862 11172.99935702444
1863 11165.29908673221
1864 11157.68002511599
1865 11150.00006032063
1866 11142.62269772386
1867 11135.18752340546
1868 11128.02764346323
1869 11120.9937176217
1870 11114.08133949674
1871 11107.32621092266
1872 11100.99746739694
1873 11094.30774096922
1874 11088.14079091987
1875 11081.81865211015
1876 11075.92758967717
1877 11069.98792491869
1878 11064.46993607545
1879 11059.19865678421
1880 11054.06310835331
1881 11048.89307586
1882 11044.22081381896
1883 11039.73993682244
1884 11035.48789501651
1885 11029.07484787862
1886 11025.69621353721
1887 11022.54751552545
1888 11018.10989008245
1889 11015.54344444523
1890 11012.61426239777
1891 11010.73965981636
1892 11008.66440994857
1893 11007.38751038277
1894 11006.60434617048
1895 11006.33671591111
1896 11006.32277193208
1897 11006.3259107441
1898 11007.13639421897
1899 11008.43311188959
1900 11010.25014672291
1901 11012.95926888169
1902 11016.12250768497
1903 11019.44074620131
1904 11023.6299464876
1905 11027.64635839557
1906 11032.30635742817
1907 11037.79566108186
1908 11043.2002950595
1909 11049.04018689387
1910 11055.59099134401
1911 11061.99178289853
1912 11068.98710479625
1913 11076.38126889088
1914 11084.18687209705
1915 11092.0457747167
1916 11099.58460525876
1917 11110.22477461239
1918 11118.79513891932
1919 11127.34317294165
1920 11139.12383423518
1921 11148.50934874808
1922 11161.58896198748
1923 11171.86694188438
1924 11185.75970392772
1925 11199.86646863735
1926 11213.68558684981
1927 11227.72367175317
1928 11241.81440201158
1929 11256.10626497891
1930 11270.9921551058
1931 11286.64864074995
1932 11302.51554283908
1933 11317.73888851423
1934 11333.3547692695
1935 11349.55750262663
1936 11366.44718204114
1937 11383.21564686737
1938 11400.26208825258
1939 11421.15113019488
1940 11437.10353623647
1941 11453.09766426077
1942 11473.92010870309
1943 11490.91679992735
1944 11508.05549269838
1945 11529.16863517077
1946 11545.46912547906
1947 11562.23601491775
1948 11582.41577544628
1949 11598.76871220418
1950 11614.57072830524
1951 11633.71615937811
1952 11648.05851829569
1953 11663.43829245585
1954 11681.73235079443
1955 11695.93296214394
1956 11708.37324136484
1957 11724.12440718393
1958 11734.9682584812
1959 11744.91238469839
1960 11756.29946561828
1961 11764.95378969708
1962 11771.68547852808
1963 11777.23838809342
1964 11781.17508609494
1965 11784.61753957734
1966 11785.68194799974
1967 11785.06758644854
1968 11782.81092548542
1969 11778.304089826
1970 11770.2445446401
1971 11762.07376592771
1972 11751.00655892146
1973 11737.70769863761
1974 11722.92056686395
1975 11705.65799180569
1976 11686.03680644518
1977 11665.66279160758
1978 11643.09344463118
1979 11616.93493423572
1980 11591.00472068653
1981 11561.53285714525
1982 11530.75248495177
1983 11497.35735480522
1984 11461.44070024758
1985 11425.14489291657
1986 11386.11768644469
1987 11345.321672418
1988 11302.65895878191
1989 11257.97416730654
1990 11213.15089405188
1991 11166.15353846779
1992 11117.14421773053
1993 11068.07589163359
1994 11008.21954232729
1995 10960.73749355109
1996 10912.71585380217
1997 10862.04324156746
1998 10801.58402005537
1999 10755.30447783801
2000 10709.00869091097
2001 10663.04283982931
2002 10616.87356115704
2003 10571.09412015361
2004 10525.78089804956
2005 10481.82533908832
2006 10438.89503753161
2007 10397.37889741322
2008 10355.76042007111
2009 10317.27505549453
2010 10280.30455135594
2011 10245.88160832923
2012 10213.00485295435
2013 10183.13486598365
2014 10154.14517311201
2015 10128.56242309194
2016 10107.40701411061
2017 10092.09774560961
2018 10073.93665643539
2019 10061.81454981977
2020 10048.21861479181
2021 10039.54651941954
2022 10031.24705452461
2023 10026.63026962805
2024 10023.59526686594
2025 10023.24339319527
2026 10023.67839097926
2027 10028.90935934708
2028 10034.02313181957
2029 10042.90571800088
2030 10056.22885740145
2031 10069.32430396943
2032 10085.9964937236
2033 10104.13919229238
2034 10124.33032232775
2035 10147.00199748621
2036 10171.18780866121
2037 10199.39193664292
2038 10227.71848853769
2039 10258.56227878548
2040 10290.43895458836
2041 10325.3756155849
2042 10361.17973802297
2043 10399.97007312011
2044 10441.05792163934
2045 10483.40425020529
2046 10526.44686842985
2047 10571.71624689239
2048 10617.31965126591
2049 10662.90119485567
2050 10708.54979673808
2051 10755.54227285242
2052 10803.7304599199
2053 10865.10046588929
2054 10910.80765363915
2055 10954.94988633543
2056 10998.05359645602
2057 11040.59798448741
2058 11081.78431417752
2059 11135.8378130882
2060 11175.01939564153
2061 11211.83361120621
2062 11247.5104607521
2063 11279.66165895679
2064 11318.70190344129
2065 11345.87511933032
2066 11368.67903502103
2067 11390.46347483046
2068 11410.43503285484
2069 11433.25152194176
2070 11447.74160054042
2071 11459.96344103738
2072 11469.17439860351
2073 11476.27169066094
2074 11482.01919385725
2075 11485.99673500405
2076 11489.04947236294
2077 11492.16356666183
2078 11492.90714013031
2079 11492.90160056377
2080 11491.71605121491
2081 11490.89304999616
2082 11490.44583632563
2083 11490.38331797082
2084 11488.48084694443
2085 11488.48287068971
2086 11488.8255559195
2087 11491.12240003735
2088 11493.38558262213
2089 11496.56519414403
2090 11501.61058786735
2091 11508.64088553451
2092 11515.26522686516
2093 11524.87701814225
2094 11535.22434708936
2095 11548.06074092019
2096 11561.57019096847
2097 11575.55919796941
2098 11590.82143018898
2099 11607.68217536862
2100 11625.61841219135
2101 11644.24850218857
2102 11661.41988565327
2103 11680.55507458969
2104 11699.7457834886
2105 11720.00920707139
2106 11740.45317598286
2107 11761.73680969244
2108 11784.65778258898
2109 11806.79996088142
2110 11829.42661841739
2111 11850.74771238288
2112 11872.56898773307
2113 11892.41364501409
2114 11913.23610368259
2115 11931.55082332847
2116 11949.85551939459
2117 11966.25944461531
2118 11983.59196282161
2119 12000.48461412365
2120 12016.06627674327
2121 12029.96018260239
2122 12042.97670255904
2123 12054.31540043791
2124 12063.94909390775
2125 12072.34521034144
2126 12077.68543706287
2127 12082.4010682135
2128 12085.36599572371
2129 12085.91600734358
2130 12086.18824335994
2131 12082.68290207016
2132 12079.99025151505
2133 12074.63364836243
2134 12067.48409272597
2135 12057.97790469935
2136 12045.20138766016
2137 12031.43014780612
2138 12014.21465803391
2139 11994.89985780996
2140 11974.19483195126
2141 11951.04481877596
2142 11925.71155000074
2143 11897.77871597033
2144 11867.69147736255
2145 11835.491809162
2146 11799.09728633313
2147 11761.19224713946
2148 11721.14768839941
2149 11678.71662679855
2150 11633.32604160642
2151 11586.81835070862
2152 11540.49298678513
2153 11489.71024637645
2154 11435.91134438163
2155 11381.17321996248
2156 11324.03658324998
2157 11264.7281900935
2158 11204.2010725923
2159 11142.58653293622
2160 11080.71188970385
2161 11017.66295249115
2162 10932.35430532745
2163 10869.68887542489
2164 10805.73306712771
2165 10742.00741260872
2166 10658.52404635256
2167 10597.66799013721
2168 10514.94889902635
2169 10455.65501067111
2170 10396.37215204159
2171 10319.91022072309
2172 10265.17700065715
2173 10192.79198456195
2174 10141.51691093156
2175 10075.16697930518
2176 10026.74712947432
2177 9962.907279098112
2178 9917.674461113009
2179 9873.737608684212
2180 9830.717438341644
2181 9773.103189703723
2182 9732.67597822093
2183 9693.344573348919
2184 9655.769508425759
2185 9618.09576850777
2186 9582.214644658578
2187 9548.730461829655
2188 9515.994525356891
2189 9485.186139998243
2190 9454.395481786289
2191 9428.185897577348
2192 9401.838527105254
2193 9378.279976854275
2194 9356.519935087152
2195 9338.377830982614
2196 9322.612816452009
2197 9312.368056377629
2198 9299.853362541713
2199 9292.501626491776
2200 9281.632012611453
2201 9275.470121870074
2202 9269.392285491605
2203 9266.386016832916
2204 9262.178802736242
2205 9260.384027995491
2206 9259.246655838837
2207 9258.844221479303
2208 9259.52004138874
2209 9260.830295416989
2210 9263.555894979594
2211 9266.389257771751
2212 9271.384359019987
2213 9275.614859956908
2214 9281.663187631155
2215 9286.806204774521
2216 9295.075681408509
2217 9301.328591235062
2218 9310.917880853074
2219 9315.629426713427
2220 9324.592584670971
2221 9330.236643900527
2222 9337.473537899525
2223 9341.787241108654
2224 9348.045693506445
2225 9351.185508816565
2226 9354.668946199499
2227 9356.173740057395
2228 9358.99239962564
2229 9359.034435329433
2230 9357.674791152553
2231 9356.0100722567
2232 9353.35410618194
2233 9351.111519565728
2234 9347.493993241238
2235 9344.095634688252
2236 9338.690045778798
2237 9335.952827598305
2238 9331.474377598361
2239 9327.346904594113
2240 9322.069582028063
2241 9318.809400965394
2242 9316.145847978683
2243 9311.203226153231
2244 9309.661121770885
2245 9306.297990429701
2246 9304.725843916669
2247 9303.486708499222
2248 9303.470659198527
2249 9303.217131280184
2250 9303.463916007002
2251 9304.6080688949
2252 9306.094183835379
2253 9309.120056647012
2254 9311.697017698289
2255 9315.621664270397
2256 9318.59503493442
2257 9322.903044408906
2258 9325.901919549362
2259 9330.843580368593
2260 9333.850469323419
2261 9336.538655035387
2262 9341.190338411814
2263 9344.485127163225
2264 9347.291001189114
2265 9351.638470135635
2266 9354.241488239943
2267 9358.816911249456
2268 9361.077089337699
2269 9363.25951501206
2270 9364.943644457602
2271 9366.378873215419
2272 9366.854318671332
2273 9367.559473874075
2274 9367.510667467974
2275 9366.713875275327
2276 9365.319676293626
2277 9362.777455487874
2278 9360.197560908895
2279 9355.810205760956
2280 9351.994392397586
2281 9345.375332149815
2282 9340.584971988825
2283 9332.757489757932
2284 9326.879505260118
2285 9317.981513172441
2286 9310.571970486573
2287 9298.978667676076
2288 9291.021162009967
2289 9278.733654943026
2290 9269.603124823076
2291 9255.633487231769
2292 9245.707071529741
2293 9230.260557553078
2294 9215.130028452755
2295 9204.605754974116
2296 9188.146966356113
2297 9171.727723286303
2298 9160.627260014842
2299 9143.187430475293
2300 9126.565540506965
2301 9114.69480771738
2302 9097.171949850519
2303 9080.337428718833
2304 9063.0600912956
2305 9046.111518188864
2306 9029.32533100129
2307 9013.269124540582
2308 8997.372842563273
2309 8986.86320794277
2310 8971.072506463563
2311 8954.636373176865
2312 8938.961206550262
2313 8923.187115134058
2314 8907.906185674605
2315 8897.870469083873
2316 8883.373490320073
2317 8868.602056857288
2318 8854.120598080908
2319 8844.07376582942
2320 8829.64398358942
2321 8815.476435990124
2322 8805.982658370718
2323 8791.844763810464
2324 8777.841218907968
2325 8768.597397276391
2326 8756.139520572924
2327 8743.148586625237
2328 8731.496739474995
2329 8724.059145519999
2330 8713.52801878117
2331 8703.907984966463
2332 8698.223544297409
2333 8690.251596434749
2334 8683.324905533787
2335 8679.2640042899
2336 8674.25457885289
2337 8670.333462196701
2338 8668.069786087477
2339 8665.972800770205
2340 8665.406425768198
2341 8665.271193930283
2342 8665.835398732352
2343 8667.757686350773
2344 8669.888443851321
2345 8674.379004053222
2346 8677.893242440769
2347 8684.375452939412
2348 8689.14803207606
2349 8697.133167839525
2350 8703.584043920224
2351 8713.504276400188
2352 8720.619073053793
2353 8732.237359173696
2354 8740.601617018488
2355 8753.793417113686
2356 8762.987062259734
2357 8776.569977324034
2358 8786.064229863106
2359 8800.721415257101
2360 8810.773998503908
2361 8825.92566804204
2362 8836.570645897653
2363 8852.11992092961
2364 8862.555106920006
2365 8877.914858584018
2366 8888.161335754976
2367 8902.670722680503
2368 8912.302472461632
2369 8926.395814416792
2370 8935.757330376167
2371 8949.437584927051
2372 8957.953280424299
2373 8970.5871989523
2374 8978.965333309845
2375 8990.88927293043
2376 8998.570904781804
2377 9010.371456052841
2378 9017.689251361973
2379 9028.761664054462
2380 9035.390096210713
2381 9042.193034950429
2382 9052.011375712555
2383 9058.424175831089
2384 9064.941343546283
2385 9075.565469897863
2386 9082.044789274421
2387 9088.550844361114
2388 9098.073604850782
2389 9104.116529509525
2390 9109.777973526996
2391 9115.553273063304
2392 9123.992885579321
2393 9129.41151232958
2394 9134.712749293782
2395 9139.839638561152
2396 9147.262507406909
2397 9151.642957495751
2398 9155.488844677417
2399 9159.567071412941
2400 9164.296905981855
2401 9166.990619347363
2402 9169.14218476307
2403 9171.078663682987
2404 9173.073297090697
2405 9173.778965699801
2406 9174.228864195444
2407 9173.671707668987
2408 9172.275917576793
2409 9170.885848029859
2410 9169.223481241712
2411 9166.974725288057
2412 9162.686347206491
2413 9159.603791435136
2414 9155.824949097665
2415 9151.722056885803
2416 9144.507318213999
2417 9139.59295702585
2418 9134.326732234687
2419 9128.451435606758
2420 9120.150792899856
2421 9114.311863398925
2422 9108.297722968095
2423 9099.124679440132
2424 9092.903866889779
2425 9084.05060764036
2426 9078.357945368782
2427 9070.220642532297
2428 9065.180912020927
2429 9058.430572622081
2430 9054.433791191525
2431 9048.539833491557
2432 9043.669762985473
2433 9039.853808453854
2434 9036.581161532431
2435 9034.390176346784
2436 9032.991828753427
2437 9032.686620095172
2438 9033.343900290656
2439 9034.326529630631
2440 9036.435349785326
2441 9038.969798463591
2442 9042.03964135046
2443 9045.051558151972
2444 9049.627504465327
2445 9053.904810457982
2446 9058.407637414193
2447 9061.714301301625
2448 9066.144411108729
2449 9070.456870945582
2450 9073.299544137933
2451 9077.703956402451
2452 9080.285010317382
2453 9083.559575463523
2454 9085.374902605377
2455 9087.965132243062
2456 9089.304574576061
2457 9090.19839251773
2458 9090.657271077996
2459 9090.617536408268
2460 9089.846342052935
2461 9088.113004061719
2462 9086.419501497641
2463 9082.668762840734
2464 9079.813043311551
2465 9074.130348160879
2466 9069.531073714938
2467 9061.934950107227
2468 9056.098748080163
2469 9045.993461553335
2470 9038.789722491249
2471 9027.009706605919
2472 9018.606215772368
2473 9005.150568380006
2474 8995.449724236611
2475 8980.257170838486
2476 8969.515829038048
2477 8952.879677789015
2478 8941.472645362721
2479 8923.278184181032
2480 8905.361541790495
2481 8887.652614970111
2482 8870.210180388125
2483 8852.585052197539
2484 8835.0272674197
2485 8818.034481593026
2486 8801.341634683633
2487 8785.097721924503
2488 8769.842163526599
2489 8755.174024690583
2490 8740.868592454548
2491 8726.807044303749
2492 8713.694964572836
2493 8700.773408118401
2494 8688.686199973534
2495 8677.119767979968
2496 8666.673496210729
2497 8656.907153818009
2498 8647.969934384137
2499 8639.552812846612
2500 8632.210815371202
2501 8625.614763117865
2502 8619.933889253249
2503 8615.283838029845
2504 8611.2422101718
2505 8608.457555102907
2506 8606.828551794575
2507 8605.86742331347
2508 8606.303378765117
2509 8607.430981050955
2510 8609.906045063048
2511 8611.877670849084
2512 8616.328699199848
2513 8619.816361917599
2514 8625.819210664289
2515 8631.011925342984
2516 8638.915006121228
2517 8644.761950496886
2518 8654.907481735534
2519 8661.804956958906
2520 8672.913276867994
2521 8681.110378436386
2522 8693.925179193482
2523 8707.188910033439
2524 8720.452441771236
2525 8734.875771942023
2526 8748.618494276447
2527 8762.568470419446
2528 8776.671946174965
2529 8790.039676335782
2530 8803.037670369858
2531 8815.97600325786
2532 8828.569891191812
2533 8840.552327792446
2534 8851.677931328462
2535 8862.225874727239
2536 8872.255324924072
2537 8881.474053043568
2538 8889.769447913708
2539 8896.971566665547
2540 8903.198578513024
2541 8908.462484368849
2542 8912.835380604822
2543 8915.921950458354
2544 8917.896165594386
2545 8918.882576479749
2546 8918.308581471489
2547 8916.343472102237
2548 8913.276960911317
2549 8909.211916609986
2550 8903.910871261565
2551 8897.398138525014
2552 8890.043588168415
2553 8884.143706266843
2554 8874.730121365465
2555 8867.430816577666
2556 8855.037280797293
2557 8846.590308924553
2558 8832.537066211007
2559 8818.219781778542
2560 8808.498246045629
2561 8793.006281863578
2562 8777.567522652724
2563 8761.391508698631
2564 8745.980291724869
2565 8730.479146776186
2566 8715.323359997708
2567 8700.087679135533
2568 8684.946975020603
2569 8670.783954516914
2570 8657.133769344306
2571 8643.884755784202
2572 8631.300411943048
2573 8619.422639822336
2574 8608.63995067551
2575 8598.647225526893
2576 8589.295177760716
2577 8580.853826391436
2578 8573.037795373635
2579 8565.745499489238
2580 8559.471707189732
2581 8554.245857801094
2582 8549.861152277388
2583 8546.346157881269
2584 8543.972644133008
2585 8542.257900148941
2586 8541.886017303492
2587 8541.984444262951
2588 8543.169430095366
2589 8545.14704380024
2590 8547.026068717443
2591 8550.731732849577
2592 8553.739289905076
2593 8558.572759097911
2594 8562.57302796729
2595 8568.906805581104
2596 8573.712438577501
2597 8581.009372262186
2598 8586.286037335156
2599 8594.449785824208
2600 8600.210643766422
2601 8609.015078450499
2602 8615.041496971902
2603 8624.540533389429
2604 8633.788216480578
2605 8643.168202483965
2606 8651.845161413523
2607 8660.23879224865
2608 8668.370794218758
2609 8675.761299164633
2610 8682.827324721213
2611 8689.240562897687
2612 8695.008908945334
2613 8700.455521033282
2614 8705.354063076151
2615 8709.14527565471
2616 8712.74479321388
2617 8715.636290356904
2618 8717.96702528987
2619 8719.366768323107
2620 8720.567292019905
2621 8720.741911061723
2622 8720.368035511552
2623 8719.491602781833
2624 8718.166602056635
2625 8716.694081158992
2626 8714.202845379374
2627 8711.601683865454
2628 8709.613317906895
2629 8706.114036410132
2630 8703.682929518443
2631 8699.453486231159
2632 8696.73537970392
2633 8692.258826157829
2634 8689.008750509172
2635 8683.650036960968
2636 8680.046323866603
2637 8674.133427261946
2638 8670.332597487299
2639 8664.261307355786
2640 8658.366046337567
2641 8652.694609465558
2642 8647.157487022794
2643 8641.855306423409
2644 8636.676797543449
2645 8631.824489088231
2646 8627.485250370148
2647 8623.601119374118
2648 8620.10242087876
2649 8616.945189344577
2650 8614.315768317627
2651 8612.052633358217
2652 8610.242717009189
2653 8608.717945549652
2654 8607.965295763319
2655 8607.360423421784
2656 8606.728707141068
2657 8606.528051353029
2658 8606.622354949468
2659 8606.759478007445
2660 8607.243060662231
2661 8607.512301497609
2662 8608.144934724633
2663 8608.669110855039
2664 8609.257604989658
2665 8609.401140186386
2666 8609.525308274075
2667 8609.521928242671
2668 8609.344786241216
2669 8608.861269800123
2670 8607.843986650925
2671 8606.460857977425
2672 8604.739596856476
2673 8603.124109133505
2674 8601.169993541413
2675 8598.655438740245
2676 8595.917241368114
2677 8593.04599370711
2678 8590.187312429294
2679 8586.880945496196
2680 8583.360684178664
2681 8579.292536968556
2682 8575.327120792532
2683 8571.016322267235
2684 8566.623980604289
2685 8561.909620913828
2686 8557.606527589014
2687 8552.968614849759
2688 8548.249272439536
2689 8543.39654880835
2690 8538.986814048712
2691 8534.746435218252
2692 8530.434905982491
2693 8526.43879138691
2694 8522.884354921369
2695 8519.442002090549
2696 8516.955228871606
2697 8514.763322329296
2698 8513.142156088368
2699 8511.973622693848
2700 8511.47514753336
2701 8510.958679317515
2702 8511.122834447946
2703 8512.168905670635
2704 8513.600690395904
2705 8514.957240389091
2706 8516.787377980085
2707 8519.145146500498
2708 8521.70883776608
2709 8523.46498631913
2710 8526.283204831141
2711 8529.084726768304
2712 8530.91891815523
2713 8533.470382941407
2714 8536.075836884191
2715 8538.275416749415
2716 8540.484750088714
2717 8542.107129252838
2718 8543.180502231144
2719 8543.658376996293
2720 8543.778833321101
2721 8542.983272010055
2722 8541.696494613465
2723 8539.366940987611
2724 8536.996437964759
2725 8533.830178884336
2726 8530.095450502775
2727 8525.225041621668
2728 8520.200193884501
2729 8514.040252864783
2730 8508.033477307512
2731 8501.59055906068
2732 8494.162145510618
2733 8487.151226587021
2734 8479.778913660421
2735 8472.026673124483
2736 8464.832940157652
2737 8457.480970333823
2738 8450.399227081909
2739 8443.301500440615
2740 8436.495776660187
2741 8430.365179739007
2742 8424.687993110349
2743 8419.525380703775
2744 8414.819205626583
2745 8410.613078725086
2746 8407.298183357101
2747 8404.50429498652
2748 8402.417369948127
2749 8400.99263267175
2750 8400.391070945883
2751 8400.090228275392
2752 8400.681119362282
2753 8401.73198986072
2754 8403.538725625589
2755 8405.54833597586
2756 8408.318739611881
2757 8411.63471150329
2758 8415.228211311505
2759 8419.495384249352
2760 8423.894142519324
2761 8428.472278484713
2762 8433.235206315831
2763 8436.706525062105
2764 8442.036296665934
2765 8447.194458335953
2766 8452.473737710243
2767 8457.577592066649
2768 8462.444615072269
2769 8467.20222047714
2770 8471.809813721895
2771 8475.839230604592
2772 8478.842622328275
2773 8482.074744462827
2774 8484.755293052227
2775 8486.659008782219
2776 8487.832398400891
2777 8488.33018926435
2778 8488.574837035383
2779 8488.354276628841
2780 8487.495514985241
2781 8486.051778629464
2782 8484.534421507085
2783 8482.17301870224
2784 8479.10286607486
2785 8475.628733723461
2786 8472.087812007172
2787 8467.988256536322
2788 8464.330019804416
2789 8459.47092100273
2790 8454.663617254251
2791 8451.125421266272
2792 8445.938096437889
2793 8440.440569834152
2794 8435.357175217427
2795 8429.99889439546
2796 8424.871512912143
2797 8421.492417944604
2798 8416.648668027137
2799 8411.95455357215
2800 8407.7096965904
2801 8403.519629369643
2802 8401.054384138501
2803 8397.154473210625
2804 8393.956986179666
2805 8391.909148156101
2806 8389.431874444983
2807 8387.763215661473
2808 8385.610622143031
2809 8384.548176315808
2810 8383.001459930334
2811 8381.975261027024
2812 8381.717624833087
2813 8381.476000557817
2814 8381.722393486838
2815 8382.048792505808
2816 8383.034287688239
2817 8383.884729352456
2818 8385.354813858483
2819 8387.477913618199
2820 8389.106558691665
2821 8391.421560545727
2822 8393.946992652187
2823 8396.819705650527
2824 8399.470105350874
2825 8402.005011214682
2826 8404.661164018069
2827 8407.300103956986
2828 8409.624242526352
2829 8411.906455418513
2830 8413.965634578186
2831 8415.829368494682
2832 8417.499741614467
2833 8419.085463908508
2834 8420.352694632904
2835 8421.345693214334
2836 8422.002240643955
2837 8422.333115855094
2838 8422.251117645845
2839 8421.83052380504
2840 8421.319512796856
2841 8420.038245300717
2842 8418.247548522659
2843 8416.536130023573
2844 8414.350561638799
2845 8411.683207566068
2846 8408.972145259135
2847 8406.047519909995
2848 8402.87825405629
2849 8399.245424201259
2850 8395.562621589834
2851 8391.473230632098
2852 8387.471196767312
2853 8383.177378554965
2854 8379.325288113865
2855 8375.462054685271
2856 8371.742236560041
2857 8367.915854792127
2858 8364.550236381063
2859 8361.174451336658
2860 8357.918191807919
2861 8354.694916525534
2862 8351.606192560628
2863 8348.87221567859
2864 8346.504386420262
2865 8343.99687181343
2866 8342.352744071737
2867 8340.581819972766
2868 8339.29317751402
2869 8338.406377371357
2870 8337.440298705887
2871 8337.172898134291
2872 8336.6233938354
2873 8336.794141291321
2874 8337.290241582703
2875 8337.965878028506
2876 8339.034497323746
2877 8340.339760019437
2878 8341.713588069913
2879 8343.605809543506
2880 8345.428255989998
2881 8347.53834631055
2882 8349.91671868228
2883 8352.689692671736
2884 8355.86087533693
2885 8359.178664962197
2886 8362.461369891093
2887 8365.704140128915
2888 8369.531201069651
2889 8372.792934671646
2890 8376.550243900294
2891 8380.795175670495
2892 8384.981362031467
2893 8389.300400249174
2894 8393.284175610483
2895 8397.468921414991
2896 8401.190883956215
2897 8405.404116493484
2898 8409.732260079863
2899 8413.970983827359
2900 8417.869028311448
2901 8421.726513224823
2902 8425.227355613637
2903 8428.302614306225
2904 8431.393265705967
2905 8433.993644220727
2906 8436.024079985271
2907 8437.821905792309
2908 8439.231013702813
2909 8440.122624191366
2910 8440.498161995982
2911 8440.411667609047
2912 8439.710405233734
2913 8438.532774947211
2914 8437.537523935558
2915 8435.214986284209
2916 8433.570549161745
2917 8430.570589817504
2918 8428.117846032983
2919 8423.904337202242
2920 8420.792450932075
2921 8415.319718249479
2922 8411.371257627472
2923 8405.14833023018
2924 8400.530200687537
2925 8393.454536412353
2926 8388.194857426424
2927 8380.24816916479
2928 8375.00850010891
2929 8366.709210433071
2930 8361.024864970774
2931 8352.419284280737
2932 8343.971751461888
2933 8335.439165066417
2934 8327.3041999783
2935 8319.361165175298
2936 8312.10743760078
2937 8305.280590729166
2938 8299.022929014363
2939 8293.193611705712
2940 8287.975597849823
2941 8283.02551189893
2942 8278.544194061989
2943 8275.114710500326
2944 8271.917666122381
2945 8269.218997722552
2946 8267.320157922222
2947 8266.448993646432
2948 8265.436596962187
2949 8264.758457605372
2950 8264.677738867684
2951 8264.873090613777
2952 8265.292266453729
2953 8266.25411793722
2954 8267.233153776882
2955 8269.003569358478
2956 8270.262235844562
2957 8272.175565652682
2958 8273.587511667909
2959 8275.186759255545
2960 8277.550779156913
2961 8279.243519135614
2962 8281.188111335516
2963 8284.179201838806
2964 8286.317244998894
2965 8288.328832322193
2966 8291.486012306877
2967 8293.801335215891
2968 8297.106090887757
2969 8299.296632576421
2970 8302.495256180911
2971 8304.623665110503
2972 8308.114766771949
2973 8310.273276377709
2974 8313.569603016073
2975 8315.70046542509
2976 8319.061707038945
2977 8320.939496374927
2978 8323.61561331896
2979 8325.372353611647
2980 8327.733081646546
2981 8329.164755152053
2982 8331.077348086752
2983 8332.173381700373
2984 8333.570614204116
2985 8334.377836079919
2986 8335.45044273532
2987 8335.815475903324
2988 8336.315270195513
2989 8336.566597208495
2990 8336.918639586627
2991 8337.015626570139
2992 8337.124017898037
2993 8337.015326669798
2994 8336.995866511799
2995 8336.860758130613
2996 8336.578668779448
2997 8336.302212366769
2998 8335.388643728455
2999 8334.887937998137
3000 8334.035523031034
3001 8333.17578073267
3002 8331.932209035593
3003 8330.876682662951
3004 8328.887895144118
3005 8327.259299499465
3006 8324.755349921843
3007 8322.997367579406
3008 8319.687046709536
3009 8315.811501462875
3010 8313.390002681055
3011 8309.16564125066
3012 8306.171798228201
3013 8300.789463399309
3014 8296.062782905052
3015 8292.40035115821
3016 8287.167229610581
3017 8283.303296139189
3018 8277.982524572068
3019 8274.555215097198
3020 8269.403260865689
3021 8265.662678074445
3022 8260.673158480069
3023 8257.421969069281
3024 8252.752153305657
3025 8249.909470962271
3026 8246.130371521402
3027 8243.66380193228
3028 8240.924237533882
3029 8239.291794852104
3030 8237.360232856616
3031 8236.588871946211
3032 8235.991302828788
3033 8236.032781696014
3034 8236.472491053964
3035 8236.902701725892
3036 8238.413757341588
3037 8240.178410866753
3038 8241.812022373984
3039 8244.883865593927
3040 8247.621268367948
3041 8251.942338828982
3042 8255.097607228749
3043 8259.905333789171
3044 8263.371174430933
3045 8268.80473777569
3046 8272.863719308261
3047 8279.09249996431
3048 8283.319754572864
3049 8290.096261697599
3050 8294.426039454695
3051 8301.309168335674
3052 8305.906006161211
3053 8313.072304090903
3054 8317.39897803629
3055 8323.970474099215
3056 8328.142126126691
3057 8334.370087866526
3058 8340.187258139244
3059 8343.707064430313
3060 8348.745198896171
3061 8353.377779432136
3062 8357.45781586989
3063 8360.995275345544
3064 8363.934609564352
3065 8366.142422601935
3066 8367.892828278149
3067 8368.869745478607
3068 8369.360059793258
3069 8369.681870222659
3070 8369.394490534647
3071 8368.522819506325
3072 8367.402554607117
3073 8366.064007422157
3074 8364.797415704463
3075 8362.861412274582
3076 8360.439808737834
3077 8358.630574999253
3078 8355.654590516084
3079 8352.456786888561
3080 8350.252793865193
3081 8346.929585059183
3082 8344.510875487147
3083 8340.933122605345
3084 8338.628235872809
3085 8335.198461723901
3086 8332.099530217369
3087 8329.296061974641
3088 8326.673121543537
3089 8324.097542767284
3090 8321.891671082596
3091 8319.844959350203
3092 8318.063125005296
3093 8316.427945324625
3094 8315.119376588
3095 8313.739263628575
3096 8313.10770951148
3097 8312.994891886085
3098 8313.009139685444
3099 8313.116170359472
3100 8313.201420215184
3101 8313.791677288938
3102 8314.659461518597
3103 8315.322248764049
3104 8316.275969723709
3105 8317.59301336761
3106 8319.195684254781
3107 8320.782347842878
3108 8322.405005156359
3109 8324.483716295434
3110 8326.550939841172
3111 8328.950943414366
3112 8331.428276662742
3113 8333.75956595505
3114 8336.203520191086
3115 8338.722273053512
3116 8340.824604321297
3117 8342.753137021542
3118 8345.089240960153
3119 8346.574396882241
3120 8348.075059864483
3121 8349.561332500545
3122 8350.663000366678
3123 8351.648148077938
3124 8351.754582671554
3125 8351.788375784483
3126 8351.719055720374
3127 8351.439423705937
3128 8351.090497712648
3129 8350.442703781322
3130 8349.960531263871
3131 8349.031807179323
3132 8348.524220576752
3133 8348.23286313375
3134 8347.50216907582
3135 8347.545088661062
3136 8347.822833970204
3137 8348.07442210085
3138 8347.934694715415
3139 8347.899899923334
3140 8347.959644048899
3141 8347.616469016823
3142 8347.962885223784
3143 8348.242854005501
3144 8348.281482472379
3145 8348.498325440207
3146 8349.302681619789
3147 8349.855284341987
3148 8350.726605581143
3149 8351.493858426667
3150 8352.003912431135
3151 8351.813447537666
3152 8352.178071757247
3153 8351.623184312093
3154 8351.418126631597
3155 8350.540714421331
3156 8349.818061162949
3157 8348.309991433553
3158 8346.932499519286
3159 8345.325925130323
3160 8343.947746177084
3161 8342.472380338611
3162 8340.766335344633
3163 8338.6573760392
3164 8336.12057961509
3165 8332.90954711534
3166 8329.923518914375
3167 8326.513324209745
3168 8323.68572083915
3169 8320.221711907792
3170 8316.261909296403
3171 8312.583475863874
3172 8308.160085094616
3173 8303.832786145902
3174 8299.790607828143
3175 8295.549778180837
3176 8291.308344526529
3177 8287.182702824599
3178 8282.995930570876
3179 8279.630010869283
3180 8276.278821379407
3181 8273.367620921985
3182 8271.033829462653
3183 8268.948969481427
3184 8267.503485832733
3185 8266.571202661984
3186 8265.785054884485
3187 8265.228228012093
3188 8265.338287887838
3189 8266.016498209494
3190 8267.02027111188
3191 8268.44277630634
3192 8269.739147348806
3193 8272.312789952693
3194 8275.410033728122
3195 8277.838830228891
3196 8281.758507612147
3197 8285.773125043124
3198 8289.208043095248
3199 8294.015402641187
3200 8297.412187382421
3201 8302.856856541348
3202 8308.234992797354
3203 8311.540596698751
3204 8316.141391267893
3205 8320.852024897782
3206 8323.736823684703
3207 8327.782721379097
3208 8331.498046097522
3209 8333.826726126428
3210 8336.880667074713
3211 8338.47253771187
3212 8340.219511375501
3213 8341.577102555777
3214 8342.002513018415
3215 8341.978155990686
3216 8341.444338349029
3217 8340.510849657603
3218 8339.49932638549
3219 8338.089736456508
3220 8335.945214458075
3221 8333.196665687865
3222 8331.07460187447
3223 8327.55905406849
3224 8323.650766526143
3225 8320.877869449743
3226 8316.67624392793
3227 8313.62249528585
3228 8308.81096107894
3229 8304.422782130525
3230 8301.503738964202
3231 8297.254265181768
3232 8293.565661173467
3233 8289.911690976851
3234 8286.963010217069
3235 8284.479765468306
3236 8282.482207555602
3237 8280.999070968654
3238 8280.129577254198
3239 8279.605172390742
3240 8279.675558917701
3241 8280.663982362597
3242 8282.23555590825
3243 8284.159896491316
3244 8286.942442229407
3245 8289.842817711111
3246 8293.008431287855
3247 8296.852496098252
3248 8300.868019988855
3249 8304.683010655048
3250 8308.75136016374
3251 8312.856964327921
3252 8317.141946480269
3253 8321.224779320208
3254 8325.110966851615
3255 8328.67620544535
3256 8331.95453692115
3257 8335.041798871494
3258 8337.81482538483
3259 8339.902586853495
3260 8341.702434358551
3261 8343.001093771227
3262 8344.042736929421
3263 8344.331484462926
3264 8344.29312356652
3265 8343.756199026522
3266 8343.008377389266
3267 8341.747811674695
3268 8340.344233587155
3269 8338.346913478077
3270 8336.161191348072
3271 8333.37415315434
3272 8330.177477705252
3273 8326.888866606761
3274 8323.762714907705
3275 8319.962067201344
3276 8316.340422006537
3277 8312.790462760919
3278 8309.393106823256
3279 8306.068689868369
3280 8302.934900862827
3281 8299.767684895485
3282 8296.835191991489
3283 8294.095913525622
3284 8291.823854043114
3285 8289.700431969461
3286 8288.054825616458
3287 8286.350570533679
3288 8284.823762624817
3289 8283.416312130623
3290 8282.598012826877
3291 8281.805501172552
3292 8281.270661781564
3293 8280.836292618871
3294 8280.94814502426
3295 8281.051047395677
3296 8281.518951432996
3297 8282.12432147172
3298 8282.641525877387
3299 8282.991620202944
3300 8283.535053562582
3301 8283.852756051745
3302 8284.197081292969
3303 8284.093341445796
3304 8284.109241793214
3305 8284.154623756453
3306 8284.034921026414
3307 8283.926382319394
3308 8283.865129622433
3309 8283.630724294062
3310 8283.20040245683
3311 8282.794665859019
3312 8282.385744983903
3313 8281.615260120898
3314 8280.649376169484
3315 8279.673061190508
3316 8278.816042526087
3317 8278.205749951847
3318 8277.423410294889
3319 8277.023680309345
3320 8277.010204587952
3321 8277.204247212756
3322 8277.645843931268
3323 8278.347574602252
3324 8279.897528333053
3325 8281.161929035085
3326 8283.689083685786
3327 8285.300463835556
3328 8288.797061508081
3329 8292.554074436295
3330 8295.41068264903
3331 8300.329375335879
3332 8305.834108599271
3333 8311.757131267017
3334 8318.156396998022
3335 8324.539634535451
3336 8330.899190073365
3337 8337.532522058409
3338 8344.13380473741
3339 8350.712098495918
3340 8357.26171131198
3341 8363.498296565049
3342 8369.491216060836
3343 8375.081608513781
3344 8379.901853655905
3345 8384.391051558685
3346 8388.383153769646
3347 8391.517514909076
3348 8393.960546987528
3349 8395.373546108283
3350 8396.256433185692
3351 8396.164997986092
3352 8395.51439690191
3353 8393.841128974351
3354 8391.451223188455
3355 8388.27952586981
3356 8384.438487946116
3357 8379.584893825448
3358 8374.116227617083
3359 8367.809839033875
3360 8360.847838553484
3361 8353.585953130732
3362 8345.663009702752
3363 8337.346649114381
3364 8328.89212964692
3365 8319.832272641823
3366 8311.004246440749
3367 8301.866656646507
3368 8293.366889178062
3369 8284.928008100116
3370 8276.766800636116
3371 8268.843162612253
3372 8261.610577098589
3373 8254.939610046908
3374 8248.812537046495
3375 8243.338378638804
3376 8238.662142812407
3377 8234.669377927339
3378 8231.501075439162
3379 8229.077361888189
3380 8228.024890883735
3381 8227.522071129581
3382 8227.891583719074
3383 8229.319043571444
3384 8231.421746421571
3385 8234.545270549163
3386 8238.033762834955
3387 8242.585880357345
3388 8247.75651915657
3389 8253.508874784879
3390 8259.336742885018
3391 8265.630760782415
3392 8272.570601145046
3393 8279.703642284825
3394 8287.030756813279
3395 8294.505670414001
3396 8302.167221010326
3397 8309.618963468622
3398 8316.947114976096
3399 8324.172652067386
3400 8330.885161690767
3401 8337.607396063704
3402 8343.570637352635
3403 8349.075390413924
3404 8353.927037073699
3405 8358.443292719685
3406 8362.442286026169
3407 8365.369029335829
3408 8367.752185291729
3409 8369.383773930684
3410 8370.376244945535
3411 8370.383941619009
3412 8369.571312744656
3413 8367.944618437357
3414 8365.353082005557
3415 8361.89301749452
3416 8357.848003200304
3417 8352.952814838731
3418 8349.036663540197
3419 8342.127507864832
3420 8334.656284603507
3421 8329.077978847517
3422 8320.213844716465
3423 8313.892053814228
3424 8303.364976509305
3425 8292.468747514355
3426 8281.292187508132
3427 8269.569423715249
3428 8258.269744753696
3429 8246.641102520631
3430 8235.333892500399
3431 8223.895032440289
3432 8212.942079379336
3433 8202.316988085877
3434 8192.216882004488
3435 8182.503355988786
3436 8173.461853865569
3437 8164.539911795867
3438 8156.721152843811
3439 8149.343702192567
3440 8142.536378940094
3441 8136.100225096218
3442 8130.816081847733
3443 8126.149608445685
3444 8122.163677144765
3445 8118.963627108529
3446 8116.273584109277
3447 8114.319795371503
3448 8113.12234546539
3449 8112.91723898382
3450 8113.260341368916
3451 8114.310791355981
3452 8116.187984887233
3453 8118.447756488677
3454 8121.490882074766
3455 8123.828541918989
3456 8128.34437194563
3457 8131.630391698784
3458 8137.367025675937
3459 8141.515433137701
3460 8148.414357661247
3461 8153.473307806365
3462 8161.953159827579
3463 8167.650615937985
3464 8177.00142998597
3465 8186.56907619264
3466 8193.222223055447
3467 8203.51255938207
3468 8214.786922003359
3469 8225.578590818928
3470 8236.462490837912
3471 8247.25451758704
3472 8257.766477978486
3473 8268.238767649042
3474 8278.510335863564
3475 8288.637796690329
3476 8298.516610238912
3477 8308.155824757367
3478 8317.066533277321
3479 8325.410566386417
3480 8333.378877562516
3481 8340.175781209391
3482 8346.677099294116
3483 8352.341515944443
3484 8357.635925839148
3485 8362.372293854793
3486 8366.530118169378
3487 8369.60525056181
3488 8371.968734081876
3489 8373.51907697997
3490 8374.376056404448
3491 8374.464506206485
3492 8373.85148908786
3493 8372.429962605369
3494 8370.556401861857
3495 8367.688398594828
3496 8364.312986266843
3497 8360.337083229855
3498 8357.256261568558
3499 8351.594140904097
3500 8345.4270183603
3501 8341.11888388443
3502 8334.20028861462
3503 8326.865987686491
3504 8319.06154531918
3505 8311.133924233513
3506 8303.256288501801
3507 8294.768654138807
3508 8286.54870604747
3509 8278.560178572916
3510 8271.06777556383
3511 8263.674976883927
3512 8256.827178011921
3513 8250.505512693044
3514 8245.053585014508
3515 8239.842436898394
3516 8235.801631008319
3517 8232.357499788213
3518 8229.785880494223
3519 8228.143920419971
3520 8227.237409316804
3521 8227.102023422713
3522 8227.758575703547
3523 8229.123714647438
3524 8231.222439330462
3525 8234.225674631854
3526 8238.134297624649
3527 8242.380748850783
3528 8245.740771168095
3529 8251.304401450261
3530 8255.679421957426
3531 8262.384736890588
3532 8267.136693132094
3533 8274.668118535032
3534 8279.789885528999
3535 8287.884644575486
3536 8296.003348712105
3537 8301.44558589649
3538 8309.791102108196
3539 8317.793884422084
3540 8325.79322964365
3541 8333.253412072641
3542 8341.079081562397
3543 8348.195973073995
3544 8354.871545334328
3545 8361.521834262661
3546 8367.227698110866
3547 8372.662251441257
3548 8377.819344047015
3549 8382.256768863943
3550 8385.848218909256
3551 8389.02482383938
3552 8391.957253549275
3553 8394.302946302538
3554 8395.851596808627
3555 8396.702951028594
3556 8396.514881430774
3557 8395.653402926788
3558 8394.504782304086
3559 8392.778965947438
3560 8390.518113071821
3561 8387.566390330738
3562 8385.269369275251
3563 8381.152195819081
3564 8378.201451034076
3565 8372.549158053516
3566 8368.628182675671
3567 8361.655447043362
3568 8356.871525122719
3569 8348.917884734174
3570 8343.62401670956
3571 8334.888060807136
3572 8325.786338940121
3573 8316.307632013522
3574 8306.864605253077
3575 8296.82904471383
3576 8286.852359948227
3577 8276.588228871135
3578 8266.429485115592
3579 8256.654228444451
3580 8246.75403153632
3581 8237.052387820009
3582 8227.16810561923
3583 8217.845447019205
3584 8208.926540698427
3585 8200.113245314431
3586 8191.710190593205
3587 8183.760132155987
3588 8176.161712949323
3589 8168.977803140555
3590 8162.316325076451
3591 8156.186420272546
3592 8150.647590834235
3593 8145.722425419167
3594 8141.635680102901
3595 8138.061736914069
3596 8135.130862191169
3597 8132.807015672025
3598 8131.544452338047
3599 8130.749304683344
3600 8130.779011497141
3601 8131.510617754945
3602 8133.142580705232
3603 8135.269363102475
3604 8138.118183733584
3605 8141.413458592882
3606 8145.900542160379
3607 8149.371450663991
3608 8155.37368019615
3609 8161.696059185914
3610 8166.365206237773
3611 8174.031081787924
3612 8179.501256010833
3613 8188.439360661643
3614 8197.953308491597
3615 8207.745508256327
3616 8217.615451231455
3617 8227.486408960774
3618 8237.640293757704
3619 8247.901686829411
3620 8257.978536212133
3621 8267.75129528871
3622 8277.345178536507
3623 8286.483798034087
3624 8295.315669281235
3625 8303.755259807203
3626 8311.848339212527
3627 8319.64843569034
3628 8326.767299845988
3629 8333.428442352924
3630 8339.266332735991
3631 8344.409973625203
3632 8348.872657160799
3633 8352.459111630295
3634 8355.609309752184
3635 8357.721933235518
3636 8359.161649811622
3637 8359.679068013738
3638 8359.41381513275
3639 8358.17782405007
3640 8356.51571798079
3641 8353.998376435726
3642 8350.957924275945
3643 8347.228471761426
3644 8342.658632206445
3645 8337.616645159384
3646 8333.768082591079
3647 8327.211268621722
3648 8322.557770026306
3649 8314.830012223532
3650 8307.093070228779
3651 8301.330743594928
3652 8292.799358081518
3653 8284.412123794968
3654 8275.775220706455
3655 8267.103090792945
3656 8258.72180005749
3657 8250.531162732726
3658 8242.503518580468
3659 8234.67896557825
3660 8227.041543900581
3661 8219.566860581172
3662 8212.753805070859
3663 8206.1519409266
3664 8199.896379319287
3665 8193.981719387084
3666 8188.626422081456
3667 8183.749463635038
3668 8179.462794885748
3669 8175.688873303679
3670 8172.30196828915
3671 8169.474952023107
3672 8167.297529964299
3673 8165.527188642272
3674 8164.368628374837
3675 8163.788559660133
3676 8163.422866506315
3677 8163.325317740668
3678 8164.006959294766
3679 8164.94624001633
3680 8166.031352549095
3681 8168.119511007381
3682 8170.691533494703
3683 8172.625532217971
3684 8176.170439789754
3685 8178.770721012974
3686 8182.982492827295
3687 8185.997297186505
3688 8191.319309388839
3689 8194.973811372893
3690 8200.78538415681
3691 8204.845426785128
3692 8210.841613237024
3693 8215.194615623141
3694 8222.001176082249
3695 8226.57267139539
3696 8233.621884774329
3697 8240.38307090846
3698 8245.107728663501
3699 8252.022777670807
3700 8259.06249384862
3701 8263.994288401629
3702 8271.137449363576
3703 8277.995168082045
3704 8282.672489815905
3705 8289.641868437651
3706 8294.181158079416
3707 8300.773958359003
3708 8307.215158679504
3709 8311.255109900756
3710 8317.282181212453
3711 8320.87058479798
3712 8326.040987250668
3713 8329.416546513887
3714 8334.257483632247
3715 8338.697503203135
3716 8341.435225404486
3717 8345.229710775702
3718 8347.538148825974
3719 8350.075826172832
3720 8351.392560263514
3721 8352.80787725114
3722 8353.421028726852
3723 8353.606628399219
3724 8353.408413200017
3725 8352.400891064693
3726 8351.1817625892
3727 8348.946217966321
3728 8346.986151812003
3729 8342.940829414256
3730 8340.012635884017
3731 8336.590009765117
3732 8330.876718897525
3733 8326.701547613178
3734 8319.778622529422
3735 8314.825971561386
3736 8306.790562429285
3737 8301.21028490022
3738 8292.318515898884
3739 8286.100392483602
3740 8276.373505973839
3741 8269.719093264719
3742 8259.870102955947
3743 8253.031892750203
3744 8242.550345477059
3745 8235.65892276946
3746 8226.050710409319
3747 8216.479072721322
3748 8210.621140605164
3749 8202.000257768441
3750 8193.931994919802
3751 8186.851305363067
3752 8180.12959767835
3753 8174.113302328941
3754 8168.93540652186
3755 8164.733809225869
3756 8161.330831692225
3757 8158.761473426676
3758 8156.975735811999
3759 8156.243103550674
3760 8156.468910666297
3761 8157.652682193888
3762 8159.389689451485
3763 8161.763084015813
3764 8163.952252723804
3765 8167.867551845015
3766 8172.485695336559
3767 8176.166868430173
3768 8182.31523433555
3769 8186.711082190494
3770 8194.189565245599
3771 8199.52458240232
3772 8208.255550888558
3773 8214.376743962306
3774 8224.104460261362
3775 8230.578732908451
3776 8241.058111938377
3777 8251.731833574519
3778 8262.422449319303
3779 8272.746920568707
3780 8283.927757526326
3781 8294.732397110467
3782 8305.646659598919
3783 8316.294044443288
3784 8327.428071188413
3785 8337.475163379628
3786 8347.827353520772
3787 8358.24372098608
3788 8367.953146350874
3789 8377.105430995773
3790 8386.292798643179
3791 8394.751111472218
3792 8402.651961713611
3793 8409.624482747773
3794 8416.60623453227
3795 8422.728409844038
3796 8428.296656872968
3797 8433.43115719156
3798 8438.066614515057
3799 8441.837137126855
3800 8444.897763096418
3801 8447.30893182149
3802 8449.078142077455
3803 8449.837760802367
3804 8449.729921971761
3805 8448.940604773312
3806 8447.032115281121
3807 8444.623442806824
3808 8441.48283203991
3809 8437.500818291905
3810 8432.272922403778
3811 8428.068051661776
3812 8421.19327461246
3813 8413.755341656952
3814 8408.119156875628
3815 8398.637456918788
3816 8392.3599249341
3817 8381.818147709018
3818 8374.024248545997
3819 8361.922967695342
3820 8349.439136365465
3821 8340.936862375253
3822 8327.88704370571
3823 8314.533581475551
3824 8301.73251390461
3825 8288.792400083588
3826 8275.981035109557
3827 8262.656871368372
3828 8249.892646042756
3829 8237.634317310243
3830 8225.979851319611
3831 8214.488081651818
3832 8204.214051062942
3833 8194.227889847678
3834 8184.568866879814
3835 8176.280272774809
3836 8168.673372863002
3837 8162.235831720333
3838 8157.033337089048
3839 8153.27040936546
3840 8150.318348440042
3841 8148.439788174665
3842 8147.964615843108
3843 8148.886570161058
3844 8151.024712166915
3845 8154.386658755195
3846 8159.145510095222
3847 8164.663832035343
3848 8171.801030564883
3849 8180.060671079918
3850 8189.466000491757
3851 8198.893821582702
3852 8209.607458888768
3853 8217.372280825597
3854 8229.397759606889
3855 8242.33817149724
3856 8255.119118367435
3857 8268.737963584625
3858 8282.361161504297
3859 8296.056087895444
3860 8310.177895536919
3861 8324.478016333398
3862 8338.013242942259
3863 8350.695138823721
3864 8363.351225299974
3865 8375.407154970515
3866 8386.501374244835
3867 8396.952540091857
3868 8406.387998251696
3869 8414.639765685024
3870 8421.860828337572
3871 8428.006707003695
3872 8432.839084051993
3873 8435.853050518666
3874 8437.660698459247
3875 8437.764095192275
3876 8436.612818246904
3877 8434.103681845001
3878 8429.898938090721
3879 8423.998425687128
3880 8416.887220977043
3881 8408.196796880564
3882 8397.909381819454
3883 8385.730471423132
3884 8372.98260518172
3885 8358.876352085905
3886 8344.382003780825
3887 8328.911462059001
3888 8312.728536435796
3889 8296.123317049307
3890 8279.343882872363
3891 8262.230224783912
3892 8245.680520284763
3893 8229.237779184565
3894 8213.480552991348
3895 8198.012989601317
3896 8183.470538054313
3897 8169.787777030639
3898 8157.294802415209
3899 8145.76716948461
3900 8135.40722191483
3901 8125.947332260655
3902 8117.967123575003
3903 8111.202200649567
3904 8105.805278384528
3905 8101.444891423623
3906 8098.460786247687
3907 8096.209577565317
3908 8095.2594445495
3909 8094.99846343948
3910 8096.115281069672
3911 8098.077197731071
3912 8100.487458605488
3913 8103.838917536471
3914 8107.73831734293
3915 8112.489683663372
3916 8115.726344328355
3917 8121.241880818684
3918 8125.164229386693
3919 8131.226366070468
3920 8135.648753562177
3921 8142.218614541162
3922 8146.87412967613
3923 8153.856511183625
3924 8158.49126403648
3925 8165.514830801563
3926 8172.089236721897
3927 8178.567333143286
3928 8184.607396507666
3929 8190.44674227422
3930 8195.910767211597
3931 8200.984217900013
3932 8205.595059848449
3933 8209.665981989849
3934 8213.566067514796
3935 8216.692454004684
3936 8219.505082728499
3937 8221.742443600046
3938 8223.721066927974
3939 8224.97542202206
3940 8225.950573758584
3941 8226.521141571435
3942 8226.702528717073
3943 8226.320347192866
3944 8226.096685804658
3945 8225.159790913112
3946 8224.465462435643
3947 8223.154017334311
3948 8222.098278760499
3949 8220.398042193963
3950 8219.300459972679
3951 8217.401929399224
3952 8216.076221258976
3953 8214.12164363525
3954 8212.771227095114
3955 8210.974530803174
3956 8209.65811657807
3957 8207.680766469668
3958 8206.634088650759
3959 8204.652739252306
3960 8203.596120059203
3961 8201.974192339747
3962 8201.092333098653
3963 8199.625764180284
3964 8198.64742672178
3965 8197.284720909687
3966 8196.254823303912
3967 8195.538998827506
3968 8195.021026649836
3969 8194.580766421859
3970 8194.229620641101
3971 8193.924571892056
3972 8193.963391467796
3973 8194.158151083826
3974 8194.9761819989
3975 8195.349955112906
3976 8195.755678340058
3977 8196.582028831055
3978 8197.407790492809
3979 8198.193872223001
3980 8198.923325157855
3981 8199.61889143444
3982 8200.105168616246
3983 8200.775253026613
3984 8201.168564268546
3985 8201.33594865675
3986 8201.653253664463
3987 8201.688610056241
3988 8201.728331565739
3989 8201.563497610865
3990 8201.047511015908
3991 8199.927259030879
3992 8199.026519731211
3993 8197.67229781541
3994 8196.302946980684
3995 8194.158673109941
3996 8192.497398346639
3997 8189.237736980956
3998 8187.049388524547
3999 8183.181024214399
4000 8180.397236631299
4001 8176.418225005318
4002 8173.803293884501
4003 8169.646427386998
4004 8165.976485826884
4005 8163.376216918184
4006 8159.893717939326
4007 8156.595873081116
4008 8154.839779432166
4009 8152.285917709569
4010 8150.446537569377
4011 8149.030667190475
4012 8148.324027629401
4013 8148.164591585551
4014 8148.967709554204
4015 8150.403972733157
4016 8152.727267910414
4017 8155.83689780765
4018 8159.735605959191
4019 8164.484046140407
4020 8169.834279044341
4021 8176.253443238188
4022 8183.558957783526
4023 8191.135732121686
4024 8199.868544366305
4025 8208.847589807418
4026 8218.470918247474
4027 8228.370026688497
4028 8239.201161557507
4029 8246.364953345581
4030 8257.539289947586
4031 8268.320856700357
4032 8279.47257383026
4033 8290.93986861255
4034 8301.905556029047
4035 8312.409183569816
4036 8322.508933254227
4037 8332.006740531711
4038 8341.148147769089
4039 8349.646884808752
4040 8357.041752984094
4041 8363.823380294247
4042 8370.080458696191
4043 8375.299930874104
4044 8379.475927563113
4045 8382.591047585136
4046 8384.761621034308
4047 8385.808302352511
4048 8385.937359753447
4049 8385.14063877875
4050 8383.180070502731
4051 8380.259820332354
4052 8377.641806900298
4053 8372.490419747199
4054 8368.521567744336
4055 8361.384176329047
4056 8355.983934423608
4057 8346.6234510908
4058 8339.985530211798
4059 8329.474972831538
4060 8321.796955655167
4061 8309.847183544862
4062 8297.532354783816
4063 8289.222042480042
4064 8276.175910393486
4065 8262.990364312105
4066 8249.937045828035
4067 8237.171586222743
4068 8224.815427490192
4069 8213.321071296872
4070 8202.704322818621
4071 8193.00550097087
4072 8183.486340050619
4073 8174.915714951476
4074 8167.008792184805
4075 8160.256664172992
4076 8154.071865016091
4077 8148.851934835052
4078 8144.568281983117
4079 8140.658475296445
4080 8137.781063006819
4081 8135.466534697824
4082 8134.330931191808
4083 8133.738789360632
4084 8134.053216698192
4085 8135.039389172478
4086 8137.045893662748
4087 8139.535519042463
4088 8142.794568539351
4089 8146.555892674854
4090 8149.796395528419
4091 8155.207560055004
4092 8159.383384300691
4093 8166.381678660456
4094 8171.532111261973
4095 8179.926688373706
4096 8185.725876262548
4097 8195.175822589232
4098 8201.604812875434
4099 8211.74775044231
4100 8222.139887521153
4101 8232.449822257302
4102 8242.865159970041
4103 8253.446716412111
4104 8264.123858889674
4105 8274.554114094819
4106 8284.555808968413
4107 8293.543939340776
4108 8302.462042393485
4109 8310.481531066791
4110 8318.317067336346
4111 8325.337198517016
4112 8331.648687934739
4113 8337.460531690433
4114 8342.299639726993
4115 8346.510448981657
4116 8349.703954198281
4117 8352.01323826523
4118 8353.475267676511
4119 8354.006393584032
4120 8353.809756113245
4121 8352.672843982498
4122 8350.616446258187
4123 8347.847225363375
4124 8344.627716247158
4125 8340.398976062444
4126 8335.522963143931
4127 8329.848883813935
4128 8325.63106607698
4129 8318.610346925396
4130 8313.612959330645
4131 8305.602543421584
4132 8299.858700606039
4133 8290.839530928899
4134 8281.632362503293
4135 8275.10840583575
4136 8265.341253806537
4137 8255.207510164362
4138 8245.319452083324
4139 8235.388050172327
4140 8225.78575633917
4141 8216.049670798559
4142 8207.248966507772
4143 8199.154683571811
4144 8191.225062396602
4145 8183.923135267414
4146 8177.131778603472
4147 8170.825599386436
4148 8165.168698170281
4149 8159.988271778102
4150 8155.228923735564
4151 8151.607697290773
4152 8148.520278828132
4153 8146.226336478506
4154 8144.406371520803
4155 8143.50273196572
4156 8143.21569257219
4157 8143.788301276873
4158 8145.197228706731
4159 8147.415571074111
4160 8150.047687067966
4161 8153.349147673853
4162 8157.326517599157
4163 8162.133993489392
4164 8165.436391041841
4165 8171.154260941786
4166 8175.438343242751
4167 8182.297017790605
4168 8189.931016677664
4169 8195.163694215413
4170 8203.342667299397
4171 8211.486063333337
4172 8219.985299258491
4173 8228.390995890668
4174 8237.233669178979
4175 8245.117712443729
4176 8253.383120913404
4177 8261.360336548905
4178 8268.679488242784
4179 8275.674447024103
4180 8281.906062569715
4181 8287.886643003734
4182 8293.538463383864
4183 8298.268585168584
4184 8302.235464023386
4185 8306.007392568685
4186 8309.122592478096
4187 8311.618783310578
4188 8313.386774116585
4189 8314.580816530675
4190 8315.133642700346
4191 8314.621773011875
4192 8313.38704767021
4193 8311.484306127753
4194 8308.820652445796
4195 8305.49002958351
4196 8301.888960970417
4197 8297.251671871334
4198 8293.944870640044
4199 8288.171803467632
4200 8284.14552988994
4201 8277.160372058406
4202 8272.227700519623
4203 8264.307309994247
4204 8256.538840544124
4205 8248.322980433804
4206 8239.973254088734
4207 8231.329766053161
4208 8223.037830568506
4209 8214.654300499706
4210 8206.221324102225
4211 8197.686535455146
4212 8189.567339064723
4213 8181.667913062434
4214 8173.825788571116
4215 8166.503189691136
4216 8159.862658738693
4217 8153.609373355372
4218 8147.954865300216
4219 8143.11537611576
4220 8139.040899625636
4221 8135.576760414817
4222 8132.527986537777
4223 8130.506302165562
4224 8129.16854728979
4225 8128.380427155601
4226 8128.415134073115
4227 8129.220166736743
4228 8130.246349108819
4229 8131.971512355643
4230 8134.627390167291
4231 8137.497260881702
4232 8140.979824339835
4233 8143.860760128702
4234 8148.644598095542
4235 8152.051957289885
4236 8157.64795511525
4237 8161.653134262608
4238 8167.943919228953
4239 8174.701670210508
4240 8179.470107596116
4241 8186.397721558664
4242 8193.186876097017
4243 8199.892153743102
4244 8206.644105782145
4245 8213.244505424842
4246 8219.70214025618
4247 8225.509721629129
4248 8231.048616809821
4249 8236.337014628496
4250 8241.214409184307
4251 8245.579948882296
4252 8249.630756529086
4253 8252.943175960538
4254 8255.780297202629
4255 8258.07998960799
4256 8259.88646347408
4257 8260.965100477444
4258 8261.599711144183
4259 8261.840399921277
4260 8261.351491244837
4261 8260.242245009274
4262 8259.076366165418
4263 8257.452808539336
4264 8256.039701547565
4265 8253.546851808889
4266 8251.75600294244
4267 8248.594122875933
4268 8246.176607432046
4269 8242.541007070253
4270 8240.115765022889
4271 8236.439671361957
4272 8234.135676447073
4273 8230.425330779597
4274 8227.073525307493
4275 8223.788891203139
4276 8220.884471653848
4277 8218.14994194365
4278 8215.935355531268
4279 8214.244273717966
4280 8213.002873162319
4281 8211.917250322464
4282 8211.159064394718
4283 8211.258450258258
4284 8211.620818487352
4285 8212.710988886971
4286 8214.074227023268
4287 8216.02489059903
4288 8217.976930694445
4289 8220.751565617467
4290 8223.447955394413
4291 8226.226852152491
4292 8229.044367858882
4293 8231.920532419563
4294 8235.026253995286
4295 8237.573968067984
4296 8240.198524736414
4297 8242.435248744094
4298 8244.499432838906
4299 8245.921877030969
4300 8247.141803021132
4301 8247.970953783575
4302 8248.207602198298
4303 8247.568222162712
4304 8246.436807654391
4305 8244.464423132093
4306 8242.03174481405
4307 8239.17304139545
4308 8235.793069367321
4309 8230.60582490146
4310 8225.570315117819
4311 8219.855232615369
4312 8213.802620693506
4313 8207.112078974542
4314 8200.607717093089
4315 8193.534279801308
4316 8185.566492408735
4317 8178.474989849435
4318 8171.369549497145
4319 8164.816566273749
4320 8158.521306973687
4321 8152.440054344681
4322 8146.896488312444
4323 8142.37194138659
4324 8138.272261893171
4325 8135.013193487333
4326 8132.834249827643
4327 8131.741414825407
4328 8131.848882434473
4329 8133.038794736938
4330 8134.954590186368
4331 8138.136909528982
4332 8141.93471963251
4333 8146.934850292473
4334 8152.972381696186
4335 8159.576700457032
4336 8167.265348873383
4337 8175.711924619312
4338 8185.075571679939
4339 8195.10399891322
4340 8205.791017654365
4341 8216.385450422613
4342 8227.222406452071
4343 8238.282169651753
4344 8249.96033664234
4345 8261.326280869538
4346 8272.618028425102
4347 8283.738121995053
4348 8293.999134713562
4349 8303.615122811596
4350 8312.373081123833
4351 8320.689614610832
4352 8328.521448111853
4353 8335.228994179879
4354 8340.756083884562
4355 8345.635804798541
4356 8349.191077974898
4357 8351.589987326142
4358 8352.837028060054
4359 8352.838217050768
4360 8351.91734158388
4361 8349.714883502849
4362 8346.546977692125
4363 8342.21572459163
4364 8336.679056262814
4365 8330.212675686551
4366 8322.361866633531
4367 8313.913404363577
4368 8304.202701942737
4369 8293.452067125962
4370 8281.50953447044
4371 8269.599513772062
4372 8256.750360896764
4373 8243.302708761743
4374 8230.028047772956
4375 8216.214659030902
4376 8202.744965430111
4377 8188.768527316814
4378 8175.711798180022
4379 8163.329144612082
4380 8151.563602712019
4381 8140.372754564413
4382 8129.634776635637
4383 8120.24857752561
4384 8112.427142833296
4385 8104.993084101323
4386 8099.170712392072
4387 8094.130548303027
4388 8090.6251072616
4389 8088.374379632868
4390 8087.713359009963
4391 8088.012990365511
4392 8089.899175179736
4393 8092.711412918946
4394 8097.247905971286
4395 8102.526704044397
4396 8109.182317114352
4397 8117.421052418382
4398 8126.250962495248
4399 8136.265251677599
4400 8146.686910181207
4401 8158.054888510154
4402 8170.618772788836
4403 8183.845713680668
4404 8197.581943112367
4405 8211.82663087722
4406 8226.234995036248
4407 8240.42331669683
4408 8254.608010405716
4409 8268.696318666949
4410 8282.873211813077
4411 8296.415985692358
4412 8308.844326575156
4413 8321.056931564242
4414 8332.448450475822
4415 8342.713471325251
4416 8352.503807196163
4417 8361.20627951475
4418 8368.624705319451
4419 8374.827917282451
4420 8379.444622391415
4421 8382.935224821273
4422 8385.378908526109
4423 8386.383304095531
4424 8386.011235845997
4425 8384.177621729452
4426 8381.216842535729
4427 8376.989204365666
4428 8371.241461447311
4429 8364.430874670632
4430 8356.663948820222
4431 8347.686654218291
4432 8337.903936608735
4433 8327.421059638342
4434 8315.994609359655
4435 8303.981242526406
4436 8292.1095190139
4437 8283.619640800747
4438 8270.11392013669
4439 8257.027845878249
4440 8244.048543940471
4441 8231.956843437036
4442 8219.599582302304
4443 8207.969488943918
4444 8196.852962473795
4445 8186.673802385802
4446 8177.446906554595
4447 8169.422663591039
4448 8162.229080162259
4449 8156.256272638383
4450 8151.520900398967
4451 8147.858421032372
4452 8145.243637451409
4453 8143.866741205535
4454 8143.393744579061
4455 8143.852048934466
4456 8145.602158377656
4457 8147.856721524661
4458 8151.314650227668
4459 8155.387369915916
4460 8160.043771402792
4461 8165.23912383218
4462 8170.814037548535
4463 8176.830637274837
4464 8181.082975724675
4465 8187.520875105101
4466 8192.148757787756
4467 8198.945019700306
4468 8203.776834609755
4469 8210.959734806469
4470 8217.714919080559
4471 8223.934516796744
4472 8229.924701778886
4473 8235.497023211541
4474 8240.533689856366
4475 8245.198523263676
4476 8248.882897700934
4477 8252.045290149301
4478 8254.336223559012
4479 8256.105930296208
4480 8256.830575748221
4481 8256.904607747549
4482 8256.348429320971
4483 8254.731685933504
4484 8252.512843198512
4485 8249.444909337522
4486 8245.890643996147
4487 8242.056116286742
4488 8237.652331118192
4489 8232.796463792905
4490 8227.468568748289
4491 8222.059886581581
4492 8216.816230762477
4493 8211.015639318319
4494 8205.701092955085
4495 8201.985472214301
4496 8196.727520247779
4497 8191.960074589249
4498 8187.31524193016
4499 8183.086870888326
4500 8179.620461140185
4501 8176.520603471695
4502 8174.38063440081
4503 8172.57610345927
4504 8171.350794354922
4505 8170.386412373974
4506 8170.050839646608
4507 8170.492759611955
4508 8171.371181581676
4509 8172.803395285782
4510 8174.516784288097
4511 8176.959790847365
4512 8179.828574578054
4513 8182.808957643414
4514 8186.37912320319
4515 8189.6688015649
4516 8193.524233176513
4517 8197.491685371722
4518 8201.387369446902
4519 8205.515894868853
4520 8209.635221656443
4521 8213.325901973432
4522 8217.071194153925
4523 8220.471857117487
4524 8223.493861491899
4525 8225.984680022915
4526 8228.121168834456
4527 8230.170125521805
4528 8231.824129021421
4529 8233.000590571106
4530 8234.080739604637
4531 8234.289841874528
4532 8234.261901436741
4533 8233.874967069041
4534 8232.711107761128
4535 8231.440090431335
4536 8229.78033678636
4537 8226.432159284099
4538 8222.908749331576
4539 8220.053888542234
4540 8215.046896812813
4541 8211.206959678997
4542 8205.946026839349
4543 8201.936814551482
4544 8195.924855516574
4545 8191.350387497196
4546 8184.573868707242
4547 8178.240783886926
4548 8174.144926001944
4549 8168.682624028268
4550 8163.873687519817
4551 8161.406980509167
4552 8158.339786434034
4553 8156.539937527049
4554 8155.647221147654
4555 8155.427933795295
4556 8156.468123971255
4557 8158.7719352494
4558 8162.165458753056
4559 8166.438490132346
4560 8171.82085539019
4561 8178.287360611365
4562 8185.81903384773
4563 8193.494213474651
4564 8201.960599971962
4565 8210.950171243418
4566 8220.246100070482
4567 8226.673198083745
4568 8237.14654273628
4569 8247.405379688507
4570 8257.920656652581
4571 8268.895340812607
4572 8279.142813109551
4573 8288.660398101436
4574 8298.341319785981
4575 8307.412551152112
4576 8315.829097215101
4577 8323.754190628051
4578 8330.985013385996
4579 8337.431034373083
4580 8342.739290321253
4581 8347.233529188101
4582 8350.603098078001
4583 8353.12275684311
4584 8354.291561386346
4585 8354.58372665571
4586 8353.913922948128
4587 8352.220887149502
4588 8349.567347553962
4589 8345.782965978718
4590 8341.065066269894
4591 8335.08196396775
4592 8327.957792538185
4593 8319.620059205703
4594 8310.651491687442
4595 8301.029460233183
4596 8289.899447397314
4597 8278.649722465649
4598 8266.850792898233
4599 8254.165891483002
4600 8241.411019195877
4601 8228.258122702784
4602 8215.2245943776
4603 8202.429915014185
4604 8190.111827464465
4605 8178.140315541925
4606 8166.894338289895
4607 8156.018160636406
4608 8146.243061117804
4609 8137.310762315205
4610 8129.206922920103
4611 8121.858639127945
4612 8115.539232589122
4613 8110.304578257265
4614 8106.374347057372
4615 8102.97248761371
4616 8100.814162169489
4617 8099.45745000139
4618 8098.888762369566
4619 8098.662844490153
4620 8099.131923940929
4621 8100.639995742737
4622 8102.727179260202
4623 8105.788558309225
4624 8108.462513664655
4625 8111.930327798448
4626 8115.540328461937
4627 8119.71845207841
4628 8122.438277429519
4629 8127.076668724304
4630 8131.576332633114
4631 8134.640065113678
4632 8139.493638638483
4633 8143.79863350389
4634 8148.154661734043
4635 8150.842354326417
4636 8154.896259950553
4637 8158.422401415367
4638 8161.810059284107
4639 8164.716083423209
4640 8167.644454651583
4641 8169.597453998845
4642 8171.551814221378
4643 8172.982152821935
4644 8174.183126575334
4645 8174.870355245505
4646 8174.798435248831
4647 8174.638585954495
4648 8173.981238410971
4649 8173.010337537806
4650 8172.388457640015
4651 8171.035807099634
4652 8170.114391072053
4653 8168.625172214884
4654 8167.74960833937
4655 8166.907373465782
4656 8166.683475396261
4657 8166.209583335407
4658 8166.277984891684
4659 8166.656220103949
4660 8167.658026635388
4661 8168.681224057566
4662 8169.809192844627
4663 8172.643753954007
4664 8174.805091649975
4665 8178.324538502173
4666 8181.078171819834
4667 8185.453044293262
4668 8188.630694617423
4669 8193.548193256494
4670 8197.032684595577
4671 8202.747035847218
4672 8206.424493890978
4673 8211.909057963809
4674 8215.731354078178
4675 8221.663922190868
4676 8225.204489977261
4677 8230.132879464398
4678 8233.236641339126
4679 8237.815116118034
4680 8241.510230710175
4681 8243.461043555353
4682 8246.390665948014
4683 8248.226892141925
4684 8249.292659073417
4685 8249.636226814831
4686 8249.550986781516
4687 8248.796886639639
4688 8247.830077886358
4689 8245.671602959072
4690 8242.674585078512
4691 8240.447964562669
4692 8236.871548009189
4693 8233.644526742994
4694 8228.371538509224
4695 8224.803729443942
4696 8219.014275837955
4697 8214.952561555661
4698 8208.931412132079
4699 8205.157644225392
4700 8199.699257001184
4701 8196.195639201209
4702 8191.02828756694
4703 8187.890193608558
4704 8183.702322676791
4705 8181.131919615557
4706 8177.946962858019
4707 8176.259838193804
4708 8174.436834227055
4709 8173.55885089591
4710 8173.237058058363
4711 8173.565236871779
4712 8174.410907508218
4713 8175.678491728738
4714 8178.05442742415
4715 8179.797166239947
4716 8183.044775260116
4717 8185.767843170531
4718 8190.015253959607
4719 8193.413032525286
4720 8198.211615247976
4721 8201.928880253439
4722 8207.539891562039
4723 8211.356133420328
4724 8216.462644693382
4725 8219.918768418474
4726 8225.227086380164
4727 8228.282421020524
4728 8232.618572266476
4729 8235.094899867399
4730 8238.448303908121
4731 8239.913566133391
4732 8241.896047640786
4733 8242.805757636968
4734 8243.454059902606
4735 8243.404332112003
4736 8242.780192731201
4737 8241.841499773804
4738 8239.665738240914
4739 8237.816541746513
4740 8234.173990047502
4741 8231.277993593423
4742 8226.383192888199
4743 8222.621082329959
4744 8216.338955586421
4745 8212.009815918966
4746 8205.116626601386
4747 8200.119246068403
4748 8192.910700722168
4749 8185.284407869706
4750 8180.409750035445
4751 8172.576565629085
4752 8165.051564317576
4753 8157.486392718299
4754 8150.362369305249
4755 8143.421038203061
4756 8137.203002169047
4757 8131.622288432602
4758 8126.472832838587
4759 8121.791191727153
4760 8118.374682071591
4761 8115.788832768228
4762 8114.059282303802
4763 8112.905906815319
4764 8112.643154537548
4765 8113.19577602877
4766 8114.743753839063
4767 8117.051757959794
4768 8119.343800419714
4769 8123.239587470651
4770 8126.470761484998
4771 8132.419603213905
4772 8136.830867448078
4773 8144.170495156166
4774 8149.429223966722
4775 8154.794680382075
4776 8164.05819337403
4777 8170.327731961695
4778 8180.569819464242
4779 8187.585972637198
4780 8198.917585670628
4781 8205.936250129453
4782 8217.131101626184
4783 8228.574168663325
4784 8239.193490968793
4785 8249.747613851561
4786 8259.576326656868
4787 8268.736331459197
4788 8277.348564606178
4789 8285.225922517197
4790 8292.534183741123
4791 8299.105189911957
4792 8304.995475774793
4793 8310.119014268834
4794 8314.449194305447
4795 8317.925406599781
4796 8320.098849276164
4797 8321.5715853245
4798 8321.973833281581
4799 8321.291116897301
4800 8319.932269804916
4801 8317.722187725602
4802 8314.404729076192
4803 8310.244516456054
4804 8305.09328864399
4805 8299.455554609722
4806 8292.74385808196
4807 8284.926956507668
4808 8276.594541837219
4809 8267.301335072452
4810 8256.926957358593
4811 8246.351691917229
4812 8235.211902420155
4813 8223.374917850741
4814 8210.571244206945
4815 8197.569979058284
4816 8184.730475054049
4817 8171.047215493273
4818 8158.347230805444
4819 8145.426756638341
4820 8132.944503538004
4821 8120.902849144678
4822 8108.65409374747
4823 8097.338248964955
4824 8086.098702747782
4825 8075.831585956005
4826 8066.409880560754
4827 8058.119820588741
4828 8050.807658725575
4829 8044.630941645876
4830 8039.624417473006
4831 8035.800672966634
4832 8033.468200590024
4833 8032.252536077332
4834 8032.290137225748
4835 8033.640878727532
4836 8036.404871551317
4837 8040.640220257204
4838 8045.902935052808
4839 8052.177776031049
4840 8060.342022527897
4841 8069.148749663865
4842 8079.090530269797
4843 8089.87933941612
4844 8101.592345661763
4845 8114.037377778447
4846 8127.40273857734
4847 8141.399617286186
4848 8155.500126715233
4849 8170.661648526421
4850 8186.073489351965
4851 8202.116882693957
4852 8218.413160180138
4853 8234.640969401753
4854 8250.29026352708
4855 8264.949709208575
4856 8279.342059191338
4857 8292.748960315235
4858 8305.599704743003
4859 8317.336171110361
4860 8327.612897104627
4861 8339.60428853735
4862 8346.944013046283
4863 8352.843100848006
4864 8357.321125218939
4865 8359.904208886603
4866 8360.972312035932
4867 8360.01881891544
4868 8357.184133642326
4869 8353.048995493762
4870 8346.495460208302
4871 8338.337123326502
4872 8328.828423037448
4873 8318.224907463933
4874 8306.286250202791
4875 8293.422219655182
4876 8279.456482019812
4877 8264.810014240633
4878 8249.585240251892
4879 8233.631489833619
4880 8217.09047433689
4881 8201.280018293739
4882 8185.18622849059
4883 8169.384461329329
4884 8154.731441474085
4885 8140.424717886941
4886 8126.844811172033
4887 8113.623194486679
4888 8101.525046909894
4889 8090.331983982318
4890 8080.430281681352
4891 8071.732996101082
4892 8064.203252780736
4893 8058.069666357234
4894 8052.958381619937
4895 8049.150441469151
4896 8046.853558673834
4897 8045.670928633182
4898 8045.380198354016
4899 8045.911495611484
4900 8047.412225972477
4901 8050.186881146635
4902 8053.931261812164
4903 8058.371902410651
4904 8063.735402996969
4905 8069.472351932679
4906 8075.910152496823
4907 8080.164001485617
4908 8087.088486258863
4909 8091.970011422626
4910 8099.632822942221
4911 8104.703216093336
4912 8112.461077576603
4913 8117.54748983196
4914 8124.963291702138
4915 8132.01020203207
4916 8138.661015226457
4917 8144.606822969371
4918 8150.327724475966
4919 8155.050022450918
4920 8159.192803482953
4921 8162.465995672838
4922 8165.154006104432
4923 8167.06545862253
4924 8167.938841072146
4925 8168.156760428019
4926 8168.06232665664
4927 8166.74019119511
4928 8164.833931311841
4929 8162.484456345975
4930 8159.404472030368
4931 8155.604454539996
4932 8151.760546027922
4933 8147.250407620775
4934 8142.499861657837
4935 8137.446305442767
4936 8133.805541095931
4937 8129.116332409433
4938 8126.16315661596
4939 8122.336523701587
4940 8118.761967590121
4941 8116.578476178354
4942 8114.315939520514
4943 8112.702312328732
4944 8111.842474177076
4945 8111.698691384497
4946 8112.224535109378
4947 8113.888310637186
4948 8115.921015380729
4949 8119.095547814512
4950 8123.016088239139
4951 8126.290908656682
4952 8132.034134836907
4953 8138.126376159813
4954 8145.177145160858
4955 8152.668280569503
4956 8157.377449692211
4957 8165.206690042837
4958 8173.796031815727
4959 8182.158972208802
4960 8187.755658238748
4961 8196.241387860038
4962 8204.557886620894
4963 8212.399315518316
4964 8220.034176841658
4965 8226.753899670237
4966 8233.249438006071
4967 8238.588670341122
4968 8243.345852438046
4969 8247.321503929001
4970 8250.581175661369
4971 8253.004311100451
4972 8254.375413093441
4973 8254.993454892137
4974 8254.651242292894
4975 8253.532346700793
4976 8251.481213903748
4977 8248.017344338739
4978 8243.808354005518
4979 8240.861890144939
4980 8235.581490426704
4981 8231.902098250281
4982 8225.792647119319
4983 8221.28867760164
4984 8214.400781511838
4985 8209.62403103088
4986 8202.724516030456
4987 8198.134517173459
4988 8191.317598993191
4989 8184.672874587942
4990 8179.051451451428
4991 8175.521741679764
4992 8171.17657379055
4993 8168.062899418567
4994 8165.686210830599
4995 8164.386400768262
4996 8164.184377059591
4997 8164.97132940572
4998 8166.711509010483
4999 8169.22740346355
5000 8172.750439022601
5001 8177.453296747944
5002 8182.664189106149
5003 8188.284422547079
5004 8194.859674219004
5005 8201.390442150116
5006 8208.464108094486
5007 8215.92390629255
5008 8223.313464748984
5009 8230.733185557363
5010 8238.225812067485
5011 8246.121892706338
5012 8253.431546867263
5013 8260.253839306695
5014 8266.505377474143
5015 8272.358248947749
5016 8277.671020130905
5017 8282.020036648519
5018 8285.475374674936
5019 8288.773757437726
5020 8290.958491377114
5021 8292.480856279763
5022 8293.161371982962
5023 8292.570405822111
5024 8291.324926382964
5025 8288.932911205107
5026 8286.006188450019
5027 8281.869920237272
5028 8277.024511343294
5029 8271.172112698065
5030 8264.514970274218
5031 8256.933361075104
5032 8248.685487027693
5033 8238.912283140087
5034 8228.172764570018
5035 8216.784254837386
5036 8205.532497433262
5037 8192.973626775965
5038 8180.136571066163
5039 8167.605412499484
5040 8154.530450329468
5041 8142.502751051255
5042 8130.972627169022
5043 8118.971272051871
5044 8107.838485561014
5045 8097.492788840394
5046 8087.87255653032
5047 8078.999735829394
5048 8071.423531999467
5049 8064.527777921354
5050 8058.622166393618
5051 8054.046325834367
5052 8050.731052906341
5053 8048.00871338625
5054 8046.495378056577
5055 8046.346207277029
5056 8047.137863743079
5057 8048.961841486287
5058 8051.65225840826
5059 8055.363984166399
5060 8059.940268349208
5061 8063.575432481941
5062 8069.855186289103
5063 8074.225801750076
5064 8081.467145538306
5065 8086.70155277825
5066 8095.13962838714
5067 8100.971334227324
5068 8109.625964930298
5069 8115.737526055957
5070 8125.072050068447
5071 8131.536307325309
5072 8141.126692550002
5073 8147.453431298974
5074 8156.959026999532
5075 8166.027993427118
5076 8174.092351270056
5077 8181.737487200364
5078 8189.172981670844
5079 8195.735964319469
5080 8201.339241833477
5081 8206.286343908332
5082 8210.568425948817
5083 8213.850935127122
5084 8216.458793483982
5085 8218.610379284733
5086 8219.75324821138
5087 8220.343827498726
5088 8219.686173403974
5089 8218.738911770755
5090 8216.843804105554
5091 8214.939847354031
5092 8212.581343853815
5093 8209.24752277956
5094 8205.941116142072
5095 8203.735848233613
5096 8200.009684458839
5097 8197.475971804997
5098 8193.51807340033
5099 8190.899202339419
5100 8186.865532175631
5101 8184.267944668728
5102 8180.485041893152
5103 8176.639612474832
5104 8174.580734237871
5105 8172.218879657139
5106 8169.572874454463
5107 8167.936123541076
5108 8166.78243366865
5109 8165.871111626241
5110 8165.058297045047
5111 8164.511845804758
5112 8164.02647246486
5113 8164.552520191892
5114 8165.525734283822
5115 8166.885753514174
5116 8167.93505240869
5117 8169.193711511958
5118 8169.886457967191
5119 8171.46950954655
5120 8172.721849068698
5121 8173.830858379343
5122 8174.359965983575
5123 8174.636694592831
5124 8174.549092059451
5125 8174.175025336558
5126 8173.41704680106
5127 8172.270528000368
5128 8171.19541973791
5129 8169.082067976529
5130 8166.949288380657
5131 8164.184189312652
5132 8160.380640554186
5133 8155.804050461595
5134 8150.300343020095
5135 8144.022076199569
5136 8137.239884179357
5137 8130.021116547277
5138 8121.884170976471
5139 8113.802869140723
5140 8105.394784376494
5141 8096.634573568905
5142 8088.310811024024
5143 8079.990713739251
5144 8071.366814016053
5145 8063.055386872605
5146 8055.013458873012
5147 8047.62742434899
5148 8040.326935853664
5149 8033.421205878407
5150 8027.24906363736
5151 8022.432224251737
5152 8018.27628775602
5153 8014.983328305318
5154 8012.728579717985
5155 8011.635961559265
5156 8011.789581797801
5157 8013.494181884928
5158 8015.675706882423
5159 8018.577269795019
5160 8022.878650140005
5161 8028.688679645688
5162 8034.050441726745
5163 8040.995821081536
5164 8048.168759014423
5165 8056.729345769514
5166 8064.86335833716
5167 8073.633338892622
5168 8083.001507276965
5169 8092.938522282138
5170 8102.645271383704
5171 8112.124388031018
5172 8121.506311585796
5173 8130.823169245447
5174 8140.177459268282
5175 8148.377949389343
5176 8155.548090254808
5177 8162.390875096658
5178 8168.466043809904
5179 8174.304253863443
5180 8178.86543452305
5181 8182.655039869533
5182 8185.416195485198
5183 8186.624700113342
5184 8187.182733973023
5185 8186.967289757958
5186 8185.688524333875
5187 8182.786056457112
5188 8179.108453193467
5189 8174.527444377976
5190 8168.575187676286
5191 8161.491585315046
5192 8153.622707639395
5193 8143.932748497389
5194 8133.045288607486
5195 8122.491416904464
5196 8111.454193719189
5197 8099.833710302136
5198 8088.140580957902
5199 8076.369540393624
5200 8065.737912823858
5201 8055.135178818949
5202 8046.356060390463
5203 8037.706623014011
5204 8030.691142683448
5205 8024.421090895448
5206 8019.428860285938
5207 8015.205398893305
5208 8012.247072302772
5209 8010.810181364376
5210 8010.677705037499
5211 8012.438808992865
5212 8014.943007760868
5213 8018.979267661295
5214 8024.431948216422
5215 8030.522187395618
5216 8038.612460834289
5217 8047.210981874306
5218 8056.95360687638
5219 8066.980930547895
5220 8077.602856468397
5221 8089.353559092739
5222 8101.448000481432
5223 8114.709003055358
5224 8126.981552386374
5225 8139.532530191196
5226 8152.822318005693
5227 8165.908575596492
5228 8178.513222063918
5229 8190.704299465211
5230 8202.588869291811
5231 8213.431071757543
5232 8224.226414358312
5233 8234.309552894605
5234 8242.945946766396
5235 8250.355922924553
5236 8257.003224462056
5237 8262.684417052678
5238 8266.946927042509
5239 8270.046895993257
5240 8272.265994448078
5241 8273.418688665834
5242 8273.157254201487
5243 8271.903156118427
5244 8269.364757247857
5245 8264.869398743638
5246 8259.678342665416
5247 8253.325290115508
5248 8245.734583525938
5249 8237.568444769049
5250 8228.501531726286
5251 8218.444342077315
5252 8208.075388467429
5253 8197.400965400575
5254 8186.741478111791
5255 8176.471230338532
5256 8166.815217001778
5257 8157.635196320941
5258 8149.071856380687
5259 8141.207002698658
5260 8133.891282912992
5261 8127.284625744071
5262 8122.023721963546
5263 8117.818689746673
5264 8115.080329131821
5265 8113.483035762421
5266 8113.034831453609
5267 8113.4372061266
5268 8114.673333321887
5269 8117.253158648624
5270 8120.728240160102
5271 8124.629708169657
5272 8128.895959842442
5273 8133.850824201632
5274 8139.067351303563
5275 8144.602818896691
5276 8149.994265212337
5277 8155.735930770724
5278 8161.143218979241
5279 8166.274857352295
5280 8170.966959831093
5281 8175.343097716316
5282 8178.845092772593
5283 8182.076283103059
5284 8184.064722721218
5285 8185.526884417666
5286 8186.52910189525
5287 8185.875095369379
5288 8183.745413384655
5289 8180.810403249787
5290 8176.902531591088
5291 8171.999491562337
5292 8166.062065798864
5293 8158.628320622997
5294 8150.620579398338
5295 8140.339067246584
5296 8129.624517874426
5297 8118.331705478504
5298 8106.806375435717
5299 8094.365731076792
5300 8081.440186122682
5301 8067.731594799152
5302 8054.124172630854
5303 8040.871368923509
5304 8027.903828712069
5305 8015.931768072079
5306 8004.98629783105
5307 7995.31808303258
5308 7986.251886878972
5309 7978.257088623489
5310 7972.153301686575
5311 7967.808376798
5312 7964.805077145556
5313 7962.971288884928
5314 7962.940153529406
5315 7964.169083664007
5316 7967.766478569963
5317 7972.361742617171
5318 7978.393974248915
5319 7985.693061046795
5320 7994.977048327141
5321 8004.626354282146
5322 8015.425757117459
5323 8027.851797746835
5324 8040.795331850794
5325 8054.538539089131
5326 8067.935744684842
5327 8081.872004839849
5328 8096.2639134704
5329 8110.686129699998
5330 8125.448211040523
5331 8139.721550175997
5332 8153.670138403422
5333 8167.647340228777
5334 8180.87595799464
5335 8192.928754608118
5336 8204.121099130387
5337 8214.499510774689
5338 8224.122824191472
5339 8232.22455535353
5340 8239.542521387226
5341 8245.549276443673
5342 8250.846821196812
5343 8254.854853684332
5344 8257.701081770261
5345 8259.073827975088
5346 8259.906775490806
5347 8259.199002216938
5348 8256.718107493616
5349 8254.364396087007
5350 8250.50389332829
5351 8245.392351696672
5352 8240.149068774457
5353 8236.20439763244
5354 8228.704801003745
5355 8222.847039531394
5356 8213.931128425744
5357 8208.130153143058
5358 8199.801899448048
5359 8194.062103392491
5360 8185.784256574559
5361 8180.548580959246
5362 8173.178546249422
5363 8168.844163465627
5364 8163.263133251939
5365 8158.434637708368
5366 8156.015779847721
5367 8152.899297746033
5368 8150.977982701555
5369 8149.801236977084
5370 8149.784466329208
5371 8150.960997419535
5372 8153.138461596162
5373 8155.944803009941
5374 8159.717515405951
5375 8163.662155557029
5376 8168.981334357647
5377 8173.983910641426
5378 8179.545603291923
5379 8185.634150858261
5380 8191.850565402651
5381 8197.732857289393
5382 8203.639808329293
5383 8208.526093642966
5384 8214.228840222402
5385 8219.354311581534
5386 8224.619959844398
5387 8229.097344270191
5388 8232.925039998074
5389 8235.853398667514
5390 8237.893909623024
5391 8239.257244813385
5392 8240.631226772457
5393 8240.406482838634
5394 8239.896853582051
5395 8238.578100179237
5396 8236.238307692693
5397 8233.20960304712
5398 8230.739493270779
5399 8225.805786719151
5400 8220.264488507166
5401 8214.14385582204
5402 8207.01889496428
5403 8199.487104024856
5404 8190.45965799054
5405 8181.167630598845
5406 8170.840634380413
5407 8159.901392610782
5408 8148.174714533442
5409 8136.353714244529
5410 8124.069686900842
5411 8112.290609162729
5412 8100.073851020935
5413 8088.789765216299
5414 8077.93885788011
5415 8067.063250594049
5416 8057.228021415833
5417 8047.919648953372
5418 8039.759457651954
5419 8032.475161136411
5420 8025.483536839163
5421 8020.04644294425
5422 8016.184948310876
5423 8013.508953208434
5424 8011.912235660439
5425 8011.248713809694
5426 8012.399893913643
5427 8015.071595632202
5428 8018.475111061597
5429 8022.964925292156
5430 8029.382040292375
5431 8035.935350333426
5432 8043.764002302186
5433 8052.890942332225
5434 8059.159739399137
5435 8069.688920833877
5436 8080.528810412718
5437 8088.032706591282
5438 8099.682124314931
5439 8111.875154204789
5440 8120.183001422811
5441 8132.911524506815
5442 8145.074743694001
5443 8158.039862314191
5444 8170.200697600173
5445 8182.00440244196
5446 8192.258308225813
5447 8201.63118391575
5448 8210.073851288354
5449 8217.662579632311
5450 8223.978427173157
5451 8228.621603496269
5452 8232.370583591273
5453 8234.374461040095
5454 8235.586468292171
5455 8235.030490944029
5456 8232.783138576586
5457 8229.242766477086
5458 8224.489988428817
5459 8218.287458363271
5460 8210.550074072244
5461 8200.963184905915
5462 8191.120037856356
5463 8179.546008700623
5464 8167.290613167248
5465 8154.659739067815
5466 8141.462643248231
5467 8127.624963740244
5468 8113.721715522145
5469 8100.347145591118
5470 8087.378240304702
5471 8074.49663725657
5472 8062.52174320626
5473 8051.284850970885
5474 8040.961980937432
5475 8031.951516001076
5476 8023.779891540246
5477 8016.650464484972
5478 8010.80538896605
5479 8006.369644256741
5480 8002.99525764816
5481 8001.30223647861
5482 8000.255570535558
5483 8001.333749888325
5484 8003.228243177314
5485 8006.0970125592
5486 8010.147946059791
5487 8015.538751524571
5488 8022.270098151444
5489 8029.834345749852
5490 8038.23728570426
5491 8047.09733268084
5492 8057.353183073464
5493 8067.731990329868
5494 8078.989266694119
5495 8090.134488944243
5496 8101.469135054913
5497 8112.993842668138
5498 8124.811109456333
5499 8136.070794265226
5500 8147.039734891644
5501 8158.038912696733
5502 8168.772243290864
5503 8179.097275037203
5504 8189.063514851542
5505 8198.315993481203
5506 8206.893065992406
5507 8214.229508770903
5508 8220.707457441664
5509 8226.13100598946
5510 8230.246721949579
5511 8233.200379970416
5512 8235.405379087557
5513 8236.423800886281
5514 8236.409599048549
5515 8235.864322143092
5516 8234.411335225541
5517 8232.09267602878
5518 8228.897340022162
5519 8225.38647491757
5520 8220.980198882939
5521 8216.375578320216
5522 8211.549246090966
5523 8206.051425308937
5524 8200.698238993115
5525 8194.775309776956
5526 8188.634122860539
5527 8182.749952280765
5528 8176.640964720921
5529 8170.274153140515
5530 8163.838345408008
5531 8157.561871143015
5532 8151.195563771147
5533 8144.835174759098
5534 8138.863622226438
5535 8132.121179024943
5536 8125.395140829017
5537 8118.898560776532
5538 8112.127970532056
5539 8105.732831286257
5540 8099.195919966174
5541 8092.507732170869
5542 8085.604644971466
5543 8078.382408973357
5544 8071.494758882899
5545 8064.721965193101
5546 8058.209850915096
5547 8051.603395858309
5548 8045.136769041389
5549 8038.153989005832
5550 8031.090635766597
5551 8023.458638119941
5552 8016.760294452651
5553 8009.593711682107
5554 8002.817257836467
5555 7994.498367769803
5556 7986.864033170524
5557 7978.98450769201
5558 7971.907815146483
5559 7965.38201150548
5560 7959.505086576288
5561 7953.945941135238
5562 7949.419666261008
5563 7945.189790911754
5564 7941.637824426518
5565 7939.629225225566
5566 7938.364145234143
5567 7937.800002842248
5568 7938.807869766261
5569 7940.866027468493
5570 7944.518784505833
5571 7949.903357305003
5572 7955.926882438191
5573 7962.971214179853
5574 7971.737592596583
5575 7981.501392936592
5576 7991.634833258012
5577 8002.570852312177
5578 8015.297083058142
5579 8029.00689904862
5580 8042.007494390989
5581 8055.709652940944
5582 8070.354550388631
5583 8085.210656668887
5584 8100.110870879093
5585 8114.177618137091
5586 8128.402574713204
5587 8142.140561588019
5588 8156.144981158498
5589 8168.67229129557
5590 8180.436203938111
5591 8191.068791596208
5592 8200.419063485631
5593 8208.654282730153
5594 8216.005761636152
5595 8221.183709042165
5596 8225.278020190221
5597 8227.457453285781
5598 8228.272603681857
5599 8227.935835626147
5600 8226.326313465239
5601 8222.895913944938
5602 8218.036678812083
5603 8211.728072506618
5604 8203.518870385773
5605 8193.566219257582
5606 8183.460322778693
5607 8170.961382064615
5608 8157.709618448383
5609 8143.739377968417
5610 8129.259211846505
5611 8113.351829211148
5612 8097.631141528598
5613 8081.615272048058
5614 8066.373628231582
5615 8051.406070999622
5616 8037.065954686567
5617 8024.014756217292
5618 8012.413922953604
5619 8002.194919676112
5620 7993.439401344833
5621 7986.255601524283
5622 7980.533243130042
5623 7976.643207945572
5624 7974.566873785337
5625 7974.107074223311
5626 7975.484031015003
5627 7978.150994626486
5628 7982.307159178405
5629 7988.548451713839
5630 7995.123824062627
5631 8002.916401151144
5632 8012.121665257516
5633 8022.596192653623
5634 8034.440078023194
5635 8046.088546362085
5636 8057.979690356356
5637 8071.150587969848
5638 8084.497197271348
5639 8097.872631098042
5640 8111.639023781388
5641 8125.744127779734
5642 8139.246866034794
5643 8151.958923784534
5644 8164.624973817137
5645 8176.42866018371
5646 8187.834432094042
5647 8197.822814361147
5648 8207.095474319511
5649 8215.256973118207
5650 8222.851530568274
5651 8228.9422280568
5652 8233.525540850233
5653 8236.849067477546
5654 8238.855683406264
5655 8239.719409494855
5656 8239.383396255627
5657 8236.797722900814
5658 8233.308439253269
5659 8228.314029171743
5660 8222.472354624317
5661 8214.688707618672
5662 8206.210512539645
5663 8196.391424264302
5664 8186.116745314514
5665 8175.277096604194
5666 8163.586683937678
5667 8151.761948664353
5668 8139.952359364661
5669 8128.085403548364
5670 8116.477481516678
5671 8105.890524102532
5672 8095.747803886783
5673 8086.777829249309
5674 8078.46571761222
5675 8070.916387013905
5676 8064.949239606226
5677 8060.192112225729
5678 8056.330641603031
5679 8053.700705148927
5680 8052.725744182088
5681 8053.291116959584
5682 8055.085879273195
5683 8058.079015602737
5684 8061.781542394179
5685 8067.06628875405
5686 8073.294749346634
5687 8080.629602608961
5688 8089.391807751869
5689 8099.38989007107
5690 8109.590057133938
5691 8120.640466355539
5692 8132.296862137199
5693 8144.754883411264
5694 8157.73089445667
5695 8170.315562032128
5696 8183.199502622948
5697 8196.300397244344
5698 8209.445896595798
5699 8221.796008631101
5700 8233.559610328044
5701 8245.071933468183
5702 8255.772596281464
5703 8268.785167387648
5704 8277.324170316544
5705 8284.835142414442
5706 8293.318447296861
5707 8297.943482879215
5708 8301.009703172844
5709 8303.464317158227
5710 8303.495484471205
5711 8302.184386282732
5712 8299.288463356588
5713 8294.587490808239
5714 8288.330853859319
5715 8279.581670600182
5716 8270.325317422961
5717 8259.24220185091
5718 8246.093044869358
5719 8231.328192016215
5720 8215.69084056133
5721 8198.251115105788
5722 8179.321244602512
5723 8159.51962141582
5724 8139.741970954107
5725 8120.481470597004
5726 8099.958624842884
5727 8079.813863105352
5728 8060.17688962911
5729 8041.950553744407
5730 8019.270607589865
5731 8003.502405286285
5732 7988.376889052698
5733 7971.429566824343
5734 7960.913480829521
5735 7949.009376191481
5736 7942.241522755759
5737 7936.131344992931
5738 7934.000548538439
5739 7934.179489519006
5740 7936.364818120703
5741 7941.376669096529
5742 7947.842628664125
5743 7958.144715212251
5744 7968.181932116366
5745 7980.24452831589
5746 7992.986113295663
5747 8008.589509241538
5748 8025.535546898269
5749 8044.033701994567
5750 8063.381109201348
5751 8083.163198940822
5752 8104.62926223191
5753 8126.746802969618
5754 8149.756054032563
5755 8172.953035341364
5756 8195.39102664456
5757 8218.367912939952
5758 8241.805179899051
5759 8265.667688946305
5760 8293.411441157277
5761 8311.741175365547
5762 8335.147502943488
5763 8350.442592815414
5764 8368.22710528732
5765 8378.757965463592
5766 8390.352515657123
5767 8396.339899620021
5768 8400.865696209537
5769 8402.153587253264
5770 8401.075141873946
5771 8397.639386804834
5772 8391.705728931649
5773 8381.60810273943
5774 8370.674636228603
5775 8357.366645816544
5776 8340.999527538523
5777 8323.17151453185
5778 8303.52052783318
5779 8281.574450387576
5780 8258.182651237148
5781 8233.408072475848
5782 8207.162192889135
5783 8180.216722861093
5784 8152.629679127803
5785 8124.117804640213
5786 8096.788606680161
5787 8070.611448323698
5788 8044.821950664976
5789 8020.496297747572
5790 7989.646294050571
5791 7969.698462228103
5792 7951.373557658454
5793 7930.475919872153
5794 7916.951989877405
5795 7906.441583058272
5796 7895.094013426025
5797 7888.979871350512
5798 7884.346918971258
5799 7883.381628866542
5800 7885.846621738826
5801 7890.226378984441
5802 7896.54508506926
5803 7904.505525930711
5804 7914.684009270863
5805 7926.18027371559
5806 7940.536864625514
5807 7955.879321653275
5808 7972.522486245691
5809 7990.601703697948
5810 8010.346437899823
5811 8028.949895923494
5812 8049.609246106033
5813 8071.307577115935
5814 8093.441493613758
5815 8114.759030173858
5816 8136.264941792007
5817 8157.64370124487
5818 8179.310944057499
5819 8199.918541637788
5820 8219.86862578257
5821 8238.125625154873
5822 8259.791158020193
5823 8274.782363732591
5824 8288.210008043012
5825 8300.068782111795
5826 8312.975973077651
5827 8320.3889224309
5828 8325.821994605296
5829 8329.309191876013
5830 8330.972231519139
5831 8330.12620956723
5832 8327.438401781958
5833 8322.184907297173
5834 8314.587228265864
5835 8305.005943001986
5836 8292.815423498598
5837 8279.169741018779
5838 8263.575806311586
5839 8246.541262936493
5840 8228.59455883639
5841 8209.833465632963
5842 8189.877728349608
5843 8169.434611989643
5844 8149.215647002957
5845 8129.762930060955
5846 8110.273380722858
5847 8091.829593008743
5848 8074.226359799828
5849 8057.365189498894
5850 8041.487470451179
5851 8026.786478616106
5852 8013.373035732189
5853 8001.780937151048
5854 7991.914355201934
5855 7983.396244303593
5856 7976.639376231612
5857 7971.594020810943
5858 7967.794256048577
5859 7966.083445631955
5860 7967.030318660257
5861 7969.035964923299
5862 7972.682092575938
5863 7978.084082071095
5864 7984.97316315545
5865 7992.780862789759
5866 8002.367198237303
5867 8013.473272835644
5868 8024.560522634259
5869 8037.313232991803
5870 8051.152886317429
5871 8066.082615301572
5872 8080.887659541751
5873 8095.551659990386
5874 8111.173566950141
5875 8126.141910516414
5876 8140.573631052816
5877 8155.197448756571
5878 8168.824623924236
5879 8181.730451719841
5880 8193.378991572972
5881 8203.973507426494
5882 8213.589363701036
5883 8221.72382101322
5884 8228.751102064418
5885 8234.554698466598
5886 8238.617616682095
5887 8240.737506418134
5888 8241.200713312965
5889 8240.012135108776
5890 8236.642319787557
5891 8232.568508422504
5892 8226.695532145452
5893 8219.111863071268
5894 8209.760386853506
5895 8199.841875571381
5896 8188.594827954645
5897 8175.960947025364
5898 8163.682729248949
5899 8149.748956681866
5900 8136.565140498003
5901 8123.191930303992
5902 8110.499003218401
5903 8097.913973423899
5904 8086.165428990883
5905 8074.876925023841
5906 8064.485017324043
5907 8054.943305462295
5908 8046.636380288618
5909 8039.224848278314
5910 8033.353875901708
5911 8028.648510714459
5912 8025.228047154144
5913 8023.198616406584
5914 8022.710071712952
5915 8022.75915819786
5916 8024.544115932645
5917 8027.177408702943
5918 8031.492433785384
5919 8036.477395559694
5920 8043.297511197777
5921 8050.624869437332
5922 8058.86760185767
5923 8067.845080373754
5924 8078.053572627709
5925 8085.292711924091
5926 8096.539976598878
5927 8104.404001012171
5928 8116.750742613831
5929 8125.503765634336
5930 8138.20695103765
5931 8146.635547115926
5932 8159.621149865493
5933 8172.0865033694
5934 8184.209877331292
5935 8195.912837891299
5936 8207.023963203577
5937 8217.14643260776
5938 8225.88126870779
5939 8233.442227064832
5940 8240.09968107354
5941 8245.304145936358
5942 8249.516695365457
5943 8252.583798753383
5944 8254.537276591191
5945 8254.984553280539
5946 8255.019509456672
5947 8253.698329277184
5948 8251.602001457786
5949 8249.115954202089
5950 8245.147745386474
5951 8242.027488268493
5952 8236.620648992786
5953 8232.64464702266
5954 8226.717041030648
5955 8222.435972635036
5956 8215.714620751174
5957 8211.246721239952
5958 8204.04702453857
5959 8199.593541609616
5960 8193.120947582876
5961 8188.545196689499
5962 8181.619554144777
5963 8176.823622125578
5964 8170.258968952106
5965 8166.260290735439
5966 8160.195841420976
5967 8154.524666975819
5968 8149.155942573619
5969 8144.508440572659
5970 8140.328290741094
5971 8136.519912964022
5972 8133.342556174644
5973 8130.393048300078
5974 8127.998703103234
5975 8125.895976996906
5976 8123.924788083989
5977 8122.161326851104
5978 8120.942792668417
5979 8120.210436227421
5980 8120.05516741744
5981 8120.21521211723
5982 8120.455142744477
5983 8120.898212455992
5984 8121.74483001925
5985 8122.434894571103
5986 8123.701335342958
5987 8125.022695631828
5988 8126.406817325054
5989 8127.884201850562
5990 8129.083605517626
5991 8130.822596430749
5992 8132.823233432887
5993 8134.046652539825
5994 8136.214589836229
5995 8138.684681522194
5996 8140.404701231178
5997 8143.125158850375
5998 8145.114872549673
5999 8147.961644405606
6000 8149.834831461619
6001 8152.900040776659
6002 8154.837010100343
6003 8158.041575379598
6004 8160.838958705492
6005 8162.541080017038
6006 8165.26266995549
6007 8167.610788565356
6008 8169.680383091488
6009 8171.068802503351
6010 8172.460674555504
6011 8173.660352564021
6012 8174.310228334651
6013 8174.514943743422
6014 8174.643333591117
6015 8174.327403442097
6016 8173.466142467437
6017 8172.254674053213
6018 8170.996294813979
6019 8169.348449133395
6020 8167.369118810133
6021 8164.930050360579
6022 8162.677859633245
6023 8160.91971720797
6024 8158.228950999448
6025 8155.65905693888
6026 8154.136714912385
6027 8151.419011543666
6028 8148.76319072221
6029 8146.260348269527
6030 8143.916139237747
6031 8141.694776085958
6032 8139.359636335676
6033 8137.746032057995
6034 8136.756322727038
6035 8135.78428477121
6036 8135.684101525751
6037 8135.806101920788
6038 8136.540216234441
6039 8137.689246980607
6040 8139.507149114329
6041 8141.597301549656
6042 8144.506813240493
6043 8147.291936346845
6044 8150.864248813788
6045 8155.027582585803
6046 8158.991978682312
6047 8162.961816870682
6048 8167.149589206729
6049 8171.787221310599
6050 8175.974157080163
6051 8179.999564047431
6052 8184.060504064114
6053 8187.943391069734
6054 8190.983804664828
6055 8193.632758492669
6056 8195.783129124278
6057 8197.504927671036
6058 8198.285862157829
6059 8198.74508891348
6060 8198.255617607163
6061 8196.543370947404
6062 8194.35904981645
6063 8191.42648633334
6064 8187.435589459217
6065 8182.886266401335
6066 8177.037994046831
6067 8171.036285535639
6068 8164.583542519051
6069 8157.738173230719
6070 8149.511693081781
6071 8141.452797189283
6072 8133.259932468363
6073 8124.631640360737
6074 8116.449794672562
6075 8108.245989574879
6076 8100.681406813474
6077 8093.334994492789
6078 8087.007242428755
6079 8080.805080846203
6080 8075.402119939476
6081 8071.004065267492
6082 8067.753566855532
6083 8065.186290380027
6084 8063.416595101731
6085 8063.150277440244
6086 8064.382074881245
6087 8067.787437959414
6088 8071.20689505025
6089 8075.997105216148
6090 8082.231338980142
6091 8088.791094648157
6092 8096.511177218034
6093 8104.814955340868
6094 8114.369257574046
6095 8124.095272927238
6096 8134.307811130196
6097 8145.494032559906
6098 8156.465042638266
6099 8167.47839267123
6100 8177.783471231119
6101 8188.9102848669
6102 8198.917356112537
6103 8208.934609563943
6104 8217.844694397101
6105 8225.821540707635
6106 8232.870725724191
6107 8238.932129520284
6108 8243.757985361681
6109 8247.500101297299
6110 8249.828740423729
6111 8250.811250459567
6112 8250.751674090865
6113 8249.603943103795
6114 8246.743549351564
6115 8242.79104412891
6116 8237.458661438601
6117 8230.145843326633
6118 8222.331190069406
6119 8212.580710016517
6120 8200.614023952405
6121 8187.950800915209
6122 8174.78274006345
6123 8160.451752079116
6124 8146.314074218205
6125 8131.316587982262
6126 8115.787193053617
6127 8100.813215488741
6128 8086.26967156999
6129 8071.737250894756
6130 8057.985193696188
6131 8045.023379263115
6132 8033.225384306733
6133 8022.415728527217
6134 8012.534282000355
6135 8004.151467708082
6136 7997.161075792073
6137 7991.13088220669
6138 7986.650803777095
6139 7983.424420860106
6140 7981.586923681932
6141 7981.222448799502
6142 7981.811036453102
6143 7983.711915499339
6144 7986.915936834372
6145 7990.826692561527
6146 7995.818264065134
6147 8000.990538894932
6148 8007.118773074926
6149 8013.57530172612
6150 8018.709747240565
6151 8026.950225794424
6152 8032.472511536247
6153 8041.232081049986
6154 8047.12955605325
6155 8055.855357884669
6156 8061.800968188593
6157 8070.789862724707
6158 8079.167425080932
6159 8087.053877721193
6160 8094.338347138179
6161 8101.307759939617
6162 8107.375526993475
6163 8112.797364354319
6164 8117.520282716579
6165 8121.603684024241
6166 8124.960141871123
6167 8127.23340315982
6168 8128.889678989602
6169 8129.805967467815
6170 8129.850179538007
6171 8129.310552493907
6172 8128.077224197347
6173 8126.422027908829
6174 8124.302787029112
6175 8121.894122112781
6176 8120.363442869927
6177 8117.264470010074
6178 8115.315118803642
6179 8112.576884233833
6180 8110.664544525374
6181 8108.517157042825
6182 8107.193871836911
6183 8105.494889367498
6184 8104.704067986624
6185 8104.032010520001
6186 8104.072522708577
6187 8104.679446055349
6188 8105.792979325
6189 8107.507908416667
6190 8109.429580084626
6191 8112.025189750286
6192 8114.60603057803
6193 8117.519582383446
6194 8120.726444650594
6195 8124.080602836802
6196 8127.556752798308
6197 8131.008614951489
6198 8134.594583198169
6199 8138.091500006273
6200 8141.431627042945
6201 8144.739969211345
6202 8147.516777929551
6203 8149.836334094322
6204 8151.945411873402
6205 8153.67048274624
6206 8154.951651043744
6207 8155.587603224477
6208 8155.82011580516
6209 8155.81242073629
6210 8155.217485715633
6211 8154.127592831223
6212 8153.279942390312
6213 8151.295296479586
6214 8148.570562836524
6215 8146.610642662712
6216 8142.729347465276
6217 8139.867432497945
6218 8135.310756645449
6219 8131.891966587772
6220 8125.924399431185
6221 8122.1207362036
6222 8115.86116256948
6223 8111.579397945894
6224 8105.241401611467
6225 8098.85177048423
6226 8094.714995629604
6227 8088.358667767679
6228 8082.336962946064
6229 8076.784888003436
6230 8072.004023536335
6231 8069.141419093646
6232 8065.249664646251
6233 8062.024866921096
6234 8059.489862871928
6235 8057.676843072044
6236 8056.598600926048
6237 8056.259743947926
6238 8056.506977894866
6239 8057.252066335856
6240 8058.603020219927
6241 8059.994323038205
6242 8062.448134055567
6243 8065.498182284247
6244 8067.930076457296
6245 8071.688460020642
6246 8074.242240943451
6247 8078.324951268976
6248 8081.474329123874
6249 8086.435533914306
6250 8089.678862376007
6251 8094.78762515687
6252 8098.366817582082
6253 8103.426035869241
6254 8108.539637279056
6255 8111.784137705698
6256 8116.59783256045
6257 8119.984522835613
6258 8124.495697596688
6259 8127.356772053061
6260 8131.317709332653
6261 8133.678150986276
6262 8136.943412205654
6263 8138.859929228583
6264 8141.686936132744
6265 8143.392122718742
6266 8145.75558751069
6267 8147.060510038979
6268 8148.402637080406
6269 8149.062331572487
6270 8149.801417934565
6271 8149.902030613484
6272 8149.810488137192
6273 8149.400298904764
6274 8148.65763933035
6275 8147.794586290837
6276 8146.176969369108
6277 8144.940833031603
6278 8143.073489928006
6279 8141.611953168847
6280 8139.682998529189
6281 8138.176371994586
6282 8136.407270487684
6283 8135.295993375652
6284 8133.727025632961
6285 8132.942572108787
6286 8132.240187527083
6287 8131.594306493548
6288 8131.364166736745
6289 8131.178771913871
6290 8131.408052873281
6291 8131.835890850898
6292 8132.54199725095
6293 8132.940875286472
6294 8133.567709551511
6295 8134.223946651893
6296 8134.797543707231
6297 8135.64992575076
6298 8136.369348600972
6299 8137.004542822401
6300 8137.529209420871
6301 8138.250290979333
6302 8138.739967320738
6303 8138.930139690305
6304 8139.106196292444
6305 8139.187455747911
6306 8138.998270020134
6307 8138.532962706614
6308 8138.295169532717
6309 8137.483837286638
6310 8136.610574134856
6311 8135.355176761394
6312 8134.439146007664
6313 8133.391867535364
6314 8131.629444323287
6315 8130.194835711625
6316 8128.666339839621
6317 8125.996290216885
6318 8124.035549288254
6319 8120.538432953424
6320 8118.308664844139
6321 8114.644849489078
6322 8112.348358981483
6323 8108.513201627398
6324 8106.136341891196
6325 8102.435100695313
6326 8100.179157542505
6327 8096.713995122986
6328 8094.753684855145
6329 8091.933244466846
6330 8090.172865926653
6331 8087.983987564998
6332 8086.871181592232
6333 8085.521543070295
6334 8085.115237687493
6335 8084.74662917531
6336 8084.834175729988
6337 8085.556024544235
6338 8086.243242676177
6339 8087.507891073141
6340 8088.583020050667
6341 8090.244046947909
6342 8091.799028400481
6343 8094.224405608456
6344 8095.913358964701
6345 8098.596687652389
6346 8100.643233256543
6347 8103.691528241907
6348 8105.680945807421
6349 8108.493439416584
6350 8110.45078816795
6351 8112.956235364661
6352 8114.796759431182
6353 8117.042556273797
6354 8118.342598948181
6355 8119.982742332684
6356 8120.615774180283
6357 8121.494904392182
6358 8121.91247897068
6359 8122.253272582493
6360 8122.275730258521
6361 8121.832964279449
6362 8121.426899771707
6363 8120.236673612599
6364 8119.150182877234
6365 8116.943887448792
6366 8115.323460104991
6367 8112.539365318237
6368 8110.077587498517
6369 8106.191006765028
6370 8102.363793326575
6371 8099.703869137564
6372 8095.383845761634
6373 8091.281854978166
6374 8086.937332209484
6375 8082.907538390579
6376 8079.096309213753
6377 8075.550973322825
6378 8072.24100195448
6379 8069.263114734528
6380 8066.719641407794
6381 8064.633129241047
6382 8063.133473788525
6383 8062.329148975653
6384 8062.011336994741
6385 8062.102320929734
6386 8062.519378532168
6387 8063.464869880487
6388 8064.296099508125
6389 8066.087650619826
6390 8067.976417031526
6391 8070.190062734613
6392 8072.106651022233
6393 8074.800064003154
6394 8077.948307017764
6395 8080.968639104699
6396 8084.004695102822
6397 8087.038601709441
6398 8089.840019926982
6399 8092.69675983443
6400 8095.033408909111
6401 8097.194993576522
6402 8099.052379748863
6403 8100.464377114111
6404 8101.586815779676
6405 8102.317346193274
6406 8102.735298892951
6407 8102.483669111311
6408 8101.784103069967
6409 8100.420922282168
6410 8098.730363947058
6411 8096.581565749119
6412 8094.042865502145
6413 8090.865034864641
6414 8087.040919143498
6415 8083.050728238596
6416 8078.269798991676
6417 8072.91329058
6418 8067.340281365869
6419 8061.434517787561
6420 8055.570435812395
6421 8049.904447460805
6422 8044.309311063096
6423 8038.822150225134
6424 8033.413499975603
6425 8028.327846734089
6426 8023.784145838578
6427 8019.754127044828
6428 8016.263810023601
6429 8013.657773409553
6430 8011.818449225033
6431 8010.472587072039
6432 8009.988062911058
6433 8010.263071864767
6434 8011.083084458783
6435 8012.726293707548
6436 8015.138396856905
6437 8018.007129284866
6438 8021.826992664498
6439 8025.893681630133
6440 8030.441192773466
6441 8035.341862789449
6442 8040.653109873822
6443 8045.999538220542
6444 8051.721026238555
6445 8057.162497850256
6446 8062.737703482738
6447 8068.342164185759
6448 8073.337578022928
6449 8078.420904786202
6450 8083.149035206327
6451 8087.407549294211
6452 8091.260430722219
6453 8094.665317244911
6454 8097.742826264356
6455 8100.169841037973
6456 8102.040157838766
6457 8103.252551490506
6458 8103.831062824393
6459 8103.906629901782
6460 8103.380087788953
6461 8102.236669319297
6462 8100.404397264231
6463 8097.84778181669
6464 8094.581029746786
6465 8090.687721375931
6466 8085.843022642607
6467 8082.417282606406
6468 8076.727879495284
6469 8072.432975200415
6470 8065.684518414482
6471 8060.970287673157
6472 8053.655630974577
6473 8046.314558357197
6474 8041.19119500656
6475 8033.694253186683
6476 8026.357676295977
6477 8019.298428884438
6478 8012.614475349053
6479 8006.607886030409
6480 8000.982637421441
6481 7995.965664481337
6482 7991.435902552779
6483 7987.512709336828
6484 7984.206672189714
6485 7981.500076878363
6486 7979.336616103413
6487 7977.702246423436
6488 7976.613924047152
6489 7976.095524318641
6490 7976.011882497838
6491 7976.368634118602
6492 7976.759250225587
6493 7977.886319589711
6494 7978.721956306435
6495 7980.35815274943
6496 7981.508198172374
6497 7982.85521393367
6498 7984.917591941603
6499 7986.266130271991
6500 7987.906605150167
6501 7989.62396032736
6502 7992.201789613236
6503 7993.944989033062
6504 7995.685352136109
6505 7998.351738152946
6506 8000.215536796886
6507 8002.189899432608
6508 8005.081141734385
6509 8006.913252703948
6510 8008.730060690123
6511 8011.307230008949
6512 8013.107725325102
6513 8014.906387085748
6514 8017.881805391936
6515 8019.85481196562
6516 8022.971113346082
6517 8024.962622655285
6518 8028.056372414211
6519 8030.069363533233
6520 8033.214711368945
6521 8035.312098835409
6522 8038.484199620162
6523 8040.583749766178
6524 8043.712888868045
6525 8045.992471166273
6526 8049.333890508965
6527 8052.65841939245
6528 8054.843294983216
6529 8058.081548226383
6530 8061.155953907598
6531 8064.170929390449
6532 8067.079875012202
6533 8069.842846435026
6534 8072.509902447011
6535 8074.936302499748
6536 8077.103581212363
6537 8079.032738170161
6538 8080.934880164159
6539 8082.691959406976
6540 8084.116583283298
6541 8085.365546105201
6542 8086.445845366888
6543 8087.182993058076
6544 8087.640784003636
6545 8087.861302435158
6546 8088.005997351344
6547 8087.989247219938
6548 8087.874004618882
6549 8087.704718222135
6550 8087.622037812758
6551 8087.269315026894
6552 8087.142915501056
6553 8087.139543153601
6554 8087.261346805324
6555 8087.362104298002
6556 8087.753396128711
6557 8088.132135494372
6558 8088.933572819536
6559 8089.894086391404
6560 8091.193603790543
6561 8092.933061954049
6562 8094.905637126849
6563 8097.065472316148
6564 8099.514274483637
6565 8102.252255650265
6566 8105.241028621387
6567 8108.382978382728
6568 8111.636004168678
6569 8115.043257497233
6570 8118.787089924327
6571 8122.863058236797
6572 8126.997306972939
6573 8129.768474344318
6574 8134.275581710926
6575 8138.626680338781
6576 8141.498436118863
6577 8146.124549117728
6578 8150.465718368006
6579 8154.347367164932
6580 8158.225491673736
6581 8161.850440734554
6582 8165.117621603163
6583 8167.982755751786
6584 8170.566421896724
6585 8172.814909637962
6586 8174.767552225498
6587 8176.22852221621
6588 8177.377489975964
6589 8178.135459539544
6590 8178.610583596028
6591 8178.769587135592
6592 8178.769188847333
6593 8178.353335424715
6594 8177.634400235137
6595 8176.969149410682
6596 8175.873180145698
6597 8174.954041995016
6598 8173.354121128058
6599 8172.077222225053
6600 8170.175793033154
6601 8168.829761603785
6602 8167.493951122409
6603 8165.377081668679
6604 8164.054546517577
6605 8162.03979696768
6606 8160.834535357689
6607 8158.756515743202
6608 8156.810498530205
6609 8155.561381920566
6610 8153.840665866479
6611 8152.075011845552
6612 8150.548640108569
6613 8149.019602094804
6614 8147.702723283341
6615 8146.449496669228
6616 8145.266971574822
6617 8144.148357652102
6618 8143.139916979534
6619 8142.633636189229
6620 8141.982859826245
6621 8141.277281939637
6622 8140.945889440521
6623 8140.366981740211
6624 8140.083134732253
6625 8139.633283724753
6626 8139.356952345096
6627 8139.019798038477
6628 8138.952769637042
6629 8138.622210356761
6630 8138.443898757867
6631 8138.293749874216
6632 8138.225227210508
6633 8138.14454900929
6634 8137.991672247587
6635 8137.966536446303
6636 8138.068388978374
6637 8138.050292088402
6638 8138.087585103842
6639 8138.150435219957
6640 8138.223698201781
6641 8138.391257995071
6642 8138.602317675781
6643 8138.713999057822
6644 8138.865833226291
6645 8139.15000058344
6646 8139.490806391176
6647 8139.81902104994
6648 8140.375073359568
6649 8140.885370053111
6650 8141.461146059936
6651 8142.073051945027
6652 8142.791029249999
6653 8143.590798157414
6654 8144.837593968496
6655 8145.553917583044
6656 8146.416881942293
6657 8147.582902524044
6658 8148.403735519845
6659 8149.239793841919
6660 8150.416425002805
6661 8151.126531384511
6662 8152.230946787516
6663 8152.882486785194
6664 8153.766680166625
6665 8154.309144056237
6666 8155.03727628615
6667 8155.367854268342
6668 8155.862257021618
6669 8156.166483779148
6670 8156.394708993387
6671 8156.437273800879
6672 8156.564237716979
6673 8156.641070463126
6674 8156.563705353915
6675 8156.354552255666
6676 8155.9255015713
6677 8155.605446206819
6678 8155.009777544617
6679 8154.639819846244
6680 8154.023805164233
6681 8153.594500246957
6682 8152.829699144905
6683 8152.219175075014
6684 8151.491613677165
6685 8150.867413349259
6686 8150.059317074168
6687 8149.367413332338
6688 8148.343632527063
6689 8147.650477558923
6690 8146.627273246976
6691 8145.531595737349
6692 8144.752925630667
6693 8143.560937936447
6694 8142.853715885398
6695 8141.633699634612
6696 8140.849798630511
6697 8139.32152235219
6698 8138.333609126003
6699 8136.669369314303
6700 8135.644556831957
6701 8133.869710807561
6702 8132.716147671388
6703 8130.973236196193
6704 8129.736568616429
6705 8127.598030797994
6706 8125.455876904161
6707 8123.966621317998
6708 8121.76268119027
6709 8120.039028282939
6710 8117.48881555253
6711 8114.899758800379
6712 8113.183771925639
6713 8110.610970467369
6714 8108.839679414494
6715 8106.173636537585
6716 8104.419800553568
6717 8101.537200441395
6718 8099.74819283346
6719 8096.905897208019
6720 8095.107083079459
6721 8092.465221129936
6722 8090.695665355307
6723 8088.250657757403
6724 8086.683790997343
6725 8085.087363827358
6726 8083.00163632556
6727 8081.686699878622
6728 8080.459541081833
6729 8079.399492157732
6730 8078.450454124178
6731 8077.5734995509
6732 8076.79860240648
6733 8076.163702110563
6734 8075.596005367985
6735 8075.078145194036
6736 8074.782356480039
6737 8074.520546583009
6738 8074.41544683612
6739 8074.342470364293
6740 8074.364896930985
6741 8074.489003008705
6742 8074.632379529497
6743 8074.911924715103
6744 8075.280855392422
6745 8075.5457680067
6746 8075.918155947038
6747 8076.267136929459
6748 8076.607011227144
6749 8076.840883798252
6750 8076.947419336052
6751 8077.047063386014
6752 8077.05854817723
6753 8076.918784327908
6754 8076.670604456579
6755 8076.26017066544
6756 8075.719425324973
6757 8074.936147961836
6758 8073.484143208606
6759 8072.296495018835
6760 8071.033138075429
6761 8068.790998928669
6762 8066.876865505283
6763 8063.618214135311
6764 8061.358987085236
6765 8057.699895439324
6766 8055.013914327262
6767 8050.674897717544
6768 8046.234650860058
6769 8043.120504113494
6770 8038.091489426001
6771 8033.062198921609
6772 8028.227672578629
6773 8023.553109106148
6774 8018.897144396439
6775 8014.274139073313
6776 8009.854746061803
6777 8005.59123824755
6778 8001.610943701806
6779 7997.960945160189
6780 7994.6667612187
6781 7991.595247355029
6782 7988.962389644079
6783 7986.554468957674
6784 7984.587807514308
6785 7982.948135132256
6786 7981.909768183647
6787 7981.154704346108
6788 7980.88163105285
6789 7980.968395040324
6790 7981.628886647254
6791 7982.699628320422
6792 7984.043317237472
6793 7985.302070217544
6794 7987.491175740877
6795 7990.008842156804
6796 7991.978760916386
6797 7995.337883737448
6798 7997.810838865823
6799 8001.700438906872
6800 8004.565677590454
6801 8008.976165773912
6802 8012.094052282696
6803 8016.899682868037
6804 8021.763040831541
6805 8024.931615020788
6806 8029.874102879832
6807 8034.736850221333
6808 8039.520332172202
6809 8044.247860107665
6810 8048.810178886233
6811 8053.207337273408
6812 8057.470238274926
6813 8061.062369819975
6814 8064.682094836174
6815 8067.939125749664
6816 8071.014360722218
6817 8073.916948990932
6818 8076.629865223805
6819 8078.837649940933
6820 8080.964669010227
6821 8082.693837079567
6822 8084.4287747751
6823 8085.721376414185
6824 8086.823741574671
6825 8087.43313230172
6826 8088.109195098104
6827 8088.438378642013
6828 8088.360953953769
6829 8087.875451683777
6830 8087.340183136121
6831 8086.527359829638
6832 8085.749117196027
6833 8084.355225397132
6834 8083.286321643644
6835 8081.426340862634
6836 8080.068726336031
6837 8077.900503740366
6838 8076.200696060695
6839 8073.653107218693
6840 8071.91174540463
6841 8068.915922347404
6842 8066.842778635901
6843 8063.706730141871
6844 8061.549233114234
6845 8058.096696560198
6846 8055.665405759777
6847 8051.819024008466
6848 8049.327572062329
6849 8045.41299522459
6850 8041.662459912738
6851 8038.985194747091
6852 8034.945415462732
6853 8030.85667650389
6854 8027.134182258936
6855 8023.468258136271
6856 8019.977875363155
6857 8016.417247001114
6858 8012.970136185142
6859 8009.88373941709
6860 8007.204736240222
6861 8004.791982586477
6862 8002.859841041583
6863 8001.167231169326
6864 8000.156483324251
6865 7999.492014119211
6866 7998.95407742052
6867 7998.833896323474
6868 7998.903244569741
6869 7999.554274060442
6870 8000.538103877318
6871 8001.853330178928
6872 8003.40525340645
6873 8005.201660322929
6874 8006.583234729506
6875 8009.201803020916
6876 8011.141132366827
6877 8014.242326210829
6878 8016.692128447467
6879 8020.607000654362
6880 8023.535703336247
6881 8027.638066532065
6882 8030.753067239197
6883 8035.541956279351
6884 8040.394338039238
6885 8043.778180855312
6886 8049.179957371838
6887 8054.573227844449
6888 8059.466927622598
6889 8064.936958260904
6890 8070.484897369632
6891 8076.038076641094
6892 8081.311455587234
6893 8086.428185852984
6894 8092.226013656265
6895 8097.610865719442
6896 8102.615640660842
6897 8107.953352913482
6898 8112.986005734379
6899 8116.065588403038
6900 8120.596759848784
6901 8125.162213672018
6902 8128.07251872677
6903 8132.191354764236
6904 8136.169193282811
6905 8138.745323395241
6906 8142.310377195857
6907 8144.656403231906
6908 8147.724331453736
6909 8149.736803529533
6910 8152.163705992921
6911 8153.523244087322
6912 8155.222330214936
6913 8156.089552335941
6914 8156.956309171269
6915 8157.194508091274
6916 8157.244468310888
6917 8156.938455250927
6918 8156.556096844143
6919 8155.813540014389
6920 8154.881277417819
6921 8153.691942691346
6922 8152.307463566104
6923 8150.719715454076
6924 8148.983605452557
6925 8147.05043825733
6926 8144.896487681646
6927 8142.698696587697
6928 8140.425313695327
6929 8137.908665551196
6930 8135.289650619891
6931 8131.507139884876
6932 8128.969828170354
6933 8126.401212133756
6934 8122.993051958209
6935 8120.819701856752
6936 8117.742928648281
6937 8115.979136714826
6938 8113.636021254931
6939 8112.262701243378
6940 8110.735453358046
6941 8109.94442136293
6942 8109.015458279379
6943 8108.842390580055
6944 8109.061126670135
6945 8109.606651105452
6946 8110.713472617987
6947 8112.417218794778
6948 8114.485211733425
6949 8117.158997570052
6950 8119.256318509021
6951 8122.515629208859
6952 8125.928307331252
6953 8129.652102465744
6954 8132.32320087596
6955 8136.653929044272
6956 8141.138595653829
6957 8144.062079460498
6958 8148.225098207235
6959 8152.437813376715
6960 8156.662904116794
6961 8160.794704709119
6962 8164.46814542962
6963 8167.797808150051
6964 8170.177223144184
6965 8172.2472083973
6966 8173.741702510033
6967 8174.613837315431
6968 8174.407910212544
6969 8173.281771217332
6970 8171.815666519759
6971 8169.111692999923
6972 8166.012725464617
6973 8162.340056425697
6974 8157.500265382527
6975 8151.853197520099
6976 8145.475519498897
6977 8138.478227789912
6978 8131.105331032482
6979 8123.646057891357
6980 8115.675874483366
6981 8107.631659338103
6982 8099.745102453207
6983 8091.576383855114
6984 8083.802415296674
