"y-rfile"
"Iteration" "y"
("Iteration" "y")
1746 5973.364908285187
1747 6053.017726432412
1748 6167.143662590335
1749 6411.493664736977
1750 6704.035933971783
1751 6943.481378059562
1752 7195.261870659859
1753 7438.356737297077
1754 7657.697921456259
1755 7835.568817261717
1756 7999.091733916495
1757 8100.311540477187
1758 8149.463853796142
1759 8133.072848620784
1760 8103.156739603463
1761 8052.976570355664
1762 8003.713660100101
1763 7955.681223383183
1764 7926.686884145708
1765 7914.396614828006
1766 7917.031804889911
1767 7940.648745287619
1768 7987.488771574303
1769 8039.457340229058
1770 8130.618890473895
1771 8214.503188842191
1772 8347.51980349296
1773 8459.972599490387
1774 8622.482841798617
1775 8749.266895213937
1776 8922.781863819
1777 9053.90976955143
1778 9228.323042564045
1779 9355.733914117029
1780 9520.71887984625
1781 9636.037997542986
1782 9745.800841931405
1783 9850.537072182458
1784 9947.574528474872
1785 10037.94111189991
1786 10120.49857571185
1787 10194.5057795749
1788 10259.27604722653
1789 10315.8829375384
1790 10364.36471009522
1791 10404.10380456937
1792 10437.45124068685
1793 10461.75258945242
1794 10479.7220342469
1795 10490.79953079274
1796 10495.92715913627
1797 10495.27517857413
1798 10491.52162856527
1799 10482.27836743312
1800 10473.96490612228
1801 10458.85683234547
1802 10446.8033801664
1803 10427.40537809061
1804 10413.04835719768
1805 10397.49824504329
1806 10373.99256395642
1807 10357.64895846599
1808 10341.16294961881
1809 10324.27356484322
1810 10307.5017458017
1811 10289.91649607828
1812 10272.66253801256
1813 10255.88826717291
1814 10239.18767436215
1815 10222.40724357943
1816 10206.6456462842
1817 10191.15611453541
1818 10176.60411383906
1819 10162.68292764749
1820 10149.69024791656
1821 10137.41437765389
1822 10126.33583673463
1823 10116.1311050089
1824 10107.16785481652
1825 10098.94637766382
1826 10091.7524795382
1827 10085.81235418823
1828 10080.94898135176
1829 10076.9898943014
1830 10073.99573511076
1831 10071.59583124065
1832 10069.96739048414
1833 10068.90691398544
1834 10068.34165445655
1835 10068.16428857494
1836 10068.1375224983
1837 10068.19345999775
1838 10068.44077389155
1839 10068.97311744027
1840 10069.33818801777
1841 10069.83879892813
1842 10069.85596465367
1843 10069.49921569142
1844 10068.9606367365
1845 10068.05570003248
1846 10066.73101035704
1847 10065.06650024337
1848 10062.86729945392
1849 10060.26851331588
1850 10057.25929914489
1851 10054.15193358948
1852 10050.59285638569
1853 10046.63295549743
1854 10042.28664319984
1855 10037.9227217717
1856 10033.49938205393
1857 10028.58483655807
1858 10023.53898018288
1859 10018.14227946834
1860 10012.54495809997
1861 10006.94104038737
1862 10001.48120255142
1863 9995.881510607038
1864 9990.257992414698
1865 9984.577400683844
1866 9979.023652330507
1867 9973.459375852586
1868 9968.033324595279
1869 9962.719146718233
1870 9957.45212743839
1871 9952.354322092355
1872 9947.499034389484
1873 9942.4821682121
1874 9937.767010949276
1875 9932.995693757723
1876 9928.451330237645
1877 9923.90272442453
1878 9919.593902281609
1879 9915.4735018069
1880 9911.40434537828
1881 9907.374857389816
1882 9903.706952129767
1883 9900.165725317182
1884 9896.753990567609
1885 9891.587810227493
1886 9888.800968366577
1887 9886.158986106544
1888 9882.399745632116
1889 9880.130344774912
1890 9877.324545988122
1891 9875.533984223497
1892 9873.235839595498
1893 9871.762375908569
1894 9870.266594147701
1895 9869.430133301381
1896 9868.348090163845
1897 9867.233956360451
1898 9866.64575797824
1899 9866.301171962607
1900 9866.292190067472
1901 9866.767856841345
1902 9867.521340154306
1903 9868.320915244831
1904 9869.62724996016
1905 9870.869675717811
1906 9872.416246836965
1907 9874.4140546259
1908 9876.362243476453
1909 9878.476879223657
1910 9881.000287095652
1911 9883.45909491217
1912 9886.327619615302
1913 9889.334817494524
1914 9892.606509698482
1915 9895.981913281743
1916 9899.156947814145
1917 9903.741062881372
1918 9907.654495068791
1919 9911.593623182504
1920 9917.091891341062
1921 9921.584080389175
1922 9927.879001843849
1923 9932.921574638031
1924 9939.840248842267
1925 9946.949993359212
1926 9953.832871383023
1927 9960.987186609464
1928 9968.22624586854
1929 9975.501621007252
1930 9983.122938206236
1931 9991.18304609874
1932 9999.437180702442
1933 10007.33350936221
1934 10015.42190172283
1935 10023.87284626422
1936 10032.57798444799
1937 10041.27717009658
1938 10050.05036402356
1939 10061.01463983829
1940 10069.30524831069
1941 10077.64960187703
1942 10088.55137631027
1943 10097.60447024982
1944 10106.7051951816
1945 10118.12396405492
1946 10126.97201848359
1947 10136.17850846038
1948 10147.3468521435
1949 10156.5024656567
1950 10165.29180478399
1951 10176.17032263598
1952 10184.3899822564
1953 10193.3084183891
1954 10203.95781000023
1955 10212.40644229675
1956 10219.69835292309
1957 10229.34968006339
1958 10236.30436503064
1959 10242.77058984047
1960 10250.33282674374
1961 10256.33057072206
1962 10261.30609666236
1963 10265.84233326124
1964 10269.58102873304
1965 10273.13767764009
1966 10275.59661960537
1967 10277.36488020294
1968 10278.25528735125
1969 10277.92371410035
1970 10275.74571049913
1971 10273.81431241779
1972 10270.28271576349
1973 10265.63641228162
1974 10260.32367225161
1975 10253.69660714903
1976 10245.77543402209
1977 10237.43641920563
1978 10227.9241688102
1979 10216.53159394986
1980 10205.45976271539
1981 10192.44433233265
1982 10178.60847277043
1983 10163.4444131803
1984 10146.64395406225
1985 10129.88275762073
1986 10111.26603175108
1987 10091.77459176169
1988 10071.21173238085
1989 10049.2254081627
1990 10027.12554732556
1991 10003.83698830102
1992 9979.226651662524
1993 9954.362997324466
1994 9923.938338177046
1995 9899.500505271057
1996 9874.629508892875
1997 9847.885480066465
1998 9815.947353521138
1999 9791.139160016231
2000 9766.183822041798
2001 9741.376616491869
2002 9716.127489616407
2003 9690.720180697243
2004 9665.422560412666
2005 9640.472542658568
2006 9615.882441553254
2007 9591.796406227002
2008 9567.29957316222
2009 9544.330873124694
2010 9522.020697231241
2011 9500.975387647608
2012 9480.495012644029
2013 9461.218791027562
2014 9442.226903017145
2015 9424.762327267417
2016 9409.9056735862
2017 9398.601678029849
2018 9384.743577850619
2019 9374.964943989726
2020 9363.151957596285
2021 9354.856583930146
2022 9345.413128563228
2023 9339.109495081138
2024 9332.367988866466
2025 9328.375009832589
2026 9324.728423673496
2027 9323.726704273269
2028 9322.50280007931
2029 9323.400857601649
2030 9326.576151728632
2031 9329.445027778071
2032 9334.452171429675
2033 9340.24710572947
2034 9347.376593546222
2035 9356.078283064877
2036 9365.792366884349
2037 9377.716472449618
2038 9389.714873611387
2039 9403.703702621902
2040 9418.365373828137
2041 9434.989986710851
2042 9452.532942199687
2043 9471.882591958138
2044 9492.753738001327
2045 9514.72064187077
2046 9537.289053136072
2047 9561.511754602827
2048 9586.404552618324
2049 9611.522526897454
2050 9637.038072105473
2051 9663.528278553858
2052 9690.910634738626
2053 9726.34008680355
2054 9752.781817904131
2055 9778.76753123528
2056 9804.576696458229
2057 9830.198738637519
2058 9855.376205485478
2059 9888.576972684157
2060 9912.89198500241
2061 9936.147592700941
2062 9958.929745772275
2063 9979.684130624144
2064 10005.43893151364
2065 10023.60717284826
2066 10039.45531058721
2067 10054.61837281369
2068 10068.999104949
2069 10085.76688885417
2070 10096.79332017009
2071 10106.37804203934
2072 10114.25652160735
2073 10120.88501858747
2074 10126.62958337636
2075 10131.3822442278
2076 10135.34524884136
2077 10139.33701724949
2078 10141.78228657323
2079 10143.66500577114
2080 10144.50478442812
2081 10145.36781049593
2082 10146.28925276585
2083 10147.16284667947
2084 10146.96455433303
2085 10147.46595766216
2086 10148.08661294966
2087 10149.581895326
2088 10150.96804825734
2089 10152.34249311544
2090 10154.75682955553
2091 10157.93634612415
2092 10160.74105224941
2093 10165.11402217159
2094 10169.53435195656
2095 10175.18986306117
2096 10181.20659954856
2097 10187.24310958218
2098 10193.71743030537
2099 10200.94332622797
2100 10208.69212339496
2101 10216.84201872705
2102 10224.07972573812
2103 10232.33080682821
2104 10240.68308381985
2105 10249.53883062076
2106 10258.63981006212
2107 10268.13708427493
2108 10278.57833824136
2109 10288.60963161796
2110 10298.97525190707
2111 10308.68075296206
2112 10318.57358257
2113 10327.59457096579
2114 10336.99959533985
2115 10345.33925380904
2116 10353.64706153899
2117 10360.94689651443
2118 10368.90118666027
2119 10376.8758756532
2120 10384.1760088862
2121 10390.48582816516
2122 10396.45544659821
2123 10401.65053350755
2124 10406.12344025195
2125 10409.88791257654
2126 10411.94365944809
2127 10413.6645335768
2128 10414.69278613198
2129 10414.43010789209
2130 10414.06709528529
2131 10411.79583291204
2132 10410.18001907072
2133 10407.22924476754
2134 10403.31377826395
2135 10398.26284439628
2136 10391.45195145739
2137 10384.24428294061
2138 10375.1811761562
2139 10365.08628915311
2140 10354.31170064906
2141 10342.27331322838
2142 10329.16217258439
2143 10314.62233421842
2144 10299.00081371429
2145 10282.29214269456
2146 10263.24976456321
2147 10243.49489490906
2148 10222.53414538336
2149 10200.39347618892
2150 10176.5776205485
2151 10152.18826352061
2152 10127.78787853441
2153 10100.92839726726
2154 10072.50632092518
2155 10043.51063996465
2156 10013.06585790927
2157 9981.402002267998
2158 9948.953474886353
2159 9915.854777914989
2160 9882.593627334421
2161 9848.668620330074
2162 9802.435430055673
2163 9768.375739345609
2164 9733.53424979372
2165 9698.791231581265
2166 9653.077079382356
2167 9619.634981804933
2168 9574.103223645918
2169 9541.366509631871
2170 9508.6335272874
2171 9466.089275046439
2172 9435.405252565988
2173 9394.77245085808
2174 9365.795116933747
2175 9328.174343618777
2176 9300.64361876152
2177 9264.282161355928
2178 9238.171978341925
2179 9212.75799507294
2180 9187.683597925061
2181 9153.833135470928
2182 9129.93375270302
2183 9106.374452706406
2184 9083.75309661883
2185 9061.13011190597
2186 9039.227494991488
2187 9018.430258512535
2188 8997.911387432458
2189 8978.392771944735
2190 8958.802696227467
2191 8941.514723964825
2192 8924.217717133944
2193 8908.214807639786
2194 8893.092103466148
2195 8879.824680091446
2196 8867.801541295859
2197 8859.966691209289
2198 8849.514958898557
2199 8843.068889475475
2200 8833.477356187661
2201 8827.631689609814
2202 8820.337665935298
2203 8816.044392326259
2204 8809.723354555044
2205 8806.004345626883
2206 8801.218377717887
2207 8798.284385459052
2208 8794.592599206308
2209 8792.593293187065
2210 8790.011556068363
2211 8788.827759615346
2212 8787.608356191902
2213 8787.316087351619
2214 8786.788860006091
2215 8787.100243865418
2216 8788.070546565807
2217 8789.18079677787
2218 8791.034133981319
2219 8791.53253525802
2220 8793.381189198963
2221 8794.605152118671
2222 8795.878417168555
2223 8796.688720358514
2224 8797.830000879678
2225 8798.170696272071
2226 8798.129926094047
2227 8797.926480435684
2228 8797.969585324316
2229 8796.882551734983
2230 8795.547280754996
2231 8793.958654335187
2232 8792.110382310599
2233 8790.681294543372
2234 8788.564874828377
2235 8786.727582885149
2236 8784.01814271556
2237 8782.743969291439
2238 8780.670921918681
2239 8778.766892548534
2240 8776.418581963791
2241 8775.104360134188
2242 8774.097852775601
2243 8772.062086695187
2244 8771.717546323966
2245 8770.617937430477
2246 8770.245358945447
2247 8770.383740212546
2248 8770.946594657386
2249 8771.659572795174
2250 8772.320717618206
2251 8773.735461968989
2252 8775.084130128535
2253 8777.584697303257
2254 8779.544258129517
2255 8782.528240221929
2256 8784.700587920175
2257 8787.872079302086
2258 8790.068060678672
2259 8793.510786458624
2260 8795.731834542778
2261 8797.870530747272
2262 8801.408912438985
2263 8803.840658496123
2264 8806.066353995237
2265 8809.645807252835
2266 8811.827950374794
2267 8815.481675091492
2268 8817.603617105224
2269 8820.213918127549
2270 8822.075845966925
2271 8824.388240807517
2272 8825.752428964724
2273 8827.853572474985
2274 8828.936261441981
2275 8830.309688663177
2276 8830.796414006008
2277 8831.30886585203
2278 8831.206410348412
2279 8830.780545491101
2280 8830.058311029767
2281 8828.535666832588
2282 8827.264635667432
2283 8825.109132575326
2284 8823.3069864315
2285 8820.612612299519
2286 8817.941559735365
2287 8813.665400041134
2288 8810.673333603789
2289 8805.804656310907
2290 8802.002425767098
2291 8796.12295772469
2292 8791.777661203687
2293 8784.86245963542
2294 8778.095366564257
2295 8773.243219503513
2296 8765.440964979272
2297 8757.55391228412
2298 8752.078861172273
2299 8743.303432612731
2300 8734.797836037362
2301 8728.661132160789
2302 8719.554924893417
2303 8710.620893942545
2304 8701.355872396349
2305 8692.181834549545
2306 8683.005309751516
2307 8674.123822821972
2308 8665.233400423072
2309 8659.28633061196
2310 8650.269267534346
2311 8640.844401252694
2312 8631.797711888281
2313 8622.618140410312
2314 8613.667380465145
2315 8607.789648130498
2316 8599.18668061581
2317 8590.370419153154
2318 8581.615525134095
2319 8575.514761532939
2320 8566.612135496043
2321 8557.933846396618
2322 8552.106318065837
2323 8543.286280962133
2324 8534.431972034923
2325 8528.556028844929
2326 8520.498057502817
2327 8512.173257546767
2328 8504.605011516633
2329 8499.655179574276
2330 8492.57531649456
2331 8485.985461282939
2332 8481.960841206339
2333 8476.299665749626
2334 8471.181047458766
2335 8468.081036138294
2336 8464.007507987162
2337 8460.661328846218
2338 8458.588573383338
2339 8456.243488345799
2340 8455.071651774886
2341 8453.728645771433
2342 8453.190888706999
2343 8452.97147334916
2344 8453.229554339867
2345 8454.380202307217
2346 8455.363252650804
2347 8457.672441081902
2348 8459.44660283116
2349 8462.573915655974
2350 8465.319557315941
2351 8469.629478523446
2352 8472.775182994144
2353 8478.108269604578
2354 8482.063464071542
2355 8488.385700429713
2356 8492.87066736942
2357 8499.58304904032
2358 8504.295737885295
2359 8511.725970364543
2360 8516.897574218399
2361 8524.773824209915
2362 8530.457677167455
2363 8538.886890404448
2364 8544.608596865086
2365 8553.103447118465
2366 8558.811022252625
2367 8566.97735292411
2368 8572.481506717977
2369 8580.595103204287
2370 8586.044767777426
2371 8594.11377375781
2372 8599.133920838494
2373 8606.708498339849
2374 8611.796953701023
2375 8619.17505493854
2376 8623.928884986686
2377 8631.288003816106
2378 8635.909567061864
2379 8642.944500026064
2380 8647.156383694342
2381 8651.476810250226
2382 8657.700117051705
2383 8661.798755920228
2384 8665.928618863481
2385 8672.664130387322
2386 8676.766446462248
2387 8680.904342167983
2388 8686.909457895748
2389 8690.793662181039
2390 8694.431934544422
2391 8698.160764575176
2392 8703.464331305209
2393 8706.921955500109
2394 8710.283247124027
2395 8713.605224928378
2396 8718.356583407824
2397 8721.15726247776
2398 8723.623704814769
2399 8726.230482568284
2400 8729.350055803567
2401 8731.198626522524
2402 8732.726154879912
2403 8734.149900410399
2404 8735.736941053923
2405 8736.42574230538
2406 8736.927042480791
2407 8736.89760348955
2408 8736.537862821706
2409 8736.007053165007
2410 8735.310938523096
2411 8734.355937071214
2412 8732.349426121968
2413 8730.884201036826
2414 8728.986921141375
2415 8726.859788644642
2416 8723.093259862315
2417 8720.498211615111
2418 8717.629661790099
2419 8714.390762844072
2420 8709.722487610306
2421 8706.43999760469
2422 8702.918980470227
2423 8697.458377364421
2424 8693.702795092797
2425 8688.257689541857
2426 8684.68075004917
2427 8679.430043915349
2428 8676.028287128376
2429 8671.394242847426
2430 8668.531172133053
2431 8664.158361895954
2432 8660.251571514136
2433 8656.972116246434
2434 8653.886970025815
2435 8651.382126938246
2436 8649.254844706567
2437 8647.697790151624
2438 8646.655923022494
2439 8645.772482833263
2440 8645.540425201052
2441 8645.552785353679
2442 8645.829172382695
2443 8646.144757497905
2444 8647.31734262212
2445 8648.326851839733
2446 8649.481576996006
2447 8650.44057883391
2448 8651.550052885785
2449 8652.5970249441
2450 8653.271835989271
2451 8654.387268698323
2452 8654.900940372994
2453 8655.391680481882
2454 8655.524632931227
2455 8655.73119152511
2456 8655.647729122698
2457 8654.947227223478
2458 8654.417512622496
2459 8653.298807534686
2460 8652.17098271002
2461 8650.270412991607
2462 8648.745712917076
2463 8645.822160015772
2464 8643.726665079294
2465 8639.886316011676
2466 8636.940068304597
2467 8632.22962297973
2468 8628.690696417625
2469 8622.657833502661
2470 8618.427887241814
2471 8611.602566483614
2472 8606.747916667817
2473 8599.058098396052
2474 8593.532491118167
2475 8584.992097045513
2476 8578.941111939335
2477 8569.561768764761
2478 8563.169169971694
2479 8552.967893397159
2480 8542.867430002225
2481 8532.912905045867
2482 8523.017287371391
2483 8513.02708254899
2484 8503.001143420282
2485 8493.263794604851
2486 8483.649196506673
2487 8474.230345140048
2488 8465.255304603206
2489 8456.609658587839
2490 8448.040440388491
2491 8439.620863223057
2492 8431.69806083762
2493 8423.877114424615
2494 8416.470174747872
2495 8409.331040992798
2496 8402.725056753723
2497 8396.409602964342
2498 8390.573852287183
2499 8385.022778685445
2500 8379.970390404605
2501 8375.291267266863
2502 8371.073815426704
2503 8367.447361694469
2504 8364.08652549237
2505 8361.428815266312
2506 8359.386524217267
2507 8357.710556088532
2508 8356.760001408495
2509 8356.151470755583
2510 8356.276399292419
2511 8356.529532520319
2512 8357.684423587609
2513 8358.717822223181
2514 8360.599510334174
2515 8362.505048584746
2516 8365.407977312128
2517 8367.656211428723
2518 8371.719414024279
2519 8374.537028850425
2520 8379.102317848708
2521 8382.591188373688
2522 8388.124043674856
2523 8393.945642977915
2524 8399.908542889596
2525 8406.512948057651
2526 8412.923729555147
2527 8419.550943432199
2528 8426.35949833726
2529 8432.875644899123
2530 8439.276583062036
2531 8445.729743260634
2532 8452.121306149997
2533 8458.238542314064
2534 8463.971446726051
2535 8469.49751806791
2536 8474.799616069038
2537 8479.721220506666
2538 8484.216193955106
2539 8488.198959468897
2540 8491.683973925956
2541 8494.758548292479
2542 8497.395571568417
2543 8499.372662337131
2544 8500.71428800526
2545 8501.672850490988
2546 8501.765146468821
2547 8501.166448554621
2548 8499.996769145564
2549 8498.3880215479
2550 8496.086248479669
2551 8493.118547937511
2552 8489.700417512358
2553 8486.896612152099
2554 8482.442382381341
2555 8478.893302770919
2556 8472.845630032019
2557 8468.750190761246
2558 8461.808577554242
2559 8454.723883523855
2560 8449.918002531727
2561 8442.217841809712
2562 8434.404733444475
2563 8426.199594190404
2564 8418.288604294359
2565 8410.273480973097
2566 8402.35182536287
2567 8394.324071700699
2568 8386.242548430871
2569 8378.564961579907
2570 8371.114599769007
2571 8363.80471506116
2572 8356.805586452978
2573 8350.129098841682
2574 8343.978657762253
2575 8338.206476970201
2576 8332.766208763605
2577 8327.713028990491
2578 8322.953274508076
2579 8318.462927081964
2580 8314.48869699943
2581 8311.056146018791
2582 8308.067030487033
2583 8305.514784181776
2584 8303.546341998224
2585 8301.875274904167
2586 8300.899521625242
2587 8300.206609950188
2588 8300.059091510891
2589 8300.35829494131
2590 8300.827145142657
2591 8301.986292221589
2592 8303.034132342735
2593 8304.72542788894
2594 8306.236254514113
2595 8308.675757500347
2596 8310.581415066419
2597 8313.513518550482
2598 8315.651908239824
2599 8318.933589964097
2600 8321.291331221339
2601 8324.877705184523
2602 8327.377001515122
2603 8331.356892314025
2604 8335.181396973005
2605 8339.172163630645
2606 8342.846830397291
2607 8346.405956531224
2608 8349.88714212776
2609 8352.984639940438
2610 8355.970730809544
2611 8358.638944173641
2612 8361.051744032979
2613 8363.322212976023
2614 8365.316570930256
2615 8366.754730850003
2616 8368.168853237568
2617 8369.206835906514
2618 8370.008503885441
2619 8370.319577227425
2620 8370.586593472166
2621 8370.302308975437
2622 8369.74061730961
2623 8368.963884616462
2624 8367.981945178741
2625 8367.018455167854
2626 8365.38222629916
2627 8363.72410514072
2628 8362.483542519511
2629 8360.396237477366
2630 8358.947356056458
2631 8356.461982498786
2632 8354.919122854473
2633 8352.373868532832
2634 8350.51492848254
2635 8347.454960573003
2636 8345.429210716542
2637 8342.063871692846
2638 8339.875670261927
2639 8336.400310629577
2640 8332.982287272578
2641 8329.679640032002
2642 8326.391964117664
2643 8323.229719118741
2644 8320.118617887976
2645 8317.174931637408
2646 8314.466783642159
2647 8311.944333390313
2648 8309.657450745834
2649 8307.515072671213
2650 8305.655971215016
2651 8303.932735001796
2652 8302.464356233662
2653 8301.114315949415
2654 8300.157768624013
2655 8299.236339736879
2656 8298.277759135877
2657 8297.547755568949
2658 8296.980868156399
2659 8296.606982261006
2660 8296.167493795559
2661 8295.597616759494
2662 8295.46583616544
2663 8294.991261902091
2664 8294.537537265216
2665 8294.112493778435
2666 8293.351408205444
2667 8292.56310230304
2668 8291.888401677528
2669 8290.761961513643
2670 8289.380751090854
2671 8287.811124149401
2672 8286.021354920891
2673 8284.374202245994
2674 8282.56322841966
2675 8280.435519336013
2676 8278.213573121511
2677 8275.983549117203
2678 8273.709187480257
2679 8271.248881488238
2680 8268.629086735022
2681 8265.766424773161
2682 8262.948957921473
2683 8259.968291177942
2684 8256.972356059652
2685 8253.791546637685
2686 8250.87225171972
2687 8247.774683307622
2688 8244.590164600386
2689 8241.336292660853
2690 8238.326267223843
2691 8235.428556671504
2692 8232.395718079249
2693 8229.490617055613
2694 8226.858402277841
2695 8224.215268520356
2696 8222.167821877265
2697 8220.261228651907
2698 8218.631695721257
2699 8217.284278647676
2700 8216.256494521378
2701 8215.178916596149
2702 8214.449082656272
2703 8214.294984453425
2704 8214.345244167072
2705 8214.343177584113
2706 8214.62538997133
2707 8215.225172633778
2708 8215.966796305462
2709 8216.489019053726
2710 8217.395561150126
2711 8218.276022607763
2712 8218.842945377943
2713 8219.569576413325
2714 8220.365688618105
2715 8220.976874435419
2716 8221.639347854221
2717 8222.014922446733
2718 8222.127122664937
2719 8221.919255791798
2720 8221.584941174398
2721 8220.790502312104
2722 8219.704420434979
2723 8218.10493173203
2724 8216.511778248603
2725 8214.47887571287
2726 8212.154434104405
2727 8209.192186446866
2728 8206.19504354657
2729 8202.535008813784
2730 8198.979718409655
2731 8195.227129710542
2732 8190.864882718939
2733 8186.737518664278
2734 8182.395972282432
2735 8177.842539598668
2736 8173.589692923712
2737 8169.234315541016
2738 8164.99835344919
2739 8160.750682319079
2740 8156.655256908153
2741 8152.909757717089
2742 8149.416667552615
2743 8146.205203764147
2744 8143.185635553453
2745 8140.453429562542
2746 8138.168438579194
2747 8136.149148296367
2748 8134.502843987806
2749 8133.159209388074
2750 8132.259770054076
2751 8131.532433603417
2752 8131.241153179262
2753 8131.191655206761
2754 8131.578889161228
2755 8132.055824649844
2756 8132.944686604816
2757 8134.158553028267
2758 8135.530099589573
2759 8137.277874819149
2760 8139.092205854008
2761 8141.049641288398
2762 8143.113636727547
2763 8144.667472926964
2764 8147.01641453825
2765 8149.30194133548
2766 8151.656591978626
2767 8153.94688948193
2768 8156.131707342703
2769 8158.289694550191
2770 8160.382106812773
2771 8162.153114900986
2772 8163.29977746792
2773 8164.775323578113
2774 8165.923959781129
2775 8166.660779215714
2776 8166.979672222762
2777 8166.922855199248
2778 8166.744946552052
2779 8166.415440005188
2780 8165.603945664408
2781 8164.568445627053
2782 8163.544281805701
2783 8162.05073577323
2784 8160.157766079526
2785 8158.028034384222
2786 8155.909520758912
2787 8153.529638868627
2788 8151.440318779866
2789 8148.637193395643
2790 8145.916886531636
2791 8143.948876613593
2792 8141.089895829307
2793 8137.984422042623
2794 8135.130316810942
2795 8132.026932971232
2796 8128.984405019914
2797 8127.011180821651
2798 8124.089291193118
2799 8121.288359095536
2800 8118.71304976714
2801 8116.210286634872
2802 8114.730632981956
2803 8112.346060856021
2804 8110.38545798951
2805 8109.033100923558
2806 8107.352480587911
2807 8106.219361189865
2808 8104.7022068262
2809 8103.918957260693
2810 8102.756568672174
2811 8101.831025781368
2812 8101.446884254434
2813 8101.036568136006
2814 8100.945145220936
2815 8100.772830358026
2816 8100.979994892939
2817 8101.255510881188
2818 8101.70833492528
2819 8102.613197961288
2820 8103.352433166609
2821 8104.343827747596
2822 8105.457956654084
2823 8106.750913326122
2824 8107.919532133976
2825 8109.007851909289
2826 8110.147009140271
2827 8111.258283119033
2828 8112.262609709096
2829 8113.241993970168
2830 8114.053494539125
2831 8114.720155245149
2832 8115.30478994989
2833 8115.844229293072
2834 8116.225476271593
2835 8116.436339092985
2836 8116.477942640281
2837 8116.263769660221
2838 8115.860394443684
2839 8115.283962936658
2840 8114.647149104347
2841 8113.525521278254
2842 8112.096794995117
2843 8110.807066561315
2844 8109.158890396604
2845 8107.231251293596
2846 8105.332255360045
2847 8103.393327252463
2848 8101.295154827017
2849 8098.970654485545
2850 8096.635138227945
2851 8094.130264893201
2852 8091.664868489514
2853 8089.033748954101
2854 8086.690852353834
2855 8084.395086427641
2856 8082.174861407628
2857 8079.977040481028
2858 8078.060900098403
2859 8076.172752448015
2860 8074.373831503003
2861 8072.602582191219
2862 8070.893382605463
2863 8069.483158979184
2864 8068.322544925969
2865 8067.071955459017
2866 8066.317852461438
2867 8065.501811042781
2868 8064.972869375966
2869 8064.700993319126
2870 8064.372265924037
2871 8064.530645397064
2872 8064.511726661084
2873 8064.93131698482
2874 8065.554465420419
2875 8066.25439223135
2876 8067.196966679021
2877 8068.274680669399
2878 8069.381333496748
2879 8070.826229712169
2880 8072.208667681895
2881 8073.699924250262
2882 8075.324279852019
2883 8077.167905909679
2884 8079.183968294768
2885 8081.22746069132
2886 8083.196351606409
2887 8085.115884907614
2888 8087.311013280573
2889 8089.121193720466
2890 8091.181281691559
2891 8093.48708010561
2892 8095.692092298584
2893 8097.908545632386
2894 8099.904247851102
2895 8102.012536017418
2896 8103.800838690581
2897 8105.83388829306
2898 8107.869847441571
2899 8109.86041319915
2900 8111.569120295521
2901 8113.263876885747
2902 8114.699879440352
2903 8115.923817916246
2904 8117.100958892386
2905 8117.98369494769
2906 8118.550468562974
2907 8118.931261902369
2908 8119.131632270797
2909 8119.058926090757
2910 8118.714079893311
2911 8118.116625635065
2912 8117.162055313976
2913 8115.930527906366
2914 8115.008227616422
2915 8113.11331138297
2916 8111.849309146582
2917 8109.669284336313
2918 8107.941975955864
2919 8105.09136179048
2920 8103.039047365945
2921 8099.534525556084
2922 8097.032718055423
2923 8093.166408051813
2924 8090.320600803571
2925 8086.038752068792
2926 8082.858881687562
2927 8078.180706122364
2928 8075.06092265466
2929 8070.174497098517
2930 8066.85377378461
2931 8061.853841056645
2932 8056.998661441343
2933 8052.068341263978
2934 8047.425755845105
2935 8042.971513760225
2936 8038.913654929065
2937 8035.07907170339
2938 8031.620027287492
2939 8028.373703599977
2940 8025.458579246401
2941 8022.740832626735
2942 8020.258876076742
2943 8018.428651011328
2944 8016.651734844546
2945 8015.159160511887
2946 8014.131632900108
2947 8013.673231132891
2948 8013.109489380456
2949 8012.683993401607
2950 8012.587462680147
2951 8012.632525594873
2952 8012.786111620684
2953 8013.166971081016
2954 8013.594067956569
2955 8014.39175643377
2956 8014.947286303579
2957 8015.748895688015
2958 8016.369298490944
2959 8017.091325512383
2960 8018.125479024799
2961 8018.853134912239
2962 8019.738694669606
2963 8021.060006875224
2964 8022.003677364294
2965 8022.900329430727
2966 8024.28310959519
2967 8025.382284529035
2968 8026.961112151192
2969 8028.003923752888
2970 8029.530686467503
2971 8030.548990637186
2972 8032.320200888687
2973 8033.42560276922
2974 8035.078528333217
2975 8036.157600544678
2976 8037.890003849066
2977 8038.841894810555
2978 8040.145378474247
2979 8040.97545540866
2980 8042.03579483741
2981 8042.668137572356
2982 8043.438765421604
2983 8043.8609618107
2984 8044.311516921067
2985 8044.518802772065
2986 8044.750665510608
2987 8044.699591485013
2988 8044.573980725843
2989 8044.482431813235
2990 8044.313732424732
2991 8044.153069121036
2992 8043.847807048055
2993 8043.576779560328
2994 8043.300195385446
2995 8043.069631723882
2996 8042.709242946365
2997 8042.481299283667
2998 8041.838932877024
2999 8041.508311567787
3000 8041.001330116568
3001 8040.542272574859
3002 8039.897880023921
3003 8039.397379505635
3004 8038.462917107689
3005 8037.725129612702
3006 8036.595214235966
3007 8035.858534133407
3008 8034.420990466589
3009 8032.696396348089
3010 8031.644931611864
3011 8029.805526960147
3012 8028.519573968928
3013 8026.13031088272
3014 8024.044834108776
3015 8022.412633046287
3016 8020.080097650716
3017 8018.358071206361
3018 8016.014744869783
3019 8014.525205593785
3020 8012.229544679592
3021 8010.560593850886
3022 8008.290287227909
3023 8006.840647566282
3024 8004.683920714392
3025 8003.35418207499
3026 8001.606531471615
3027 8000.44326927621
3028 7999.242076703789
3029 7998.48767067684
3030 7997.624352132057
3031 7997.334425455243
3032 7997.185697094573
3033 7997.297297915723
3034 7997.613700520111
3035 7997.860241535328
3036 7998.676929678139
3037 7999.634219586714
3038 8000.48067942053
3039 8002.110544128136
3040 8003.566745239749
3041 8005.853826374176
3042 8007.51199512061
3043 8010.093591542555
3044 8011.916183204326
3045 8014.763271159458
3046 8016.869639873649
3047 8020.139119419516
3048 8022.362724390423
3049 8025.998554445377
3050 8028.263364442794
3051 8031.96913505312
3052 8034.401638041608
3053 8038.284096169937
3054 8040.584775993724
3055 8044.140124667581
3056 8046.397415813035
3057 8049.794358087464
3058 8052.995337399511
3059 8054.94162132862
3060 8057.713298403795
3061 8060.354538376239
3062 8062.658538883034
3063 8064.719922742455
3064 8066.454629310529
3065 8067.792703073264
3066 8068.88263877236
3067 8069.592969975531
3068 8069.996495520547
3069 8070.400714859304
3070 8070.420577793445
3071 8070.161387750994
3072 8069.698159503855
3073 8069.099855232925
3074 8068.466683891583
3075 8067.531201378071
3076 8066.290079371886
3077 8065.314689988779
3078 8063.700822499002
3079 8061.910586290519
3080 8060.649857219111
3081 8058.734980746601
3082 8057.313127783486
3083 8055.211807077747
3084 8053.836119821783
3085 8051.798947602832
3086 8049.856468736029
3087 8048.130200153254
3088 8046.418603781937
3089 8044.764098794317
3090 8043.289802685435
3091 8041.95448862297
3092 8040.697358738927
3093 8039.544470987778
3094 8038.560110850814
3095 8037.548870035042
3096 8036.94325120097
3097 8036.601182064115
3098 8036.374172671053
3099 8036.176336267847
3100 8035.952871119726
3101 8036.027464366371
3102 8036.300923272173
3103 8036.418856473427
3104 8036.713010470276
3105 8037.173575380639
3106 8037.816373727876
3107 8038.466509128412
3108 8039.0556501962
3109 8039.953334605533
3110 8040.817735743933
3111 8041.872011625589
3112 8042.961030242419
3113 8043.966655753637
3114 8045.0727804401
3115 8046.260903766866
3116 8047.201097425124
3117 8048.086108676031
3118 8049.216371751995
3119 8049.9407128994
3120 8050.694763897427
3121 8051.477166290481
3122 8052.109011992517
3123 8052.653785880441
3124 8052.757092414758
3125 8052.860571955376
3126 8052.931513703588
3127 8052.93674888432
3128 8052.889852232272
3129 8052.717843679421
3130 8052.636894962818
3131 8052.367951005576
3132 8052.346708875803
3133 8052.491242000613
3134 8052.337898107226
3135 8052.650536524214
3136 8052.996382732474
3137 8053.375633856577
3138 8053.552377747867
3139 8053.743305735448
3140 8053.890137421422
3141 8053.860691237221
3142 8054.219316765897
3143 8054.526923869489
3144 8054.645032897759
3145 8054.895525874147
3146 8055.443857550409
3147 8055.829467560428
3148 8056.352157643446
3149 8056.842809941506
3150 8057.140173418136
3151 8057.073534061892
3152 8057.288304167622
3153 8056.962062921868
3154 8056.788357647099
3155 8056.256861426811
3156 8055.769527078928
3157 8054.816170419413
3158 8053.851693352357
3159 8052.771012625628
3160 8051.77904009702
3161 8050.688490768354
3162 8049.424880351698
3163 8047.987689399331
3164 8046.303667946865
3165 8044.214315232198
3166 8042.297688666441
3167 8040.145241990952
3168 8038.281812176373
3169 8036.098389836344
3170 8033.614108817601
3171 8031.339151173026
3172 8028.672193189484
3173 8026.086182477816
3174 8023.655459985777
3175 8021.156641511849
3176 8018.687384161848
3177 8016.3503508519
3178 8013.965386854981
3179 8012.079276663653
3180 8010.193883830188
3181 8008.59056413298
3182 8007.308119418837
3183 8006.203215940536
3184 8005.43705497822
3185 8004.941611685503
3186 8004.546709254714
3187 8004.296441125429
3188 8004.393677837751
3189 8004.82146200504
3190 8005.386473913335
3191 8006.24859230954
3192 8006.983605250018
3193 8008.464592161989
3194 8010.211878787735
3195 8011.586952875738
3196 8013.731536496022
3197 8015.942445165802
3198 8017.843224163049
3199 8020.516902886342
3200 8022.371381618614
3201 8025.318658948965
3202 8028.165032506538
3203 8029.967207495321
3204 8032.341966637709
3205 8034.86132356109
3206 8036.383965792317
3207 8038.499844153626
3208 8040.404679371365
3209 8041.610485514971
3210 8043.18948801577
3211 8044.038856635126
3212 8044.966400746666
3213 8045.693158814779
3214 8045.875684941427
3215 8045.903060608949
3216 8045.639022954444
3217 8045.245977133088
3218 8044.819107946079
3219 8044.152358284769
3220 8043.188355656995
3221 8041.912768785238
3222 8040.91801988495
3223 8039.300608492689
3224 8037.449967127697
3225 8036.142559604741
3226 8034.144254913813
3227 8032.678844446497
3228 8030.258006437469
3229 8028.106949994401
3230 8026.641161776062
3231 8024.536876230854
3232 8022.649064885181
3233 8020.784138350469
3234 8019.248077972107
3235 8017.926295520054
3236 8016.838511094101
3237 8016.023440914943
3238 8015.465458392241
3239 8015.064049480482
3240 8014.882224067554
3241 8015.198978981825
3242 8015.808477832333
3243 8016.578228623438
3244 8017.807038470198
3245 8019.05474206177
3246 8020.441466105069
3247 8022.158077363031
3248 8024.010405133373
3249 8025.773494213667
3250 8027.622020857595
3251 8029.509147049877
3252 8031.534894337824
3253 8033.507186785654
3254 8035.369563659757
3255 8037.057829049573
3256 8038.61759745927
3257 8040.096996995279
3258 8041.421034619837
3259 8042.445065612395
3260 8043.252132465554
3261 8043.765823631274
3262 8044.216015068137
3263 8044.280671400706
3264 8044.245885247281
3265 8043.912566864858
3266 8043.488460639925
3267 8042.84036097511
3268 8042.038916666509
3269 8040.988773352675
3270 8039.784747687738
3271 8038.258395628443
3272 8036.557273008288
3273 8034.776670066577
3274 8033.132932486837
3275 8031.042379283004
3276 8029.04011000294
3277 8027.105321198063
3278 8025.221010776118
3279 8023.325818901162
3280 8021.501506922656
3281 8019.702406295215
3282 8017.981829625885
3283 8016.362284087344
3284 8015.014262810601
3285 8013.736545476577
3286 8012.666409753048
3287 8011.542365912203
3288 8010.545269352198
3289 8009.582007807639
3290 8008.971401688549
3291 8008.336648380889
3292 8007.814413485851
3293 8007.416087489146
3294 8007.377367011446
3295 8007.325476597549
3296 8007.506073001367
3297 8007.820034671833
3298 8008.046847749542
3299 8008.220682812661
3300 8008.497079004958
3301 8008.695564735034
3302 8008.884773866982
3303 8008.846211826729
3304 8008.936734525737
3305 8009.082100705062
3306 8009.11045901133
3307 8009.226767310259
3308 8009.403964695765
3309 8009.476618183689
3310 8009.467853598613
3311 8009.476840088091
3312 8009.538405127691
3313 8009.432586076132
3314 8009.159276234222
3315 8008.892423738987
3316 8008.689751457408
3317 8008.554749924118
3318 8008.436100579
3319 8008.536869109384
3320 8008.741719231381
3321 8009.158038063286
3322 8009.659285388475
3323 8010.241583187364
3324 8011.318758619502
3325 8012.16184319329
3326 8013.767682503599
3327 8014.779367325263
3328 8016.846749764049
3329 8019.03695741128
3330 8020.697794314726
3331 8023.577900256711
3332 8026.712361704828
3333 8030.068866161873
3334 8033.692710258013
3335 8037.277111258257
3336 8040.84709625551
3337 8044.539201291116
3338 8048.180455759208
3339 8051.810365969769
3340 8055.412569639978
3341 8058.879282505703
3342 8062.164612615255
3343 8065.245285737382
3344 8067.858013244067
3345 8070.308514260144
3346 8072.480278736045
3347 8074.188996505257
3348 8075.505015434623
3349 8076.273253678166
3350 8076.750912571955
3351 8076.682439752564
3352 8076.294462786658
3353 8075.342524216166
3354 8073.979175322452
3355 8072.234252119508
3356 8070.09369249032
3357 8067.402798956675
3358 8064.352151975261
3359 8060.829807532584
3360 8056.885842559331
3361 8052.853405268722
3362 8048.394906056132
3363 8043.725322202958
3364 8038.94803908616
3365 8033.812399465365
3366 8028.77452256671
3367 8023.517201804427
3368 8018.659161644571
3369 8013.811564193541
3370 8009.035886125819
3371 8004.377464485474
3372 8000.087510557167
3373 7996.090621385188
3374 7992.291603739838
3375 7988.85638463813
3376 7985.818849385319
3377 7983.156026823902
3378 7980.864410109238
3379 7978.995561052287
3380 7977.879457047687
3381 7976.991376311806
3382 7976.526646737524
3383 7976.708089974584
3384 7977.215109012587
3385 7978.264361568858
3386 7979.444245777872
3387 7981.246767553951
3388 7983.362030556765
3389 7985.831761210074
3390 7988.247088864906
3391 7990.97303713834
3392 7994.092411198883
3393 7997.388533152152
3394 8000.75500200326
3395 8004.267225077131
3396 8007.892526929733
3397 8011.423259344639
3398 8014.943215347316
3399 8018.460705680685
3400 8021.694956623361
3401 8025.00765228833
3402 8027.928028616367
3403 8030.673990131011
3404 8033.066530199046
3405 8035.329689685442
3406 8037.360482662547
3407 8038.860571651075
3408 8040.118337243166
3409 8041.001640688235
3410 8041.548723927169
3411 8041.602746883332
3412 8041.236326619297
3413 8040.428617125147
3414 8039.086702468085
3415 8037.290331736913
3416 8035.22954494435
3417 8032.735844484426
3418 8030.71945607513
3419 8027.137861320954
3420 8023.229056996048
3421 8020.327475512358
3422 8015.638352312272
3423 8012.299060463638
3424 8006.616793886738
3425 8000.757047248983
3426 7994.694072951997
3427 7988.318715994246
3428 7982.110645945968
3429 7975.730602758804
3430 7969.445127291138
3431 7963.053490061183
3432 7956.915056826393
3433 7950.909616960537
3434 7945.145471831622
3435 7939.581018310253
3436 7934.340581963377
3437 7929.138885228361
3438 7924.565238657427
3439 7920.235257586649
3440 7916.164163183123
3441 7912.28733583821
3442 7909.056061281903
3443 7906.19371269349
3444 7903.709601241136
3445 7901.683271905336
3446 7899.913772178861
3447 7898.577010378756
3448 7897.66611140478
3449 7897.374408381753
3450 7897.351752491528
3451 7897.742081300047
3452 7898.600259451915
3453 7899.68590994953
3454 7901.229318446627
3455 7902.473536229129
3456 7904.84754799978
3457 7906.589387430419
3458 7909.660889406224
3459 7911.928221006718
3460 7915.674198583253
3461 7918.42844553453
3462 7922.995839808975
3463 7926.089173011623
3464 7931.205003949378
3465 7936.530009706464
3466 7940.222077855436
3467 7945.945595976709
3468 7952.291807779319
3469 7958.395593509167
3470 7964.632248472504
3471 7970.785252101429
3472 7976.820106056004
3473 7982.856704513946
3474 7988.838589421996
3475 7994.782262526602
3476 8000.617578992207
3477 8006.358000556635
3478 8011.714592283352
3479 8016.792862436864
3480 8021.677871155148
3481 8025.929866361329
3482 8030.077675786338
3483 8033.74552359766
3484 8037.196603205712
3485 8040.403615358575
3486 8043.284419292141
3487 8045.559694643909
3488 8047.445227810907
3489 8048.8879034133
3490 8049.913081688865
3491 8050.588542284564
3492 8050.88695514558
3493 8050.706604256466
3494 8050.302289373081
3495 8049.337767452742
3496 8048.052677798225
3497 8046.482124953347
3498 8045.21871376307
3499 8042.764547143934
3500 8039.955221366863
3501 8038.010630187313
3502 8034.757871336618
3503 8031.312160620088
3504 8027.540019206713
3505 8023.604339974567
3506 8019.702395958548
3507 8015.411933455558
3508 8011.140447533861
3509 8007.027847592555
3510 8003.070062612131
3511 7999.09538962686
3512 7995.298252781054
3513 7991.706872292598
3514 7988.583403971116
3515 7985.465759096838
3516 7982.966587666099
3517 7980.735331171427
3518 7978.910456609969
3519 7977.561201235274
3520 7976.635822366486
3521 7976.045936667661
3522 7975.837213664831
3523 7976.044845711866
3524 7976.570835606124
3525 7977.686634710379
3526 7979.281251630497
3527 7981.036099235048
3528 7982.514611251935
3529 7985.025382919868
3530 7987.06122630932
3531 7990.171470941057
3532 7992.366677595616
3533 7995.987539629724
3534 7998.396212413948
3535 8002.295699018499
3536 8006.273223941233
3537 8008.971082838711
3538 8013.139070770937
3539 8017.129773660244
3540 8021.190556099035
3541 8024.990348066945
3542 8029.059248898698
3543 8032.774834329705
3544 8036.308117039228
3545 8039.899022377196
3546 8042.932007653501
3547 8045.850867302532
3548 8048.652399027819
3549 8051.028307301128
3550 8052.927684105257
3551 8054.623447814032
3552 8056.226117532619
3553 8057.505374080566
3554 8058.365717869795
3555 8058.832032325311
3556 8058.640162946516
3557 8058.070922266369
3558 8057.324632481128
3559 8056.282231761907
3560 8054.865450762897
3561 8053.109742130449
3562 8051.73488953692
3563 8049.328409724919
3564 8047.622483922072
3565 8044.301875970626
3566 8041.998149003736
3567 8037.897153566237
3568 8035.111143888846
3569 8030.506489873028
3570 8027.434203478882
3571 8022.366459487495
3572 8017.041606622874
3573 8011.584424337839
3574 8006.133195432007
3575 8000.395273175413
3576 7994.627937375505
3577 7988.796879283343
3578 7983.015473031796
3579 7977.505770149003
3580 7971.861721070168
3581 7966.373581252406
3582 7960.694344551311
3583 7955.38115061909
3584 7950.258990972006
3585 7945.220996655407
3586 7940.39751246188
3587 7935.890865090879
3588 7931.533710145947
3589 7927.443596928701
3590 7923.590299242918
3591 7920.044128259053
3592 7916.783897133687
3593 7913.949881749024
3594 7911.529816085225
3595 7909.409129184589
3596 7907.583273614937
3597 7906.083986371616
3598 7905.161090731487
3599 7904.486187024947
3600 7904.245143516069
3601 7904.430729180208
3602 7905.058464057294
3603 7905.95789402817
3604 7907.21437951187
3605 7908.743448357373
3606 7910.926882865483
3607 7912.685822266852
3608 7915.687724434374
3609 7918.894364324896
3610 7921.273815891167
3611 7925.273807581769
3612 7928.122266442351
3613 7932.857810019831
3614 7937.97505997597
3615 7943.325531792238
3616 7948.744275089412
3617 7954.216064141732
3618 7959.892049477151
3619 7965.739394432456
3620 7971.536435400433
3621 7977.243979120846
3622 7982.91357096546
3623 7988.402487177834
3624 7993.719504481769
3625 7998.903045745806
3626 8003.920374579172
3627 8008.904739106878
3628 8013.485822479351
3629 8017.859388524203
3630 8021.761913537229
3631 8025.352671710135
3632 8028.562045973489
3633 8031.323859743987
3634 8033.846011906663
3635 8035.795070576162
3636 8037.328399917513
3637 8038.395365785886
3638 8038.961578861407
3639 8038.966952664922
3640 8038.70570239719
3641 8037.975454852197
3642 8036.943434264489
3643 8035.531137933688
3644 8033.561248661978
3645 8031.325280248963
3646 8029.49991414811
3647 8026.294750877599
3648 8023.998002770831
3649 8020.077937116782
3650 8016.151233126801
3651 8013.132023546236
3652 8008.60284282391
3653 8004.145791613015
3654 7999.45654999601
3655 7994.706185123126
3656 7990.014563435967
3657 7985.385680793076
3658 7980.734215985708
3659 7976.184891067287
3660 7971.605978472735
3661 7967.108894585024
3662 7962.911028055285
3663 7958.780251170542
3664 7954.782474343419
3665 7950.952642619681
3666 7947.341840477196
3667 7943.980563655855
3668 7940.894577888229
3669 7938.077267044787
3670 7935.510256179388
3671 7933.213635749344
3672 7931.223770141716
3673 7929.514883854717
3674 7928.046195522888
3675 7926.984401567195
3676 7925.954240054762
3677 7925.380497520398
3678 7925.013589716486
3679 7924.85284660815
3680 7924.989105081881
3681 7925.442173811877
3682 7926.182653644411
3683 7926.87771241401
3684 7928.201641269055
3685 7929.288766840324
3686 7931.055016909347
3687 7932.397023137597
3688 7934.868328053454
3689 7936.639055572162
3690 7939.501374859197
3691 7941.57072157734
3692 7944.554558067578
3693 7946.871366382466
3694 7950.477343483693
3695 7952.973711239923
3696 7956.825583633664
3697 7960.644147333383
3698 7963.383801011819
3699 7967.422025011527
3700 7971.618450067428
3701 7974.651717112887
3702 7979.020605290391
3703 7983.340755063336
3704 7986.31419750581
3705 7990.758167016294
3706 7993.667970452903
3707 7997.981797499874
3708 8002.270621177334
3709 8005.015807447274
3710 8009.092117905188
3711 8011.618250631573
3712 8015.214949923323
3713 8017.636246198495
3714 8021.126887476245
3715 8024.418923757758
3716 8026.486803202558
3717 8029.438121277428
3718 8031.253897535782
3719 8033.431368754052
3720 8034.641912104266
3721 8036.208581103512
3722 8037.059433594656
3723 8037.901280455805
3724 8038.215518063508
3725 8038.310057211568
3726 8037.992165133162
3727 8037.371197094219
3728 8036.625558535456
3729 8034.822772809794
3730 8033.458136042789
3731 8031.811330291537
3732 8028.943827877399
3733 8026.803100687811
3734 8023.121507280672
3735 8020.482934963478
3736 8016.093945659448
3737 8012.992557455234
3738 8007.995003683495
3739 8004.491996863805
3740 7998.913242812949
3741 7995.097771090667
3742 7989.353944906465
3743 7985.375947695215
3744 7979.210412855949
3745 7975.142071903298
3746 7969.41060879934
3747 7963.680941190254
3748 7960.086832808941
3749 7954.795599712915
3750 7949.744674493307
3751 7945.282690810058
3752 7940.946435052084
3753 7937.000130012264
3754 7933.491782594158
3755 7930.585023693287
3756 7928.080191628071
3757 7926.069390559742
3758 7924.48190185228
3759 7923.579986736212
3760 7923.343763461554
3761 7923.538462396264
3762 7923.98238554203
3763 7924.844587852193
3764 7925.777609723969
3765 7927.554122148932
3766 7929.76576121888
3767 7931.637438160541
3768 7934.786512396598
3769 7937.094822321278
3770 7941.089306058117
3771 7944.001555019126
3772 7948.775124133107
3773 7952.193372342013
3774 7957.614051572839
3775 7961.210629407042
3776 7967.091342441904
3777 7973.136232850407
3778 7979.220431319412
3779 7985.198495250866
3780 7991.739669301122
3781 7998.104837236883
3782 8004.573929072846
3783 8010.95852373827
3784 8017.662866306722
3785 8023.762444690156
3786 8030.085140798918
3787 8036.489329686161
3788 8042.448273833836
3789 8048.115750507217
3790 8053.846892658016
3791 8059.118079741836
3792 8064.08095880129
3793 8068.466179018765
3794 8072.878540844898
3795 8076.789087370817
3796 8080.315011951703
3797 8083.542023187244
3798 8086.480457253693
3799 8088.849876361372
3800 8090.766616255238
3801 8092.335797411934
3802 8093.479786008422
3803 8094.022753679777
3804 8094.065338432799
3805 8093.693073563541
3806 8092.625434363629
3807 8091.34273377693
3808 8089.650172173007
3809 8087.430031138735
3810 8084.496194522412
3811 8082.107831931919
3812 8078.195540094502
3813 8074.042465512554
3814 8070.837293197445
3815 8065.432806057031
3816 8061.871093176839
3817 8055.922165192333
3818 8051.499163527305
3819 8044.680955373618
3820 8037.567058278837
3821 8032.738358309568
3822 8025.335359861075
3823 8017.704160220523
3824 8010.434687324062
3825 8003.062772875976
3826 7995.743113322898
3827 7988.144673708645
3828 7980.782829587192
3829 7973.718263923362
3830 7966.973696527184
3831 7960.372422707813
3832 7954.390634026825
3833 7948.573576481276
3834 7942.885729846256
3835 7938.022381736117
3836 7933.466904518655
3837 7929.546567030397
3838 7926.236905025256
3839 7923.779315798532
3840 7921.676312466243
3841 7920.20545863538
3842 7919.47841889685
3843 7919.511859638144
3844 7920.135566060546
3845 7921.428620022004
3846 7923.451411917776
3847 7925.939664769999
3848 7929.260929868983
3849 7933.259680184913
3850 7937.803759729278
3851 7942.292019718198
3852 7947.492154020527
3853 7951.328301716029
3854 7957.184302257135
3855 7963.579868803144
3856 7969.836946458449
3857 7976.623345730436
3858 7983.414033231144
3859 7990.311224833014
3860 7997.453062920276
3861 8004.723401316821
3862 8011.621611025282
3863 8018.097317543755
3864 8024.590390397822
3865 8030.84507571642
3866 8036.575548785918
3867 8042.027447532007
3868 8046.951400650706
3869 8051.308856383185
3870 8055.122951649138
3871 8058.379031885675
3872 8060.959865640178
3873 8062.589033729925
3874 8063.569162974614
3875 8063.695397212833
3876 8063.153329055633
3877 8061.88282979308
3878 8059.716274359019
3879 8056.615425379115
3880 8052.834289562553
3881 8048.308503431363
3882 8042.880563052928
3883 8036.397483554214
3884 8029.574469933776
3885 8022.026532255041
3886 8014.298912460864
3887 8006.017622337881
3888 7997.302530323642
3889 7988.33189179092
3890 7979.254962044834
3891 7969.961151950233
3892 7960.883972640829
3893 7951.836372274317
3894 7943.070070627728
3895 7934.398577381805
3896 7926.169064070459
3897 7918.324842979457
3898 7911.042443269182
3899 7904.223871712448
3900 7897.968905306452
3901 7892.131991660843
3902 7887.015937933236
3903 7882.567203584587
3904 7878.870717438855
3905 7875.681147308614
3906 7873.218246813421
3907 7871.176508735984
3908 7869.813987956459
3909 7868.804034186903
3910 7868.573066408102
3911 7868.838626072408
3912 7869.317871489973
3913 7870.307945517288
3914 7871.620956133964
3915 7873.397777317204
3916 7874.622915972793
3917 7876.828924848568
3918 7878.440042902394
3919 7880.986837790916
3920 7882.902709301206
3921 7885.755525177276
3922 7887.811457396981
3923 7890.96042219898
3924 7893.001681117181
3925 7896.173751911004
3926 7899.141084934291
3927 7902.156092137808
3928 7904.978875667141
3929 7907.771536732714
3930 7910.459579892924
3931 7913.006212922814
3932 7915.338966752227
3933 7917.457099418074
3934 7919.553312448298
3935 7921.281084800269
3936 7922.894024623774
3937 7924.234780322391
3938 7925.493481610931
3939 7926.417704494047
3940 7927.21270431631
3941 7927.82853542963
3942 7928.262364410656
3943 7928.414755012797
3944 7928.567137362643
3945 7928.505769538508
3946 7928.430394135944
3947 7928.226710675131
3948 7927.988364513181
3949 7927.614544981707
3950 7927.398994335383
3951 7926.967175839827
3952 7926.66340282897
3953 7926.242325531734
3954 7925.920359193508
3955 7925.588174048454
3956 7925.281935842879
3957 7924.848907845619
3958 7924.705899066436
3959 7924.248538405335
3960 7924.112483265502
3961 7923.868981073609
3962 7923.79261978367
3963 7923.610684525919
3964 7923.435231745427
3965 7923.26753715704
3966 7923.229248553391
3967 7923.185444605705
3968 7923.340230765025
3969 7923.53175570593
3970 7923.586776511892
3971 7923.792787629807
3972 7924.110017702869
3973 7924.407987860865
3974 7925.112936590065
3975 7925.529975315956
3976 7925.846988116215
3977 7926.450437378114
3978 7926.939452755642
3979 7927.432515063759
3980 7927.846196605458
3981 7928.273612034101
3982 7928.536382170736
3983 7928.928070815451
3984 7929.128254584976
3985 7929.191012612305
3986 7929.358169038665
3987 7929.395205289633
3988 7929.434560022804
3989 7929.405322238638
3990 7929.134443445367
3991 7928.553149282277
3992 7928.122468431566
3993 7927.533563763046
3994 7926.872031318812
3995 7925.879704152317
3996 7925.129414323555
3997 7923.608106907569
3998 7922.62045012414
3999 7920.836236330531
4000 7919.5788311724
4001 7917.818803634736
4002 7916.703378923019
4003 7914.857494049895
4004 7913.292925921104
4005 7912.194892157692
4006 7910.810852331775
4007 7909.503075035825
4008 7908.869371573617
4009 7907.952137958459
4010 7907.408936282725
4011 7907.061846200952
4012 7907.07894143927
4013 7907.365732496981
4014 7908.140752103157
4015 7909.222062024627
4016 7910.755800098129
4017 7912.697403610046
4018 7915.02874644351
4019 7917.770101249782
4020 7920.832969920131
4021 7924.432374696555
4022 7928.501638651746
4023 7932.680627162594
4024 7937.469963458871
4025 7942.391404502353
4026 7947.630291085667
4027 7953.025686870184
4028 7958.946873097983
4029 7962.849819674272
4030 7968.895904373231
4031 7974.750823974701
4032 7980.827708066478
4033 7987.104716878154
4034 7993.126436690379
4035 7998.909965230315
4036 8004.492777189654
4037 8009.751053669046
4038 8014.891669887979
4039 8019.736193897326
4040 8023.962178517015
4041 8027.861689417316
4042 8031.533701261411
4043 8034.653391630092
4044 8037.189595374445
4045 8039.12548653973
4046 8040.553058355276
4047 8041.391739666776
4048 8041.700132748492
4049 8041.563787702195
4050 8040.772747198446
4051 8039.452102921541
4052 8038.178338275849
4053 8035.557059071797
4054 8033.506374155462
4055 8029.750319282841
4056 8026.850001737939
4057 8021.801532159751
4058 8018.213838905822
4059 8012.496291579718
4060 8008.286559429801
4061 8001.743308057312
4062 7995.019862346639
4063 7990.456299277349
4064 7983.18941266721
4065 7975.831032809248
4066 7968.535791742698
4067 7961.349953551614
4068 7954.361828620577
4069 7947.882937731377
4070 7941.751408018683
4071 7936.199266688848
4072 7930.679218373348
4073 7925.689094631292
4074 7920.9918019529
4075 7916.92112861583
4076 7913.084008059871
4077 7909.864825184513
4078 7907.119850665457
4079 7904.578422587359
4080 7902.643316342334
4081 7901.025108575644
4082 7900.097388861974
4083 7899.486160584072
4084 7899.351056679661
4085 7899.571155942384
4086 7900.444783083173
4087 7901.585339164814
4088 7903.146756111277
4089 7905.012597106441
4090 7906.651419057175
4091 7909.439375482816
4092 7911.578978765417
4093 7915.293765820905
4094 7917.977689287738
4095 7922.451761924071
4096 7925.498867881338
4097 7930.590206918248
4098 7933.978029688111
4099 7939.393021824723
4100 7944.975108786383
4101 7950.58834567769
4102 7956.222734494199
4103 7962.022795171262
4104 7967.887162006657
4105 7973.657162104843
4106 7979.21953294765
4107 7984.212792670141
4108 7989.165482180262
4109 7993.639099549114
4110 7998.036250181691
4111 8001.983831495352
4112 8005.506857715922
4113 8008.79323284471
4114 8011.516652568818
4115 8013.917914923924
4116 8015.684850468202
4117 8016.994809360528
4118 8017.789722807049
4119 8018.081493529318
4120 8017.974756521772
4121 8017.365939776651
4122 8016.211193285346
4123 8014.691766500522
4124 8012.930932145333
4125 8010.632525105987
4126 8007.911392780911
4127 8004.747250212392
4128 8002.39298743667
4129 7998.500508181729
4130 7995.716095863028
4131 7991.297720265666
4132 7988.108949664404
4133 7983.072029619972
4134 7977.938400648713
4135 7974.327046450162
4136 7968.864054226813
4137 7963.215896231445
4138 7957.662360100544
4139 7952.098327974944
4140 7946.634892208769
4141 7941.125998197941
4142 7936.074148629958
4143 7931.427274560507
4144 7926.853328022828
4145 7922.635227295252
4146 7918.656576883943
4147 7914.939796279501
4148 7911.533364805926
4149 7908.372917365119
4150 7905.409128381145
4151 7903.11819725723
4152 7901.04388227682
4153 7899.400057527027
4154 7898.036864447109
4155 7897.176398107115
4156 7896.637239226658
4157 7896.553405763028
4158 7896.971078916076
4159 7897.824200831905
4160 7898.903286884034
4161 7900.387141923558
4162 7902.230472745911
4163 7904.601300681325
4164 7906.205690915696
4165 7909.063810471208
4166 7911.228318684136
4167 7914.711672585512
4168 7918.731505391684
4169 7921.469294646811
4170 7925.744226697882
4171 7930.024328272004
4172 7934.6198084823
4173 7939.183097895687
4174 7944.053332628254
4175 7948.4286360887
4176 7953.01456655785
4177 7957.511916609235
4178 7961.669523664797
4179 7965.692556804884
4180 7969.329095350162
4181 7972.79333446842
4182 7976.114918552215
4183 7978.950174683176
4184 7981.359588302722
4185 7983.717953771823
4186 7985.672609804225
4187 7987.350305495992
4188 7988.614961066356
4189 7989.545638241174
4190 7990.136488451319
4191 7990.125487483546
4192 7989.669264496773
4193 7988.899242984922
4194 7987.636137600636
4195 7986.060978259204
4196 7984.332595410528
4197 7981.94918666512
4198 7980.275404241242
4199 7977.345089077928
4200 7975.29034390361
4201 7971.638254132065
4202 7969.002952712027
4203 7964.800296247297
4204 7960.704200020961
4205 7956.348533350768
4206 7951.850623979211
4207 7947.181447005315
4208 7942.651452844498
4209 7938.088657815794
4210 7933.394876633762
4211 7928.63694934657
4212 7924.096972387227
4213 7919.66806024269
4214 7915.189603526592
4215 7911.011101759931
4216 7907.20507208923
4217 7903.60861607333
4218 7900.31039756485
4219 7897.486970129646
4220 7895.059954508708
4221 7892.949708809663
4222 7891.060417615631
4223 7889.801976846166
4224 7888.879647978451
4225 7888.311933350627
4226 7888.176151458332
4227 7888.531049444851
4228 7888.975769238647
4229 7889.845474877266
4230 7891.217476123355
4231 7892.759471127012
4232 7894.660185675154
4233 7896.24984553264
4234 7898.88005127886
4235 7900.765616458048
4236 7903.866368480366
4237 7906.094278973641
4238 7909.584676185157
4239 7913.413087511332
4240 7916.112606400582
4241 7920.064311339678
4242 7923.908302388543
4243 7927.764639507278
4244 7931.66993753612
4245 7935.502697475886
4246 7939.251819277011
4247 7942.688398893474
4248 7946.000191351342
4249 7949.157411525734
4250 7952.099014404088
4251 7954.735531660534
4252 7957.210458374934
4253 7959.265555968973
4254 7961.04065851921
4255 7962.514469840945
4256 7963.719909875401
4257 7964.483335808382
4258 7965.018533831383
4259 7965.352589315225
4260 7965.200785343548
4261 7964.66130175459
4262 7964.106683256542
4263 7963.318635896663
4264 7962.547170797514
4265 7961.224657027087
4266 7960.310800621932
4267 7958.583406835843
4268 7957.266551859755
4269 7955.320266327009
4270 7954.005515722237
4271 7952.064443472565
4272 7950.822612955808
4273 7948.775748951688
4274 7946.922864379998
4275 7945.116102097315
4276 7943.521346912974
4277 7941.995904676933
4278 7940.713795354442
4279 7939.717986955381
4280 7938.961123174377
4281 7938.255258706078
4282 7937.671601575146
4283 7937.577217784428
4284 7937.624720863606
4285 7938.047017959839
4286 7938.560207400151
4287 7939.433774703005
4288 7940.328661068539
4289 7941.684209674979
4290 7942.974180911546
4291 7944.37475085894
4292 7945.80977227038
4293 7947.265478766139
4294 7948.914788653995
4295 7950.227005581365
4296 7951.611276123619
4297 7952.808860368595
4298 7953.963304509205
4299 7954.808540543714
4300 7955.535362591266
4301 7956.100561358383
4302 7956.251251795958
4303 7955.979625734491
4304 7955.450638753903
4305 7954.515145828973
4306 7953.384061944485
4307 7952.019505819366
4308 7950.376133308816
4309 7947.734232075154
4310 7945.095482530344
4311 7942.121993202894
4312 7938.982467379636
4313 7935.491262599728
4314 7932.122514183641
4315 7928.348864651718
4316 7923.977183924947
4317 7920.102268599184
4318 7916.250939853133
4319 7912.719219311878
4320 7909.254019596669
4321 7905.938488765486
4322 7902.822725456407
4323 7900.288457349488
4324 7897.919346292717
4325 7895.978466666151
4326 7894.584754757971
4327 7893.831428403188
4328 7893.711940486919
4329 7894.251948128727
4330 7895.112225662032
4331 7896.727716403998
4332 7898.681607386948
4333 7901.316442165739
4334 7904.552881940385
4335 7908.071092982628
4336 7912.180458040414
4337 7916.728004023224
4338 7921.821620780029
4339 7927.303484884712
4340 7933.177464281769
4341 7939.004348456636
4342 7944.965845671654
4343 7951.144077217305
4344 7957.684869894982
4345 7964.126589940105
4346 7970.495821793448
4347 7976.809120671111
4348 7982.628544549942
4349 7988.153935556013
4350 7993.155435482283
4351 7997.925265673093
4352 8002.471590858321
4353 8006.41572766754
4354 8009.688830383145
4355 8012.639281653071
4356 8014.833522780486
4357 8016.448616896084
4358 8017.353270031172
4359 8017.574893459862
4360 8017.33767818426
4361 8016.317674104886
4362 8014.821995608264
4363 8012.643122494072
4364 8009.77988482148
4365 8006.400110416133
4366 8002.172954608252
4367 7997.596995449753
4368 7992.326480898943
4369 7986.472832126468
4370 7979.889742732206
4371 7973.359026934218
4372 7966.273920118058
4373 7958.862906067238
4374 7951.511546343881
4375 7943.867080449874
4376 7936.352382522848
4377 7928.571398903025
4378 7921.156851110419
4379 7914.137839363833
4380 7907.471864349124
4381 7901.048874975584
4382 7894.817457596757
4383 7889.384721763715
4384 7884.743236666041
4385 7880.218433743794
4386 7876.670637722284
4387 7873.486477867053
4388 7871.213363361268
4389 7869.572300147832
4390 7868.833296327618
4391 7868.59960377273
4392 7869.288005487295
4393 7870.485371702048
4394 7872.61625487584
4395 7875.189616469303
4396 7878.486726003403
4397 7882.771543467533
4398 7887.317168794368
4399 7892.575077913251
4400 7898.01180448614
4401 7904.087531290216
4402 7910.842135553376
4403 7918.027389658009
4404 7925.444328779816
4405 7933.279309951613
4406 7941.135689006458
4407 7948.977646420286
4408 7956.758789443243
4409 7964.649863619291
4410 7972.50111107806
4411 7980.05127142
4412 7987.025324922928
4413 7993.875921374373
4414 8000.323177715827
4415 8006.142714455601
4416 8011.714806878636
4417 8016.720892414317
4418 8020.985552808836
4419 8024.596433812172
4420 8027.305897983951
4421 8029.49431707406
4422 8031.013094033329
4423 8031.782499760355
4424 8031.776283991519
4425 8031.026580199522
4426 8029.638680784583
4427 8027.515616106203
4428 8024.444806797221
4429 8020.83272752677
4430 8016.646530493434
4431 8011.847595842342
4432 8006.591197537265
4433 8000.968509309971
4434 7994.760471600121
4435 7988.262748534768
4436 7981.832173850918
4437 7977.226115250503
4438 7969.853639457128
4439 7962.718921337088
4440 7955.625706993776
4441 7949.01849953586
4442 7942.167641605797
4443 7935.740136048933
4444 7929.448392918372
4445 7923.702779488699
4446 7918.444483708578
4447 7913.875370222684
4448 7909.65529281241
4449 7906.08647091833
4450 7903.16720348377
4451 7900.849171321444
4452 7899.004665315299
4453 7897.814406220653
4454 7897.101824152644
4455 7896.891937809557
4456 7897.334708591955
4457 7898.05479754666
4458 7899.441734891468
4459 7901.18495126393
4460 7903.237863073532
4461 7905.599399969807
4462 7908.125145704116
4463 7910.934435156647
4464 7912.961696386457
4465 7916.002699122795
4466 7918.21765884181
4467 7921.475650945583
4468 7923.838957012416
4469 7927.443194831672
4470 7930.807946592211
4471 7933.958590285044
4472 7936.998130243938
4473 7939.852263237533
4474 7942.472117665074
4475 7945.012737329432
4476 7947.046235746393
4477 7948.820243162805
4478 7950.18790436299
4479 7951.331659718818
4480 7951.897707847057
4481 7952.247748457453
4482 7952.228742754498
4483 7951.679478320083
4484 7950.850730943086
4485 7949.59386594433
4486 7948.086721844088
4487 7946.509234851664
4488 7944.635252606673
4489 7942.487090730679
4490 7940.067457612653
4491 7937.723540850857
4492 7935.340120727147
4493 7932.732638529857
4494 7930.341123851334
4495 7928.656079503407
4496 7926.287351914247
4497 7924.077302322871
4498 7921.948132222072
4499 7919.971529413647
4500 7918.391022260215
4501 7916.929350599054
4502 7915.889040100075
4503 7915.008692836725
4504 7914.407179741542
4505 7913.866445164188
4506 7913.605366190881
4507 7913.731387996272
4508 7913.994104392475
4509 7914.516377396941
4510 7915.142208346295
4511 7916.157856031778
4512 7917.329508101765
4513 7918.564384525415
4514 7920.010339612571
4515 7921.305559088324
4516 7922.805003329096
4517 7924.404667168662
4518 7925.930465447895
4519 7927.456666745426
4520 7929.00435423759
4521 7930.333936906925
4522 7931.658506355212
4523 7932.77217087532
4524 7933.650376029979
4525 7934.315061705532
4526 7934.799969296901
4527 7935.317797944606
4528 7935.619064295206
4529 7935.766015848017
4530 7935.915858899853
4531 7935.671704971269
4532 7935.481530760993
4533 7935.037350132318
4534 7934.223885322901
4535 7933.505395990704
4536 7932.618841575207
4537 7930.925928260644
4538 7929.21915362647
4539 7927.859308549864
4540 7925.487732874638
4541 7923.705582314482
4542 7921.348855744428
4543 7919.551806546569
4544 7916.868101974813
4545 7914.867554275699
4546 7911.972541956542
4547 7909.288057765473
4548 7907.542238069477
4549 7905.278767367789
4550 7903.405739769762
4551 7902.526398071558
4552 7901.546532470657
4553 7901.26175373551
4554 7901.138628297619
4555 7901.601675519811
4556 7902.720340638809
4557 7904.448624338741
4558 7906.711613905927
4559 7909.395435295181
4560 7912.617539225433
4561 7916.371537583079
4562 7920.665641591047
4563 7925.021540778636
4564 7929.747426207961
4565 7934.787602155101
4566 7939.876323577952
4567 7943.381333611907
4568 7949.045811659425
4569 7954.534975743684
4570 7960.082732826722
4571 7965.960169511085
4572 7971.311658330643
4573 7976.244866291598
4574 7981.23534594279
4575 7985.960814288164
4576 7990.2504321906
4577 7994.23608008784
4578 7997.897759853044
4579 8001.106181566708
4580 8003.689067605649
4581 8005.853577778765
4582 8007.355314456583
4583 8008.46641173938
4584 8008.723829180644
4585 8008.591277182933
4586 8007.914975406761
4587 8006.741039896909
4588 8004.98768733213
4589 8002.643701520824
4590 7999.775090175074
4591 7996.233090391299
4592 7992.056098661447
4593 7987.272559520238
4594 7982.140929172356
4595 7976.732600661626
4596 7970.387889987211
4597 7964.102758839222
4598 7957.460493649809
4599 7950.428316346753
4600 7943.254136240645
4601 7935.937221543189
4602 7928.620230827334
4603 7921.467614069856
4604 7914.568602523917
4605 7907.804380388023
4606 7901.377475802668
4607 7895.099590703312
4608 7889.441406479307
4609 7884.265931114594
4610 7879.48254677529
4611 7875.113332780399
4612 7871.193782530954
4613 7867.886532485396
4614 7865.319414754917
4615 7862.993168632435
4616 7861.353971016712
4617 7860.150505354936
4618 7859.362692520844
4619 7858.797364310646
4620 7858.483031406615
4621 7858.831078306712
4622 7859.514168552138
4623 7860.81707255838
4624 7861.834094455962
4625 7863.336785798117
4626 7864.881687455894
4627 7866.792046400505
4628 7868.015335294377
4629 7870.203934822704
4630 7872.308857359363
4631 7873.825938265998
4632 7876.223112236501
4633 7878.36161487096
4634 7880.569456125528
4635 7881.933245662052
4636 7884.007875305256
4637 7885.817811992212
4638 7887.565515459255
4639 7889.1306565406
4640 7890.770780104524
4641 7891.852793035949
4642 7892.929267106982
4643 7893.809910692813
4644 7894.599011436904
4645 7895.177062580655
4646 7895.302409539713
4647 7895.388003574369
4648 7895.284174011628
4649 7895.087672837765
4650 7895.004094404423
4651 7894.661700235009
4652 7894.406512074452
4653 7894.013167044473
4654 7893.835792554843
4655 7893.997076516048
4656 7894.247151009137
4657 7894.519678503299
4658 7894.923383348188
4659 7895.552023065749
4660 7896.713296102354
4661 7897.69160601226
4662 7898.695436524325
4663 7900.97020032382
4664 7902.54673559218
4665 7905.121249818482
4666 7907.043734571978
4667 7910.137287843837
4668 7912.314663194867
4669 7915.647031822988
4670 7917.970516594277
4671 7921.822421339285
4672 7924.304585893618
4673 7928.007944001151
4674 7930.55350445448
4675 7934.580658588246
4676 7936.980501055228
4677 7940.418909283752
4678 7942.604990418655
4679 7945.92115128496
4680 7948.723780469523
4681 7950.320288276537
4682 7952.674919196922
4683 7954.464335347272
4684 7955.782771788332
4685 7956.445659635576
4686 7957.137921765738
4687 7957.450389874369
4688 7957.374848901552
4689 7956.944362650867
4690 7955.952250187946
4691 7955.177347422047
4692 7953.82376543007
4693 7952.430109595837
4694 7950.074579735392
4695 7948.428367348772
4696 7945.65858025434
4697 7943.702020408735
4698 7940.793248457248
4699 7938.955726912601
4700 7936.256042583534
4701 7934.47043350923
4702 7931.763045893338
4703 7930.102457579786
4704 7927.802899319668
4705 7926.34541914543
4706 7924.390549771659
4707 7923.330079182444
4708 7922.07834844338
4709 7921.365275408352
4710 7920.874142620856
4711 7920.753632299502
4712 7920.678047285144
4713 7920.999611228473
4714 7921.664736646747
4715 7922.128756409056
4716 7923.174519244485
4717 7924.192404503873
4718 7925.724004858052
4719 7927.071571335237
4720 7928.85677221277
4721 7930.313334342757
4722 7932.490225818419
4723 7934.014017042959
4724 7935.880978231077
4725 7937.186314662606
4726 7939.154045312316
4727 7940.270913785025
4728 7941.684966053876
4729 7942.494767267452
4730 7943.50011190415
4731 7943.779623091343
4732 7944.075136863795
4733 7944.122265856358
4734 7943.745533582607
4735 7943.281362096356
4736 7942.335155470629
4737 7941.45122643197
4738 7939.721284009903
4739 7938.402434877855
4740 7936.010398944942
4741 7934.191761329067
4742 7931.208633151618
4743 7929.001511492515
4744 7925.360153609025
4745 7922.889520358603
4746 7919.019013607212
4747 7916.272441633708
4748 7912.312137838926
4749 7908.131377192454
4750 7905.482996746533
4751 7901.24485013698
4752 7897.201531680302
4753 7893.106686705982
4754 7889.29366881606
4755 7885.623142558994
4756 7882.324801819484
4757 7879.375571317207
4758 7876.670656951353
4759 7874.207713896722
4760 7872.444100030684
4761 7871.13368474466
4762 7870.287321849661
4763 7869.712626316928
4764 7869.599240007568
4765 7869.894638969083
4766 7870.706950677736
4767 7871.924444031147
4768 7873.145678098809
4769 7875.17931774296
4770 7876.896857637619
4771 7880.130666916224
4772 7882.500449841515
4773 7886.439211518182
4774 7889.25902102652
4775 7892.124849027036
4776 7897.074809236829
4777 7900.437537750843
4778 7905.933404544608
4779 7909.747918373791
4780 7915.8750600745
4781 7919.675314753816
4782 7925.755616379445
4783 7932.052914265702
4784 7937.860444325835
4785 7943.694775812528
4786 7949.127435748433
4787 7954.251105847604
4788 7959.056290610517
4789 7963.506060897978
4790 7967.620502900904
4791 7971.386360435695
4792 7974.744271325312
4793 7977.70977460857
4794 7980.207529538225
4795 7982.264701288016
4796 7983.589852225679
4797 7984.530045052746
4798 7984.833633143266
4799 7984.531511172747
4800 7983.843411096591
4801 7982.668634031818
4802 7980.832078941089
4803 7978.530590442876
4804 7975.696531379558
4805 7972.570278218853
4806 7968.83557697486
4807 7964.47331680592
4808 7959.791730086461
4809 7954.579464124608
4810 7948.734424675734
4811 7942.799168938951
4812 7936.553342830211
4813 7929.928439860989
4814 7922.727480410602
4815 7915.461997679447
4816 7908.237064984067
4817 7900.543996508769
4818 7893.336675849753
4819 7886.02407538659
4820 7878.92923608383
4821 7872.080082666283
4822 7865.064735360811
4823 7858.55988684172
4824 7852.06421738135
4825 7846.115819686524
4826 7840.59669484362
4827 7835.719317111816
4828 7831.314657500705
4829 7827.592280606994
4830 7824.460078336983
4831 7821.962274555219
4832 7820.257429996174
4833 7819.177195217834
4834 7818.763103235841
4835 7819.033612250223
4836 7820.079617333001
4837 7821.958465747448
4838 7824.391507997818
4839 7827.403968570102
4840 7831.434048976766
4841 7835.793907890363
4842 7840.830030533701
4843 7846.377627778122
4844 7852.355016205813
4845 7858.796901863097
4846 7865.702299707875
4847 7873.026147021856
4848 7880.391649302464
4849 7888.396196656125
4850 7896.573092306337
4851 7905.1485620979
4852 7913.829367513217
4853 7922.607231026759
4854 7931.057756093346
4855 7938.998964561452
4856 7946.858343487404
4857 7954.259111294135
4858 7961.362955036039
4859 7967.935195904237
4860 7973.760623034585
4861 7980.670483046625
4862 7984.950588747969
4863 7988.551078941764
4864 7991.468020092296
4865 7993.333585082264
4866 7994.437575329646
4867 7994.518542466951
4868 7993.601729773429
4869 7992.035416020434
4870 7989.201188054159
4871 7985.543751084275
4872 7981.135009067076
4873 7976.197578272267
4874 7970.494789182449
4875 7964.320270922904
4876 7957.515376308941
4877 7950.318876107538
4878 7942.78324822111
4879 7934.797244722053
4880 7926.392048795743
4881 7918.410489038107
4882 7910.121393540738
4883 7901.991938016012
4884 7894.372934470782
4885 7886.907933144692
4886 7879.711082668066
4887 7872.682331866247
4888 7866.141394966406
4889 7860.066232702896
4890 7854.582641750018
4891 7849.68500770245
4892 7845.380855055415
4893 7841.803114167205
4894 7838.652554803004
4895 7836.147835508224
4896 7834.406760889045
4897 7833.220321503237
4898 7832.362908356578
4899 7831.988026637247
4900 7832.080351722582
4901 7832.861659698587
4902 7834.120322676571
4903 7835.779766983394
4904 7837.907919142244
4905 7840.223625658064
4906 7842.889034374568
4907 7844.650559444631
4908 7847.511562555636
4909 7849.602701821069
4910 7852.935319742366
4911 7855.130420203528
4912 7858.489692447883
4913 7860.718523332977
4914 7863.94442959223
4915 7867.049557393758
4916 7869.981653903234
4917 7872.590465955201
4918 7875.206595552076
4919 7877.392325365086
4920 7879.312876294419
4921 7880.84515424071
4922 7882.149032951823
4923 7883.166746438974
4924 7883.639522069699
4925 7883.83759567062
4926 7883.954012815641
4927 7883.502338267371
4928 7882.806212661226
4929 7881.881289893669
4930 7880.614896772996
4931 7879.055973428641
4932 7877.535597027219
4933 7875.745766691157
4934 7873.817475825475
4935 7871.73846568232
4936 7870.177495004042
4937 7868.343715045906
4938 7867.180991159494
4939 7865.823665991155
4940 7864.544620426209
4941 7863.823035403701
4942 7863.304266201983
4943 7863.046909642087
4944 7862.965163707911
4945 7863.458994558884
4946 7864.195548730117
4947 7865.572810645031
4948 7867.018940248238
4949 7869.076870421593
4950 7871.406123118772
4951 7873.293382744089
4952 7876.638211704993
4953 7880.052928405657
4954 7883.960303714
4955 7888.045897661927
4956 7890.583030069585
4957 7894.849631145375
4958 7899.487808861973
4959 7904.066883024138
4960 7907.124708503717
4961 7911.724125247523
4962 7916.293099243252
4963 7920.568205582656
4964 7924.749508459793
4965 7928.442516229832
4966 7932.083014863771
4967 7935.050462452154
4968 7937.730814689577
4969 7940.054485440249
4970 7941.976524158261
4971 7943.440851507536
4972 7944.319644892262
4973 7944.806763699665
4974 7944.733640310556
4975 7944.255937134064
4976 7943.308264545117
4977 7941.616225280797
4978 7939.523873526235
4979 7938.121810975475
4980 7935.546455619113
4981 7933.734974616141
4982 7930.755147397697
4983 7928.529121049481
4984 7925.140887971416
4985 7922.812871241481
4986 7919.406993998962
4987 7917.113280163929
4988 7913.703245536579
4989 7910.401911039439
4990 7907.637396116243
4991 7905.911388680097
4992 7903.720435892235
4993 7902.174546697735
4994 7900.987115911526
4995 7900.373552597682
4996 7900.245970300008
4997 7900.656801570176
4998 7901.498571070963
4999 7902.735784300929
5000 7904.539200857035
5001 7906.969764301436
5002 7909.611067959645
5003 7912.503414342744
5004 7915.836100313087
5005 7919.089095257214
5006 7922.594583025898
5007 7926.311851357555
5008 7930.015689553565
5009 7933.730999591851
5010 7937.347317983083
5011 7941.31418420105
5012 7944.887102633164
5013 7948.148222160637
5014 7951.05605547072
5015 7953.722752045536
5016 7956.059325999762
5017 7957.896783245232
5018 7959.184655066197
5019 7960.396254592953
5020 7960.931658947552
5021 7961.101361447331
5022 7960.776282550321
5023 7959.76071401661
5024 7958.380753369482
5025 7956.391188270009
5026 7954.200827982136
5027 7951.32940645185
5028 7948.102561966185
5029 7944.299829250431
5030 7940.06939653154
5031 7935.404321654352
5032 7930.406715511893
5033 7924.56611934966
5034 7918.234214835885
5035 7911.510628664302
5036 7904.900583842215
5037 7897.676663234078
5038 7890.32374039508
5039 7883.139470276942
5040 7875.686482307669
5041 7868.855898323885
5042 7862.247558734859
5043 7855.37422215569
5044 7849.026574546402
5045 7843.16309209214
5046 7837.742418606073
5047 7832.731294498608
5048 7828.431118652736
5049 7824.469969251461
5050 7821.065983091294
5051 7818.434923549878
5052 7816.492975588601
5053 7814.931267487738
5054 7814.083461472777
5055 7814.016591602531
5056 7814.441741029133
5057 7815.493521000824
5058 7817.001119878417
5059 7819.142138941553
5060 7821.794657629307
5061 7823.898125673461
5062 7827.528690612742
5063 7830.041178195279
5064 7834.20981673558
5065 7837.243735793609
5066 7842.117415454671
5067 7845.564627409575
5068 7850.603976180456
5069 7854.212072871749
5070 7859.682449049278
5071 7863.539738155374
5072 7869.253169279503
5073 7873.050094009114
5074 7878.732764859214
5075 7884.181043835612
5076 7889.024066569949
5077 7893.616567983883
5078 7898.158263880156
5079 7902.193177451979
5080 7905.615876432317
5081 7908.706145720349
5082 7911.389690952248
5083 7913.489206043238
5084 7915.207071356685
5085 7916.675605079949
5086 7917.567778700624
5087 7918.147007563487
5088 7917.926786337101
5089 7917.598810104465
5090 7916.727424560102
5091 7915.855169689884
5092 7914.686351307711
5093 7912.815463854936
5094 7911.002112356775
5095 7909.798710220155
5096 7907.678573515321
5097 7906.25147940021
5098 7903.955689612577
5099 7902.455439341923
5100 7900.144542529837
5101 7898.59620054484
5102 7896.263870455809
5103 7893.837111136333
5104 7892.491230362765
5105 7890.861256707041
5106 7889.037957883263
5107 7887.709031288094
5108 7886.621443283592
5109 7885.571309060534
5110 7884.609970120701
5111 7883.790809845527
5112 7882.963603457244
5113 7882.663850320871
5114 7882.58977679463
5115 7882.747899711793
5116 7882.709549919716
5117 7882.816882724471
5118 7882.600726152794
5119 7882.944607969756
5120 7883.068665478706
5121 7883.147756471512
5122 7882.911877696366
5123 7882.55595941016
5124 7882.082651914915
5125 7881.607105780191
5126 7880.7416548111
5127 7879.737250545356
5128 7878.913364248841
5129 7877.488957420866
5130 7876.105234331283
5131 7874.397797122971
5132 7872.108003452919
5133 7869.466562177684
5134 7866.396563438472
5135 7862.856541611573
5136 7859.038673387249
5137 7855.061977990126
5138 7850.579266278162
5139 7846.192589633859
5140 7841.59862959363
5141 7836.838925029602
5142 7832.324324323964
5143 7827.795117527797
5144 7823.086586711828
5145 7818.482743393974
5146 7814.084811138413
5147 7810.104049352017
5148 7806.019320153848
5149 7802.111225498718
5150 7798.649694605463
5151 7795.893329710892
5152 7793.420966767384
5153 7791.450314836302
5154 7789.969627288033
5155 7789.014040692548
5156 7788.724146299674
5157 7789.299908516577
5158 7790.060274050654
5159 7791.201175577955
5160 7793.046658259831
5161 7795.822946078632
5162 7798.174222636301
5163 7801.491844951898
5164 7804.818705867097
5165 7808.967459447191
5166 7812.845097187151
5167 7817.154983319541
5168 7821.859154284199
5169 7826.872970786476
5170 7831.801389813977
5171 7836.643655574284
5172 7841.421675874081
5173 7846.247976771373
5174 7851.133674517705
5175 7855.507408951372
5176 7859.243143617297
5177 7862.913685596529
5178 7866.227774774569
5179 7869.47907596561
5180 7872.123892190569
5181 7874.342296769047
5182 7876.048004541688
5183 7876.917865517521
5184 7877.524169908477
5185 7877.79628886802
5186 7877.496467783278
5187 7876.409191303248
5188 7874.922879551139
5189 7872.939731594166
5190 7870.274295846759
5191 7867.042544117852
5192 7863.418274287883
5193 7858.768056745495
5194 7853.519791479865
5195 7848.483897576299
5196 7843.209363265092
5197 7837.585577456344
5198 7831.884830618392
5199 7826.185559095409
5200 7821.039686792789
5201 7815.893356329124
5202 7811.745401881009
5203 7807.621558491822
5204 7804.337476042086
5205 7801.422844226386
5206 7799.112170874712
5207 7797.204556631465
5208 7795.882994134296
5209 7795.324545233086
5210 7795.455535335542
5211 7796.558045355567
5212 7798.009531349618
5213 7800.255398270378
5214 7803.191671319803
5215 7806.487508630527
5216 7810.821417735999
5217 7815.419880402679
5218 7820.613067169217
5219 7825.982659429157
5220 7831.601638473105
5221 7837.901011191379
5222 7844.333714463454
5223 7851.415416617118
5224 7857.900403298577
5225 7864.587774301821
5226 7871.618596530856
5227 7878.565986269078
5228 7885.289830245524
5229 7891.839369527053
5230 7898.250709936334
5231 7904.101690801922
5232 7909.941526275456
5233 7915.44862243717
5234 7920.239723390354
5235 7924.398297113183
5236 7928.165315517002
5237 7931.516761624024
5238 7934.057926936854
5239 7936.053152668376
5240 7937.540954824517
5241 7938.554713487287
5242 7938.811051752876
5243 7938.568976971899
5244 7937.616316601445
5245 7935.664510457515
5246 7933.388464054025
5247 7930.477551940491
5248 7926.914377981491
5249 7923.003875146009
5250 7918.634593635498
5251 7913.666391396421
5252 7908.473644179316
5253 7903.13667490658
5254 7897.685706611014
5255 7892.391935423031
5256 7887.355814421661
5257 7882.560702243646
5258 7877.998595660861
5259 7873.755186328493
5260 7869.698000461081
5261 7865.999029527683
5262 7862.880750012522
5263 7860.308416388734
5264 7858.467054142435
5265 7857.19628465059
5266 7856.502394987847
5267 7856.215827743502
5268 7856.295481229326
5269 7857.141642650135
5270 7858.412565536046
5271 7859.950235349236
5272 7861.617706024167
5273 7863.688610074341
5274 7865.875017554582
5275 7868.284579593868
5276 7870.610999251235
5277 7873.12601143481
5278 7875.485072553843
5279 7877.792338992494
5280 7879.825912872105
5281 7881.721615546172
5282 7883.175784619617
5283 7884.60078174826
5284 7885.378785885582
5285 7885.877673802746
5286 7886.203605988268
5287 7885.651916411854
5288 7884.360886607693
5289 7882.590954889098
5290 7880.384098278197
5291 7877.739678444517
5292 7874.62109360319
5293 7870.72790400033
5294 7866.587841604282
5295 7861.263034916962
5296 7855.74019314318
5297 7849.937269006619
5298 7844.034926349017
5299 7837.638503113265
5300 7830.902459487523
5301 7823.792739295918
5302 7816.748173123993
5303 7809.849710550004
5304 7803.053102406684
5305 7796.806844439988
5306 7791.046646989395
5307 7785.969867125153
5308 7781.124748543576
5309 7776.837611306806
5310 7773.481703267416
5311 7771.173267422817
5312 7769.478592033239
5313 7768.337121366577
5314 7768.17253382909
5315 7768.725940879602
5316 7770.463125212926
5317 7772.749904567869
5318 7775.828022672944
5319 7779.548937637099
5320 7784.370633058194
5321 7789.414312627302
5322 7795.113481552068
5323 7801.627030777248
5324 7808.459243170809
5325 7815.764085201744
5326 7822.939288985213
5327 7830.462306644139
5328 7838.296390727258
5329 7846.164391978452
5330 7854.202494941186
5331 7862.107305136329
5332 7869.858163896562
5333 7877.642471633267
5334 7885.00204041391
5335 7891.881920611202
5336 7898.306090165631
5337 7904.332903394225
5338 7909.982352571912
5339 7914.793258152061
5340 7919.271176772595
5341 7923.047900242663
5342 7926.453287344316
5343 7929.253264966868
5344 7931.381449356561
5345 7932.79142067506
5346 7933.921763405678
5347 7934.244264361509
5348 7933.61250284614
5349 7933.093807454261
5350 7931.797612753601
5351 7929.788121203695
5352 7927.745544062271
5353 7926.156312857044
5354 7922.927353312452
5355 7920.279505914182
5356 7916.229641938628
5357 7913.622282737896
5358 7909.835912045495
5359 7907.234030772553
5360 7903.391814301441
5361 7900.972595765456
5362 7897.560121924628
5363 7895.551138090006
5364 7892.959362631625
5365 7890.69864453421
5366 7889.557430269054
5367 7888.070480953808
5368 7887.10837152873
5369 7886.42711026963
5370 7886.314796860568
5371 7886.736660992647
5372 7887.616923046052
5373 7888.770190382666
5374 7890.352303463879
5375 7891.976293594977
5376 7894.270897757592
5377 7896.310704742725
5378 7898.611101011362
5379 7901.240474302672
5380 7903.838559224783
5381 7906.27992901597
5382 7908.688467903632
5383 7910.562525620711
5384 7912.866100042291
5385 7914.808312416513
5386 7916.888369190588
5387 7918.562072508711
5388 7919.860660331444
5389 7920.72305192285
5390 7921.067388840029
5391 7921.086705925517
5392 7921.117272807532
5393 7920.27708687469
5394 7919.291220477938
5395 7917.960538994821
5396 7916.079879682255
5397 7913.868646057808
5398 7912.151382222365
5399 7908.947364986165
5400 7905.384385387421
5401 7901.556859311265
5402 7897.192280126273
5403 7892.637387548962
5404 7887.332382701296
5405 7881.965947330819
5406 7876.058532616804
5407 7869.832474841865
5408 7863.225202787012
5409 7856.574343633796
5410 7849.703796843229
5411 7843.161409435297
5412 7836.366334998435
5413 7830.06002568258
5414 7824.040353234142
5415 7818.003911542291
5416 7812.532042743284
5417 7807.357080253737
5418 7802.736250917858
5419 7798.600547357705
5420 7794.585699984499
5421 7791.439994953354
5422 7789.155473207399
5423 7787.484755804074
5424 7786.37864975042
5425 7785.83205486894
5426 7786.276515929821
5427 7787.59476122162
5428 7789.301921583593
5429 7791.603737463757
5430 7794.984634322427
5431 7798.418345237121
5432 7802.557557536227
5433 7807.42505399094
5434 7810.785942003261
5435 7816.476936935825
5436 7822.370892861007
5437 7826.441982311932
5438 7832.802626044263
5439 7839.431956817932
5440 7843.943679800444
5441 7850.882624361407
5442 7857.560993608592
5443 7864.660566615717
5444 7871.335836600198
5445 7877.890067110304
5446 7883.608608039966
5447 7888.816099673628
5448 7893.596189711189
5449 7897.936472144769
5450 7901.577238101565
5451 7904.294936575126
5452 7906.600017834302
5453 7907.980102863256
5454 7908.948273267751
5455 7908.964870885042
5456 7908.09852605626
5457 7906.546489053979
5458 7904.351886973274
5459 7901.412374582121
5460 7897.658984036895
5461 7892.945496690993
5462 7888.08615521741
5463 7882.289135852098
5464 7876.113296395675
5465 7869.691745591382
5466 7862.979794317047
5467 7855.874166613419
5468 7848.712981944052
5469 7841.813796094809
5470 7835.015047286636
5471 7828.214083884935
5472 7821.878420254239
5473 7815.828676744251
5474 7810.217214605716
5475 7805.317282244312
5476 7800.759461394765
5477 7796.696139968855
5478 7793.259016154393
5479 7790.544163395978
5480 7788.370407180684
5481 7787.000493005105
5482 7785.994274054463
5483 7786.002312478739
5484 7786.510996920909
5485 7787.601570387617
5486 7789.265604672892
5487 7791.659006805521
5488 7794.82766425275
5489 7798.449651923036
5490 7802.496061007429
5491 7806.782794436136
5492 7811.822397492526
5493 7816.960396524186
5494 7822.589638914972
5495 7828.142032388207
5496 7833.924727946301
5497 7839.80459279997
5498 7845.925377656383
5499 7851.711416971879
5500 7857.433687220487
5501 7863.124154234138
5502 7868.750584474842
5503 7874.24373354566
5504 7879.583895599237
5505 7884.589371249551
5506 7889.259154945295
5507 7893.281440302231
5508 7896.862119789024
5509 7899.987795138742
5510 7902.428293457833
5511 7904.274654422344
5512 7905.784695201927
5513 7906.752103060306
5514 7907.132330694235
5515 7907.315348098855
5516 7907.015145251999
5517 7906.200838204299
5518 7904.893820648979
5519 7903.464062607552
5520 7901.491222021062
5521 7899.404203641859
5522 7897.193558029589
5523 7894.573558075081
5524 7891.982731789776
5525 7888.966424973582
5526 7885.867275765758
5527 7882.843357532705
5528 7879.58362075783
5529 7876.101578447368
5530 7872.556090023872
5531 7869.061060382118
5532 7865.445215484726
5533 7861.795155774713
5534 7858.262039853396
5535 7854.228645486647
5536 7850.223609740301
5537 7846.297615605006
5538 7842.165138449512
5539 7838.251477153632
5540 7834.191253840931
5541 7829.977923581444
5542 7825.671900961075
5543 7821.134638708097
5544 7816.767192402065
5545 7812.453648711412
5546 7808.268202372553
5547 7804.036524216772
5548 7799.871007864346
5549 7795.404796839559
5550 7790.940466253876
5551 7786.203789289881
5552 7782.013402550204
5553 7777.578715125417
5554 7773.378563153172
5555 7768.419497795478
5556 7763.914693114391
5557 7759.308298435028
5558 7755.123846620971
5559 7751.357828566232
5560 7747.874886683077
5561 7744.682413789955
5562 7742.043683183985
5563 7739.554648304828
5564 7737.467699342981
5565 7736.201467583517
5566 7735.369965936306
5567 7734.960970252403
5568 7735.323523415726
5569 7736.22703304991
5570 7738.095346350916
5571 7740.900457070936
5572 7744.006160304127
5573 7747.769791177921
5574 7752.516727836964
5575 7757.76222034278
5576 7763.203375611136
5577 7769.122302684542
5578 7776.031452224464
5579 7783.484095105211
5580 7790.543396114826
5581 7797.990712556427
5582 7806.030121583611
5583 7814.201747613687
5584 7822.423736673952
5585 7830.188753620811
5586 7838.134652357309
5587 7845.83038130875
5588 7853.728912158871
5589 7860.888536913445
5590 7867.669034186026
5591 7873.909444878265
5592 7879.456512398185
5593 7884.459718627871
5594 7889.041027258668
5595 7892.557909834054
5596 7895.465501451148
5597 7897.405934433553
5598 7898.689117278176
5599 7899.383775591491
5600 7899.419765305501
5601 7898.48237383595
5602 7896.874399776639
5603 7894.509053798249
5604 7891.122259054626
5605 7886.790102741784
5606 7882.414135529298
5607 7876.773529005531
5608 7870.719004098904
5609 7864.265906551131
5610 7857.510566402838
5611 7849.939618725858
5612 7842.427059022967
5613 7834.66236573739
5614 7827.241838040058
5615 7819.888799540487
5616 7812.722068719505
5617 7806.225516054265
5618 7800.416672923442
5619 7795.235953959994
5620 7790.750874507277
5621 7787.023581498103
5622 7783.959611372336
5623 7781.744131978042
5624 7780.41579556075
5625 7779.869385319535
5626 7780.221209591355
5627 7781.25020942937
5628 7783.011185278127
5629 7785.888724613472
5630 7788.89607914556
5631 7792.580005796212
5632 7796.94422647762
5633 7802.026940091455
5634 7807.843662086504
5635 7813.524932098125
5636 7819.406326671748
5637 7826.009157485972
5638 7832.721286026543
5639 7839.49359049155
5640 7846.505198900214
5641 7853.719224833977
5642 7860.676426019358
5643 7867.232218460797
5644 7873.868514610381
5645 7880.120850514657
5646 7886.23262845028
5647 7891.594806302983
5648 7896.643501576714
5649 7901.103054587476
5650 7905.381165971995
5651 7908.893459345213
5652 7911.616042106579
5653 7913.736553903685
5654 7915.165335784856
5655 7916.005177096149
5656 7916.229617629596
5657 7915.305937364928
5658 7913.97856151324
5659 7911.849383856533
5660 7909.285714746346
5661 7905.824992087716
5662 7902.020144646905
5663 7897.536951457738
5664 7892.82449777298
5665 7887.83842010058
5666 7882.360011554885
5667 7876.821104772262
5668 7871.263080617077
5669 7865.690304670632
5670 7860.168196873892
5671 7855.210259979846
5672 7850.497818798138
5673 7846.356688947732
5674 7842.502641325972
5675 7839.080919295408
5676 7836.401945069621
5677 7834.331205724317
5678 7832.666823154305
5679 7831.646549720749
5680 7831.483237464754
5681 7832.05821036663
5682 7833.193246410421
5683 7834.94966961802
5684 7836.988398926629
5685 7839.820712611884
5686 7843.100880559349
5687 7846.917404492542
5688 7851.480492179275
5689 7856.649267493231
5690 7861.838018140797
5691 7867.422187231198
5692 7873.310235696848
5693 7879.587167302107
5694 7886.089950353709
5695 7892.366207487069
5696 7898.76738988228
5697 7905.271273582758
5698 7911.760057306084
5699 7917.817151411211
5700 7923.587214315605
5701 7929.204373310211
5702 7934.421399856582
5703 7940.750451112139
5704 7944.861454756037
5705 7948.459246789363
5706 7952.509475604887
5707 7954.60775109389
5708 7955.963627937545
5709 7956.956906600755
5710 7956.767374820156
5711 7955.90274089245
5712 7954.281324286961
5713 7951.686280635205
5714 7948.327340346968
5715 7943.672872975569
5716 7938.792873221745
5717 7933.006019633672
5718 7926.161562661883
5719 7918.458508772773
5720 7910.310221132741
5721 7901.252545015301
5722 7891.402108379775
5723 7881.148242945103
5724 7870.871681683523
5725 7860.881553524863
5726 7850.177183955921
5727 7839.645455789071
5728 7829.308145759144
5729 7819.727826479511
5730 7807.753994476764
5731 7799.389236328791
5732 7791.280840585568
5733 7782.134257167919
5734 7776.436732353641
5735 7769.828693583105
5736 7765.986683766508
5737 7762.402969399405
5738 7761.011224752987
5739 7760.76780795318
5740 7761.678078851009
5741 7763.934860930042
5742 7767.06140307543
5743 7772.106466808735
5744 7777.109877166856
5745 7783.192465300143
5746 7789.572474414696
5747 7797.59081504857
5748 7806.27956959486
5749 7815.798692688541
5750 7825.749350441622
5751 7835.966793353085
5752 7847.070866520663
5753 7858.547912932334
5754 7870.529065394839
5755 7882.624235902029
5756 7894.293893579219
5757 7906.326694631364
5758 7918.663567143907
5759 7931.290738076068
5760 7946.001170217383
5761 7955.761989259584
5762 7968.32001697864
5763 7976.597430440572
5764 7986.248778754922
5765 7992.033493000405
5766 7998.503095260291
5767 8001.933176197407
5768 8004.739537126169
5769 8005.780051240038
5770 8005.660314105926
5771 8004.2005211884
5772 8001.422715582203
5773 7996.670150407417
5774 7991.257853686975
5775 7984.64123931298
5776 7976.39674664135
5777 7967.400341041129
5778 7957.418885329116
5779 7946.234591753928
5780 7934.240269059037
5781 7921.556915830155
5782 7908.095670538983
5783 7894.209588063411
5784 7879.931262893988
5785 7865.073059767205
5786 7850.765323609899
5787 7837.010444293293
5788 7823.33451701999
5789 7810.385974940524
5790 7793.73362595261
5791 7782.86173322452
5792 7772.748229183761
5793 7761.020696107449
5794 7753.276239001191
5795 7747.099881670041
5796 7740.132979247854
5797 7736.133500544033
5798 7732.609705531822
5799 7731.317383752573
5800 7731.560852015011
5801 7733.17178197367
5802 7735.777293937486
5803 7739.200295381689
5804 7743.801182900991
5805 7749.120876904836
5806 7755.966591051715
5807 7763.305370390247
5808 7771.368546390395
5809 7780.218852949102
5810 7789.946555333781
5811 7799.086697652542
5812 7809.353544121594
5813 7820.204195186572
5814 7831.325840542245
5815 7842.044966187349
5816 7852.879118313414
5817 7863.819694821028
5818 7874.929483375784
5819 7885.545686546251
5820 7895.825441176001
5821 7905.288969684148
5822 7916.594637914284
5823 7924.504799011524
5824 7931.701642931652
5825 7938.121389783458
5826 7945.23765696654
5827 7949.449838805934
5828 7952.674350024679
5829 7954.940756431741
5830 7956.284165690816
5831 7956.344260072381
5832 7955.506598846205
5833 7953.369800590165
5834 7950.009212553677
5835 7945.662170606695
5836 7939.927807858979
5837 7933.494157081504
5838 7926.033042994475
5839 7917.86375781
5840 7909.220610693242
5841 7900.137493093549
5842 7890.284612135879
5843 7880.133135988284
5844 7870.018529435541
5845 7860.314211695452
5846 7850.460166074337
5847 7841.069573468823
5848 7832.058101885811
5849 7823.381569509562
5850 7815.097997588365
5851 7807.344467103722
5852 7800.168150482341
5853 7793.897107659875
5854 7788.43403513912
5855 7783.58818038091
5856 7779.574395099434
5857 7776.450159138293
5858 7773.641817966854
5859 7772.100654518646
5860 7771.925557888968
5861 7772.304864435843
5862 7773.589788855605
5863 7775.724145073842
5864 7778.632115932751
5865 7781.983820954038
5866 7786.232954846707
5867 7791.345530260064
5868 7796.436155319084
5869 7802.461514274785
5870 7809.033375218184
5871 7816.213044372137
5872 7823.368921962168
5873 7830.473715791152
5874 7838.134725617797
5875 7845.462964257552
5876 7852.529427703055
5877 7859.763295003966
5878 7866.512307707235
5879 7872.998553127372
5880 7878.91676249269
5881 7884.349491715955
5882 7889.33540848437
5883 7893.608781597765
5884 7897.384763780909
5885 7900.552679363425
5886 7902.866712319947
5887 7904.238504489273
5888 7904.818788090231
5889 7904.612295633408
5890 7903.332373208375
5891 7901.743572158209
5892 7899.266821911747
5893 7895.958123922663
5894 7891.743574710026
5895 7887.291094787293
5896 7882.247161654874
5897 7876.449338478715
5898 7870.844491542228
5899 7864.379602740017
5900 7858.324907788256
5901 7852.141651274718
5902 7846.283194588527
5903 7840.461273498508
5904 7835.07065442443
5905 7829.925446003918
5906 7825.198396547168
5907 7820.838264827144
5908 7817.056551435127
5909 7813.736559043198
5910 7811.161106687381
5911 7809.163959072873
5912 7807.787384508974
5913 7807.099351386481
5914 7807.165554838581
5915 7807.499432744748
5916 7808.732096944583
5917 7810.352741887254
5918 7812.897007808447
5919 7815.716540528063
5920 7819.491330054659
5921 7823.481573173855
5922 7827.897301836103
5923 7832.768247730597
5924 7838.216217064944
5925 7842.141338895311
5926 7848.148384770019
5927 7852.380989743044
5928 7858.992333215466
5929 7863.719554257339
5930 7870.526389682592
5931 7875.029573700353
5932 7881.936733041496
5933 7888.576596529281
5934 7895.03618428967
5935 7901.26239303807
5936 7907.269588653994
5937 7912.756544879292
5938 7917.533881205482
5939 7921.672099673896
5940 7925.345755948792
5941 7928.326425017802
5942 7930.777564557489
5943 7932.694038547049
5944 7934.049002361725
5945 7934.608499004484
5946 7934.914556446529
5947 7934.55566190624
5948 7933.783090039293
5949 7932.800616271176
5950 7931.009450535362
5951 7929.556730995205
5952 7927.013991243823
5953 7925.139222008775
5954 7922.321754185098
5955 7920.243612145455
5956 7916.991946132634
5957 7914.818312350043
5958 7911.261437161861
5959 7909.061744982104
5960 7905.873267748322
5961 7903.602662640355
5962 7900.120000028603
5963 7897.740930102724
5964 7894.495617856003
5965 7892.513272419061
5966 7889.422054381638
5967 7886.557987740304
5968 7883.810828895637
5969 7881.416946573619
5970 7879.211664786113
5971 7877.197172634208
5972 7875.482116248962
5973 7873.877406257756
5974 7872.498218623278
5975 7871.281676664211
5976 7870.083605823901
5977 7868.987192482688
5978 7868.136912564204
5979 7867.556838461653
5980 7867.277911035421
5981 7867.17693003355
5982 7867.080787431513
5983 7867.096894768898
5984 7867.334292076212
5985 7867.416668702702
5986 7867.862739690097
5987 7868.327369928529
5988 7868.74373099066
5989 7869.237401079004
5990 7869.658952288714
5991 7870.230160955805
5992 7870.947013788223
5993 7871.360465420826
5994 7872.116674419202
5995 7873.057479380647
5996 7873.700380439021
5997 7874.729987401931
5998 7875.540256807861
5999 7876.625602897535
6000 7877.34194923092
6001 7878.572069318646
6002 7879.33504601735
6003 7880.690666127058
6004 7881.81012068281
6005 7882.45857971081
6006 7883.563023215307
6007 7884.507335914975
6008 7885.278746163819
6009 7885.756498020146
6010 7886.318075597785
6011 7886.831086134745
6012 7887.039754211503
6013 7887.069190554847
6014 7887.095328604303
6015 7886.944624693614
6016 7886.490148048734
6017 7885.854249204581
6018 7885.247412329578
6019 7884.493358131244
6020 7883.602128332496
6021 7882.478767479132
6022 7881.437197800853
6023 7880.612918219239
6024 7879.368893793334
6025 7878.225137408753
6026 7877.587880196729
6027 7876.385049023955
6028 7875.223358645983
6029 7874.148931564589
6030 7873.129410529416
6031 7872.20484462445
6032 7871.157519113548
6033 7870.524000348692
6034 7870.280505222445
6035 7870.001244940478
6036 7870.213333163751
6037 7870.550356870374
6038 7871.187904660842
6039 7872.060753300781
6040 7873.254519715274
6041 7874.591425793821
6042 7876.264795235724
6043 7877.884437461475
6044 7879.937248498773
6045 7882.343466218817
6046 7884.605764115249
6047 7886.831890506128
6048 7889.164113791383
6049 7891.735152394993
6050 7893.999600208248
6051 7896.173261226316
6052 7898.357039770121
6053 7900.436705276753
6054 7902.028601666594
6055 7903.438049551643
6056 7904.596841874799
6057 7905.497980870759
6058 7905.858544119818
6059 7906.050127027641
6060 7905.705619326897
6061 7904.638239341975
6062 7903.289408172048
6063 7901.589549463464
6064 7899.280262378829
6065 7896.704134305617
6066 7893.404887346466
6067 7889.992745988269
6068 7886.355820275564
6069 7882.526272600589
6070 7877.910616718864
6071 7873.438817960195
6072 7868.812771652134
6073 7863.913834165151
6074 7859.280362885571
6075 7854.624328624261
6076 7850.274312820175
6077 7846.051543729621
6078 7842.3441872386
6079 7838.639065829812
6080 7835.325085923982
6081 7832.531283123668
6082 7830.377173301124
6083 7828.49565670315
6084 7826.983740971306
6085 7826.326146931381
6086 7826.414931695528
6087 7827.532689837807
6088 7828.824792335638
6089 7830.852060560003
6090 7833.63232261139
6091 7836.614647873037
6092 7840.218130368607
6093 7844.147826379962
6094 7848.792475543823
6095 7853.500320501768
6096 7858.518640694235
6097 7864.189054689924
6098 7869.689541637659
6099 7875.259430348532
6100 7880.455052714931
6101 7886.171843315125
6102 7891.300226073889
6103 7896.514495657592
6104 7901.167341915946
6105 7905.350519672124
6106 7909.107997495838
6107 7912.381165692807
6108 7914.99578698251
6109 7917.11231504843
6110 7918.493854388853
6111 7919.177601651599
6112 7919.329579937227
6113 7918.991953477095
6114 7917.712148948289
6115 7915.883239764778
6116 7913.323725022239
6117 7909.734377410648
6118 7905.903080333343
6119 7901.022750054093
6120 7894.935987420829
6121 7888.45551099093
6122 7881.684737296123
6123 7874.274608757538
6124 7866.87827483171
6125 7859.019674107984
6126 7850.744357844645
6127 7842.783992644607
6128 7834.95955074665
6129 7827.093515508353
6130 7819.591204019166
6131 7812.413929981394
6132 7805.760717251138
6133 7799.600115456068
6134 7793.846311668553
6135 7788.849569965284
6136 7784.566110584046
6137 7780.711851634978
6138 7777.650811434919
6139 7775.287299088446
6140 7773.624255825695
6141 7772.76926435174
6142 7772.388316146798
6143 7772.738146829098
6144 7773.828872041116
6145 7775.305191508869
6146 7777.370284179193
6147 7779.561508315021
6148 7782.327899019127
6149 7785.332082392615
6150 7787.829302329898
6151 7791.821062103846
6152 7794.579143869881
6153 7799.027171002212
6154 7802.046101706728
6155 7806.55131828654
6156 7809.678307766188
6157 7814.505295053605
6158 7819.020467828155
6159 7823.340675446398
6160 7827.366068857033
6161 7831.333860172867
6162 7834.856345914968
6163 7838.069983927448
6164 7840.971545217004
6165 7843.598675418451
6166 7845.853093715554
6167 7847.53595626437
6168 7848.96537061796
6169 7849.997157503045
6170 7850.580662672955
6171 7850.851090602822
6172 7850.793591829068
6173 7850.576885017264
6174 7850.074568105756
6175 7849.367738462814
6176 7848.985700118738
6177 7847.893618403677
6178 7847.227442360812
6179 7846.266448447424
6180 7845.556155977562
6181 7844.889756322036
6182 7844.481965766894
6183 7843.951522503327
6184 7843.75653153806
6185 7843.671575998356
6186 7843.966467219577
6187 7844.467316173488
6188 7845.193057463044
6189 7846.222077132413
6190 7847.304429703905
6191 7848.729345240809
6192 7850.102581527606
6193 7851.602356476348
6194 7853.219482422456
6195 7854.938879159343
6196 7856.702895780792
6197 7858.415220620504
6198 7860.222068620211
6199 7861.965512439095
6200 7863.620880280325
6201 7865.313861673168
6202 7866.742715828801
6203 7867.914852927707
6204 7869.010881075089
6205 7869.930934376872
6206 7870.6371371027
6207 7871.02234869022
6208 7871.198765196692
6209 7871.254143848063
6210 7871.005384283921
6211 7870.501556681826
6212 7870.11647928052
6213 7869.141548265412
6214 7867.811637536247
6215 7866.834392270884
6216 7864.846411469595
6217 7863.374621820674
6218 7860.972475038081
6219 7859.177110175612
6220 7855.998551140085
6221 7853.974860812401
6222 7850.630726818154
6223 7848.296473909884
6224 7844.828762438608
6225 7841.28546088515
6226 7838.973361415578
6227 7835.375303480334
6228 7831.904729687938
6229 7828.619609992047
6230 7825.722242862959
6231 7823.946780081566
6232 7821.432805317207
6233 7819.244508254628
6234 7817.395820455698
6235 7815.925489622256
6236 7814.869866011901
6237 7814.198341503019
6238 7813.844062554249
6239 7813.759027877511
6240 7814.00181781884
6241 7814.413827422389
6242 7815.22554189893
6243 7816.397993466304
6244 7817.406534065737
6245 7818.975438331352
6246 7820.05987015881
6247 7821.853673357457
6248 7823.332223587535
6249 7825.685348844863
6250 7827.237506880346
6251 7829.718365276713
6252 7831.500902708033
6253 7834.023865892798
6254 7836.646277123024
6255 7838.347779414004
6256 7840.85665505866
6257 7842.69952881916
6258 7845.218910701318
6259 7846.811318505086
6260 7849.121079773779
6261 7850.510071152768
6262 7852.514965410169
6263 7853.714542337053
6264 7855.52579713917
6265 7856.647084072769
6266 7858.249907428163
6267 7859.19899624883
6268 7860.25253809032
6269 7860.816805975908
6270 7861.550095728354
6271 7861.820624939537
6272 7862.144456831283
6273 7862.132917861726
6274 7862.041522838525
6275 7861.790105727692
6276 7861.186089786022
6277 7860.685355225407
6278 7859.936817772561
6279 7859.338599436665
6280 7858.502420729878
6281 7857.800250215722
6282 7857.066778815852
6283 7856.546841774742
6284 7855.815941456553
6285 7855.414565866878
6286 7855.066741826125
6287 7854.73605276877
6288 7854.625836096578
6289 7854.505188824402
6290 7854.575964476066
6291 7854.795460675041
6292 7855.040165740022
6293 7855.203907465362
6294 7855.49771774233
6295 7855.72067154411
6296 7855.969571421708
6297 7856.315118278618
6298 7856.644268884198
6299 7856.876268585832
6300 7857.107121941681
6301 7857.435102191201
6302 7857.67623412449
6303 7857.707498131094
6304 7857.773384857269
6305 7857.759097801568
6306 7857.644611530461
6307 7857.385430759636
6308 7857.279497630946
6309 7856.870930447617
6310 7856.415715425977
6311 7855.811778757709
6312 7855.363651068436
6313 7854.859944990906
6314 7853.995899256054
6315 7853.285904757295
6316 7852.508851005424
6317 7851.177964115373
6318 7850.205986639285
6319 7848.381693105078
6320 7847.245331078338
6321 7845.396532766469
6322 7844.253382268021
6323 7842.313017270818
6324 7841.093350603189
6325 7839.143541974794
6326 7837.972452710148
6327 7836.127370869586
6328 7835.075504976223
6329 7833.5054079675
6330 7832.526842043292
6331 7831.296904051826
6332 7830.625722642332
6333 7829.772124738106
6334 7829.446952797118
6335 7829.115696628695
6336 7829.033022966044
6337 7829.181814462402
6338 7829.382313081153
6339 7829.734268157802
6340 7830.10121987365
6341 7830.659884887341
6342 7831.268034209446
6343 7832.210832692643
6344 7832.897056534492
6345 7833.950233383232
6346 7834.817244815804
6347 7836.096656775131
6348 7836.930411846699
6349 7838.079563183393
6350 7838.935849713768
6351 7839.954240847263
6352 7840.780376701981
6353 7841.710689255332
6354 7842.279466257673
6355 7842.974352068452
6356 7843.192025483892
6357 7843.558409533097
6358 7843.728429279769
6359 7843.848628877139
6360 7843.827819984241
6361 7843.576446660206
6362 7843.388741663617
6363 7842.800432717209
6364 7842.263257418382
6365 7841.138980792782
6366 7840.31959109305
6367 7838.934077625619
6368 7837.677759325229
6369 7835.719784066418
6370 7833.803510289938
6371 7832.481475200053
6372 7830.329335969488
6373 7828.287173917874
6374 7826.108953695054
6375 7824.087947718318
6376 7822.135398230861
6377 7820.299392202372
6378 7818.553303602822
6379 7816.936492168764
6380 7815.505407093715
6381 7814.280792291665
6382 7813.359158954963
6383 7812.809983299837
6384 7812.466876336349
6385 7812.282512011006
6386 7812.219248456265
6387 7812.431965106864
6388 7812.673132300122
6389 7813.314431984899
6390 7813.984085117653
6391 7814.81805632621
6392 7815.620357626824
6393 7816.733664810969
6394 7818.108798209239
6395 7819.425254748874
6396 7820.775035121962
6397 7822.139937276723
6398 7823.413713617665
6399 7824.747776275944
6400 7825.818852159533
6401 7826.83686909984
6402 7827.727049676876
6403 7828.367875757807
6404 7828.918372459735
6405 7829.311490461915
6406 7829.551214361645
6407 7829.43082285019
6408 7829.088701701783
6409 7828.414695180214
6410 7827.564017283604
6411 7826.492320862227
6412 7825.254107537077
6413 7823.664963763565
6414 7821.73629013951
6415 7819.728013005432
6416 7817.26680970288
6417 7814.502580946291
6418 7811.635205906741
6419 7808.539386360912
6420 7805.459475213944
6421 7802.442931534864
6422 7799.447150758652
6423 7796.468153435264
6424 7793.522586816131
6425 7790.702524003272
6426 7788.147110058339
6427 7785.825487870228
6428 7783.777979956148
6429 7782.220370674279
6430 7781.069595028193
6431 7780.140766402205
6432 7779.67260303905
6433 7779.606493208384
6434 7779.785735396184
6435 7780.418047922869
6436 7781.478975140387
6437 7782.761316169447
6438 7784.575777646648
6439 7786.509596032844
6440 7788.742624691243
6441 7791.202089169615
6442 7793.874679680933
6443 7796.581885839671
6444 7799.534194550089
6445 7802.310592833215
6446 7805.201096965013
6447 7808.141839192133
6448 7810.761339315462
6449 7813.46771727416
6450 7816.007308484114
6451 7818.280175346197
6452 7820.338791883196
6453 7822.201768464201
6454 7823.881732153983
6455 7825.211119896501
6456 7826.27442013513
6457 7826.951476657559
6458 7827.269898770411
6459 7827.358129613083
6460 7827.127791540744
6461 7826.552875177718
6462 7825.627237190753
6463 7824.258044310524
6464 7822.484826305987
6465 7820.411618302052
6466 7817.784036131179
6467 7815.94267903166
6468 7812.850513816393
6469 7810.524831303678
6470 7806.905385656227
6471 7804.328165605039
6472 7800.319893983152
6473 7796.274980980929
6474 7793.428743225077
6475 7789.260231142097
6476 7785.14282605404
6477 7781.171012866165
6478 7777.373604975254
6479 7773.936495072328
6480 7770.704627836702
6481 7767.793254042363
6482 7765.11143488807
6483 7762.744240792146
6484 7760.709971335924
6485 7758.976752844545
6486 7757.510186387208
6487 7756.339650022269
6488 7755.491126843934
6489 7754.946766668485
6490 7754.747965881449
6491 7754.739963503054
6492 7754.809369541294
6493 7755.236020077828
6494 7755.574554094423
6495 7756.315009663602
6496 7756.860998215129
6497 7757.542084575499
6498 7758.600182591275
6499 7759.295771188448
6500 7760.202680084131
6501 7761.17034420769
6502 7762.665908745254
6503 7763.68785827598
6504 7764.719794935596
6505 7766.289751495018
6506 7767.416202518117
6507 7768.635489695328
6508 7770.464825167711
6509 7771.609024370496
6510 7772.773134976048
6511 7774.434128801962
6512 7775.58113342456
6513 7776.767352828168
6514 7778.692014504696
6515 7779.97585157825
6516 7782.01709829867
6517 7783.314711971522
6518 7785.338643584178
6519 7786.667969026775
6520 7788.700638322676
6521 7790.049457675223
6522 7792.066945102525
6523 7793.387721346575
6524 7795.297438456343
6525 7796.754459316755
6526 7798.863295037464
6527 7800.967936583083
6528 7802.3736341628
6529 7804.465563208193
6530 7806.442781040805
6531 7808.447404320442
6532 7810.43812531895
6533 7812.351586232307
6534 7814.244000008695
6535 7815.990847523665
6536 7817.584925574917
6537 7819.075812289961
6538 7820.579991386417
6539 7822.043171848934
6540 7823.366331051847
6541 7824.606327751461
6542 7825.799712874685
6543 7826.763346044694
6544 7827.591710016122
6545 7828.290461712216
6546 7828.945273208513
6547 7829.509936406855
6548 7830.016402572041
6549 7830.298611720139
6550 7830.873863000056
6551 7831.254488511555
6552 7831.587809597252
6553 7832.193023084511
6554 7832.665078592669
6555 7833.293358551448
6556 7834.085763265141
6557 7834.654130975828
6558 7835.629055441935
6559 7836.646423523945
6560 7837.848908671193
6561 7839.267136964708
6562 7840.76983126622
6563 7842.321841910049
6564 7843.994510830754
6565 7845.819985277212
6566 7847.749951428471
6567 7849.702422160976
6568 7851.686288083687
6569 7853.689156879295
6570 7855.902110322472
6571 7858.268823135683
6572 7860.617255032481
6573 7862.187415885747
6574 7864.718130603091
6575 7867.127988975678
6576 7868.713122373769
6577 7871.211835299363
6578 7873.530505386208
6579 7875.576563456488
6580 7877.581981261718
6581 7879.451925633653
6582 7881.104454076542
6583 7882.547101019901
6584 7883.811989150392
6585 7884.911416841145
6586 7885.855338675526
6587 7886.522428121883
6588 7887.012827862432
6589 7887.265090158178
6590 7887.372276339079
6591 7887.360419305838
6592 7887.323078179541
6593 7887.009754509829
6594 7886.521642797986
6595 7886.095108309838
6596 7885.440989268734
6597 7884.879137710134
6598 7883.967153228732
6599 7883.204430417477
6600 7882.105267212814
6601 7881.330215032096
6602 7880.588886306936
6603 7879.377865914573
6604 7878.631967377202
6605 7877.524698005191
6606 7876.879562769116
6607 7875.701186175041
6608 7874.667793201627
6609 7873.998093290975
6610 7873.119112234338
6611 7872.20895298802
6612 7871.438871292466
6613 7870.713911894472
6614 7870.128735005636
6615 7869.591409188456
6616 7869.084676720267
6617 7868.616976296047
6618 7868.212867071069
6619 7868.061697984042
6620 7867.883805011375
6621 7867.719909281098
6622 7867.689584828615
6623 7867.601877487568
6624 7867.600075649963
6625 7867.589138326079
6626 7867.597472301812
6627 7867.665358689344
6628 7867.816115532786
6629 7867.908325935012
6630 7867.969670915158
6631 7868.021171077219
6632 7868.224073452056
6633 7868.315688588601
6634 7868.345746766562
6635 7868.432204037726
6636 7868.675064225587
6637 7868.776686445081
6638 7868.890075698802
6639 7869.018784739093
6640 7869.114049326887
6641 7869.2760914261
6642 7869.441968120894
6643 7869.497870095971
6644 7869.55461217537
6645 7869.683055075578
6646 7869.835119351657
6647 7869.958710927666
6648 7870.105122940125
6649 7870.286347611706
6650 7870.487475388772
6651 7870.68547800082
6652 7870.931056501433
6653 7871.232147374682
6654 7871.66382948956
6655 7871.859384367345
6656 7872.152938230593
6657 7872.463580410102
6658 7872.686090221699
6659 7872.908705438892
6660 7873.148411527592
6661 7873.306570327488
6662 7873.562340363979
6663 7873.658736109377
6664 7873.731612019153
6665 7873.772609890629
6666 7873.783303391031
6667 7873.704705971313
6668 7873.596668370432
6669 7873.533481084923
6670 7873.284261291516
6671 7873.090190308508
6672 7872.828866174507
6673 7872.689691989005
6674 7872.390495593415
6675 7872.101600625408
6676 7871.606132941366
6677 7871.288715417384
6678 7870.728662830743
6679 7870.400329231008
6680 7869.897726033211
6681 7869.562265978688
6682 7869.010101788753
6683 7868.573923690926
6684 7868.056882925431
6685 7867.636693670261
6686 7867.109145664929
6687 7866.67533657351
6688 7866.028135528553
6689 7865.595980360175
6690 7864.940511407176
6691 7864.243814193564
6692 7863.747698030817
6693 7862.992652041717
6694 7862.51598666678
6695 7861.728437577863
6696 7861.205048640322
6697 7860.208064883624
6698 7859.554361589856
6699 7858.472368377588
6700 7857.774700761228
6701 7856.543644495233
6702 7855.726082568149
6703 7854.518955710259
6704 7853.662369322516
6705 7852.159776019347
6706 7850.659543163131
6707 7849.600753950928
6708 7848.012398601374
6709 7846.785953115506
6710 7844.920913487629
6711 7843.025960648308
6712 7841.748085400637
6713 7839.806533041824
6714 7838.454846410955
6715 7836.415753626957
6716 7835.073566473009
6717 7832.900336124789
6718 7831.53278971103
6719 7829.386809840104
6720 7827.993047382955
6721 7825.932526836441
6722 7824.534953787146
6723 7822.582889066282
6724 7821.281216814756
6725 7819.961935683506
6726 7818.148589577006
6727 7817.021750871512
6728 7815.91997289422
6729 7814.928050349339
6730 7813.976194437867
6731 7813.082076858527
6732 7812.246586056108
6733 7811.490105428825
6734 7810.766078794304
6735 7810.06046422884
6736 7809.515199180083
6737 7808.985481248095
6738 7808.551490233671
6739 7808.136075190228
6740 7807.766633157371
6741 7807.480037720286
6742 7807.209889985985
6743 7807.008992895045
6744 7806.897930110184
6745 7806.720850636054
6746 7806.612809634636
6747 7806.538198744633
6748 7806.454832290102
6749 7806.326426725666
6750 7806.133608914407
6751 7805.988318403545
6752 7805.787363025206
6753 7805.527999180551
6754 7805.212914042972
6755 7804.839159274355
6756 7804.405054373832
6757 7803.871039302155
6758 7802.941430899082
6759 7802.239948363747
6760 7801.518742856285
6761 7800.268233904381
6762 7799.192303036622
6763 7797.334304706976
6764 7796.071231785619
6765 7794.039033810322
6766 7792.542109083976
6767 7790.114484966599
6768 7787.641078071932
6769 7785.920034674043
6770 7783.12184185299
6771 7780.299948554444
6772 7777.578721094074
6773 7774.931320784667
6774 7772.254404361524
6775 7769.589691042719
6776 7766.99489542596
6777 7764.491118136544
6778 7762.110488695233
6779 7759.91834558882
6780 7757.875379436546
6781 7755.957265702786
6782 7754.28846552901
6783 7752.758947484099
6784 7751.456984318692
6785 7750.346193648528
6786 7749.592165138658
6787 7748.988354992702
6788 7748.69478146132
6789 7748.638645400253
6790 7748.908754692333
6791 7749.434390414103
6792 7750.12336682054
6793 7750.84496374474
6794 7752.054823990275
6795 7753.504187622707
6796 7754.648094280995
6797 7756.591459210991
6798 7758.050011034412
6799 7760.357126087266
6800 7762.070295993868
6801 7764.696692876187
6802 7766.571425473548
6803 7769.481386027078
6804 7772.459786553052
6805 7774.408790208285
6806 7777.436093156988
6807 7780.480413623295
6808 7783.475658448025
6809 7786.442994881714
6810 7789.336248855757
6811 7792.169290093519
6812 7794.916102005317
6813 7797.250286627257
6814 7799.593695966557
6815 7801.716677427636
6816 7803.757362248608
6817 7805.715220826813
6818 7807.525056175778
6819 7809.086678675606
6820 7810.556564733046
6821 7811.804405967894
6822 7813.06442257393
6823 7814.042668485229
6824 7814.872819667772
6825 7815.409926903028
6826 7816.00415840048
6827 7816.310060714683
6828 7816.399842484589
6829 7816.219517801519
6830 7816.011315710331
6831 7815.599065425625
6832 7815.183459289465
6833 7814.41382084313
6834 7813.789690418603
6835 7812.729983957088
6836 7811.935289921458
6837 7810.708085487661
6838 7809.694870629625
6839 7808.214066846257
6840 7807.218313309028
6841 7805.439654418067
6842 7804.214645887676
6843 7802.373333849008
6844 7801.143644579825
6845 7799.172352536941
6846 7797.819096285929
6847 7795.658821252052
6848 7794.2718725986
6849 7792.139450938915
6850 7790.146078027969
6851 7788.690694378639
6852 7786.51184523643
6853 7784.333217421667
6854 7782.381845280537
6855 7780.533320490766
6856 7778.728654600232
6857 7776.907522789997
6858 7775.128729217264
6859 7773.575290343466
6860 7772.263934810784
6861 7771.062140777855
6862 7770.181326633996
6863 7769.422991101997
6864 7769.046451028677
6865 7768.875841819104
6866 7768.763377896745
6867 7768.874906109791
6868 7769.062845162886
6869 7769.559901426343
6870 7770.245832150373
6871 7771.134335025225
6872 7772.093197749879
6873 7773.180974103186
6874 7773.97091301821
6875 7775.459167136894
6876 7776.565533108327
6877 7778.328842120265
6878 7779.70573797582
6879 7781.864874863961
6880 7783.493460054136
6881 7785.737219823995
6882 7787.450450560405
6883 7790.091464486279
6884 7792.727083061795
6885 7794.544282981464
6886 7797.472860125513
6887 7800.41164212293
6888 7803.049173738937
6889 7806.032266029224
6890 7809.039028572297
6891 7812.026907505591
6892 7814.916837415491
6893 7817.724201220656
6894 7820.91235767581
6895 7823.863998471709
6896 7826.633570914943
6897 7829.618071121304
6898 7832.434937381079
6899 7834.187877360547
6900 7836.777920851661
6901 7839.420405757191
6902 7841.142749047885
6903 7843.611100848277
6904 7846.035198107824
6905 7847.630372036356
6906 7849.90355859776
6907 7851.436518777683
6908 7853.517367306981
6909 7854.902994045306
6910 7856.680622630941
6911 7857.750052584678
6912 7859.203868964878
6913 7860.057051241738
6914 7861.13003567287
6915 7861.667082003459
6916 7862.127804939437
6917 7862.61938090667
6918 7862.835526620727
6919 7862.860528449594
6920 7862.786614441377
6921 7862.573973052984
6922 7862.254416853178
6923 7861.810897314809
6924 7861.268484528508
6925 7860.608718195103
6926 7859.79628549868
6927 7858.940243530806
6928 7858.004423396053
6929 7856.905541893271
6930 7855.720387606754
6931 7853.930814390936
6932 7852.706972403905
6933 7851.392899330599
6934 7849.608138795682
6935 7848.40458219962
6936 7846.655515061584
6937 7845.613331053071
6938 7844.175299834795
6939 7843.257164194973
6940 7842.154424564409
6941 7841.466975093173
6942 7840.549545385641
6943 7840.035736022707
6944 7839.705177666154
6945 7839.509347279461
6946 7839.619986040095
6947 7840.064606249447
6948 7840.681706941582
6949 7841.657157091342
6950 7842.482484531803
6951 7843.731434400826
6952 7845.093220376166
6953 7846.657172888865
6954 7847.827360134355
6955 7849.737937950428
6956 7851.780817599214
6957 7853.121468451353
6958 7855.0120488394
6959 7857.000739977473
6960 7859.033209757746
6961 7861.098743550241
6962 7862.899072055527
6963 7864.618900035156
6964 7865.80586866502
6965 7866.900643411999
6966 7867.746728978699
6967 7868.314677193547
6968 7868.347120441607
6969 7867.911987756121
6970 7867.353655865942
6971 7866.17485862378
6972 7864.809507033514
6973 7863.174570467044
6974 7860.952606731876
6975 7858.31480794554
6976 7855.286479042909
6977 7851.924410775113
6978 7848.351529688257
6979 7844.731571942633
6980 7840.830461310133
6981 7836.856093247098
6982 7832.937223808507
6983 7828.845380160721
6984 7824.958652690131
