"mx-rfile"
"Iteration" "mx"
("Iteration" "mx")
3639 -5292.794668915276
3640 -5343.896284921843
3641 -5416.07274072708
3642 -5572.053745483776
3643 -5731.46932952992
3644 -5913.664372838834
3645 -6082.887763968011
3646 -6250.182824168183
3647 -6399.078459376394
3648 -6527.022436740968
3649 -6649.856545397502
3650 -6734.513764098455
3651 -6785.322187597195
3652 -6795.078731460424
3653 -6783.650317314949
3654 -6759.372592231016
3655 -6732.055784426047
3656 -6702.53329266895
3657 -6681.74090293518
3658 -6667.190474951578
3659 -6662.817038680091
3660 -6669.799187772135
3661 -6686.014962921221
3662 -6723.463746947927
3663 -6762.698183369057
3664 -6831.654329737814
3665 -6893.764414369148
3666 -6965.217155302778
3667 -7046.433440553605
3668 -7135.724850526301
3669 -7231.658820363484
3670 -7363.819273881583
3671 -7464.223313256556
3672 -7597.240968923526
3673 -7694.401992756515
3674 -7787.956190395967
3675 -7878.773029108238
3676 -7965.687905780416
3677 -8047.217561033412
3678 -8124.040882037521
3679 -8192.818585333873
3680 -8256.162844544375
3681 -8313.88763296196
3682 -8363.891049529044
3683 -8406.297346097275
3684 -8442.460688174064
3685 -8471.206679805842
3686 -8494.698566392415
3687 -8512.091508180996
3688 -8520.309408035635
3689 -8527.423411791346
3690 -8530.255500695584
3691 -8530.155843094579
3692 -8527.622013496106
3693 -8521.38121950498
3694 -8515.393350890612
3695 -8503.648883160629
3696 -8495.0729496483
3697 -8484.567776599411
3698 -8468.108627304076
3699 -8456.638108299161
3700 -8444.343733482101
3701 -8431.182477835935
3702 -8412.375874712123
3703 -8399.374407697656
3704 -8386.841453563722
3705 -8367.828956806397
3706 -8355.870075510509
3707 -8343.856326168896
3708 -8327.099552754025
3709 -8316.671435500219
3710 -8303.162036663138
3711 -8295.149930650558
3712 -8285.516526262965
3713 -8279.747191532215
3714 -8273.063180273966
3715 -8269.452394392281
3716 -8265.568355733096
3717 -8263.491487225636
3718 -8263.38157599718
3719 -8264.149861499769
3720 -8266.79903730104
3721 -8270.494493743639
3722 -8275.401907166091
3723 -8281.158258268841
3724 -8287.676109845746
3725 -8294.638215851282
3726 -8301.773927041577
3727 -8309.319129375253
3728 -8317.622880366223
3729 -8325.422977975113
3730 -8335.182702012893
3731 -8344.766093970164
3732 -8353.73137817681
3733 -8364.355198280087
3734 -8374.44746341457
3735 -8381.989914176414
3736 -8393.108329618546
3737 -8400.382974673928
3738 -8410.74735847601
3739 -8421.537119277989
3740 -8429.380232335583
3741 -8438.34170609693
3742 -8450.229279486981
3743 -8459.904628690592
3744 -8471.473183090302
3745 -8479.318116229191
3746 -8488.210464921578
3747 -8496.264499621548
3748 -8502.941971037999
3749 -8508.767702259402
3750 -8515.432362439145
3751 -8518.176613516331
3752 -8519.090852057527
3753 -8519.384817273909
3754 -8517.937953439776
3755 -8512.332953705618
3756 -8504.415898234867
3757 -8497.557993196808
3758 -8484.650565458061
3759 -8466.423507139451
3760 -8450.873275740501
3761 -8429.726687057755
3762 -8398.048826426468
3763 -8369.162151939818
3764 -8330.388291550446
3765 -8293.469763484492
3766 -8245.667176218085
3767 -8204.280316464023
3768 -8156.397811035479
3769 -8090.646183012326
3770 -8036.330968949696
3771 -7963.219066488789
3772 -7901.015402289298
3773 -7835.460322615314
3774 -7750.712771818359
3775 -7678.228434727122
3776 -7605.125442633751
3777 -7525.804219466077
3778 -7446.428557517903
3779 -7364.861067752791
3780 -7283.956224706756
3781 -7202.213413596717
3782 -7120.446533657608
3783 -7042.522681304524
3784 -6965.90675503331
3785 -6892.130157893725
3786 -6822.137734495014
3787 -6754.485032526582
3788 -6692.178647108814
3789 -6634.895591215555
3790 -6583.056081976099
3791 -6537.759611307039
3792 -6497.363031784786
3793 -6463.419931042547
3794 -6436.12683476523
3795 -6412.999892655027
3796 -6397.014660684089
3797 -6386.615129008681
3798 -6382.754919972941
3799 -6383.2519505087
3800 -6387.557166948035
3801 -6395.774754644543
3802 -6406.619382282737
3803 -6419.037337408443
3804 -6436.557803758134
3805 -6456.48339848539
3806 -6478.957968820158
3807 -6504.90646026995
3808 -6533.36345957015
3809 -6563.049697275626
3810 -6595.041908022433
3811 -6629.851928294785
3812 -6665.805746921127
3813 -6702.41043035454
3814 -6739.744754708512
3815 -6779.14997408653
3816 -6817.753508372708
3817 -6854.914732185712
3818 -6892.09851010107
3819 -6929.249786176555
3820 -6964.906247976479
3821 -6999.112892225852
3822 -7031.326077089673
3823 -7062.549970372511
3824 -7091.543493723801
3825 -7118.394717403411
3826 -7142.845338315219
3827 -7164.783896351571
3828 -7184.017757217192
3829 -7200.549385144941
3830 -7214.233938287306
3831 -7224.844077791972
3832 -7232.73584242154
3833 -7238.103259311767
3834 -7240.593372555893
3835 -7240.876088540554
3836 -7238.628716156475
3837 -7235.213179189952
3838 -7227.969568568397
3839 -7221.190486761133
3840 -7208.642404066216
3841 -7199.644307119659
3842 -7184.403291630316
3843 -7173.794058299512
3844 -7156.751329820534
3845 -7144.996327140562
3846 -7126.54628973255
3847 -7108.559822711993
3848 -7091.394380227443
3849 -7073.876651119174
3850 -7058.02311866602
3851 -7042.743712930444
3852 -7028.631452977847
3853 -7015.41146154016
3854 -7003.536369734255
3855 -6992.828039838549
3856 -6982.812756681599
3857 -6977.187530538109
3858 -6969.402467251106
3859 -6962.038337508645
3860 -6955.947953279745
3861 -6952.04750345344
3862 -6947.371527321032
3863 -6944.1919108247
3864 -6940.369973189548
3865 -6937.706763227387
3866 -6934.754215094844
3867 -6932.591147371554
3868 -6931.272005807213
3869 -6929.884351740878
3870 -6928.973427796815
3871 -6929.006234173977
3872 -6929.781605095307
3873 -6930.19504159122
3874 -6931.683555987815
3875 -6933.265446368678
3876 -6936.284145473845
3877 -6938.980165705531
3878 -6944.453291022945
3879 -6948.803042239812
3880 -6956.066272422741
3881 -6964.365494744849
3882 -6970.824374696894
3883 -6982.313130401171
3884 -6994.792616624832
3885 -7008.347270273219
3886 -7022.641078803422
3887 -7037.479622580634
3888 -7054.141621445414
3889 -7071.854108374745
3890 -7090.476072911536
3891 -7109.582763311089
3892 -7128.96833366034
3893 -7149.045927470259
3894 -7168.387339212909
3895 -7187.468796826218
3896 -7206.788098468288
3897 -7225.588497611466
3898 -7244.700496361246
3899 -7263.09534631871
3900 -7281.531199721053
3901 -7298.96838316534
3902 -7315.139943728007
3903 -7330.586094019053
3904 -7344.853880964351
3905 -7358.126383910444
3906 -7369.740751533353
3907 -7380.271880440027
3908 -7389.06386552846
3909 -7396.232126466061
3910 -7402.086206806479
3911 -7405.861955346139
3912 -7407.703891172076
3913 -7407.899311294645
3914 -7407.113351450708
3915 -7403.725358151516
3916 -7398.88396403243
3917 -7392.145301858562
3918 -7383.192051018663
3919 -7376.187735240829
3920 -7363.757170919739
3921 -7354.297391445251
3922 -7337.640660441602
3923 -7319.610974709825
3924 -7306.18848075543
3925 -7284.026951775536
3926 -7260.818555211867
3927 -7235.959215833732
3928 -7210.122610606036
3929 -7183.185193935861
3930 -7154.923209484535
3931 -7125.780609754136
3932 -7096.775447541811
3933 -7066.780530586375
3934 -7036.688844718917
3935 -7005.614485416198
3936 -6974.260699222113
3937 -6942.554152098645
3938 -6911.204682867373
3939 -6869.703036737121
3940 -6840.118077546845
3941 -6810.535657561394
3942 -6771.647019441588
3943 -6744.143406332855
3944 -6717.817595688874
3945 -6682.916405684776
3946 -6658.222034530292
3947 -6634.229437352234
3948 -6612.127702338811
3949 -6589.826632406216
3950 -6568.915551549084
3951 -6548.837591994436
3952 -6529.843111854801
3953 -6511.339640759784
3954 -6494.183817583097
3955 -6477.595664893004
3956 -6462.213597628754
3957 -6447.892761638751
3958 -6435.438122301776
3959 -6424.406319967862
3960 -6414.22230463832
3961 -6405.440477258786
3962 -6397.823168957427
3963 -6391.870626910585
3964 -6387.462245678698
3965 -6384.398171412557
3966 -6383.069365745974
3967 -6381.948872636006
3968 -6382.562863432267
3969 -6384.856306248449
3970 -6386.596246664809
3971 -6389.715303265489
3972 -6392.464691547287
3973 -6396.295273796552
3974 -6399.922540597155
3975 -6403.531036055009
3976 -6409.714222320869
3977 -6413.638811969778
3978 -6417.713564512357
3979 -6424.159915952305
3980 -6428.395058585545
3981 -6433.237677872306
3982 -6440.082480337039
3983 -6444.466229768411
3984 -6448.753033170637
3985 -6454.550186542429
3986 -6458.69273317648
3987 -6463.617107484392
3988 -6466.827224124764
3989 -6469.696993942469
3990 -6472.141550699377
3991 -6475.857958096976
3992 -6477.706711696944
3993 -6479.075300746183
3994 -6480.579993836352
3995 -6481.462045070274
3996 -6481.953587434542
3997 -6481.421203850672
3998 -6480.676487978109
3999 -6479.129168537315
4000 -6477.200937900907
4001 -6474.192514847788
4002 -6471.181950614016
4003 -6467.549184944846
4004 -6463.098890458144
4005 -6458.523631798654
4006 -6453.322146602335
4007 -6447.648058703193
4008 -6441.574070194004
4009 -6434.990552959362
4010 -6428.013304368865
4011 -6421.089209954106
4012 -6414.344399382524
4013 -6407.546694379937
4014 -6400.483884717692
4015 -6392.947021113359
4016 -6386.247537857931
4017 -6379.081455799178
4018 -6372.136890911685
4019 -6365.408129710078
4020 -6359.38838700082
4021 -6352.782929299804
4022 -6343.75323702242
4023 -6338.054822895429
4024 -6332.969153724889
4025 -6328.070708642974
4026 -6323.668803682433
4027 -6317.805658304536
4028 -6314.813378512862
4029 -6312.156177383895
4030 -6309.893405264488
4031 -6306.684346640259
4032 -6305.480997639019
4033 -6304.381091564073
4034 -6304.148684942714
4035 -6304.060238637023
4036 -6304.977028341059
4037 -6306.39685598697
4038 -6308.183417747185
4039 -6310.061523159605
4040 -6313.824854684739
4041 -6316.845073753758
4042 -6320.455091772389
4043 -6326.465515054267
4044 -6331.004776356988
4045 -6335.683977339338
4046 -6343.927180221705
4047 -6349.514826785165
4048 -6355.933294233463
4049 -6365.207202340665
4050 -6372.021972651683
4051 -6382.31686681975
4052 -6389.789395814665
4053 -6400.920813468218
4054 -6408.609577178833
4055 -6420.263523302727
4056 -6428.620304386316
4057 -6440.640239931964
4058 -6449.047928863039
4059 -6461.608619466018
4060 -6470.539573314717
4061 -6483.60710571917
4062 -6492.188442847914
4063 -6504.927101183355
4064 -6513.337771316073
4065 -6525.765448705743
4066 -6538.246821873016
4067 -6545.883872881155
4068 -6557.490821790446
4069 -6564.700175248124
4070 -6575.777414514423
4071 -6582.815701746066
4072 -6593.313409146665
4073 -6599.784029729693
4074 -6609.452011508542
4075 -6615.500130167131
4076 -6624.103005770006
4077 -6629.268566343966
4078 -6636.807464398114
4079 -6641.22537807864
4080 -6645.56966983131
4081 -6651.741573349675
4082 -6655.527798822634
4083 -6658.590348645756
4084 -6661.410865559646
4085 -6663.708247959581
4086 -6665.950111229754
4087 -6667.70992024982
4088 -6669.224759151643
4089 -6670.699831600016
4090 -6671.716993884374
4091 -6672.101274041783
4092 -6672.471298062545
4093 -6672.103406617429
4094 -6671.555349414274
4095 -6670.442122250131
4096 -6669.442003537477
4097 -6667.782556572422
4098 -6665.945234459384
4099 -6663.581135753654
4100 -6661.127518328261
4101 -6658.025579281961
4102 -6655.078358562827
4103 -6651.556661581521
4104 -6648.278014904206
4105 -6644.460275194076
4106 -6640.643777481938
4107 -6635.084722621417
4108 -6631.503496035253
4109 -6627.520769311619
4110 -6623.802822394673
4111 -6618.164072007862
4112 -6614.357475945216
4113 -6610.63120903355
4114 -6605.260837824891
4115 -6601.758551127487
4116 -6598.298716862721
4117 -6594.599662404452
4118 -6589.695808604299
4119 -6586.674118081355
4120 -6583.782045827841
4121 -6581.016109983138
4122 -6577.494547788991
4123 -6575.036832407123
4124 -6572.801644864153
4125 -6570.351179336549
4126 -6568.191693583109
4127 -6566.129671542103
4128 -6564.307070929057
4129 -6562.543112699036
4130 -6560.831444477299
4131 -6559.287727661555
4132 -6557.974911742395
4133 -6556.673508351387
4134 -6555.487409818762
4135 -6554.21908480838
4136 -6553.190293173219
4137 -6552.233984654447
4138 -6551.417679156185
4139 -6550.477850797083
4140 -6549.843925707206
4141 -6549.027583905706
4142 -6548.338647011481
4143 -6547.698885442044
4144 -6547.129453292973
4145 -6546.750921726062
4146 -6546.430101697307
4147 -6545.755399490899
4148 -6545.368603990363
4149 -6544.74644278188
4150 -6544.344828086761
4151 -6543.784809764115
4152 -6543.074456631532
4153 -6542.353059924356
4154 -6541.74242360667
4155 -6540.707447071485
4156 -6539.828909051562
4157 -6538.80087540887
4158 -6537.590974708291
4159 -6536.267656300515
4160 -6534.73570239425
4161 -6532.899725123287
4162 -6531.143011960572
4163 -6528.801816668763
4164 -6526.458006436296
4165 -6523.476220009825
4166 -6520.294934511656
4167 -6516.787267236498
4168 -6513.001055067725
4169 -6508.8645112124
4170 -6504.826615212828
4171 -6500.147938757304
4172 -6495.405366379694
4173 -6490.406479152294
4174 -6485.179764471902
4175 -6479.686764687957
4176 -6474.021643822942
4177 -6467.994484283153
4178 -6461.91083828418
4179 -6455.461203054694
4180 -6448.911793141016
4181 -6442.074556457847
4182 -6435.30620040637
4183 -6428.004860265331
4184 -6420.847222474064
4185 -6413.401867294019
4186 -6406.368203798831
4187 -6395.388522647124
4188 -6388.094238053244
4189 -6380.839503419266
4190 -6373.736709888156
4191 -6363.172279015561
4192 -6356.191662456214
4193 -6349.32545490944
4194 -6342.674391710038
4195 -6333.213898722982
4196 -6327.260474471551
4197 -6321.220072113282
4198 -6312.724277254978
4199 -6307.037630152749
4200 -6301.795593366181
4201 -6293.901470291788
4202 -6289.197515647807
4203 -6284.604603436695
4204 -6280.328213858663
4205 -6274.052414739816
4206 -6270.336306438766
4207 -6266.474286708137
4208 -6262.8348628675
4209 -6259.356114477807
4210 -6256.250549153942
4211 -6251.5625405293
4212 -6248.694096447961
4213 -6246.14099102644
4214 -6243.744367567999
4215 -6241.425127899822
4216 -6239.361134825625
4217 -6237.33580906154
4218 -6235.63105309804
4219 -6234.031366316351
4220 -6232.833664946239
4221 -6231.717868615744
4222 -6231.036549315638
4223 -6230.442499009234
4224 -6230.226343055854
4225 -6230.309524562194
4226 -6230.520947286378
4227 -6231.009950120862
4228 -6231.850054633722
4229 -6232.72639894461
4230 -6233.983513991044
4231 -6235.397750314427
4232 -6237.315709478255
4233 -6239.305071035699
4234 -6241.596081754012
4235 -6243.939612297672
4236 -6246.572261587145
4237 -6249.211115695257
4238 -6252.094715127506
4239 -6255.194467828116
4240 -6260.007324356294
4241 -6263.202853409076
4242 -6266.487816246685
4243 -6271.291840178314
4244 -6274.619179107065
4245 -6277.863094685687
4246 -6282.927859202477
4247 -6286.142880564027
4248 -6290.783949207227
4249 -6293.916190608304
4250 -6298.219075217402
4251 -6300.855036008023
4252 -6303.5504661162
4253 -6307.18705898743
4254 -6309.356213969107
4255 -6312.387339485047
4256 -6314.418803523898
4257 -6316.372014657457
4258 -6318.945287683955
4259 -6320.347974665737
4260 -6321.689486912522
4261 -6323.393651880635
4262 -6324.435018277884
4263 -6325.345996810804
4264 -6326.278898347588
4265 -6326.717116536485
4266 -6327.319842221624
4267 -6327.33792057436
4268 -6327.446037485057
4269 -6327.309482397437
4270 -6327.283740721306
4271 -6327.029495525982
4272 -6326.804839313447
4273 -6326.32300250153
4274 -6325.479853648621
4275 -6325.054746908264
4276 -6324.550940100388
4277 -6323.901752850575
4278 -6323.321140382348
4279 -6322.700563240019
4280 -6322.306334349174
4281 -6321.697653010015
4282 -6321.26809789072
4283 -6320.755692578789
4284 -6320.170906568035
4285 -6319.679900156806
4286 -6319.081235432025
4287 -6318.559475956931
4288 -6318.022602144998
4289 -6317.325503520744
4290 -6316.8232068775
4291 -6316.383516361778
4292 -6315.986920038304
4293 -6315.609278707098
4294 -6315.424160760095
4295 -6315.116583820361
4296 -6314.925764955232
4297 -6314.415056547125
4298 -6314.09286853805
4299 -6313.81521112507
4300 -6313.408196437335
4301 -6313.162651211729
4302 -6312.739343658086
4303 -6312.363581159795
4304 -6311.99918250581
4305 -6311.569944744934
4306 -6311.442425396696
4307 -6311.03891630981
4308 -6310.680438673576
4309 -6310.149877609842
4310 -6309.96083288004
4311 -6309.508353378747
4312 -6309.506622496391
4313 -6309.368659979445
4314 -6309.12012281136
4315 -6308.795000183751
4316 -6308.578310259659
4317 -6308.273156658018
4318 -6308.07797579083
4319 -6307.613615192293
4320 -6307.345993029968
4321 -6307.111641692587
4322 -6306.909498011279
4323 -6306.442923511084
4324 -6306.124205471236
4325 -6305.619360238943
4326 -6305.448184529235
4327 -6305.022992671111
4328 -6304.791089817295
4329 -6304.567810665105
4330 -6304.310645048619
4331 -6304.221693172197
4332 -6304.380720175111
4333 -6304.034458345559
4334 -6303.904698158988
4335 -6303.839464758291
4336 -6303.450381160271
4337 -6303.255126043432
4338 -6303.177555649416
4339 -6303.082131843109
4340 -6303.048505852631
4341 -6302.771900487746
4342 -6302.92367856115
4343 -6302.864844296097
4344 -6302.860971889771
4345 -6302.532190300418
4346 -6302.43786126978
4347 -6302.19999804045
4348 -6301.905057219583
4349 -6301.309603179677
4350 -6300.933685479834
4351 -6300.568598908214
4352 -6299.948561530036
4353 -6299.157611431909
4354 -6298.19037024912
4355 -6297.458148546303
4356 -6296.543386245287
4357 -6294.617716133102
4358 -6293.604617308006
4359 -6292.254393290036
4360 -6290.774483013604
4361 -6287.975061987036
4362 -6286.046226769429
4363 -6283.872292343849
4364 -6280.539625735961
4365 -6278.151567048078
4366 -6275.421733085858
4367 -6271.358795277172
4368 -6268.702142546186
4369 -6265.751862038416
4370 -6261.37399368413
4371 -6258.4796616239
4372 -6254.273347668422
4373 -6251.388728642642
4374 -6247.1353070457
4375 -6244.102476424226
4376 -6239.650948272712
4377 -6236.849700841684
4378 -6232.849856525555
4379 -6230.108831645474
4380 -6225.966297384664
4381 -6223.422169284891
4382 -6219.735628687066
4383 -6217.086868236885
4384 -6213.551605356217
4385 -6211.208924800024
4386 -6208.180233481578
4387 -6206.146523406454
4388 -6203.113161985931
4389 -6201.118086077986
4390 -6198.535584603306
4391 -6196.561196026817
4392 -6193.837235522666
4393 -6192.10051988173
4394 -6189.489451647129
4395 -6187.783439984594
4396 -6186.208461864034
4397 -6183.57139712626
4398 -6182.100029092296
4399 -6180.195414025552
4400 -6177.77927655658
4401 -6176.181496044914
4402 -6174.820781292839
4403 -6173.14520396996
4404 -6171.713805411378
4405 -6170.173964839518
4406 -6168.708682385523
4407 -6167.155636332343
4408 -6165.892572321067
4409 -6164.345232884304
4410 -6163.10950283359
4411 -6161.785852827268
4412 -6160.536662889323
4413 -6159.377197849286
4414 -6158.278582348078
4415 -6157.116652061527
4416 -6156.202274949917
4417 -6155.027367302591
4418 -6154.293979055728
4419 -6153.509767739599
4420 -6152.796874573449
4421 -6152.394440735276
4422 -6151.917358697358
4423 -6151.483265105685
4424 -6151.384825521911
4425 -6151.434076569882
4426 -6151.694799313193
4427 -6152.011866346148
4428 -6152.491151868827
4429 -6153.120731728964
4430 -6153.9069894995
4431 -6154.689202307228
4432 -6155.828178027979
4433 -6156.727761137758
4434 -6157.721833101984
4435 -6158.760850351243
4436 -6160.159016556663
4437 -6161.13952610471
4438 -6162.236579977884
4439 -6163.480068882215
4440 -6164.262519929993
4441 -6165.20227182473
4442 -6165.966204073119
4443 -6166.767865592647
4444 -6167.428600025141
4445 -6167.967159297889
4446 -6168.615294806564
4447 -6168.906941481389
4448 -6169.655287892591
4449 -6169.735794497667
4450 -6170.060761594455
4451 -6170.193635662215
4452 -6170.233907870178
4453 -6169.997353886415
4454 -6169.484973522978
4455 -6168.944046719508
4456 -6168.372728395196
4457 -6167.73051049366
4458 -6167.12698683184
4459 -6166.545190702367
4460 -6165.841244155739
4461 -6164.901961226192
4462 -6164.085803938789
4463 -6162.572068927073
4464 -6161.610340573545
4465 -6160.364643230667
4466 -6159.565844616731
4467 -6158.617939459398
4468 -6157.280917373128
4469 -6156.393271325577
4470 -6155.522921259097
4471 -6154.422834534882
4472 -6153.397803173003
4473 -6152.724682212286
4474 -6151.987269205454
4475 -6151.168392473649
4476 -6150.532535762518
4477 -6149.698534967606
4478 -6149.335360775216
4479 -6148.714955478405
4480 -6148.043565095541
4481 -6147.356097202959
4482 -6147.077599304886
4483 -6146.448487814147
4484 -6145.976249178987
4485 -6145.604379949547
4486 -6145.575337500352
4487 -6145.259861184452
4488 -6144.873443892867
4489 -6144.258031942689
4490 -6143.917332212157
4491 -6143.511964690948
4492 -6143.215069211649
4493 -6142.827333031057
4494 -6142.627587538792
4495 -6142.292302689861
4496 -6141.589255604667
4497 -6141.058847534983
4498 -6140.747695132358
4499 -6140.154379539151
4500 -6139.590770507858
4501 -6138.981423534607
4502 -6138.469585758873
4503 -6137.91865284479
4504 -6137.075060578165
4505 -6136.347581813784
4506 -6135.771034627699
4507 -6134.986197640907
4508 -6134.162729961777
4509 -6133.487046848368
4510 -6133.129140772703
4511 -6132.510295468283
4512 -6131.931439673453
4513 -6131.783071407695
4514 -6131.527649896857
4515 -6131.466195105342
4516 -6131.337988328495
4517 -6131.249663121853
4518 -6131.346113050496
4519 -6131.621253162836
4520 -6132.325270968206
4521 -6132.406853053357
4522 -6132.61374994685
4523 -6133.027673808001
4524 -6133.489123252632
4525 -6134.274774011808
4526 -6134.774537058782
4527 -6135.345227363561
4528 -6135.815799717432
4529 -6136.690697769238
4530 -6137.33307853283
4531 -6137.811663101969
4532 -6138.641877593555
4533 -6139.857282495265
4534 -6140.663215826723
4535 -6141.414239937238
4536 -6142.694414543153
4537 -6143.527428616999
4538 -6144.12838652417
4539 -6145.195444850855
4540 -6145.987242147566
4541 -6146.717322770302
4542 -6147.179041003317
4543 -6147.809314932937
4544 -6148.273015735606
4545 -6148.42314425127
4546 -6148.648496534437
4547 -6148.861066991974
4548 -6148.603827646002
4549 -6147.87661626269
4550 -6147.558562243536
4551 -6147.078399315943
4552 -6146.002873436009
4553 -6145.184392744381
4554 -6144.316057488756
4555 -6142.704403077064
4556 -6141.658098314106
4557 -6140.13912233569
4558 -6138.168097544249
4559 -6136.763631019692
4560 -6135.385569611287
4561 -6132.932598483148
4562 -6131.575921279716
4563 -6129.992483663744
4564 -6127.767694853305
4565 -6125.912309552179
4566 -6124.27280363638
4567 -6121.586850618055
4568 -6120.04106492077
4569 -6117.158382922736
4570 -6115.652342908143
4571 -6113.202489764822
4572 -6111.578525098841
4573 -6109.766525204833
4574 -6107.194052502795
4575 -6105.509271528022
4576 -6103.17060062822
4577 -6101.663960859411
4578 -6100.343805042901
4579 -6098.156104386909
4580 -6096.961342380302
4581 -6095.628310340744
4582 -6093.690903416509
4583 -6092.445719686444
4584 -6091.482258253387
4585 -6090.18937074069
4586 -6089.222735851345
4587 -6087.928911817046
4588 -6086.896733883578
4589 -6085.678539151397
4590 -6084.861467032823
4591 -6083.227683378156
4592 -6082.251067776784
4593 -6081.10052165018
4594 -6080.060615015654
4595 -6078.813989952288
4596 -6077.410601998056
4597 -6076.341222510425
4598 -6075.544746938887
4599 -6074.641007799761
4600 -6073.818678001469
4601 -6073.134908514273
4602 -6072.53846059863
4603 -6071.496275126249
4604 -6071.178738637929
4605 -6070.722348096754
4606 -6070.073633313124
4607 -6069.755766249995
4608 -6069.538277780008
4609 -6069.09587207148
4610 -6068.93585204484
4611 -6068.714502430893
4612 -6068.559482394192
4613 -6068.365417523005
4614 -6068.384020427518
4615 -6068.180258519514
4616 -6068.120706716423
4617 -6068.144351097925
4618 -6068.237591101425
4619 -6068.2308290049
4620 -6068.250759611622
4621 -6068.078061389835
4622 -6068.12624795906
4623 -6068.074626354794
4624 -6068.307770635893
4625 -6068.525711168534
4626 -6068.625058238893
4627 -6068.988497290807
4628 -6069.445390712966
4629 -6069.682222996435
4630 -6070.181967433902
4631 -6070.786851371953
4632 -6071.348517612244
4633 -6071.533091592907
4634 -6072.037021040132
4635 -6072.338824545683
4636 -6073.04640541599
4637 -6073.144357821887
4638 -6073.397491958373
4639 -6073.732625653669
4640 -6074.110901461424
4641 -6074.286521381204
4642 -6074.547399660257
4643 -6074.6065989033
4644 -6074.636264591463
4645 -6074.419718340195
4646 -6074.380335787147
4647 -6074.081953977589
4648 -6074.015658377202
4649 -6073.668536637785
4650 -6073.490966477762
4651 -6073.148994333573
4652 -6073.078706306418
4653 -6072.681328660265
4654 -6072.57045971662
4655 -6071.878897727655
4656 -6071.311305817119
4657 -6070.630103824824
4658 -6070.186235749549
4659 -6069.380029031862
4660 -6068.811328025411
4661 -6067.834875287333
4662 -6067.643815235741
4663 -6066.708137289535
4664 -6066.370530131263
4665 -6065.624254529261
4666 -6065.139201525463
4667 -6064.180839389574
4668 -6063.693703869969
4669 -6063.030001723311
4670 -6062.534461140371
4671 -6061.764025401912
4672 -6061.226017413149
4673 -6060.299145555878
4674 -6059.840474041925
4675 -6058.95279599706
4676 -6058.492724902626
4677 -6057.807292852281
4678 -6057.368088685395
4679 -6056.467757931564
4680 -6056.049231315968
4681 -6055.20519127745
4682 -6054.953103506075
4683 -6054.35661130783
4684 -6053.910834701152
4685 -6053.095823140159
4686 -6052.725644325314
4687 -6051.79264422614
4688 -6051.134438150464
4689 -6050.035041809513
4690 -6049.534841277616
4691 -6048.505295899897
4692 -6047.441208970393
4693 -6046.595645286361
4694 -6045.549008925002
4695 -6044.892651805888
4696 -6044.190235449944
4697 -6043.064138371982
4698 -6042.596468359829
4699 -6041.557809418989
4700 -6041.145667661243
4701 -6040.405327952531
4702 -6039.763058400664
4703 -6039.246023854767
4704 -6038.6371729391
4705 -6038.1036221469
4706 -6037.314682576013
4707 -6036.785344143071
4708 -6036.295117297403
4709 -6035.850019041743
4710 -6035.503294945858
4711 -6035.186550551035
4712 -6034.712964807714
4713 -6034.408209496969
4714 -6034.103775453945
4715 -6033.564808243534
4716 -6033.06626441352
4717 -6032.806486952515
4718 -6032.859047521853
4719 -6032.609601531439
4720 -6032.554982669252
4721 -6032.706463850322
4722 -6032.801188089413
4723 -6032.769566387356
4724 -6033.014121665135
4725 -6032.856430082387
4726 -6033.132757094972
4727 -6033.075026542474
4728 -6033.150969677024
4729 -6032.932136646864
4730 -6032.929053837425
4731 -6032.745328808171
4732 -6032.664582104674
4733 -6032.363367185709
4734 -6032.370405769242
4735 -6031.980919763284
4736 -6032.072362477008
4737 -6031.786610123854
4738 -6031.637636395393
4739 -6031.185106337341
4740 -6031.054391518788
4741 -6030.39635768203
4742 -6030.118866121096
4743 -6029.566931303442
4744 -6029.283935196252
4745 -6028.956210523022
4746 -6028.631347113093
4747 -6028.157135448349
4748 -6027.832249926249
4749 -6027.194163417421
4750 -6026.752346279878
4751 -6025.957935312757
4752 -6025.524111639681
4753 -6024.619703079274
4754 -6023.973454547375
4755 -6023.497524821597
4756 -6022.838989869327
4757 -6022.393561653023
4758 -6022.059190409323
4759 -6021.538667254507
4760 -6021.143902116321
4761 -6020.58542475358
4762 -6019.917852298277
4763 -6019.337622566521
4764 -6018.888475940234
4765 -6018.474804596065
4766 -6018.133174586924
4767 -6017.826206990138
4768 -6017.850058704154
4769 -6017.36224997535
4770 -6017.387023411814
4771 -6017.221672651367
4772 -6017.152611984329
4773 -6016.699233842004
4774 -6016.540441677042
4775 -6016.212620402815
4776 -6016.078473969857
4777 -6015.702993877198
4778 -6015.367885546157
4779 -6015.111267585457
4780 -6015.020235217263
4781 -6014.667490484368
4782 -6014.524741472677
4783 -6014.001474347067
4784 -6013.595578303777
4785 -6013.262610642422
4786 -6013.001022440183
4787 -6012.485139666305
4788 -6012.461658080263
4789 -6011.97608199891
4790 -6011.93994195685
4791 -6011.70474865639
4792 -6011.751824677783
4793 -6011.650182711273
4794 -6011.587262760241
4795 -6011.597516766265
4796 -6011.687302344511
4797 -6011.750867418484
4798 -6011.798213884877
4799 -6011.832223972078
4800 -6012.121258070581
4801 -6012.408869392075
4802 -6012.65785818228
4803 -6012.796538755779
4804 -6013.499507153567
4805 -6013.837720232553
4806 -6014.208281794898
4807 -6014.661715561629
4808 -6015.115936287272
4809 -6015.300385446303
4810 -6016.144710211397
4811 -6016.341141654542
4812 -6016.865896371069
4813 -6017.413438201334
4814 -6017.984814176363
4815 -6018.227286229439
4816 -6018.618946441169
4817 -6018.840284109914
4818 -6019.237349305928
4819 -6019.389424674241
4820 -6019.984892377674
4821 -6020.100471824139
4822 -6019.998256983111
4823 -6019.893958480476
4824 -6019.838039339988
4825 -6019.447671648445
4826 -6019.406222120224
4827 -6019.105329544968
4828 -6018.899019864777
4829 -6018.612350379171
4830 -6018.053271099897
4831 -6017.554089268238
4832 -6016.835641526924
4833 -6016.268164336294
4834 -6015.916302286425
4835 -6014.92103866242
4836 -6014.849866596369
4837 -6014.311933896061
4838 -6013.773244788077
4839 -6013.302319117292
4840 -6012.830018861496
4841 -6011.898693359078
4842 -6011.671940032524
4843 -6011.256604478628
4844 -6011.138186689816
4845 -6010.37978569662
4846 -6010.235689964819
4847 -6009.947908252626
4848 -6010.093404758933
4849 -6009.798916748169
4850 -6009.644654898185
4851 -6009.47261155715
4852 -6009.590136038066
4853 -6009.435780817504
4854 -6009.634489294765
4855 -6009.638291906307
4856 -6009.789682279181
4857 -6009.898217904997
4858 -6010.067168134607
4859 -6010.073309768064
4860 -6010.279678248848
4861 -6010.156854120395
4862 -6010.320743239231
4863 -6010.378278855519
4864 -6010.333571723084
4865 -6010.038211845574
4866 -6009.97363074956
4867 -6009.634077736149
4868 -6009.421880382136
4869 -6009.035857885141
4870 -6008.992076604311
4871 -6008.535278511707
4872 -6008.006887485629
4873 -6007.189949161164
4874 -6006.650375339917
4875 -6005.591179723097
4876 -6004.992126504349
4877 -6004.073936380839
4878 -6003.11362024891
4879 -6002.146360822784
4880 -6001.353185985707
4881 -5999.845805988289
4882 -5998.94204932685
4883 -5997.939118444956
4884 -5996.507656844716
4885 -5995.486871757758
4886 -5993.879795547957
4887 -5992.506686494555
4888 -5990.976598704377
4889 -5989.948126897446
4890 -5988.202401987317
4891 -5987.142653886232
4892 -5985.70551430379
4893 -5984.365169905256
4894 -5983.445719170591
4895 -5982.105273045394
4896 -5980.946354508882
4897 -5979.636311937759
4898 -5979.125504675842
4899 -5978.117907770244
4900 -5977.48089079763
4901 -5976.529226437203
4902 -5976.217633276741
4903 -5975.852946649284
4904 -5975.648425426218
4905 -5975.336914047568
4906 -5975.080491186363
4907 -5974.947481775916
4908 -5975.032562646728
4909 -5975.037771191154
4910 -5975.130429090424
4911 -5975.045499208277
4912 -5975.11026420442
4913 -5974.931512543069
4914 -5974.835383979721
4915 -5974.435216246491
4916 -5974.514065649453
4917 -5974.39934336453
4918 -5974.474042928323
4919 -5974.346569239247
4920 -5974.23531908175
4921 -5974.132670970871
4922 -5974.019123260298
4923 -5973.801510197271
4924 -5973.752959666079
4925 -5973.674971953084
4926 -5973.85136644813
4927 -5973.610910899944
4928 -5973.655165867477
4929 -5973.328594595258
4930 -5973.071986417863
4931 -5972.937471667346
4932 -5973.003265164487
4933 -5972.841280756948
4934 -5972.58430004896
4935 -5972.663749972588
4936 -5972.437144967083
4937 -5972.00155877408
4938 -5971.964079811096
4939 -5971.615720445404
4940 -5971.599516046515
4941 -5971.065203923096
4942 -5970.840182918771
4943 -5970.342390863766
4944 -5970.103466487518
4945 -5970.019152092296
4946 -5969.755001013657
4947 -5969.080253945905
4948 -5968.884610680547
4949 -5968.216013245175
4950 -5968.032583756319
4951 -5967.968855363218
4952 -5967.648304682594
4953 -5967.027257330561
4954 -5966.592525622809
4955 -5965.912919969158
4956 -5965.688797747
4957 -5964.975931837012
4958 -5964.536664625444
4959 -5963.808554083737
4960 -5963.495108491377
4961 -5962.830988377235
4962 -5962.708289579912
4963 -5962.270187577147
4964 -5961.996856471407
4965 -5961.779983706426
4966 -5961.881156555561
4967 -5961.617087964556
4968 -5961.65633834475
4969 -5961.935006281844
4970 -5962.040269525677
4971 -5962.047793168313
4972 -5962.31498964296
4973 -5962.894125667477
4974 -5963.515314424815
4975 -5964.336757432852
4976 -5964.941317337424
4977 -5965.645640740711
4978 -5966.471750256066
4979 -5967.55147860066
4980 -5968.374555275363
4981 -5969.195632506146
4982 -5969.965071509831
4983 -5970.573494531484
4984 -5971.55067355332
4985 -5972.330559335155
4986 -5972.870299545481
4987 -5973.443497665946
4988 -5974.008104424614
4989 -5974.45892453592
4990 -5975.114695281405
4991 -5975.326222946826
4992 -5976.099308125707
4993 -5976.413693785813
4994 -5976.537077669218
4995 -5976.461827136943
4996 -5976.481485507721
4997 -5976.259712254478
4998 -5976.29946912678
4999 -5975.858709867113
5000 -5975.645970212894
5001 -5975.281594728675
5002 -5974.988007685435
5003 -5974.599606361079
5004 -5974.204472479738
5005 -5973.651822826212
5006 -5973.315468039572
5007 -5972.857833223817
5008 -5972.433009918892
5009 -5972.033272688116
5010 -5971.668865689358
5011 -5971.280014992428
5012 -5971.014922444356
5013 -5970.767237643194
5014 -5970.618555104796
5015 -5970.455438513735
5016 -5970.384121816566
5017 -5970.051610735554
5018 -5969.868356470232
5019 -5969.836847642488
5020 -5969.728247249986
5021 -5969.698879296531
5022 -5969.760767021394
5023 -5969.771950888148
5024 -5970.100063416565
5025 -5970.127724561178
5026 -5970.154638581957
5027 -5970.120615201637
5028 -5970.308485015064
5029 -5970.483684727337
5030 -5970.686851699416
5031 -5970.62932635802
5032 -5970.781965576253
5033 -5970.697250766068
5034 -5970.764616767437
5035 -5970.491408240749
5036 -5970.27213968151
5037 -5970.250521748341
5038 -5969.718166712182
5039 -5969.281985877389
5040 -5969.06941216961
5041 -5968.356983388318
5042 -5967.952869131701
5043 -5967.420871956111
5044 -5967.011138599109
5045 -5966.413353337397
5046 -5965.923870332745
5047 -5965.082739039283
5048 -5964.65895073312
5049 -5963.698588510836
5050 -5963.545691377113
5051 -5962.972918767021
5052 -5962.751295264373
5053 -5962.323120181636
5054 -5961.791171595657
5055 -5961.547779561885
5056 -5961.358771118005
5057 -5960.480483944497
5058 -5960.329169708467
5059 -5959.924625204369
5060 -5959.720482557997
5061 -5959.546750878142
5062 -5959.477726682856
5063 -5959.595106610057
5064 -5959.695838508974
5065 -5959.583361816404
5066 -5959.722131564746
5067 -5959.702659529237
5068 -5959.644466160016
5069 -5959.360327223314
5070 -5959.510075929843
5071 -5959.392513223399
5072 -5959.376457112553
5073 -5958.980825357444
5074 -5958.670975568789
5075 -5958.286345743478
5076 -5957.812048200732
5077 -5957.239451680521
5078 -5956.748507422419
5079 -5955.956628205984
5080 -5955.59892914913
5081 -5954.821854214425
5082 -5953.860519033386
5083 -5952.789988057508
5084 -5951.437609830169
5085 -5950.583693901832
5086 -5949.058992844233
5087 -5948.193929285955
5088 -5946.433280595938
5089 -5945.256959757927
5090 -5943.439689014429
5091 -5942.237121549048
5092 -5940.604400902564
5093 -5939.248355334078
5094 -5937.339327334127
5095 -5935.378335410931
5096 -5934.308529978026
5097 -5932.539129405388
5098 -5930.779500715595
5099 -5929.531359510784
5100 -5928.131799432535
5101 -5927.034021401721
5102 -5925.291661089135
5103 -5923.381941342791
5104 -5922.271001235626
5105 -5920.461226360213
5106 -5919.357134003853
5107 -5917.773705763765
5108 -5916.292174237153
5109 -5915.457709292757
5110 -5914.213203838009
5111 -5913.302446363651
5112 -5912.118851492472
5113 -5911.196452469027
5114 -5910.173938505984
5115 -5909.352240202325
5116 -5908.474722365928
5117 -5907.727814213618
5118 -5906.919293421319
5119 -5906.312835967473
5120 -5905.619917659905
5121 -5905.206482168691
5122 -5904.829338908328
5123 -5904.453759593697
5124 -5904.254255134685
5125 -5903.995283547066
5126 -5904.154497077451
5127 -5903.907401034083
5128 -5903.868167382379
5129 -5903.745995576389
5130 -5903.926477280835
5131 -5903.987199287983
5132 -5904.222740405954
5133 -5904.303226039582
5134 -5904.64135023908
5135 -5904.696028908198
5136 -5904.899245074987
5137 -5905.094747869255
5138 -5905.38920586868
5139 -5905.647912380359
5140 -5906.139065792622
5141 -5906.407845500272
5142 -5907.14728334896
5143 -5907.495893993848
5144 -5908.047101202059
5145 -5909.00820337664
5146 -5909.946803160617
5147 -5910.895552396983
5148 -5911.654966172901
5149 -5912.614055683216
5150 -5913.363429929141
5151 -5914.492029143915
5152 -5915.23960021112
5153 -5915.987039862638
5154 -5916.625824858264
5155 -5917.542175563827
5156 -5918.448757456084
5157 -5919.42969944099
5158 -5920.519905092073
5159 -5921.43195835084
5160 -5922.311128583342
5161 -5923.644521734977
5162 -5924.536261072474
5163 -5925.510945689798
5164 -5926.164024943797
5165 -5926.988703639006
5166 -5927.539592023997
5167 -5928.249006067918
5168 -5928.828228281423
5169 -5929.73827521742
5170 -5930.256084559836
5171 -5930.668892236374
5172 -5931.205950523717
5173 -5931.398771035106
5174 -5931.728773546826
5175 -5931.643475255073
5176 -5931.820059648184
5177 -5931.761641346066
5178 -5931.825261485356
5179 -5931.676892130856
5180 -5931.778414788656
5181 -5931.665064812554
5182 -5931.755597250282
5183 -5931.120154096569
5184 -5931.020741871922
5185 -5930.556632405226
5186 -5930.337009723292
5187 -5929.628721067808
5188 -5929.405266793718
5189 -5928.729231658595
5190 -5928.445146288846
5191 -5927.976261772531
5192 -5927.70671071224
5193 -5927.003737591739
5194 -5926.70419753612
5195 -5926.109359321829
5196 -5925.862703723247
5197 -5925.474068442622
5198 -5925.367359742049
5199 -5924.808748669632
5200 -5924.776904663374
5201 -5924.467867578898
5202 -5924.537746662589
5203 -5924.825790054772
5204 -5925.131119908505
5205 -5925.175911733151
5206 -5925.170403395461
5207 -5925.43249338422
5208 -5925.926059669097
5209 -5926.423466875242
5210 -5926.680474123224
5211 -5927.23677793142
5212 -5927.757297079094
5213 -5928.694686468536
5214 -5929.492500308466
5215 -5930.871119732212
5216 -5932.016385176532
5217 -5933.405660489593
5218 -5934.654322743129
5219 -5935.613049607215
5220 -5937.230752931091
5221 -5938.10090658935
5222 -5939.672478744152
5223 -5940.772400453156
5224 -5942.485363788305
5225 -5943.504725894775
5226 -5944.970378265526
5227 -5945.852007343822
5228 -5947.58816553165
5229 -5948.274059286195
5230 -5949.652816180256
5231 -5950.391237756426
5232 -5951.811628016088
5233 -5952.473440129275
5234 -5953.799672248866
5235 -5954.559198014573
5236 -5955.626633224181
5237 -5956.095570014601
5238 -5957.123337880996
5239 -5957.566625495095
5240 -5958.608666849519
5241 -5958.789622763448
5242 -5959.349305296744
5243 -5959.60427480693
5244 -5960.004217554206
5245 -5959.823859641281
5246 -5960.168418063774
5247 -5960.084417563562
5248 -5960.055765041842
5249 -5959.94585247063
5250 -5959.584750259684
5251 -5959.085324896896
5252 -5958.5331806589
5253 -5957.68054338305
5254 -5956.765494040077
5255 -5956.054998402293
5256 -5955.033537764736
5257 -5953.654683672905
5258 -5952.469088500039
5259 -5951.358473674207
5260 -5950.106902470988
5261 -5947.964994931853
5262 -5946.587662308467
5263 -5945.060706361398
5264 -5942.749551694207
5265 -5940.9238206595
5266 -5938.301712836438
5267 -5936.458705444306
5268 -5933.969218294476
5269 -5932.152067077689
5270 -5929.577153617407
5271 -5927.990289476656
5272 -5925.708964795721
5273 -5924.164720555334
5274 -5922.117238100575
5275 -5920.664526722327
5276 -5918.775882128652
5277 -5917.484948753966
5278 -5915.332150606474
5279 -5914.069438884478
5280 -5912.060899946677
5281 -5910.815730079446
5282 -5909.015080978282
5283 -5907.959332040338
5284 -5906.78099065029
5285 -5905.66933384339
5286 -5904.245113325873
5287 -5903.06807445308
5288 -5902.410717259355
5289 -5901.161704365515
5290 -5900.325203424488
5291 -5899.417544805431
5292 -5898.121538615145
5293 -5897.442674525426
5294 -5896.951615929304
5295 -5895.886001526701
5296 -5895.2037408662
5297 -5894.450827376361
5298 -5893.646091504026
5299 -5892.947972908626
5300 -5892.140615708295
5301 -5891.412145335536
5302 -5890.750800259699
5303 -5889.88413057957
5304 -5889.388407736991
5305 -5888.719021091707
5306 -5888.135501509437
5307 -5887.022231601635
5308 -5886.650715536956
5309 -5885.982045233833
5310 -5885.513188788132
5311 -5884.331617269738
5312 -5883.868809302435
5313 -5883.320141266251
5314 -5883.094481907375
5315 -5882.551747958316
5316 -5882.370918671299
5317 -5881.942606428905
5318 -5881.856910584806
5319 -5881.787401987222
5320 -5881.743132264365
5321 -5881.508641610801
5322 -5881.883820145549
5323 -5882.149765569277
5324 -5882.410009507077
5325 -5882.457156470199
5326 -5882.767403971837
5327 -5882.904652426139
5328 -5883.391332444036
5329 -5883.561972219282
5330 -5884.241879596025
5331 -5884.513192056127
5332 -5885.349834764475
5333 -5885.742125639489
5334 -5886.616563388977
5335 -5886.917106354963
5336 -5887.514563224438
5337 -5888.014796507706
5338 -5888.699431346521
5339 -5889.118226706576
5340 -5889.782048779451
5341 -5889.982913114263
5342 -5890.372909586305
5343 -5890.668667912385
5344 -5891.044935952462
5345 -5891.078745197131
5346 -5891.467044416318
5347 -5891.569016546631
5348 -5891.517341415836
5349 -5891.233943687013
5350 -5891.026632804276
5351 -5890.468850173051
5352 -5890.279301677616
5353 -5890.065905195593
5354 -5889.651016189937
5355 -5889.05449196345
5356 -5888.738452967101
5357 -5888.204408685838
5358 -5887.486883479786
5359 -5886.980392280758
5360 -5886.274623154936
5361 -5885.674044488998
5362 -5884.976982813646
5363 -5884.377788064086
5364 -5883.653968913227
5365 -5883.049451704709
5366 -5882.33518293884
5367 -5882.055156306113
5368 -5881.414134523129
5369 -5881.063244415174
5370 -5880.635973425237
5371 -5880.12248183977
5372 -5879.292790186483
5373 -5878.826151135673
5374 -5878.418175495961
5375 -5878.097307709189
5376 -5877.872061742101
5377 -5877.466262723344
5378 -5877.176783209876
5379 -5877.09142154745
5380 -5876.941576132721
5381 -5876.672771000117
5382 -5876.658254936316
5383 -5876.421844976305
5384 -5876.793483864851
5385 -5876.841427599729
5386 -5876.891598491725
5387 -5876.853085347323
5388 -5877.046623798789
5389 -5877.105188165424
5390 -5877.264807908732
5391 -5877.630691797863
5392 -5878.006734937991
5393 -5878.14960089925
5394 -5878.625625378319
5395 -5878.970394111392
5396 -5879.627538351925
5397 -5880.619541294082
5398 -5881.536013166288
5399 -5882.222048355104
5400 -5883.834256801784
5401 -5884.858238724853
5402 -5886.433322491797
5403 -5887.443043040405
5404 -5889.060973398935
5405 -5890.042797250415
5406 -5891.929005207035
5407 -5893.117246528732
5408 -5894.829182980933
5409 -5896.065127861056
5410 -5898.383942182516
5411 -5899.650943964642
5412 -5901.597370264225
5413 -5902.911865432952
5414 -5904.771245138379
5415 -5905.835354328037
5416 -5907.673657577572
5417 -5908.597265990338
5418 -5910.237067122222
5419 -5911.128247583331
5420 -5912.545146177338
5421 -5913.203403199127
5422 -5914.288972641543
5423 -5914.870929317327
5424 -5915.900698008908
5425 -5916.176760643355
5426 -5916.59253126247
5427 -5916.650693960982
5428 -5917.103178983157
5429 -5917.177863876578
5430 -5917.433562738827
5431 -5917.379405412838
5432 -5917.513548186811
5433 -5916.956336459457
5434 -5916.843260799142
5435 -5916.658034213763
5436 -5916.439624280412
5437 -5915.718499935096
5438 -5915.398685940793
5439 -5914.764101039224
5440 -5914.700479692997
5441 -5914.105820523329
5442 -5913.927491326281
5443 -5913.581417771903
5444 -5913.279168121296
5445 -5912.997588954044
5446 -5912.899389180374
5447 -5912.808128299481
5448 -5912.762691583064
5449 -5912.518960300361
5450 -5912.608337618523
5451 -5912.418154147619
5452 -5912.534763321556
5453 -5912.545629212988
5454 -5912.534718374024
5455 -5912.516615233995
5456 -5912.101143106955
5457 -5911.681879796825
5458 -5911.321696222623
5459 -5910.4661309841
5460 -5910.133099404296
5461 -5909.494792021718
5462 -5908.637499445738
5463 -5907.880994952505
5464 -5907.162027224945
5465 -5905.748705747979
5466 -5904.704348326821
5467 -5903.371849919691
5468 -5901.344300799048
5469 -5899.800460303869
5470 -5897.956851883511
5471 -5896.467990384586
5472 -5894.368162880138
5473 -5892.855732734477
5474 -5890.978316095774
5475 -5889.441856777723
5476 -5887.414491276074
5477 -5886.031331956392
5478 -5884.214352312432
5479 -5882.751463764529
5480 -5881.280449546861
5481 -5880.03663646766
5482 -5878.623483435744
5483 -5876.84140642174
5484 -5875.952674718318
5485 -5874.591303976518
5486 -5873.433776496488
5487 -5872.340669256215
5488 -5871.892476480839
5489 -5871.198954164165
5490 -5870.833591331352
5491 -5870.5347944654
5492 -5870.420944104575
5493 -5870.274225326059
5494 -5870.32896322341
5495 -5870.638367709581
5496 -5871.2493551253
5497 -5871.418577342385
5498 -5872.229294681195
5499 -5872.573325113259
5500 -5873.541744321245
5501 -5874.005672298027
5502 -5875.146964671239
5503 -5875.708273009276
5504 -5877.18219348165
5505 -5877.893314994411
5506 -5879.148765567093
5507 -5879.910584979795
5508 -5881.007101157448
5509 -5881.836268183792
5510 -5883.012227573287
5511 -5883.676522467097
5512 -5885.128059279627
5513 -5886.222845388042
5514 -5886.993053196387
5515 -5887.940434451095
5516 -5889.222935874101
5517 -5889.750077316149
5518 -5890.690440242944
5519 -5891.333191051541
5520 -5892.44625920829
5521 -5893.0628853574
5522 -5893.702458332438
5523 -5894.517395303852
5524 -5895.287530568306
5525 -5895.581850132034
5526 -5896.115047702576
5527 -5896.343710173841
5528 -5896.620134663489
5529 -5896.4426494688
5530 -5896.944163558372
5531 -5896.987369232982
5532 -5897.144148973211
5533 -5896.840577271434
5534 -5897.022794355629
5535 -5896.802437613336
5536 -5896.592178101445
5537 -5895.978385068783
5538 -5895.533309604723
5539 -5895.023030246715
5540 -5894.612198492648
5541 -5893.861780717006
5542 -5893.031674027225
5543 -5892.200974767032
5544 -5890.999040575991
5545 -5889.930576974134
5546 -5888.989672302696
5547 -5887.859909683829
5548 -5886.393840540885
5549 -5885.225416735522
5550 -5883.426979781672
5551 -5881.486535025589
5552 -5880.226105322492
5553 -5878.055131255787
5554 -5876.267264942096
5555 -5874.784384433858
5556 -5872.456493016559
5557 -5870.100908887775
5558 -5868.249263678588
5559 -5866.082497053349
5560 -5864.948952512588
5561 -5862.709994499977
5562 -5861.05091600649
5563 -5859.143469932941
5564 -5857.518401822254
5565 -5855.939765502393
5566 -5854.973372327425
5567 -5853.513121067339
5568 -5852.227449927147
5569 -5851.309524481197
5570 -5850.414982365738
5571 -5849.340069962351
5572 -5848.862687338646
5573 -5848.050037546521
5574 -5847.407724232756
5575 -5846.868439514426
5576 -5846.460437188191
5577 -5845.896669517789
5578 -5845.564650782966
5579 -5844.994740360631
5580 -5845.13181812229
5581 -5845.09284220879
5582 -5844.831803849275
5583 -5844.750242810055
5584 -5845.063145475228
5585 -5844.94282916717
5586 -5845.038178624169
5587 -5844.987503395016
5588 -5845.530906940797
5589 -5845.681150989132
5590 -5846.45019111384
5591 -5846.773178106386
5592 -5847.263887427222
5593 -5847.435117899381
5594 -5848.142598219222
5595 -5848.565503875362
5596 -5849.181083622363
5597 -5849.394046319267
5598 -5850.202152355378
5599 -5850.631057715343
5600 -5851.479117143426
5601 -5852.128483491369
5602 -5853.268156003935
5603 -5853.631647657705
5604 -5854.825081379486
5605 -5855.679233007
5606 -5857.239030806774
5607 -5858.278548477122
5608 -5860.185823780998
5609 -5861.403624670502
5610 -5863.63246091943
5611 -5864.880244284925
5612 -5867.165825666648
5613 -5869.244764826304
5614 -5871.001459066117
5615 -5873.038409276726
5616 -5875.500039839504
5617 -5878.093088962162
5618 -5880.773873671291
5619 -5882.836741452998
5620 -5885.231484070004
5621 -5887.552397896542
5622 -5889.740344049431
5623 -5891.65083625992
5624 -5893.745968695108
5625 -5895.51931798001
5626 -5897.178326230973
5627 -5898.41145683994
5628 -5899.886219331404
5629 -5900.849081185001
5630 -5901.929010954728
5631 -5902.689699193822
5632 -5903.381308092246
5633 -5903.597057731081
5634 -5903.907984992869
5635 -5903.808006680729
5636 -5903.498675031131
5637 -5902.981262942619
5638 -5902.376300117972
5639 -5901.594171658967
5640 -5900.61253587536
5641 -5899.622029379404
5642 -5898.324864575928
5643 -5896.894474120304
5644 -5894.795723634346
5645 -5893.370830364578
5646 -5891.405281030755
5647 -5889.815978631976
5648 -5887.725229610282
5649 -5885.968240741455
5650 -5883.707060191552
5651 -5881.982674069395
5652 -5879.780451638568
5653 -5878.237727408546
5654 -5875.902245290722
5655 -5874.145383998138
5656 -5872.008793949902
5657 -5870.347345250339
5658 -5868.57750233241
5659 -5867.385701752273
5660 -5865.566098955174
5661 -5864.336974790128
5662 -5862.82436073825
5663 -5861.709396608589
5664 -5860.778934775441
5665 -5859.986151163186
5666 -5859.167180946882
5667 -5858.641686630342
5668 -5858.133701455974
5669 -5857.801406533268
5670 -5857.427957309639
5671 -5857.205170047109
5672 -5857.338531704571
5673 -5857.262100152468
5674 -5857.762322086788
5675 -5857.819698881964
5676 -5858.4629149359
5677 -5858.841727346609
5678 -5859.184545516168
5679 -5859.436472517884
5680 -5859.763480970901
5681 -5859.912204871898
5682 -5860.468674254841
5683 -5860.643019192411
5684 -5860.992603712776
5685 -5860.938783040367
5686 -5861.20034900335
5687 -5861.152962586703
5688 -5861.140075621715
5689 -5860.97861160147
5690 -5860.946413474907
5691 -5860.731719567373
5692 -5860.645279949893
5693 -5860.318630977172
5694 -5859.977872393672
5695 -5859.541509147815
5696 -5859.256968059037
5697 -5858.860658827865
5698 -5858.605080386961
5699 -5858.03897939056
5700 -5857.839599861474
5701 -5857.370473261593
5702 -5857.287952598874
5703 -5857.014646195378
5704 -5856.670243339929
5705 -5856.455399679533
5706 -5856.253956168566
5707 -5856.073893626996
5708 -5856.222038571527
5709 -5855.98024399214
5710 -5855.965884336693
5711 -5855.995110993947
5712 -5856.332612992229
5713 -5856.392734446032
5714 -5856.639557610727
5715 -5856.805555003112
5716 -5857.404727770851
5717 -5858.16849599014
5718 -5858.92399862962
5719 -5859.572150814988
5720 -5860.669969560762
5721 -5861.462451363994
5722 -5862.643543113898
