"y-rfile"
"Iteration" "y"
("Iteration" "y")
3639 -4812.337723289269
3640 -4847.014916216789
3641 -4898.723447390692
3642 -5011.262106277006
3643 -5128.650182617824
3644 -5260.39105181024
3645 -5382.129488632453
3646 -5500.472670025317
3647 -5606.258870084869
3648 -5696.313358763698
3649 -5782.727924751288
3650 -5841.968204252486
3651 -5878.411453921592
3652 -5885.763238498433
3653 -5878.897585061208
3654 -5864.070036314469
3655 -5847.049794996414
3656 -5828.465482469316
3657 -5816.139199872228
3658 -5809.119440960026
3659 -5808.772601712105
3660 -5817.34554914052
3661 -5831.978217027216
3662 -5862.727311842275
3663 -5893.816117104837
3664 -5946.844344549389
3665 -5993.634355009109
3666 -6046.965931498792
3667 -6106.992594891387
3668 -6172.798284192441
3669 -6243.209010938249
3670 -6339.860918088548
3671 -6413.003537564431
3672 -6509.171817918465
3673 -6579.350068158453
3674 -6646.857445185736
3675 -6712.238526354128
3676 -6774.884515110074
3677 -6833.770409359276
3678 -6889.142864407871
3679 -6939.14871142083
3680 -6985.273160061252
3681 -7027.417910512722
3682 -7064.432294646236
3683 -7096.144353047954
3684 -7123.538341732854
3685 -7145.875197852657
3686 -7164.45696301504
3687 -7178.950302894356
3688 -7186.221207194096
3689 -7193.765466779729
3690 -7197.357108685531
3691 -7200.144508708981
3692 -7200.256069061956
3693 -7199.062331865903
3694 -7196.998082998158
3695 -7192.202453206424
3696 -7188.52258726421
3697 -7183.723482932915
3698 -7176.006294107358
3699 -7170.570454913177
3700 -7164.541902588566
3701 -7158.047715343052
3702 -7148.839361113481
3703 -7142.439453778258
3704 -7136.453762498824
3705 -7127.355110410849
3706 -7121.720702112607
3707 -7116.059032176377
3708 -7108.247658215874
3709 -7103.467264038707
3710 -7097.375271011107
3711 -7094.127185381287
3712 -7090.709509997022
3713 -7088.806989041267
3714 -7087.046526590148
3715 -7086.395775439156
3716 -7086.286686487767
3717 -7087.543525484838
3718 -7088.935021728005
3719 -7091.633599503295
3720 -7095.203021499135
3721 -7099.39177667907
3722 -7104.111358621302
3723 -7109.461822085625
3724 -7115.132771427165
3725 -7120.928417026797
3726 -7126.695405902593
3727 -7132.726243180401
3728 -7139.101881706189
3729 -7145.115421469166
3730 -7152.324471837669
3731 -7159.444223294326
3732 -7165.712864587547
3733 -7172.791111301268
3734 -7179.876585491068
3735 -7185.323267438871
3736 -7192.687938937283
3737 -7197.695338111665
3738 -7204.518130097099
3739 -7211.409999150967
3740 -7216.337792150291
3741 -7221.79682539564
3742 -7228.986072782101
3743 -7235.021838474774
3744 -7241.502566979646
3745 -7246.434235397054
3746 -7251.450614437359
3747 -7256.259758982534
3748 -7260.019272673158
3749 -7263.419368207432
3750 -7267.138049282203
3751 -7269.112513803974
3752 -7270.098327987066
3753 -7270.464650813683
3754 -7269.903338544218
3755 -7267.059516115381
3756 -7263.162163972335
3757 -7259.804205757103
3758 -7252.862680248495
3759 -7243.656605990213
3760 -7235.307536133187
3761 -7224.110851425864
3762 -7207.616720320293
3763 -7192.447845635445
3764 -7172.032792916319
3765 -7152.511236810918
3766 -7127.046539498644
3767 -7105.285958784792
3768 -7080.026842003114
3769 -7045.346223027949
3770 -7016.714369204231
3771 -6978.357770484545
3772 -6945.816461520142
3773 -6911.491541718069
3774 -6866.821544869695
3775 -6829.257379350013
3776 -6791.043783197771
3777 -6749.870435756021
3778 -6708.396949496825
3779 -6666.064683112004
3780 -6623.966874722024
3781 -6581.294193340481
3782 -6538.585882946471
3783 -6497.563419916314
3784 -6457.026431674277
3785 -6417.9478548119
3786 -6380.60669795679
3787 -6344.58644580178
3788 -6310.985429670624
3789 -6279.801599394718
3790 -6251.236166226847
3791 -6225.727797863167
3792 -6202.662318459572
3793 -6182.500328087326
3794 -6165.517705666864
3795 -6150.556697789117
3796 -6139.04988310422
3797 -6130.143405710194
3798 -6125.294212184194
3799 -6121.579525014557
3800 -6120.579993525921
3801 -6120.565682823159
3802 -6122.45814870154
3803 -6125.002061522364
3804 -6129.935715534497
3805 -6135.867612050867
3806 -6142.951315936837
3807 -6151.559981192308
3808 -6161.243370355724
3809 -6171.47245729117
3810 -6182.822421700865
3811 -6195.685529029067
3812 -6209.007515651857
3813 -6222.691788627561
3814 -6236.850712125482
3815 -6252.018630670506
3816 -6266.968786391509
3817 -6281.54805830624
3818 -6296.291164261216
3819 -6311.210231131186
3820 -6325.769827204012
3821 -6339.868108082646
3822 -6353.370149195044
3823 -6366.767408778551
3824 -6379.470438963246
3825 -6391.419008370043
3826 -6402.561581630112
3827 -6412.817552701133
3828 -6421.921295686057
3829 -6430.058801585928
3830 -6437.124343752308
3831 -6442.851665909968
3832 -6447.518350402179
3833 -6451.152255903045
3834 -6453.741188981517
3835 -6454.978169195836
3836 -6455.621103672358
3837 -6455.2358785747
3838 -6453.75250964198
3839 -6451.911880387543
3840 -6448.20437816208
3841 -6445.424927853538
3842 -6440.412853414479
3843 -6436.97371100962
3844 -6431.07539081614
3845 -6427.013769124341
3846 -6420.633229427744
3847 -6414.424400858178
3848 -6408.513317447738
3849 -6402.458585661068
3850 -6396.937294461819
3851 -6391.683640481024
3852 -6386.870778985656
3853 -6382.204076031177
3854 -6378.218579711136
3855 -6374.66755944926
3856 -6371.459324938349
3857 -6369.64491525123
3858 -6367.199590052989
3859 -6364.868162057925
3860 -6363.135148379221
3861 -6361.938894653416
3862 -6360.594432242595
3863 -6359.893947702718
3864 -6359.024232362862
3865 -6358.50255503117
3866 -6358.048236117841
3867 -6357.765370147712
3868 -6358.107724315572
3869 -6358.242764632047
3870 -6358.901254901247
3871 -6359.648630725918
3872 -6360.996904589219
3873 -6362.01708232497
3874 -6363.986145063819
3875 -6365.633381839965
3876 -6368.154477973256
3877 -6370.235183876709
3878 -6373.98305182824
3879 -6376.928517206352
3880 -6381.484045761522
3881 -6386.554713906347
3882 -6390.346395349674
3883 -6396.940189073746
3884 -6403.787001430963
3885 -6411.156152866343
3886 -6418.869319706861
3887 -6426.709756026552
3888 -6435.144167769596
3889 -6444.006393935523
3890 -6453.247103947439
3891 -6462.772665238889
3892 -6472.343248152796
3893 -6482.149872897248
3894 -6491.718146217338
3895 -6500.975761056727
3896 -6510.401978923953
3897 -6519.553374306926
3898 -6528.799931017257
3899 -6537.717642080846
3900 -6546.701349844433
3901 -6555.231002970483
3902 -6563.054426520818
3903 -6570.51055828169
3904 -6577.54096209442
3905 -6584.063840347165
3906 -6589.844663289931
3907 -6595.258700870988
3908 -6599.651689265159
3909 -6603.292952509447
3910 -6606.41120120594
3911 -6608.587510765066
3912 -6609.923180917068
3913 -6610.46155461325
3914 -6610.516526686514
3915 -6609.352490734064
3916 -6607.434056436436
3917 -6604.704956146351
3918 -6600.868529347618
3919 -6597.743009609469
3920 -6592.151883216443
3921 -6587.847438126269
3922 -6580.198755831853
3923 -6571.861906791714
3924 -6565.590233421616
3925 -6555.194654395891
3926 -6544.137882049953
3927 -6532.335661544619
3928 -6519.854413807125
3929 -6506.660420585301
3930 -6492.907270861203
3931 -6478.571625941533
3932 -6464.214339593225
3933 -6449.264410751038
3934 -6434.047133180537
3935 -6418.356526252719
3936 -6402.423835708034
3937 -6386.215042967556
3938 -6369.933027576431
3939 -6348.366229663848
3940 -6332.820209181361
3941 -6317.070536580482
3942 -6296.137665293853
3943 -6281.057158900876
3944 -6266.414453413037
3945 -6246.940027590071
3946 -6232.998060964635
3947 -6219.266464503999
3948 -6206.138974049817
3949 -6192.939128970863
3950 -6180.263379731157
3951 -6167.76049771045
3952 -6155.696162577481
3953 -6143.842951966086
3954 -6132.522890373687
3955 -6121.388396256234
3956 -6110.711789875723
3957 -6100.479229869866
3958 -6090.929403644539
3959 -6082.068521508293
3960 -6073.454238484709
3961 -6065.492940467118
3962 -6058.029833523944
3963 -6051.357095388838
3964 -6045.342496907279
3965 -6040.002309176738
3966 -6035.451487640346
3967 -6031.035316538467
3968 -6028.686011780157
3969 -6025.769980747638
3970 -6023.931591548395
3971 -6021.381592453509
3972 -6019.914302209008
3973 -6017.617863172852
3974 -6016.582797583815
3975 -6015.499553131185
3976 -6014.206747266911
3977 -6013.330357200736
3978 -6012.48021309843
3979 -6011.496902635167
3980 -6010.915184589508
3981 -6010.652746505961
3982 -6010.113275583616
3983 -6009.866694755629
3984 -6009.559532841671
3985 -6008.92314884144
3986 -6008.747203581933
3987 -6008.188830838195
3988 -6007.951836761369
3989 -6007.665770843995
3990 -6007.303166927996
3991 -6006.991408261093
3992 -6006.596932317384
3993 -6006.102628263975
3994 -6005.709348238409
3995 -6005.24618705899
3996 -6004.632493708796
3997 -6003.68240918436
3998 -6002.663388313294
3999 -6001.335682402556
4000 -5999.914074995885
4001 -5998.063020947218
4002 -5996.38545995687
4003 -5994.397816271607
4004 -5992.127779424836
4005 -5989.903641233514
4006 -5987.42424787998
4007 -5984.763224547604
4008 -5981.955543923742
4009 -5978.978514548852
4010 -5975.799016181697
4011 -5972.747845015799
4012 -5969.74218179021
4013 -5966.763529398773
4014 -5963.657311466155
4015 -5960.410559041437
4016 -5957.448765745416
4017 -5954.2306982171
4018 -5951.126188874423
4019 -5948.111030911297
4020 -5945.316552402766
4021 -5942.3074824952
4022 -5938.158003365209
4023 -5935.529026266003
4024 -5933.084908023966
4025 -5930.78254266792
4026 -5928.700311137205
4027 -5925.81919389754
4028 -5924.277247506224
4029 -5922.907550704921
4030 -5921.685287440806
4031 -5919.909748595467
4032 -5919.073473589069
4033 -5918.212966205951
4034 -5917.730166894026
4035 -5917.362119629391
4036 -5917.447082501574
4037 -5917.730104463652
4038 -5918.273151263765
4039 -5918.870981125913
4040 -5920.228783488838
4041 -5921.365601651002
4042 -5922.744869023275
4043 -5925.289158584139
4044 -5927.13303295724
4045 -5929.099926983202
4046 -5932.5819861509
4047 -5935.045945094508
4048 -5937.882245830469
4049 -5942.095152475893
4050 -5945.178560576984
4051 -5949.921594597025
4052 -5953.403875247791
4053 -5958.639422316268
4054 -5962.261828114096
4055 -5967.94243129715
4056 -5971.967871816903
4057 -5977.887870759658
4058 -5982.026119537287
4059 -5988.359436228448
4060 -5992.859015091379
4061 -5999.536101950315
4062 -6003.976894653373
4063 -6010.661316113739
4064 -6015.101382893619
4065 -6021.715374430646
4066 -6028.33882007889
4067 -6032.5062012321
4068 -6038.851590310484
4069 -6042.89914457327
4070 -6049.098880729792
4071 -6053.15494242593
4072 -6059.181034286989
4073 -6062.978561660126
4074 -6068.671616866553
4075 -6072.304486618133
4076 -6077.543265857699
4077 -6080.820604411559
4078 -6085.705226263303
4079 -6088.695972472806
4080 -6091.661753567435
4081 -6095.942520040993
4082 -6098.633332415306
4083 -6101.095394013249
4084 -6103.41237627198
4085 -6105.527669394247
4086 -6107.573347295996
4087 -6109.48429950862
4088 -6111.218684113648
4089 -6112.982193228904
4090 -6114.531974278375
4091 -6115.818316518744
4092 -6117.021357346962
4093 -6117.895963052773
4094 -6118.619543667111
4095 -6119.053049697458
4096 -6119.480479263914
4097 -6119.57432392811
4098 -6119.501484570123
4099 -6119.141581856913
4100 -6118.69016906977
4101 -6117.944210439488
4102 -6117.14286749322
4103 -6116.059968399642
4104 -6115.00552966034
4105 -6113.622196425769
4106 -6112.167467514819
4107 -6109.890257330359
4108 -6108.357156502758
4109 -6106.577337779598
4110 -6104.805403169694
4111 -6102.005902808529
4112 -6100.034989677396
4113 -6098.060676446656
4114 -6095.041469546927
4115 -6092.999924064232
4116 -6090.908124960972
4117 -6088.6911697043
4118 -6085.505758015373
4119 -6083.448433485796
4120 -6081.382665525401
4121 -6079.330961420816
4122 -6076.489541594227
4123 -6074.541629699692
4124 -6072.654023370759
4125 -6070.675144006189
4126 -6068.777984475954
4127 -6066.871974440306
4128 -6065.037886483768
4129 -6063.198609936602
4130 -6061.374762906071
4131 -6059.553894855922
4132 -6057.835847187371
4133 -6056.09936797712
4134 -6054.422040954199
4135 -6052.690438349345
4136 -6051.037852825563
4137 -6049.428239960932
4138 -6047.867212225558
4139 -6046.250849215208
4140 -6044.750920254618
4141 -6043.184087233709
4142 -6041.691720727063
4143 -6040.196037940209
4144 -6038.739618844718
4145 -6037.397703230564
4146 -6036.071412084064
4147 -6034.600554617081
4148 -6033.249137966496
4149 -6031.825429091783
4150 -6030.498189666583
4151 -6029.141003344594
4152 -6027.683297214432
4153 -6026.281561548452
4154 -6024.911305452434
4155 -6023.403011652187
4156 -6021.969942309381
4157 -6020.500221367938
4158 -6018.945152370446
4159 -6017.373740957587
4160 -6015.711658640272
4161 -6013.956199177034
4162 -6012.220444382006
4163 -6010.282054605781
4164 -6008.359869552934
4165 -6006.162063886234
4166 -6003.882466427329
4167 -6001.486408684598
4168 -5998.939442280578
4169 -5996.313473585198
4170 -5993.71478836355
4171 -5990.836369624845
4172 -5987.933411258484
4173 -5984.951666783576
4174 -5981.85973145391
4175 -5978.660388717924
4176 -5975.376092410302
4177 -5971.906578609987
4178 -5968.402945103711
4179 -5964.752284031324
4180 -5961.034992046941
4181 -5957.206600880088
4182 -5953.369099117011
4183 -5949.325632775472
4184 -5945.311404754616
4185 -5941.188215569149
4186 -5937.190595575399
4187 -5931.032809791757
4188 -5926.962331548684
4189 -5922.904240034239
4190 -5918.896550108769
4191 -5912.946801377941
4192 -5909.030420486055
4193 -5905.164449043593
4194 -5901.379315762484
4195 -5895.908145322509
4196 -5892.401096395272
4197 -5888.861890507685
4198 -5883.795144977566
4199 -5880.423764354447
4200 -5877.23535381105
4201 -5872.448124281074
4202 -5869.479396449091
4203 -5866.586149634166
4204 -5863.827546983329
4205 -5859.762789507425
4206 -5857.253871024894
4207 -5854.683835510101
4208 -5852.215564673374
4209 -5849.803580246185
4210 -5847.54867077731
4211 -5844.157904369478
4212 -5842.027563042485
4213 -5840.057198148731
4214 -5838.185955826601
4215 -5836.351176798272
4216 -5834.6642719827
4217 -5832.976169430589
4218 -5831.430307926312
4219 -5829.937427802168
4220 -5828.625372315471
4221 -5827.407864159469
4222 -5826.393656841986
4223 -5825.449830838525
4224 -5824.68636501423
4225 -5824.060875569252
4226 -5823.54290729355
4227 -5823.167939511424
4228 -5822.97688790348
4229 -5822.854331435838
4230 -5822.915360542666
4231 -5823.084313210607
4232 -5823.489236165231
4233 -5823.992409930909
4234 -5824.646405620919
4235 -5825.348513579109
4236 -5826.216976656223
4237 -5827.134664592007
4238 -5828.211427002528
4239 -5829.415686993501
4240 -5831.329840199954
4241 -5832.649025321113
4242 -5834.058052593281
4243 -5836.148948132389
4244 -5837.628229692765
4245 -5839.111763225103
4246 -5841.457999496788
4247 -5842.99485638051
4248 -5845.287558688211
4249 -5846.847201935133
4250 -5849.058936048604
4251 -5850.45021043564
4252 -5851.849866953696
4253 -5853.847084263735
4254 -5855.073911187292
4255 -5856.77849290703
4256 -5857.930219748278
4257 -5859.047927370706
4258 -5860.602823274716
4259 -5861.507422806297
4260 -5862.406126133373
4261 -5863.595151677842
4262 -5864.351643868658
4263 -5865.041727738002
4264 -5865.741281441128
4265 -5866.237290464509
4266 -5866.926830049326
4267 -5867.208962714994
4268 -5867.528001934343
4269 -5867.731798589858
4270 -5867.966070137546
4271 -5868.119430082762
4272 -5868.266937738606
4273 -5868.278235976756
4274 -5868.243452224609
4275 -5868.242308695952
4276 -5868.206220282298
4277 -5868.096327145316
4278 -5868.01072265046
4279 -5867.867213250578
4280 -5867.806182691238
4281 -5867.660356796273
4282 -5867.572460593465
4283 -5867.435333352889
4284 -5867.253358434233
4285 -5867.077126313461
4286 -5866.862435603895
4287 -5866.62706427853
4288 -5866.367731580157
4289 -5866.031298542646
4290 -5865.794740507434
4291 -5865.540998256404
4292 -5865.281504360451
4293 -5865.017512166479
4294 -5864.803244967757
4295 -5864.520045901866
4296 -5864.285339725897
4297 -5863.90924814175
4298 -5863.613947058865
4299 -5863.314146566178
4300 -5862.971383998136
4301 -5862.663232401732
4302 -5862.277046807698
4303 -5861.908058804843
4304 -5861.537917159265
4305 -5861.12909678716
4306 -5860.829987903287
4307 -5860.425910536919
4308 -5860.031694562809
4309 -5859.586177893122
4310 -5859.266335486467
4311 -5858.856972312693
4312 -5858.623558219872
4313 -5858.337350506499
4314 -5858.031237742132
4315 -5857.684870417454
4316 -5857.380022763421
4317 -5857.045387940481
4318 -5856.74712810228
4319 -5856.35482130132
4320 -5856.03751263906
4321 -5855.727631580831
4322 -5855.455927713883
4323 -5855.088560365405
4324 -5854.782370218714
4325 -5854.382801249139
4326 -5854.133834723984
4327 -5853.765299647803
4328 -5853.479289921295
4329 -5853.201986976138
4330 -5852.918827327175
4331 -5852.687484375004
4332 -5852.563441307049
4333 -5852.239466864939
4334 -5851.991934377793
4335 -5851.752202849971
4336 -5851.402493791918
4337 -5851.116379964974
4338 -5850.865998470874
4339 -5850.601148601904
4340 -5850.354539668876
4341 -5850.017150145012
4342 -5849.817409550608
4343 -5849.51665311123
4344 -5849.228345227479
4345 -5848.679583286271
4346 -5848.357520204841
4347 -5847.953617202464
4348 -5847.538800770605
4349 -5847.000580680637
4350 -5846.37389523978
4351 -5845.895858698702
4352 -5845.309800086184
4353 -5844.635609937327
4354 -5843.701761440052
4355 -5843.034308994655
4356 -5842.278313032409
4357 -5840.921382561706
4358 -5840.117061477157
4359 -5839.159310983239
4360 -5838.148130308321
4361 -5836.389187226144
4362 -5835.198472293143
4363 -5833.873538523363
4364 -5831.867680497232
4365 -5830.458985544713
4366 -5828.929580469771
4367 -5826.599430105911
4368 -5825.082276763831
4369 -5823.432793329475
4370 -5820.951122428166
4371 -5819.291472803901
4372 -5816.832765214433
4373 -5815.158783637334
4374 -5812.698565479276
4375 -5810.980059989786
4376 -5808.437337316236
4377 -5806.806353719639
4378 -5804.453435346089
4379 -5802.854265370131
4380 -5800.442811449218
4381 -5798.905686697323
4382 -5796.667732738578
4383 -5795.078846865013
4384 -5792.875392223629
4385 -5791.409061754857
4386 -5789.37753647211
4387 -5788.015338386991
4388 -5785.992861980009
4389 -5784.656210372214
4390 -5782.792950136547
4391 -5781.469738410943
4392 -5779.563610861393
4393 -5778.342343568524
4394 -5776.497185121443
4395 -5775.285750579231
4396 -5774.112115879401
4397 -5772.262052109743
4398 -5771.14087078725
4399 -5769.870691952094
4400 -5768.14313146235
4401 -5767.010227669865
4402 -5765.967946647941
4403 -5764.80758644345
4404 -5763.742346289943
4405 -5762.642198333567
4406 -5761.566038298304
4407 -5760.462457280632
4408 -5759.489347317003
4409 -5758.424189875286
4410 -5757.462376643053
4411 -5756.48532014815
4412 -5755.548906573391
4413 -5754.655849186602
4414 -5753.793757615405
4415 -5752.923198935622
4416 -5752.16955503505
4417 -5751.339914155666
4418 -5750.701975616528
4419 -5750.070469992504
4420 -5749.487741219144
4421 -5749.029630498225
4422 -5748.573342487372
4423 -5748.148871577905
4424 -5747.866010286194
4425 -5747.667803291043
4426 -5747.553567828147
4427 -5747.48569512267
4428 -5747.513166069572
4429 -5747.596955082346
4430 -5747.773177269214
4431 -5747.963940480545
4432 -5748.252827377712
4433 -5748.513860082207
4434 -5748.835442030587
4435 -5749.166128262114
4436 -5749.629424346722
4437 -5749.97470465402
4438 -5750.367814972804
4439 -5750.825909494224
4440 -5751.138593945369
4441 -5751.50510214613
4442 -5751.821692002
4443 -5752.156194486983
4444 -5752.433581720975
4445 -5752.675771932807
4446 -5752.941369780407
4447 -5753.063560365523
4448 -5753.385392147275
4449 -5753.418733269193
4450 -5753.53609119917
4451 -5753.570418396974
4452 -5753.563861557353
4453 -5753.435949430747
4454 -5753.211401071071
4455 -5752.903077311124
4456 -5752.613201740743
4457 -5752.293013025716
4458 -5751.984553793093
4459 -5751.667818332826
4460 -5751.292146274109
4461 -5750.849886348787
4462 -5750.445616137289
4463 -5749.72829307268
4464 -5749.26522214125
4465 -5748.676808837608
4466 -5748.250116985251
4467 -5747.758870982288
4468 -5747.046615873669
4469 -5746.56531990039
4470 -5746.109660109332
4471 -5745.567256203037
4472 -5744.979397116481
4473 -5744.600594706997
4474 -5744.194247298884
4475 -5743.753386119472
4476 -5743.318218526128
4477 -5742.868225385962
4478 -5742.593940117463
4479 -5742.208619332292
4480 -5741.723296007546
4481 -5741.302124345774
4482 -5741.030022182277
4483 -5740.537745513177
4484 -5740.20236549229
4485 -5739.896454382053
4486 -5739.628605096827
4487 -5739.327771396333
4488 -5738.992467782859
4489 -5738.465443213318
4490 -5738.168484830927
4491 -5737.823428070573
4492 -5737.438664400693
4493 -5737.103187040956
4494 -5736.851551171168
4495 -5736.530117938051
4496 -5735.989886988832
4497 -5735.586311825969
4498 -5735.278257345367
4499 -5734.846435541779
4500 -5734.334460168531
4501 -5733.90344048877
4502 -5733.518240566748
4503 -5733.110972209322
4504 -5732.518953514218
4505 -5732.052990214333
4506 -5731.661126835759
4507 -5731.178364959252
4508 -5730.615934719592
4509 -5730.197233824008
4510 -5729.906561627095
4511 -5729.510241327911
4512 -5729.069886248208
4513 -5728.8552748021
4514 -5728.619348922964
4515 -5728.439006436794
4516 -5728.216018474304
4517 -5728.05330193698
4518 -5727.973048925583
4519 -5727.940766965266
4520 -5728.045433701988
4521 -5727.982630643221
4522 -5727.987232239914
4523 -5728.056923227972
4524 -5728.156016974845
4525 -5728.32600654831
4526 -5728.447609113264
4527 -5728.584046146383
4528 -5728.695841028859
4529 -5728.92674017521
4530 -5729.109276942158
4531 -5729.221580772188
4532 -5729.46707689147
4533 -5729.824587359043
4534 -5730.061493778983
4535 -5730.264836610817
4536 -5730.639629628742
4537 -5730.8631879391
4538 -5731.009454515194
4539 -5731.265064526156
4540 -5731.468700374767
4541 -5731.579056189034
4542 -5731.638630206679
4543 -5731.688481642286
4544 -5731.730819035709
4545 -5731.57757803328
4546 -5731.503851373623
4547 -5731.342587178299
4548 -5731.098341633535
4549 -5730.56480017364
4550 -5730.261264168277
4551 -5729.880930910651
4552 -5729.168252537629
4553 -5728.633627948167
4554 -5728.067086458794
4555 -5727.08507360231
4556 -5726.428332660736
4557 -5725.586638054291
4558 -5724.431147469881
4559 -5723.597807505322
4560 -5722.77825500828
4561 -5721.379101750995
4562 -5720.540167068134
4563 -5719.593397924124
4564 -5718.237022528039
4565 -5717.196488624829
4566 -5716.225370384763
4567 -5714.681722149759
4568 -5713.756753463787
4569 -5712.160461273638
4570 -5711.258775780493
4571 -5709.814436816666
4572 -5708.881481683925
4573 -5707.853554856537
4574 -5706.394052733648
4575 -5705.427994711526
4576 -5704.060686016489
4577 -5703.169241000711
4578 -5702.362743228399
4579 -5701.047077347149
4580 -5700.283061905347
4581 -5699.449631802435
4582 -5698.253879213446
4583 -5697.461622100458
4584 -5696.784911614399
4585 -5695.968365780551
4586 -5695.288580766274
4587 -5694.458058077256
4588 -5693.735380085562
4589 -5692.927409329687
4590 -5692.266737104521
4591 -5691.119215620974
4592 -5690.414133183451
4593 -5689.628915480464
4594 -5688.902137357409
4595 -5688.077763463207
4596 -5687.040462618945
4597 -5686.2991377001
4598 -5685.665047339382
4599 -5684.990343004491
4600 -5684.214526846843
4601 -5683.643878513236
4602 -5683.111334395237
4603 -5682.261697575971
4604 -5681.850724718356
4605 -5681.36665098608
4606 -5680.675561002304
4607 -5680.256263827545
4608 -5679.88479212961
4609 -5679.285681569422
4610 -5678.955974266782
4611 -5678.607207479089
4612 -5678.175255614136
4613 -5677.825239644944
4614 -5677.577436946895
4615 -5677.10478183591
4616 -5676.842684575569
4617 -5676.481865196703
4618 -5676.286806214872
4619 -5675.930630141405
4620 -5675.735521720186
4621 -5675.357507052393
4622 -5675.188862674876
4623 -5674.89872229667
4624 -5674.829225974139
4625 -5674.669272812683
4626 -5674.571244737696
4627 -5674.497458789285
4628 -5674.564897821145
4629 -5674.496464789404
4630 -5674.605155515041
4631 -5674.698171660425
4632 -5674.858148404415
4633 -5674.869564317341
4634 -5675.020390035015
4635 -5675.117404174356
4636 -5675.374406698013
4637 -5675.392408058304
4638 -5675.500495258052
4639 -5675.631598592876
4640 -5675.797725772234
4641 -5675.889160253923
4642 -5676.030593878867
4643 -5676.097280453399
4644 -5676.176144947598
4645 -5676.138075446074
4646 -5676.186409046013
4647 -5676.146228759811
4648 -5676.180574959233
4649 -5676.106086765492
4650 -5676.141562664515
4651 -5676.062877824077
4652 -5676.092192870095
4653 -5675.996239031397
4654 -5675.996395866184
4655 -5675.755840832411
4656 -5675.59755365136
4657 -5675.339345250349
4658 -5675.183514650574
4659 -5674.875800176935
4660 -5674.672304220948
4661 -5674.262534647527
4662 -5674.159018815863
4663 -5673.731240529196
4664 -5673.538422733634
4665 -5673.104578526683
4666 -5672.817197132511
4667 -5672.252895713893
4668 -5671.928993588295
4669 -5671.404477123049
4670 -5671.045588257689
4671 -5670.438466289727
4672 -5670.017800234386
4673 -5669.269581694676
4674 -5668.828438203991
4675 -5668.028443208737
4676 -5667.552389100651
4677 -5666.779053882867
4678 -5666.256842772179
4679 -5665.365580503692
4680 -5664.834178194065
4681 -5663.925795100837
4682 -5663.42115882973
4683 -5662.543979791195
4684 -5661.943156132716
4685 -5660.967497487833
4686 -5660.385289822306
4687 -5659.347776474109
4688 -5658.654260623674
4689 -5657.538592738184
4690 -5656.886982421726
4691 -5655.780887375682
4692 -5654.695866552771
4693 -5653.910146453063
4694 -5652.842831501072
4695 -5652.128708449754
4696 -5651.194160607635
4697 -5650.106825350977
4698 -5649.50481246663
4699 -5648.463339348665
4700 -5647.897419253542
4701 -5646.994633379462
4702 -5646.165884789784
4703 -5645.573136050833
4704 -5644.791711992313
4705 -5644.20927414347
4706 -5643.375512248338
4707 -5642.817944765976
4708 -5642.132647862511
4709 -5641.639870239639
4710 -5641.05534046366
4711 -5640.628589870768
4712 -5640.030212698977
4713 -5639.64554043102
4714 -5639.147068089597
4715 -5638.697289256262
4716 -5638.175972383731
4717 -5637.86600232638
4718 -5637.589736436086
4719 -5637.304410756702
4720 -5637.036789952314
4721 -5636.926106893406
4722 -5636.812865704881
4723 -5636.592726187809
4724 -5636.58815060803
4725 -5636.416969123155
4726 -5636.402560214733
4727 -5636.211521530135
4728 -5636.153838006845
4729 -5635.966207210005
4730 -5635.888262397688
4731 -5635.745131179682
4732 -5635.643577575195
4733 -5635.459431217064
4734 -5635.408852736547
4735 -5635.202138016984
4736 -5635.203497429158
4737 -5635.054413611164
4738 -5634.975580515513
4739 -5634.770145073351
4740 -5634.695473088569
4741 -5634.400997565223
4742 -5634.279161568027
4743 -5634.02695783928
4744 -5633.896501852953
4745 -5633.71878169476
4746 -5633.555599268306
4747 -5633.306403748722
4748 -5633.119598516024
4749 -5632.793246640073
4750 -5632.558070008725
4751 -5632.113035623512
4752 -5631.867089862544
4753 -5631.412301356198
4754 -5631.061357729917
4755 -5630.7456375066
4756 -5630.3337701028
4757 -5630.022223861382
4758 -5629.769870585546
4759 -5629.365780212775
4760 -5629.093237862071
4761 -5628.720992072293
4762 -5628.249739082479
4763 -5627.859619968998
4764 -5627.463710068745
4765 -5627.139731488726
4766 -5626.86422858893
4767 -5626.51270432446
4768 -5626.373983877792
4769 -5626.014255294409
4770 -5625.784500564604
4771 -5625.551164066944
4772 -5625.385425926162
4773 -5624.979314264649
4774 -5624.796491197293
4775 -5624.530551680757
4776 -5624.299788878055
4777 -5624.041651890986
4778 -5623.770885423615
4779 -5623.564102606543
4780 -5623.456514964728
4781 -5623.19150350301
4782 -5623.082053070563
4783 -5622.807450070193
4784 -5622.585434089462
4785 -5622.409999612838
4786 -5622.289394783622
4787 -5622.060274476886
4788 -5622.047009738902
4789 -5621.85236923768
4790 -5621.844088021586
4791 -5621.748933977223
4792 -5621.780535813234
4793 -5621.741046546256
4794 -5621.742236966938
4795 -5621.762386225934
4796 -5621.854578418388
4797 -5621.903994131605
4798 -5621.964168886409
4799 -5622.003777567508
4800 -5622.161891386277
4801 -5622.322632181732
4802 -5622.469739875115
4803 -5622.551990713438
4804 -5622.873783561463
4805 -5623.02199401803
4806 -5623.199712172046
4807 -5623.376974239212
4808 -5623.556984705796
4809 -5623.599144000297
4810 -5623.901394257421
4811 -5623.937972794199
4812 -5624.096706302247
4813 -5624.198979738002
4814 -5624.342248889678
4815 -5624.330045809254
4816 -5624.393617602323
4817 -5624.317233323808
4818 -5624.354963319069
4819 -5624.270988532081
4820 -5624.28049633709
4821 -5624.165676784412
4822 -5623.983896039959
4823 -5623.697256416336
4824 -5623.519226704615
4825 -5623.100006073716
4826 -5622.904642041835
4827 -5622.507829988414
4828 -5622.24530087071
4829 -5621.922996292263
4830 -5621.412569638799
4831 -5620.999754628419
4832 -5620.399290395747
4833 -5619.959566338304
4834 -5619.608898477403
4835 -5618.876533870005
4836 -5618.624323820264
4837 -5618.187705910376
4838 -5617.644089813592
4839 -5617.242003781039
4840 -5616.853952205246
4841 -5616.176732393835
4842 -5615.896463284461
4843 -5615.429185102583
4844 -5615.194408569208
4845 -5614.63120840046
4846 -5614.397217480798
4847 -5614.015034737496
4848 -5613.903193807052
4849 -5613.556201894185
4850 -5613.368386695403
4851 -5613.09044737169
4852 -5613.016532538431
4853 -5612.771893163364
4854 -5612.735253612597
4855 -5612.549448260961
4856 -5612.503118093161
4857 -5612.362634146168
4858 -5612.325123687739
4859 -5612.205936371057
4860 -5612.119529377012
4861 -5611.956270107939
4862 -5611.899430246114
4863 -5611.782910487666
4864 -5611.572547469747
4865 -5611.312608364657
4866 -5611.144921725254
4867 -5610.844870743025
4868 -5610.501994954716
4869 -5610.154136737393
4870 -5609.930111897203
4871 -5609.516505633058
4872 -5608.943210215545
4873 -5608.373685698972
4874 -5607.899948772763
4875 -5607.044684868262
4876 -5606.51921557724
4877 -5605.845568523837
4878 -5604.986229538123
4879 -5604.272858282213
4880 -5603.617325283025
4881 -5602.480578596694
4882 -5601.76606055614
4883 -5600.992680868727
4884 -5599.86886520021
4885 -5599.077983399705
4886 -5597.872787018102
4887 -5596.942372730483
4888 -5595.753681056356
4889 -5594.938710577174
4890 -5593.677087665566
4891 -5592.864646095168
4892 -5591.737065523425
4893 -5590.659980325726
4894 -5589.949959147149
4895 -5588.874719466859
4896 -5587.908305712982
4897 -5586.902250654725
4898 -5586.37536382268
4899 -5585.499384981179
4900 -5584.812245203549
4901 -5584.022372692725
4902 -5583.641020653067
4903 -5583.089703434565
4904 -5582.648249844154
4905 -5582.295581733949
4906 -5581.853904676566
4907 -5581.579862951589
4908 -5581.295094552936
4909 -5581.08558405303
4910 -5580.826612064575
4911 -5580.60288826369
4912 -5580.351544009179
4913 -5580.103783181975
4914 -5579.817046361697
4915 -5579.502201438147
4916 -5579.30783378999
4917 -5579.117346347455
4918 -5578.948981568592
4919 -5578.769432074178
4920 -5578.550064327122
4921 -5578.387742926569
4922 -5578.244414105603
4923 -5577.997326438091
4924 -5577.881086500999
4925 -5577.701644815724
4926 -5577.674232216368
4927 -5577.453401039948
4928 -5577.401424515462
4929 -5577.167043046557
4930 -5577.010921094313
4931 -5576.849155584027
4932 -5576.825674380125
4933 -5576.681769669758
4934 -5576.534765536788
4935 -5576.470235686554
4936 -5576.346244603768
4937 -5576.115097628498
4938 -5576.075163157928
4939 -5575.879702561766
4940 -5575.843181560228
4941 -5575.579405697125
4942 -5575.464745494446
4943 -5575.198172256314
4944 -5575.087998858794
4945 -5574.985468441252
4946 -5574.857483159253
4947 -5574.534240490934
4948 -5574.431798065351
4949 -5574.107766944147
4950 -5574.006030078074
4951 -5573.915023894019
4952 -5573.789933814687
4953 -5573.522165589515
4954 -5573.35956636781
4955 -5573.08341127282
4956 -5573.001703442343
4957 -5572.743259912299
4958 -5572.595387108565
4959 -5572.348058188767
4960 -5572.266570536043
4961 -5572.05474113229
4962 -5572.050694344692
4963 -5571.923738989209
4964 -5571.874697326932
4965 -5571.849642881436
4966 -5571.939332403004
4967 -5571.896548493209
4968 -5571.958638593756
4969 -5572.10888351221
4970 -5572.20053446033
4971 -5572.262119399066
4972 -5572.420009717634
4973 -5572.694472856459
4974 -5572.978184155695
4975 -5573.329442254449
4976 -5573.582540807723
4977 -5573.879131807897
4978 -5574.215987635079
4979 -5574.620547757597
4980 -5574.935884533013
4981 -5575.219386820806
4982 -5575.496877567872
4983 -5575.694341046521
4984 -5576.021651156505
4985 -5576.241214018219
4986 -5576.403189812046
4987 -5576.519389377127
4988 -5576.632091463227
4989 -5576.707647112184
4990 -5576.808351312785
4991 -5576.768919516114
4992 -5576.868952954634
4993 -5576.841898811262
4994 -5576.690427649058
4995 -5576.514417748212
4996 -5576.305608307239
4997 -5576.074156151271
4998 -5575.878108855127
4999 -5575.559956300078
5000 -5575.26034157284
5001 -5574.960251984763
5002 -5574.617556039691
5003 -5574.302079346613
5004 -5573.987193442479
5005 -5573.50428119941
5006 -5573.19783299497
5007 -5572.826245658263
5008 -5572.370475182628
5009 -5572.01963417156
5010 -5571.590134272625
5011 -5571.251945608362
5012 -5570.887034749131
5013 -5570.610550775537
5014 -5570.291590143389
5015 -5570.047711917368
5016 -5569.766040181506
5017 -5569.463392746849
5018 -5569.152128530362
5019 -5568.979392340867
5020 -5568.684424915086
5021 -5568.514888803795
5022 -5568.313662921801
5023 -5568.162781379971
5024 -5568.079143784592
5025 -5567.963558076683
5026 -5567.794457802378
5027 -5567.656092014434
5028 -5567.556895674679
5029 -5567.521653778913
5030 -5567.462498139859
5031 -5567.361933339567
5032 -5567.301971330993
5033 -5567.207451581801
5034 -5567.181655426646
5035 -5567.003614148144
5036 -5566.888848971723
5037 -5566.85164542628
5038 -5566.613850836814
5039 -5566.431855645271
5040 -5566.334471041177
5041 -5566.075198362232
5042 -5565.925383096739
5043 -5565.72907915977
5044 -5565.588061280057
5045 -5565.37056467555
5046 -5565.192636694061
5047 -5564.898707439233
5048 -5564.752745275556
5049 -5564.421791873803
5050 -5564.37228515
5051 -5564.160364780864
5052 -5564.072375086367
5053 -5563.916578604842
5054 -5563.7054924718
5055 -5563.604388813088
5056 -5563.50534543928
5057 -5563.135599302449
5058 -5563.042075831705
5059 -5562.833525861864
5060 -5562.632606475986
5061 -5562.482364408328
5062 -5562.346540050167
5063 -5562.190448994073
5064 -5562.093915136941
5065 -5561.908809806469
5066 -5561.731022155634
5067 -5561.55014335895
5068 -5561.239558685745
5069 -5560.928179167023
5070 -5560.670466358219
5071 -5560.386743896583
5072 -5559.999389936922
5073 -5559.589255198443
5074 -5559.057835305507
5075 -5558.612440735648
5076 -5557.954802458552
5077 -5557.399355801623
5078 -5556.860223596347
5079 -5555.994853311367
5080 -5555.472739687379
5081 -5554.77022081012
5082 -5553.771966625626
5083 -5552.927080945879
5084 -5551.70431283401
5085 -5550.898747363569
5086 -5549.577745986076
5087 -5548.744498579284
5088 -5547.322037667659
5089 -5546.359185566704
5090 -5544.901259785765
5091 -5543.907412438515
5092 -5542.485560957302
5093 -5541.44824868717
5094 -5539.943104298188
5095 -5538.430383368424
5096 -5537.521525635323
5097 -5536.069994247513
5098 -5534.650194173601
5099 -5533.684005678065
5100 -5532.432353874524
5101 -5531.54002732724
5102 -5530.20164440928
5103 -5528.829005266746
5104 -5527.998976676649
5105 -5526.70733824788
5106 -5525.902120015439
5107 -5524.709012151179
5108 -5523.600698610961
5109 -5522.927863947616
5110 -5521.96336566338
5111 -5521.310839593386
5112 -5520.432648038192
5113 -5519.800011194377
5114 -5519.046613919711
5115 -5518.519629345297
5116 -5517.874419331763
5117 -5517.388148112085
5118 -5516.787094396402
5119 -5516.376832466295
5120 -5515.883142388658
5121 -5515.583106179785
5122 -5515.23506444051
5123 -5514.978220146437
5124 -5514.822293036552
5125 -5514.612284293516
5126 -5514.605930837502
5127 -5514.464700190915
5128 -5514.433718462894
5129 -5514.384607186944
5130 -5514.480803571927
5131 -5514.546264128976
5132 -5514.709618912082
5133 -5514.80608112311
5134 -5515.028793676099
5135 -5515.206861350606
5136 -5515.397729689479
5137 -5515.59539056127
5138 -5515.864567106922
5139 -5516.195594265884
5140 -5516.541231544524
5141 -5516.816843371336
5142 -5517.365307882149
5143 -5517.684444861957
5144 -5518.104457739129
5145 -5518.779407932889
5146 -5519.337142142764
5147 -5520.022410820236
5148 -5520.549621785669
5149 -5521.269859328306
5150 -5521.803682210601
5151 -5522.589456043605
5152 -5523.126571935551
5153 -5523.792023412075
5154 -5524.299040245506
5155 -5525.03838555023
5156 -5525.647795549283
5157 -5526.410406487015
5158 -5527.07566265454
5159 -5527.800111449801
5160 -5528.38161852237
5161 -5529.242656399814
5162 -5529.825350101582
5163 -5530.556141493332
5164 -5531.038139121997
5165 -5531.688132339243
5166 -5532.111325096645
5167 -5532.681919804192
5168 -5533.103014371442
5169 -5533.74684534844
5170 -5534.138680206172
5171 -5534.550760886113
5172 -5534.917821255029
5173 -5535.212985032676
5174 -5535.470478080542
5175 -5535.606667596224
5176 -5535.776449653137
5177 -5535.884902109552
5178 -5535.972273066668
5179 -5535.987880638426
5180 -5536.057720739216
5181 -5536.028239371712
5182 -5536.065376202506
5183 -5535.788356604811
5184 -5535.715376222672
5185 -5535.441783397496
5186 -5535.289871412069
5187 -5534.886762086002
5188 -5534.700982674843
5189 -5534.264007044322
5190 -5534.0281650496
5191 -5533.607516070796
5192 -5533.34943325005
5193 -5532.835272963426
5194 -5532.547968000074
5195 -5532.038747280675
5196 -5531.75697661575
5197 -5531.279533515532
5198 -5531.023436822403
5199 -5530.463795746326
5200 -5530.220842898251
5201 -5529.730666757045
5202 -5529.510213836304
5203 -5529.231365251445
5204 -5529.098087310029
5205 -5528.740571824866
5206 -5528.503902199656
5207 -5528.236033278667
5208 -5528.190918608583
5209 -5528.036392871732
5210 -5527.930820745206
5211 -5527.828451182583
5212 -5527.844018049696
5213 -5527.915072677285
5214 -5528.057655421473
5215 -5528.329031388707
5216 -5528.62412434135
5217 -5528.95037470175
5218 -5529.310210252461
5219 -5529.55443080216
5220 -5530.028174808864
5221 -5530.281388923499
5222 -5530.797190868828
5223 -5531.157057220675
5224 -5531.773174715325
5225 -5532.137423103217
5226 -5532.702397477261
5227 -5533.050632872482
5228 -5533.757740807431
5229 -5534.052459722209
5230 -5534.629902387257
5231 -5534.932715569495
5232 -5535.524868886593
5233 -5535.800018804336
5234 -5536.362839630016
5235 -5536.671960303807
5236 -5537.129860538907
5237 -5537.324242486253
5238 -5537.75550742428
5239 -5537.931062692452
5240 -5538.320406892003
5241 -5538.376388456903
5242 -5538.557502123779
5243 -5538.613712380997
5244 -5538.695319371052
5245 -5538.556612963566
5246 -5538.56028910956
5247 -5538.41318939624
5248 -5538.218618131546
5249 -5538.025216319622
5250 -5537.65647444807
5251 -5537.288050999574
5252 -5536.894100767661
5253 -5536.25485918686
5254 -5535.703194436319
5255 -5535.181364613232
5256 -5534.535615409026
5257 -5533.580777726028
5258 -5532.851206722346
5259 -5532.108957341869
5260 -5531.318003988815
5261 -5529.99835912433
5262 -5529.154852349971
5263 -5528.217427074204
5264 -5526.839768890941
5265 -5525.800852904751
5266 -5524.302468674247
5267 -5523.258836919204
5268 -5521.813815245752
5269 -5520.779021523336
5270 -5519.311346200344
5271 -5518.367183864591
5272 -5517.004014328837
5273 -5516.076107413322
5274 -5514.817916198822
5275 -5513.935146662086
5276 -5512.739973520826
5277 -5511.913949042245
5278 -5510.627926233355
5279 -5509.814292084078
5280 -5508.584113827218
5281 -5507.791605136341
5282 -5506.645839350408
5283 -5505.911239104977
5284 -5504.986765680452
5285 -5504.246018341432
5286 -5503.230393496467
5287 -5502.470569249394
5288 -5501.917130398037
5289 -5500.953225877741
5290 -5500.328250544801
5291 -5499.65809922832
5292 -5498.712294554772
5293 -5498.125913167271
5294 -5497.621114294097
5295 -5496.732614793562
5296 -5496.17234679037
5297 -5495.572526481399
5298 -5494.972871828668
5299 -5494.398201539604
5300 -5493.659519934436
5301 -5493.095839074129
5302 -5492.582690918291
5303 -5491.98027612755
5304 -5491.53832654368
5305 -5491.030436087418
5306 -5490.574566702669
5307 -5489.799620251211
5308 -5489.464227655277
5309 -5489.00746028145
5310 -5488.671660715466
5311 -5487.986661501144
5312 -5487.691368051968
5313 -5487.354850493818
5314 -5487.173651207053
5315 -5486.864522429805
5316 -5486.707204842893
5317 -5486.498863792463
5318 -5486.454054460625
5319 -5486.411329256265
5320 -5486.416149849922
5321 -5486.345855561711
5322 -5486.516983645199
5323 -5486.652236214823
5324 -5486.811959142557
5325 -5486.919485975118
5326 -5487.107025167948
5327 -5487.220734665714
5328 -5487.551222229004
5329 -5487.698302086787
5330 -5488.094132288793
5331 -5488.28373516484
5332 -5488.738137448064
5333 -5488.969509994758
5334 -5489.447266071566
5335 -5489.651771162528
5336 -5490.025835261038
5337 -5490.305794857544
5338 -5490.709869871714
5339 -5490.948343912954
5340 -5491.307191760375
5341 -5491.453490415604
5342 -5491.706051620338
5343 -5491.858529421156
5344 -5492.063886483947
5345 -5492.110529920544
5346 -5492.280466744663
5347 -5492.314689733776
5348 -5492.297708490554
5349 -5492.185356086858
5350 -5492.096069994227
5351 -5491.849986285305
5352 -5491.714747688025
5353 -5491.577487688564
5354 -5491.32349098131
5355 -5491.01225795143
5356 -5490.766171847854
5357 -5490.460610864779
5358 -5490.041744557345
5359 -5489.716982594182
5360 -5489.261004420498
5361 -5488.879335390267
5362 -5488.388411453502
5363 -5487.988160615103
5364 -5487.450963629772
5365 -5487.023903729256
5366 -5486.481028237468
5367 -5486.182740244459
5368 -5485.651765127881
5369 -5485.312625083847
5370 -5484.839705487479
5371 -5484.417754003157
5372 -5483.773969509827
5373 -5483.368805982655
5374 -5482.890411863169
5375 -5482.545920997533
5376 -5482.16183555265
5377 -5481.80509297306
5378 -5481.429004751979
5379 -5481.204413061432
5380 -5480.915255729746
5381 -5480.664699482498
5382 -5480.476707970601
5383 -5480.27451025176
5384 -5480.319607797001
5385 -5480.222914534907
5386 -5480.215962855856
5387 -5480.172865095384
5388 -5480.246820056824
5389 -5480.274800467582
5390 -5480.375670118834
5391 -5480.594697508061
5392 -5480.820130003418
5393 -5480.969381794492
5394 -5481.33538799429
5395 -5481.605473069261
5396 -5482.023777441076
5397 -5482.640612332511
5398 -5483.207411451171
5399 -5483.687880860946
5400 -5484.645180102382
5401 -5485.27698655988
5402 -5486.251473115381
5403 -5486.880081582891
5404 -5487.89044027087
5405 -5488.523844848819
5406 -5489.663324160313
5407 -5490.383409324904
5408 -5491.468246339055
5409 -5492.214842635127
5410 -5493.492711246718
5411 -5494.234424246654
5412 -5495.367041134843
5413 -5496.105827570951
5414 -5497.184643564851
5415 -5497.80356053643
5416 -5498.847915210578
5417 -5499.396976233776
5418 -5500.321602522079
5419 -5500.834588666588
5420 -5501.614104207564
5421 -5502.007374156475
5422 -5502.645113922284
5423 -5502.98570812598
5424 -5503.562066979394
5425 -5503.77415215273
5426 -5504.079740266595
5427 -5504.180241796942
5428 -5504.472831896629
5429 -5504.555220302714
5430 -5504.732536876791
5431 -5504.759497120412
5432 -5504.84171274925
5433 -5504.652465352111
5434 -5504.646131641017
5435 -5504.57813724926
5436 -5504.516904001608
5437 -5504.249783316286
5438 -5504.125761034956
5439 -5503.882959729873
5440 -5503.84837871439
5441 -5503.596804414241
5442 -5503.495893730466
5443 -5503.303160085892
5444 -5503.137176767621
5445 -5502.908249941149
5446 -5502.788429837666
5447 -5502.629399751707
5448 -5502.495272920092
5449 -5502.246332915512
5450 -5502.038823020331
5451 -5501.777905823406
5452 -5501.63154233182
5453 -5501.316288068389
5454 -5501.104486572181
5455 -5500.852486617949
5456 -5500.333229885248
5457 -5499.904713743124
5458 -5499.499956058802
5459 -5498.730088516158
5460 -5498.306832933627
5461 -5497.732838195865
5462 -5496.917178884529
5463 -5496.28218235787
5464 -5495.66480974959
5465 -5494.570023142446
5466 -5493.828202752105
5467 -5492.944856470242
5468 -5491.620442457774
5469 -5490.64443362571
5470 -5489.371847072824
5471 -5488.419693836819
5472 -5487.055298931517
5473 -5486.090395823568
5474 -5484.820516969222
5475 -5483.861189116552
5476 -5482.543330000626
5477 -5481.643376427392
5478 -5480.408357378375
5479 -5479.500840669362
5480 -5478.441687003775
5481 -5477.645588518015
5482 -5476.653149020386
5483 -5475.539499874055
5484 -5474.93055786107
5485 -5473.992551861988
5486 -5473.201308987665
5487 -5472.449974981078
5488 -5472.088591859886
5489 -5471.528955595683
5490 -5471.137572017688
5491 -5470.868661595429
5492 -5470.6319455681
5493 -5470.400882019021
5494 -5470.331407174668
5495 -5470.31703727685
5496 -5470.477853969082
5497 -5470.505066059231
5498 -5470.794113034871
5499 -5470.911036170113
5500 -5471.298040077541
5501 -5471.506436369827
5502 -5472.022178180788
5503 -5472.294588990594
5504 -5472.986475741723
5505 -5473.362535887285
5506 -5474.021119789546
5507 -5474.44594558371
5508 -5475.105590466916
5509 -5475.579829265202
5510 -5476.301331619681
5511 -5476.736652308993
5512 -5477.579535036185
5513 -5478.293688323774
5514 -5478.822280669699
5515 -5479.507936591915
5516 -5480.338581295985
5517 -5480.762272086383
5518 -5481.470526966188
5519 -5482.048119218476
5520 -5482.793605673776
5521 -5483.332870255405
5522 -5483.781476839877
5523 -5484.356686517743
5524 -5484.894681971723
5525 -5485.257247301565
5526 -5485.672388037397
5527 -5485.923230151582
5528 -5486.131853578762
5529 -5486.185551327909
5530 -5486.469627163794
5531 -5486.520061671762
5532 -5486.586932755707
5533 -5486.443968108979
5534 -5486.459794583714
5535 -5486.292309125923
5536 -5486.068373290946
5537 -5485.699401021962
5538 -5485.281995644796
5539 -5484.892122830643
5540 -5484.42525875376
5541 -5483.904985447208
5542 -5483.20476021857
5543 -5482.597601652432
5544 -5481.679063727567
5545 -5480.940949481766
5546 -5480.039510912527
5547 -5479.231095403097
5548 -5478.075560398903
5549 -5477.20643320583
5550 -5475.886609804209
5551 -5474.508303480275
5552 -5473.615948346266
5553 -5472.153034636453
5554 -5470.831153967823
5555 -5469.824142940266
5556 -5468.295977434124
5557 -5466.780724232144
5558 -5465.477037395294
5559 -5464.044365400914
5560 -5463.230344274304
5561 -5461.798587119908
5562 -5460.629945551753
5563 -5459.392578322982
5564 -5458.275143981386
5565 -5457.185846048055
5566 -5456.495784236943
5567 -5455.46656275345
5568 -5454.536472815962
5569 -5453.894526971978
5570 -5453.111331638474
5571 -5452.297140153698
5572 -5451.845312922167
5573 -5451.134929991231
5574 -5450.52426864075
5575 -5450.060288323956
5576 -5449.552183227823
5577 -5448.974507562408
5578 -5448.617802718837
5579 -5448.067236512089
5580 -5447.803760308747
5581 -5447.575891949616
5582 -5447.230246214323
5583 -5446.93266946783
5584 -5446.895987461669
5585 -5446.62148346195
5586 -5446.430965314682
5587 -5446.268213365274
5588 -5446.30363197366
5589 -5446.266283006786
5590 -5446.449544947146
5591 -5446.52767319136
5592 -5446.673055868979
5593 -5446.750314230681
5594 -5447.098393448065
5595 -5447.320558860696
5596 -5447.701915446486
5597 -5447.898724218419
5598 -5448.440613383209
5599 -5448.784442478536
5600 -5449.455612680753
5601 -5449.950947192201
5602 -5450.859510237917
5603 -5451.34350069518
5604 -5452.382344495934
5605 -5453.128586689022
5606 -5454.428473163848
5607 -5455.302519305216
5608 -5456.824302986422
5609 -5457.845289572437
5610 -5459.555723540138
5611 -5460.619066658172
5612 -5462.437280402215
5613 -5464.184250623171
5614 -5465.501471060899
5615 -5467.241421522101
5616 -5469.134438794647
5617 -5471.093035740491
5618 -5473.09995602576
5619 -5474.835931125085
5620 -5476.694196947441
5621 -5478.48718382199
5622 -5480.215226892721
5623 -5481.730463646429
5624 -5483.277241313244
5625 -5484.643688203173
5626 -5485.964190776174
5627 -5487.050733754801
5628 -5488.163002744935
5629 -5489.018409118426
5630 -5489.831003494114
5631 -5490.451156264096
5632 -5491.014795431632
5633 -5491.308248906943
5634 -5491.545299196397
5635 -5491.607477328148
5636 -5491.550175994588
5637 -5491.338112372037
5638 -5491.045823049948
5639 -5490.650734881364
5640 -5490.11791278246
5641 -5489.578783636376
5642 -5488.7923788464
5643 -5488.011573833051
5644 -5486.830230566959
5645 -5485.985592487417
5646 -5484.747229105255
5647 -5483.778895613827
5648 -5482.407275274467
5649 -5481.328944220036
5650 -5479.807463091581
5651 -5478.68689383108
5652 -5477.130824136219
5653 -5476.054867925457
5654 -5474.39904745461
5655 -5473.193596908744
5656 -5471.54498870699
5657 -5470.34860239319
5658 -5468.799312734088
5659 -5467.741675901486
5660 -5466.150625861654
5661 -5465.095081288441
5662 -5463.630481479046
5663 -5462.617129790106
5664 -5461.364014166821
5665 -5460.445207570658
5666 -5459.218395544453
5667 -5458.421883874043
5668 -5457.332824219769
5669 -5456.621143355598
5670 -5455.582243176053
5671 -5454.895817446326
5672 -5454.075597356241
5673 -5453.469090095158
5674 -5452.811108561467
5675 -5452.263030596979
5676 -5451.688735579152
5677 -5451.288920657305
5678 -5450.864795755529
5679 -5450.089448991243
5680 -5449.672136293463
5681 -5448.888954911439
5682 -5448.562800652661
5683 -5447.822414544056
5684 -5447.450675669587
5685 -5446.896607844829
5686 -5446.251325888732
5687 -5445.742098585927
5688 -5445.280857627738
5689 -5444.54893674148
5690 -5444.141484093136
5691 -5443.667387824625
5692 -5443.088588023213
5693 -5442.604338243624
5694 -5442.149791359037
5695 -5441.485619771423
5696 -5441.125896521885
5697 -5440.745037239465
5698 -5440.476911784636
5699 -5439.962589941584
5700 -5439.752034481667
5701 -5439.456475316716
5702 -5439.366317818106
5703 -5439.191160272776
5704 -5439.087927908088
5705 -5439.051795943518
5706 -5439.113046621231
5707 -5439.17555946537
5708 -5439.407456689211
5709 -5439.644221979452
5710 -5439.904547666885
5711 -5440.225379655391
5712 -5440.857413439013
5713 -5441.248132099504
5714 -5441.765178356622
5715 -5442.263539880308
5716 -5442.983900857056
5717 -5443.781497871652
5718 -5444.63898199037
5719 -5445.461880673009
5720 -5446.478623242341
5721 -5447.363573271696
5722 -5448.454604242738
