"x-rfile"
"Iteration" "x"
("Iteration" "x")
1 2952.923359664425
2 2677.855181422069
3 1976.633315882229
4 1610.90495896869
5 1276.211274722225
6 1033.012765198209
7 800.8835925823587
8 621.2413246061988
9 436.2556623271665
10 307.3718329797813
11 189.7210198730255
12 111.6364607152674
13 60.40575269550838
14 24.55545842395363
15 2.551051545549844
16 -6.412173488408254
17 -7.990934634359563
18 -4.152645966076652
19 4.844258855226149
20 15.87386752120058
21 29.76813809077798
22 42.94745275939358
23 55.31340415825888
24 66.58293341937946
25 75.01446454029751
26 82.43192113416018
27 87.7766910032136
28 92.41056258084626
29 95.4538438859349
30 97.99249472659839
31 100.0016840491304
32 101.9608530601467
33 103.2381171823715
34 103.8490068723614
35 104.0100867469176
36 103.6012816534023
37 102.6694899890197
38 101.4884162149957
39 100.0638302036212
40 98.47904283580164
41 97.02572085091457
42 95.74043222028858
43 94.36357733884959
44 92.63447039594656
45 91.28984025726965
46 89.65413128168426
47 88.15654026702703
48 86.77443556428877
49 85.50336238214874
50 84.54129947789859
51 83.43639245098299
52 82.59959435506552
53 81.79500226143475
54 81.03246686488811
55 80.30500381160283
56 79.7260483048658
57 79.14514672102902
58 78.47672378984714
59 77.92269414649729
60 77.37248693674729
61 76.75453253201815
62 76.23038413171592
63 75.70649346332162
64 75.19891804442736
65 74.695181327507
66 74.20554691036553
67 73.72096164464621
68 73.25354947320292
69 72.79693347319343
70 72.35624468093467
71 71.92731627313854
72 71.51621860629544
73 71.11585828184023
74 70.73369650163934
75 70.36100717845817
76 70.00628329595895
77 69.6615567874659
78 69.33420246227955
79 69.01379129845331
80 68.70938599344808
81 68.40933853232434
82 68.12383059099896
83 67.8432598544432
84 67.57443621027379
85 67.30749841591054
86 67.04899560732621
87 66.79099114033801
88 66.5407023997068
89 66.28857814482261
90 66.04304926049358
91 65.79449104235164
92 65.55184917070842
93 65.30613578674144
94 65.06589974210479
95 64.82325280458483
96 64.58712265264019
97 64.3486802642101
98 64.11674793322847
99 63.88434647449928
100 63.65849617650454
101 63.43373372809958
102 63.21737135580979
103 63.00217929718772
104 62.79584325154541
105 62.5916732575024
106 62.39828880602378
107 62.20816126489528
108 62.02937968195794
109 61.85378312396111
110 61.69028571922754
111 61.53094001799485
112 61.38347713846542
113 61.24169362648828
114 61.11116618066733
115 60.985681326963
116 60.87246263466275
117 60.76280762207841
118 60.66451240730895
119 60.57102198555128
120 60.48810815966562
121 60.40863439033426
122 60.33992213178792
123 60.27359884653271
124 60.2178830604492
125 60.16344036293471
126 60.11763994758491
127 60.07277719761051
128 60.03591013091221
129 59.9999124694961
130 59.97205485657501
131 59.94404583495135
132 59.92397255421488
133 59.90305995252678
134 59.88787883775702
135 59.87131483015985
136 59.85977222870945
137 59.84628650376684
138 59.8393876456128
139 59.82882589223018
140 59.82374201757617
141 59.81409855138828
142 59.8097103224007
143 59.80138266726934
144 59.79917380615174
145 59.7916216225947
146 59.78900682017265
147 59.7813692030611
148 59.77778276410305
149 59.76993823147912
150 59.76627960090808
151 59.75743724015157
152 59.75241625491094
153 59.74360874759835
154 59.73793518738093
155 59.72845903109999
156 59.72176667345637
157 59.71109485284857
158 59.70354685390122
159 59.69151696621267
160 59.6827788116545
161 59.66934898831205
162 59.6593161308413
163 59.64433998640159
164 59.63346218532618
165 59.61847868152421
166 59.60636871411301
167 59.59029591962907
168 59.57767466855753
169 59.56082346900215
170 59.54737940838536
171 59.52979519780778
172 59.51563889382109
173 59.49798436436424
174 59.48327237923328
175 59.46512025518448
176 59.44990041371675
177 59.43152549861588
178 59.41587611470941
179 59.39734597169902
180 59.38178044586442
181 59.36295707813444
182 59.34742565186039
183 59.32861644306713
184 59.31356413892657
185 59.29494222461146
186 59.27929402760827
187 59.26041205820756
188 59.24528813894872
189 59.22680101851751
190 59.21215826210762
191 59.19375913084652
192 59.17899196751845
193 59.1604485818719
194 59.14509561108643
195 59.12680350116973
196 59.11145792537741
197 59.0934951328484
198 59.07784194839187
199 59.05933014283714
200 59.04396818574791
201 59.02517656861252
202 59.00952570070233
203 58.99020067226635
204 58.97484332018415
205 58.95527792056828
206 58.93942342308943
207 58.92044198844491
208 58.9050800818726
209 58.88601788209919
210 58.87019583336959
211 58.85064153796763
212 58.83574559686645
213 58.8168482370921
214 58.80212914046661
215 58.78353463054151
216 58.76923865077645
217 58.75105925218539
218 58.73751431283675
219 58.72010082275135
220 58.70726896408174
221 58.68382290447853
222 58.67226787199858
223 58.65738322592789
224 58.64762083791538
225 58.63440366274092
226 58.62520854470297
227 58.61304953737655
228 58.60535524952694
229 58.59376218940992
230 58.58108167558601
231 58.5706455953732
232 58.56488420393237
233 58.55490988686633
234 58.54916088789147
235 58.53940372970661
236 58.53459411904565
237 58.52547656800146
238 58.52034199954949
239 58.5113764792674
240 58.50716654633397
241 58.4976077208775
242 58.49296115279499
243 58.4834411952209
244 58.47900466293304
245 58.46945857919718
246 58.4646365311433
247 58.45514584796982
248 58.45011305246463
249 58.44015126843498
250 58.43466675398199
251 58.42438567690478
252 58.41917535718636
253 58.40864957359655
254 58.40286826165112
255 58.39208405566229
256 58.38615510211824
257 58.37535582062268
258 58.36958670078607
259 58.35807965973924
260 58.35220201962147
261 58.34118553069617
262 58.33493753209671
263 58.32393151326724
264 58.31822321381498
265 58.30710588183599
266 58.30115354762069
267 58.28995464152033
268 58.28355834341496
269 58.2721612177759
270 58.26590474441832
271 58.25395198921791
272 58.24756434006484
273 58.23587149376316
274 58.22930253995106
275 58.21733287422104
276 58.21057913023014
277 58.19855186796163
278 58.19151633540776
279 58.17955083501478
280 58.17251679365234
281 58.16087986463533
282 58.15431461557638
283 58.14198181219429
284 58.13528876933913
285 58.12387844544911
286 58.11726069346699
287 58.10557417270817
288 58.09951284825196
289 58.08841136961349
290 58.08248407166541
291 58.07178249030817
292 58.06629588829554
293 58.05605441442493
294 58.05068348544819
295 58.04053116800747
296 58.03585668838814
297 58.02627356143572
298 58.02175282352437
299 58.01221160002285
300 58.00828541324709
301 57.99921361854534
302 57.99539496805356
303 57.98654885592587
304 57.9830685875997
305 57.97459003481172
306 57.97147751697099
307 57.96326442753569
308 57.96023196165088
309 57.95229052004306
310 57.94902480398576
311 57.94091449683131
312 57.93847713185905
313 57.93077307377288
314 57.92882317445663
315 57.92095660195773
316 57.91891506166075
317 57.91128334975195
318 57.90931908357885
319 57.90173080163409
320 57.89992013063444
321 57.8930131746182
322 57.89132243823845
323 57.88448019930179
324 57.88316731618726
325 57.87666359979632
326 57.87554717988382
327 57.86904971136573
328 57.86805272838794
329 57.86191425202755
330 57.86129580931772
331 57.85534540348878
332 57.85507187100414
333 57.849888539307
334 57.84944607387877
335 57.84407102565386
336 57.84392080583687
337 57.8388024795504
338 57.83899979788483
339 57.8336845692935
340 57.83376674776831
341 57.82855068213914
342 57.82851255114168
343 57.82331089541158
344 57.82325527185314
345 57.81814591862971
346 57.81779814476307
347 57.81224919209963
348 57.81184621624587
349 57.80654720436758
350 57.80627111862054
351 57.8010106793284
352 57.80065718378184
353 57.79521952778843
354 57.79496222526795
355 57.78936387729598
356 57.78896816090558
357 57.78391567490134
358 57.78372283272935
359 57.77874866362595
360 57.77900072623553
361 57.77406331431116
362 57.7740199451203
363 57.76916237853587
364 57.76929068052151
365 57.76464571737355
366 57.7649945638091
367 57.76067556454176
368 57.76138591755955
369 57.75668132317568
370 57.75732807266602
371 57.75248106087795
372 57.75333365307427
373 57.74871120678685
374 57.74940968465523
375 57.74474832800712
376 57.74513785459842
377 57.74050873674724
378 57.74093845424983
379 57.73579419795277
380 57.73606798129681
381 57.73110489755784
382 57.7312091751502
383 57.72608397607801
384 57.72615761259289
385 57.72091036250362
386 57.72116864581919
387 57.71575285699961
388 57.71596984661483
389 57.71090597188872
390 57.71100639930887
391 57.70600814537291
392 57.70635768105525
393 57.70171755136532
394 57.70196742750584
395 57.69703692501465
396 57.69771440105048
397 57.69319545044502
398 57.69379540765714
399 57.6893440437355
400 57.68998329587595
401 57.68574905232304
402 57.68643395058753
403 57.68220733044058
404 57.68294598732928
405 57.67899200709029
406 57.67950346222668
407 57.67560341876915
408 57.67634151985803
409 57.67209348852736
410 57.67291904306101
411 57.66833699117085
412 57.66857526377076
413 57.66421444819105
414 57.66452061620228
415 57.65987882395075
416 57.66041903591304
417 57.65580748887011
418 57.65619207043145
419 57.65119579603742
420 57.65126004621416
421 57.64660698908101
422 57.6468026590806
423 57.64206841092162
424 57.64239198289761
425 57.63797100265857
426 57.63865032994166
427 57.63374987008766
428 57.63454822046525
429 57.6301606184015
430 57.631041803692
431 57.62691683361523
432 57.62800585249006
433 57.62371604938727
434 57.62508420845481
435 57.62068874256323
436 57.62202670442237
437 57.61817805916765
438 57.61910398291769
439 57.61540386744022
440 57.61634598646869
441 57.61277790313959
442 57.61336447198371
443 57.60933976220225
444 57.61045315772803
445 57.60612463428262
446 57.60697389536129
447 57.60255569979828
448 57.60332443875696
449 57.59860982005965
450 57.59921646537454
451 57.59444544583543
452 57.59503759218015
453 57.5908992106449
454 57.59099743645775
455 57.58684891201241
456 57.58754018045491
457 57.58300683378445
458 57.58348607414437
459 57.57927065148868
460 57.58004178989484
461 57.57625011211528
462 57.57703305737354
463 57.57280194120187
464 57.57408887743971
465 57.57057142036835
466 57.57157659004932
467 57.56763631640327
468 57.56908039795766
469 57.5657048440934
470 57.56706106267944
471 57.56350004068895
472 57.56437801281386
473 57.56100460512091
474 57.56192854967024
475 57.55853533711092
476 57.55960587378491
477 57.55642697784617
478 57.55721677506207
479 57.55370598725698
480 57.55501873311816
481 57.55123046973193
482 57.55179378150417
483 57.54788082439693
484 57.54858984636836
485 57.5451010826442
486 57.54585333393889
487 57.54153719426382
488 57.54272476385473
489 57.53877983216281
490 57.53974446137484
491 57.53550582386499
492 57.53637752961229
493 57.53280018103145
494 57.53367501524875
495 57.52992306366851
496 57.53121817133268
497 57.52759291790753
498 57.52902085831224
499 57.52554969371091
500 57.52711711147484
501 57.52396031320845
502 57.52529730620986
503 57.52202136593999
504 57.52387087179766
505 57.52064955615933
506 57.52234676258628
507 57.51911128739134
508 57.52088333268111
509 57.51762596629474
510 57.5190748917685
511 57.5155759146289
512 57.51688726422698
513 57.51339278479728
514 57.51477314935227
515 57.51110281993662
516 57.51262873706925
517 57.50915632460644
518 57.51025707322277
519 57.50613761702276
520 57.50745450994754
521 57.50351187553608
522 57.50456865978985
523 57.50056942573264
524 57.50182498690862
525 57.49858204812468
526 57.49962996200104
527 57.49601368237664
528 57.49773467621186
529 57.49424276536642
530 57.49566526158868
531 57.49220351743258
532 57.49403877017616
533 57.49117978907143
534 57.49305231503085
535 57.49011392406479
536 57.49201211741982
537 57.48902766738432
538 57.4909173953352
539 57.48759192757659
540 57.49000424501291
541 57.48710313736297
542 57.48910693582848
543 57.48586110079945
544 57.48787238811414
545 57.48460576078634
546 57.48660609658273
547 57.48294283651887
548 57.48480706864562
549 57.4814694020284
550 57.48300012242902
551 57.4793688095784
552 57.48123551058779
553 57.47778191862326
554 57.47920970755797
555 57.47526901436965
556 57.47702140400972
557 57.47345200090096
558 57.47495341770913
559 57.47130498004013
560 57.47312600774464
561 57.46970668281387
562 57.47127222707678
563 57.46792690156361
564 57.46996501326982
565 57.46725045014837
566 57.468691597088
567 57.46552919899424
568 57.46774359660713
569 57.46468885428486
570 57.4670036325391
571 57.46395809831039
572 57.46618251960769
573 57.46359852894835
574 57.46570470895004
575 57.46263725686467
576 57.46514731396079
577 57.46248496494254
578 57.46459205260518
579 57.46134089171465
580 57.4633568762419
581 57.46044796697613
582 57.46227248058419
583 57.45947207737097
584 57.46083829732132
585 57.45797879757944
586 57.45947888693794
587 57.45655333764191
588 57.45826859233735
589 57.4550294654566
590 57.4567446299296
591 57.45318804083911
592 57.45509572118785
593 57.45204741999586
594 57.45380037349179
595 57.4503530695409
596 57.45233751684537
597 57.44958516120922
598 57.45135170365704
599 57.44813260689789
600 57.45038021099253
601 57.44763473778327
602 57.4496458202309
603 57.44704750400121
604 57.44931617589284
605 57.44704320347162
606 57.44943860870565
607 57.44652232567125
608 57.44907098041713
609 57.44637948533785
610 57.4484180653395
611 57.44557185090214
612 57.44817276184953
613 57.44548511272757
614 57.44764802749514
615 57.44478064155869
616 57.44694590965354
617 57.44403772450543
618 57.44590958440248
619 57.4423889625233
620 57.44421810199735
621 57.44134668654948
622 57.44311528397761
623 57.43970643581355
624 57.44188396509357
625 57.43863582447988
626 57.44066671668115
627 57.43739713690356
628 57.43939249445113
629 57.4364806259586
630 57.43852586320819
631 57.43513782515348
632 57.43776559893986
633 57.43473437809713
634 57.43664855418324
635 57.43397646556733
636 57.43647366100164
637 57.43407399099117
638 57.4363500926173
639 57.43352377837314
640 57.43617776861093
641 57.43344104949028
642 57.43577035582607
643 57.43332446926733
644 57.43585542988412
645 57.43343818279689
646 57.43607991069877
647 57.43315006071275
648 57.43570006760649
649 57.43279644993903
650 57.43519856064157
651 57.43204525069051
652 57.43415975258202
653 57.43145702754148
654 57.43352587533687
655 57.43042271693163
656 57.43252017332981
657 57.42935667170878
658 57.43108258185075
659 57.42750386493761
660 57.4297409044101
661 57.42692346034011
662 57.42915874745467
663 57.42609945549322
664 57.42810457949867
665 57.42525466605267
666 57.4276486056772
667 57.42440205538627
668 57.42679661532956
669 57.42434484813268
670 57.42670758442021
671 57.42391144330949
672 57.42666635007829
673 57.42420546676679
674 57.4268112670928
675 57.42430067042169
676 57.42693405819837
677 57.42449994980056
678 57.42722259054257
679 57.42476792182514
680 57.42726795445548
681 57.42507028098191
682 57.42692199429342
683 57.42412367675362
684 57.42633674406515
685 57.42364643431934
686 57.42620535972114
687 57.42309057469755
688 57.42519135006603
689 57.42205767901802
690 57.42392935654808
691 57.42062478614933
692 57.42238328329799
693 57.41957660031437
694 57.42128470162013
695 57.4181355581611
696 57.42050373722258
697 57.4177159841366
698 57.41976522745044
699 57.41661744311335
700 57.41875653574632
701 57.41602106705719
702 57.41848316663761
703 57.41558607572964
704 57.41829324354479
705 57.4161507648481
706 57.41872783996525
707 57.41610925629028
708 57.41868016034053
709 57.41659340096869
710 57.41927727717674
711 57.41704451347134
712 57.41958190020807
713 57.41750489332143
714 57.42011409672934
715 57.4176046880516
716 57.42004170218589
717 57.4178415930435
718 57.41999099786776
719 57.41687966007119
720 57.41958804628987
721 57.41682891587392
722 57.41905976062455
723 57.41588970070659
724 57.41772443776553
725 57.41484732900323
726 57.41681208826348
727 57.41386135436107
728 57.41598034901394
729 57.41328603536623
730 57.41535881197468
731 57.41213033433593
732 57.41426456145245
733 57.41160366328197
734 57.41383724452665
735 57.41110269222364
736 57.41358392195549
737 57.41098219827761
738 57.41395648119184
739 57.41118660993305
740 57.41382534765609
741 57.41183888083671
742 57.41436593911406
743 57.41164693626333
744 57.4147037629775
745 57.41259381820506
746 57.41526837358388
747 57.41298766713441
748 57.41571934658607
749 57.41319358492696
750 57.41583664598014
751 57.4129708771375
752 57.41556163249928
753 57.41283449203195
754 57.4152746148343
755 57.41210540452138
756 57.4144716415672
757 57.41144412531997
758 57.41374941619001
759 57.41046225256676
760 57.41236792646757
761 57.40930060461422
762 57.41160205961886
763 57.40862717467929
764 57.41073849315317
765 57.40797804740582
766 57.41047086646147
767 57.40757772318283
768 57.41010663346264
769 57.40762539621106
770 57.41023544918078
771 57.40737668960011
772 57.40976986095896
773 57.40750758907856
774 57.41052883688684
775 57.40817558120011
776 57.41095179746441
777 57.40880906385115
778 57.41122713399592
779 57.40869904043355
780 57.41144230951196
781 57.40936687704443
782 57.41187740763966
783 57.40957759215345
784 57.41207166562046
785 57.40946667703071
786 57.41179796415968
787 57.40896058557016
788 57.41105619287375
789 57.40851376600533
790 57.41084669014386
791 57.40788781513167
792 57.41012544440564
793 57.40705960215324
794 57.40900963568035
795 57.40607663978294
796 57.40786909239474
797 57.40522329350221
798 57.40724366122107
799 57.40443755295239
800 57.40657896818944
801 57.40430824941183
802 57.40643838470725
803 57.40375288615521
804 57.40624772838577
805 57.40400367640434
806 57.40687690150605
807 57.40440949371922
808 57.40677896745868
809 57.40464196561602
810 57.40712030226061
811 57.40524500710126
812 57.40759541672943
813 57.40587574208447
814 57.40811806806249
815 57.40571407386662
816 57.40832465158126
817 57.40603813713876
818 57.40839851623186
819 57.40588867676715
820 57.40819595308152
821 57.40548462357599
822 57.40787400107377
823 57.40482657410656
824 57.40710012677862
825 57.40454867439855
826 57.4065326190695
827 57.40353657900354
828 57.40573340457677
829 57.40286707211644
830 57.40509193190722
831 57.40236893631023
832 57.40443035125058
833 57.40173407437334
834 57.40397759346965
835 57.4016773100433
836 57.40388552848773
837 57.40187970343079
838 57.4043825875253
839 57.40194662346009
840 57.40491211332139
841 57.40254754675511
842 57.40511773604744
843 57.40293430017222
844 57.40558238598021
845 57.40359315783067
846 57.40657110568335
847 57.40412363990575
848 57.40679163657042
849 57.40435314724382
850 57.40692117551904
851 57.40425454623828
852 57.4067842290418
853 57.40440347953315
854 57.40672119035408
855 57.40408689392711
856 57.40632694589362
857 57.40327853445006
858 57.40546977649569
859 57.40226919121953
860 57.4043249700887
861 57.40141020342811
862 57.40364735795698
863 57.40051958684264
864 57.4030643190963
865 57.40021234436822
866 57.4027120066234
867 57.39972791119887
868 57.40190894905875
869 57.39913659753708
870 57.40205609405084
871 57.39944815374484
872 57.40200446338634
873 57.39983229544618
874 57.40242128730291
875 57.40024587483686
876 57.40316601831941
877 57.40094878069046
878 57.40381209907884
879 57.4015915056766
880 57.40438016859805
881 57.40204222894594
882 57.40494720664105
883 57.40240431474157
884 57.40503738937296
885 57.40299107318161
886 57.4056547842527
887 57.403022874938
888 57.40543791598833
889 57.40320382969094
890 57.40530274170489
891 57.4029229044243
892 57.40442168118321
893 57.40207457582697
894 57.40417714621535
895 57.40144499625974
896 57.40346366431072
897 57.40063033795568
898 57.40289596379449
899 57.39984065274211
900 57.40211141746915
901 57.39939426509432
902 57.40175919481119
903 57.39904995808197
904 57.4012365702593
905 57.3989063433792
906 57.4013389578219
907 57.39899760087803
908 57.40130375799841
909 57.39954819059245
910 57.40209010048378
911 57.39996203613556
912 57.40237620289219
913 57.40066832697899
914 57.40317684385678
915 57.40106037657295
916 57.40334788252402
917 57.40123664075252
918 57.40382447881711
919 57.40129345674852
920 57.40402163390195
921 57.40160300936377
922 57.40380280222102
923 57.40065759103362
924 57.40292309391167
925 57.40045937918527
926 57.40290344560718
927 57.40013577984622
928 57.40223740567016
929 57.39954132063124
930 57.40165625332396
931 57.3985657075719
932 57.4004028391554
933 57.39776739644573
934 57.3999762823308
935 57.39710590778324
936 57.39972613975109
937 57.39707071950093
938 57.39955701275983
939 57.39690317477468
940 57.39922065215157
941 57.39702223460215
942 57.39984755564198
943 57.39730998091278
944 57.40001149308976
945 57.39806631395429
946 57.40065768664557
947 57.39816068330575
948 57.40123884192296
949 57.39928470564392
950 57.40241922408938
951 57.39998034617405
952 57.40266009116336
953 57.40001336389281
954 57.40293444954509
955 57.40024546671935
956 57.40288085302105
957 57.40055392593326
958 57.40285707683754
959 57.39987567528448
960 57.40245231938587
961 57.39987838716845
962 57.40206593972452
963 57.39918762242942
964 57.40131990619103
965 57.39875905116688
966 57.40107082442902
967 57.39814323534586
968 57.40057119633212
969 57.3978115592314
970 57.39986311085683
971 57.39668194765218
972 57.39938571514013
973 57.39694802656386
974 57.39998116343182
975 57.39730699718019
976 57.39992501224425
977 57.39739749216799
978 57.40011128488386
979 57.39749622139507
980 57.40027207027558
981 57.39831373756304
982 57.40122741547602
983 57.39853819722528
984 57.4015791984821
985 57.39942273500377
986 57.40224948097652
987 57.39939164276043
988 57.4018988614653
989 57.39913180251103
990 57.4021274256565
991 57.39920849434657
992 57.40169886369867
993 57.3987701087281
994 57.40111289441046
995 57.39794703974012
996 57.40022327887128
997 57.39746056605205
998 57.39973310396289
999 57.39675941632623
1000 57.39913330235444
1001 57.39628465292142
1002 57.3989212279498
1003 57.39607376952517
1004 57.39853510911892
1005 57.3961076096558
1006 57.39855815796133
1007 57.39587630410202
1008 57.39888650781258
1009 57.39627082069772
1010 57.39926601876611
1011 57.39690372802069
1012 57.39957701180334
1013 57.39746741290668
1014 57.40028265856485
1015 57.39809674357625
1016 57.4008162360718
1017 57.398963905239
1018 57.40133269038606
1019 57.39881787519044
1020 57.40186092807221
1021 57.39972604362537
1022 57.40245365537146
1023 57.3996865876205
1024 57.40224046300713
1025 57.39944153612535
1026 57.40198353584553
1027 57.39867290711287
1028 57.4010901822993
1029 57.39821010699269
1030 57.40041029480916
1031 57.39710556777153
1032 57.39950810932673
1033 57.39664673985969
1034 57.39879230074275
1035 57.3958477496715
1036 57.39815998510627
1037 57.39535341408268
1038 57.39796766627155
1039 57.39498878523785
1040 57.39771440603853
1041 57.39537896204475
1042 57.39785110191725
1043 57.39483925486431
1044 57.39799058790265
1045 57.39568752170105
1046 57.39880923588011
1047 57.39628195392086
1048 57.39913462341233
1049 57.39667128251049
1050 57.39983512650031
1051 57.39754203829717
1052 57.40003280659663
1053 57.39811722847615
1054 57.40070153954039
1055 57.39820132379216
1056 57.40082740694905
1057 57.39816845662065
1058 57.40104097145618
1059 57.3980641423508
1060 57.4004383200576
1061 57.39752199634628
1062 57.4001714593325
1063 57.39689192089335
1064 57.39949465538023
1065 57.39675935467224
1066 57.39894676867295
1067 57.39564187657209
1068 57.39792166394668
1069 57.39529275973524
1070 57.39782778598971
1071 57.39515208738247
1072 57.39768525204283
1073 57.39507955267003
1074 57.39810511920606
1075 57.39540483569282
1076 57.39818730517182
1077 57.39615236714644
1078 57.3992092077552
1079 57.39654985626751
1080 57.40002715746309
1081 57.39751316747274
1082 57.40063774275995
1083 57.39803792955285
1084 57.40095569007063
1085 57.39891578124804
1086 57.40187743653445
1087 57.39937580185832
1088 57.4020638777224
1089 57.39967463489191
1090 57.40197630507851
1091 57.39908036065385
1092 57.40158258611542
1093 57.39893569576421
1094 57.40152290240913
1095 57.39848611865042
1096 57.40067441123907
1097 57.39759739544242
1098 57.3997021784464
1099 57.39622212125327
1100 57.39854771505924
1101 57.39572805824247
1102 57.39797272812509
1103 57.39480107700435
1104 57.39740366257636
1105 57.39485552401503
1106 57.39706074671185
1107 57.39432254431284
1108 57.39692969013746
1109 57.39439861675541
1110 57.39750006929314
1111 57.39499842260498
1112 57.39800578107834
1113 57.39600234192893
1114 57.3988596128365
1115 57.39627827474725
1116 57.3995528829676
1117 57.39738929293827
1118 57.40051047562681
1119 57.39828651522355
1120 57.40114929011537
1121 57.39856375886034
1122 57.40132551019557
1123 57.39866899652271
1124 57.40136809815026
1125 57.39915188567183
1126 57.40174590092145
1127 57.39875268113146
1128 57.40164628182798
1129 57.39881885822093
1130 57.40131500159693
1131 57.39811890379914
1132 57.40020345619337
1133 57.39733111191786
1134 57.39990486794323
1135 57.39664725186408
1136 57.39920467639471
1137 57.39645652769068
1138 57.39866132179802
1139 57.39578291113261
1140 57.39849213219436
1141 57.39606257620731
1142 57.39881848968934
1143 57.3961415138027
1144 57.39878714815712
1145 57.3965867506863
1146 57.39950490528223
1147 57.39741916161879
1148 57.40008817150772
1149 57.39848930300185
1150 57.40117782061841
1151 57.39850886732633
1152 57.40131067203537
1153 57.39892706473834
1154 57.40214972414284
1155 57.39954935587518
1156 57.40221904449742
1157 57.39978508061172
1158 57.4022854947314
1159 57.39920068986484
1160 57.40161769428722
1161 57.39903795024745
1162 57.40127878584687
1163 57.39832454257689
1164 57.40091161362049
1165 57.39840980119052
1166 57.40061045084601
1167 57.39763192288232
1168 57.39953407247274
1169 57.39641097434544
1170 57.39891526552783
1171 57.39569318071982
1172 57.39837452249914
1173 57.39582308432391
1174 57.39823938558695
1175 57.39546010093093
1176 57.39813858804004
1177 57.39586848338485
1178 57.39851520980731
1179 57.39584823614533
1180 57.39866757491907
1181 57.39661614987548
1182 57.39974052847314
1183 57.39737002716345
1184 57.40033934848817
1185 57.39802960763448
1186 57.40087963934398
1187 57.39806578997144
1188 57.40135025752781
1189 57.39897247466183
1190 57.40205176220406
1191 57.39916718246902
1192 57.40175349416172
1193 57.39887651359157
1194 57.40149194872766
1195 57.39841567568736
1196 57.40099974688448
1197 57.39828853956772
1198 57.40060499714232
1199 57.39725974953046
1200 57.40013129304773
1201 57.39719056806374
1202 57.39964947435972
1203 57.39643672223757
1204 57.3986711085464
1205 57.39585697089495
1206 57.39890657280989
1207 57.39582983952698
1208 57.39831466041566
1209 57.39589407435547
1210 57.39870074753552
1211 57.39589020450229
1212 57.39900106993272
1213 57.39673843813944
1214 57.39972399576561
1215 57.39739353576449
1216 57.40014729218014
1217 57.39772631751257
1218 57.40047744238782
1219 57.39813165737934
1220 57.40103920181901
1221 57.39890696395246
1222 57.40185019665667
1223 57.39898188575949
1224 57.40177949835228
1225 57.39926204920073
1226 57.40177057640138
1227 57.39887445370615
1228 57.4012691275903
1229 57.3985308517578
1230 57.4010262140112
1231 57.39786708287644
1232 57.40028766683245
1233 57.39740769705926
1234 57.39958557337558
1235 57.39648155777403
1236 57.39905751146544
1237 57.39641069547677
1238 57.39900033283927
1239 57.39586561857623
1240 57.39866344462028
1241 57.39585190167698
1242 57.39869342451637
1243 57.39571333535217
1244 57.3984570938194
1245 57.3964948902785
1246 57.39939150523732
1247 57.39652531724641
1248 57.39980650203857
1249 57.39752943807328
1250 57.40055300119224
1251 57.39822746931909
1252 57.40110333264455
1253 57.39889642916946
1254 57.40196333514188
1255 57.3992752537759
1256 57.402050514811
1257 57.39968685912429
1258 57.40210603673553
1259 57.39915342408776
1260 57.40196727104418
1261 57.39974677597455
1262 57.40192177945546
1263 57.39943681807546
1264 57.40118304853429
1265 57.39858568726125
1266 57.40042007659969
1267 57.39753035037907
1268 57.39957594134452
1269 57.3967209960137
1270 57.39917408238563
1271 57.39601713078788
1272 57.39852169506848
1273 57.39589291499893
1274 57.3984433403657
1275 57.39541159053769
1276 57.39780372049427
1277 57.39535605180801
1278 57.39819492172731
1279 57.39553886977868
1280 57.39850731149684
1281 57.39625437238604
1282 57.39869330071265
1283 57.39584751180875
1284 57.39884392631999
1285 57.39687600122433
1286 57.39980706722829
1287 57.39734714805272
1288 57.40012156657708
1289 57.39782021652691
1290 57.40078149129778
1291 57.39804212776865
1292 57.40066838889358
1293 57.39824162238924
1294 57.40073018794612
1295 57.39792881725936
1296 57.40081909976374
1297 57.3982744799951
1298 57.40077114951302
1299 57.39764408190228
1300 57.39987592514811
1301 57.39713232458617
1302 57.39926032081884
1303 57.39631866669147
1304 57.39881497815337
1305 57.3961081591173
1306 57.39866574482358
1307 57.39552861351511
1308 57.39812577138531
1309 57.39555203736141
1310 57.39828261318139
1311 57.39541866884861
1312 57.39810132014073
1313 57.39561514419481
1314 57.39857359228659
1315 57.39595765933185
1316 57.39856445802942
1317 57.39655815428287
1318 57.39938958490713
1319 57.39670539987133
1320 57.39977107079592
1321 57.3976712587631
1322 57.40041951151738
1323 57.39807326892716
1324 57.40077432490489
1325 57.39865726866094
1326 57.40144595216493
1327 57.39877929330053
1328 57.40148923390655
1329 57.39899094474018
1330 57.40120410904727
1331 57.3979885854007
1332 57.40047822154127
1333 57.39794523396149
1334 57.39991136626893
1335 57.39703842910038
1336 57.39923932523791
1337 57.39640713365334
1338 57.39842821892002
1339 57.39528546922502
1340 57.39752516460802
1341 57.39518451505308
1342 57.3969317844601
1343 57.39446589158826
1344 57.39692796959691
1345 57.39483925796596
1346 57.39717433262351
1347 57.39457209033148
1348 57.39728712928789
1349 57.39494393678451
1350 57.39791124653395
1351 57.39550330213202
1352 57.3983358857316
1353 57.39607554693148
1354 57.39891086352615
1355 57.39653853027328
1356 57.39945733447067
1357 57.39735323354302
1358 57.4003619004607
1359 57.39804465918617
1360 57.40075009291535
1361 57.39834391818673
1362 57.40073417178787
1363 57.39793215637233
1364 57.40049479196919
1365 57.39806858533875
1366 57.40033116764107
1367 57.39718925018737
1368 57.39979657013198
1369 57.39680531934956
1370 57.39915515480867
1371 57.3960588703099
1372 57.39835760334279
1373 57.39548442734191
1374 57.3977642503971
1375 57.39499987445054
1376 57.39723948233098
1377 57.3949058873625
1378 57.397221362069
1379 57.39433931982482
1380 57.39712979859522
1381 57.39473280806995
1382 57.39755235993296
1383 57.39494329265269
1384 57.39779479755704
1385 57.39554018657649
1386 57.39845506284592
1387 57.39583277901582
1388 57.39893510289661
1389 57.39704401441834
1390 57.40001347219302
1391 57.39725654965054
1392 57.40024259976566
1393 57.39778663204388
1394 57.40041057527152
1395 57.39769412265071
1396 57.4002558807643
1397 57.39765295354927
1398 57.40037966286758
1399 57.39734139780458
1400 57.39981886484457
1401 57.39691733684752
1402 57.39914342721003
1403 57.39565528607913
1404 57.39810289840017
1405 57.39529465464184
1406 57.39791469310246
1407 57.3947416913576
1408 57.39744568920079
1409 57.39440289357695
1410 57.3970880480115
1411 57.39402034233969
1412 57.39654938628647
1413 57.39426787055286
1414 57.39690446334176
1415 57.39429227304463
1416 57.39766342385967
1417 57.39534781972312
1418 57.39824261714232
1419 57.39568613079637
1420 57.3986437882092
1421 57.39620294822508
1422 57.39950436731677
1423 57.39705683470977
1424 57.40012502357816
