"mz-rfile"
"Iteration" "mz"
("Iteration" "mz")
1 12218.70937206821
2 12152.44602704251
3 11557.7242123873
4 10549.49649155121
5 9112.017062714202
6 7897.270830652981
7 6691.156776554666
8 4847.882684536106
9 3055.613192230762
10 1778.04920998195
11 901.1647586474633
12 348.4242669735928
13 -30.38325290315054
14 -250.7076472812981
15 -359.5080674754416
16 -337.6792854565308
17 -225.0830301381827
18 -18.14947865042994
19 213.2642323681554
20 478.6400744617146
21 764.8819184359669
22 1011.745776983809
23 1259.499980307624
24 1460.612681159845
25 1649.620380388937
26 1826.362110359524
27 2012.047856029922
28 2163.961709289993
29 2284.872525697047
30 2375.351213504915
31 2436.460433688063
32 2473.899922443208
33 2491.437773470048
34 2492.537268180686
35 2483.444985942909
36 2469.567226555889
37 2450.4953271033
38 2433.264777932573
39 2414.463265883272
40 2389.400439888145
41 2365.560956420222
42 2340.212465758331
43 2323.77419805624
44 2307.459561104356
45 2298.211619004655
46 2290.632283038616
47 2287.846319889168
48 2287.560318737102
49 2289.186342522808
50 2292.390616727448
51 2296.773657631036
52 2300.671003980316
53 2307.775788060062
54 2313.01778913454
55 2321.668684877216
56 2330.55133188109
57 2339.593890163425
58 2348.44349968725
59 2357.026092604659
60 2365.136326788876
61 2372.70763618697
62 2379.489240624545
63 2385.518790698138
64 2390.701959449197
65 2395.036804910343
66 2398.557645366392
67 2401.176410543393
68 2402.824253530849
69 2403.672423233902
70 2403.778985860139
71 2403.431001347438
72 2402.836658147676
73 2401.645353422468
74 2400.512221570284
75 2398.495568305448
76 2397.020387394997
77 2394.54492634619
78 2392.877562702004
79 2390.404447808151
80 2388.813718181236
81 2387.226260989125
82 2385.603605643893
83 2384.080884486502
84 2382.603118914532
85 2381.259305020857
86 2379.983569133594
87 2378.747790103933
88 2377.557270915677
89 2376.454129595701
90 2375.459150238314
91 2374.512049313264
92 2373.615085102415
93 2372.808089021832
94 2371.853317922416
95 2370.933716545021
96 2370.107758619779
97 2369.234139539244
98 2368.326979102754
99 2367.395890532604
100 2366.374145832846
101 2365.28636525259
102 2364.201583693561
103 2363.0360819255
104 2361.832476907041
105 2360.619855986101
106 2359.346044288843
107 2358.077324504776
108 2356.70806786067
109 2355.321231649675
110 2353.899610988145
111 2352.531966134258
112 2351.159042221157
113 2349.700060575527
114 2348.273756845799
115 2346.773473688117
116 2345.316419510247
117 2343.866509614588
118 2342.383240706693
119 2340.940211592207
120 2339.521580454556
121 2338.12694811136
122 2336.74340459688
123 2335.419591975911
124 2334.123830184089
125 2332.849756441778
126 2331.58389896008
127 2330.371572030505
128 2329.191105699128
129 2328.045165697251
130 2326.876990862279
131 2325.779410793203
132 2324.708261103345
133 2323.688098427747
134 2322.668075103493
135 2321.639664646113
136 2320.599121916365
137 2319.640266820458
138 2318.649565540409
139 2317.69604998038
140 2316.748128507343
141 2315.821894856962
142 2314.971561703956
143 2314.071866540964
144 2313.255068589158
145 2312.472022975724
146 2311.68759306381
147 2310.953458284162
148 2310.201987300181
149 2309.484236410681
150 2308.828415725808
151 2308.221905641998
152 2307.621364945121
153 2307.09031528793
154 2306.600953741034
155 2306.171284135717
156 2305.746793837105
157 2305.357403940613
158 2305.040511388702
159 2304.761087387809
160 2304.499078690794
161 2304.311040541226
162 2304.15168045686
163 2304.089779194459
164 2304.030790658355
165 2304.034764267723
166 2304.054609000631
167 2304.126082773249
168 2304.242120073719
169 2304.432480455991
170 2304.639198540636
171 2304.910272636012
172 2305.223653540338
173 2305.615693105283
174 2306.093451779541
175 2306.595785888907
176 2307.153427817765
177 2307.763479306011
178 2308.446581661273
179 2309.166946554244
180 2309.945444578128
181 2310.772342510967
182 2311.640304311517
183 2312.984553235674
184 2313.912824551938
185 2314.870526457295
186 2316.409800748606
187 2317.403204751512
188 2318.445126093407
189 2320.012972544478
190 2321.080897276858
191 2322.715929797608
192 2323.788394268404
193 2325.444909977831
194 2326.543612212664
195 2328.258376337916
196 2329.416886851073
197 2331.147229509587
198 2332.31791196173
199 2334.102910370672
200 2335.284907816005
201 2337.124771029322
202 2338.961541379085
203 2340.172404610335
204 2342.023049829164
205 2343.879781662923
206 2345.723411809102
207 2347.539948902984
208 2348.781984230128
209 2350.569145924239
210 2352.400908345705
211 2354.19285423866
212 2355.922464764097
213 2357.634221366699
214 2359.336226062477
215 2361.00185532319
216 2362.637511294112
217 2364.206492273019
218 2365.789371204488
219 2367.355182130346
220 2368.877477967375
221 2370.381940448271
222 2371.866728856029
223 2373.335327838236
224 2374.833904878018
225 2376.284007445963
226 2377.250511312705
227 2378.767240260365
228 2380.225950608817
229 2381.68382645567
230 2383.176317756264
231 2384.133944050082
232 2385.658702036988
233 2387.164589365079
234 2388.62330928123
235 2389.602743505237
236 2391.089345556204
237 2392.523999104906
238 2393.528806600343
239 2395.017362039962
240 2396.005700054996
241 2397.538076038587
242 2398.567204625452
243 2400.055026801755
244 2401.064262210284
245 2402.544853178987
246 2403.546300943659
247 2405.014515356166
248 2405.976772931061
249 2407.39701012271
250 2408.357430420828
251 2409.770317623107
252 2410.721973340419
253 2412.099481429586
254 2413.004160805519
255 2414.346906949056
256 2415.249656828259
257 2416.586170855789
258 2417.458580818008
259 2418.300930469988
260 2419.579587287832
261 2420.417141928252
262 2421.681637674735
263 2422.490964425705
264 2423.725236353519
265 2424.525784647431
266 2425.34687043404
267 2426.52716198117
268 2427.332355698283
269 2428.492051017287
270 2429.264218340425
271 2430.00730550724
272 2431.096985506455
273 2431.811996869562
274 2432.888613506112
275 2433.584379897866
276 2434.289207574644
277 2435.313306953312
278 2435.98140700671
279 2436.947928484262
280 2437.592587848473
281 2438.222337562717
282 2439.140129005902
283 2439.747800680715
284 2440.635715697565
285 2441.199770818918
286 2441.801661902943
287 2442.62639319454
288 2443.198463665904
289 2443.698938091405
290 2444.488897483944
291 2444.995231457573
292 2445.529669770328
293 2446.262639698331
294 2446.771723861518
295 2447.494086501129
296 2447.972752844345
297 2448.414416881347
298 2449.080629042427
299 2449.478341956219
300 2450.110091154184
301 2450.497274497678
302 2450.919077494699
303 2451.501930074969
304 2451.886331624025
305 2452.424625137747
306 2452.777772239596
307 2453.124298220013
308 2453.656952199985
309 2454.013750083418
310 2454.565072244217
311 2454.89322813401
312 2455.416318385284
313 2455.749174957558
314 2456.268026630143
315 2456.592511140497
316 2457.111969170915
317 2457.402066980126
318 2457.878421436966
319 2458.185482984144
320 2458.665606744252
321 2458.981377084233
322 2459.458624640212
323 2459.762692464159
324 2460.227311666233
325 2460.500578975254
326 2461.015927317391
327 2461.343429918003
328 2461.846984477309
329 2462.17435629773
330 2462.682767712364
331 2463.014328497646
332 2463.492558940446
333 2463.815181694579
334 2464.324483874604
335 2464.631379876256
336 2465.127998980124
337 2465.448632960296
338 2465.952722970684
339 2466.266024433663
340 2466.77850998767
341 2467.084838308469
342 2467.55051805557
343 2467.861890159651
344 2468.3516761328
345 2468.660794792459
346 2469.145606876539
347 2469.453632129364
348 2469.994552708267
349 2470.315599039873
350 2470.634809296109
351 2471.107778996377
352 2471.419445159487
353 2471.867308109631
354 2472.190718386919
355 2472.662151468804
356 2472.967715074831
357 2473.423815878294
358 2473.765599069991
359 2474.065906114276
360 2474.512503016266
361 2474.811075360806
362 2475.288417891474
363 2475.573168753353
364 2475.989203831011
365 2476.280820200771
366 2476.7058602597
367 2476.985263771217
368 2477.398224117741
369 2477.651722097078
370 2478.090363988237
371 2478.363612908213
372 2478.758281801081
373 2479.01209121079
374 2479.401403864034
375 2479.661337509608
376 2480.048575292105
377 2480.339863114956
378 2480.735160731184
379 2480.991468679813
380 2481.335563570992
381 2481.566757580297
382 2481.91436636982
383 2482.139019696266
384 2482.513552802621
385 2482.82205145335
386 2483.044583536396
387 2483.394761368766
388 2483.626921795643
389 2483.920232707961
390 2484.244518078558
391 2484.423987852331
392 2484.72595294299
393 2484.911673034762
394 2485.196071354293
395 2485.465540049098
396 2485.687259226234
397 2485.970054172187
398 2486.212460046638
399 2486.389172146937
400 2486.613694580362
401 2486.823954401244
402 2486.991625039434
403 2487.197035850835
404 2487.384514683664
405 2487.494657658755
406 2487.683117435245
407 2487.792961610357
408 2487.855318414979
409 2487.873133620423
410 2487.90971768476
411 2487.902874156814
412 2487.943488692756
413 2487.94357714342
414 2487.918846795488
415 2487.876456497458
416 2487.832328926151
417 2487.741513861541
418 2487.609265224233
419 2487.417892621789
420 2487.289810028873
421 2487.074988083608
422 2486.829560470162
423 2486.650859897018
424 2486.340835283551
425 2485.977706083365
426 2485.738868913917
427 2485.318406884809
428 2484.943817467928
429 2484.649385293305
430 2484.20932165869
431 2483.743052706796
432 2483.254893214584
433 2482.895439489513
434 2482.343105992063
435 2481.762234694948
436 2481.210215502066
437 2480.806432065189
438 2480.22147988462
439 2479.645881001547
440 2479.080528394781
441 2478.4930675
442 2477.880877298776
443 2477.325324536278
444 2476.958177112936
445 2476.379260157771
446 2475.804904955347
447 2475.25611911442
448 2474.733088088216
449 2474.191764004263
450 2473.728420640783
451 2473.26777457411
452 2472.790407602844
453 2472.343989357943
454 2471.957491099682
455 2471.525350976806
456 2471.108678308482
457 2470.699525701397
458 2470.290524657815
459 2469.87978132214
460 2469.531502095621
461 2469.145197443117
462 2468.789837555441
463 2468.409924393718
464 2468.016790392734
465 2467.606980812317
466 2467.200035895263
467 2466.743118523892
468 2466.292131929829
469 2465.815684673257
470 2465.291724536893
471 2464.740258024751
472 2464.204771225911
473 2463.624635100794
474 2463.083741276781
475 2462.495339580998
476 2461.889034249675
477 2461.269241351068
478 2460.625543108223
479 2459.971712342191
480 2459.271073554991
481 2458.813430454034
482 2458.115116954101
483 2457.360948255792
484 2456.631660518445
485 2455.860840993947
486 2455.11193604691
487 2454.335053035486
488 2453.602443532671
489 2452.862597290367
490 2452.374556421373
491 2451.617518513872
492 2450.868951453187
493 2450.11367044591
494 2449.412972512853
495 2448.719339515746
496 2448.066060355472
497 2447.415874097973
498 2446.810021644711
499 2446.200479976261
500 2445.670332781026
501 2445.166526444882
502 2444.712005620067
503 2444.296913903415
504 2443.912365345426
505 2443.528389002517
506 2443.2095525742
507 2442.911312424744
508 2442.619615407762
509 2442.365208778245
510 2442.13040385885
511 2441.929025530625
512 2441.732546235487
513 2441.547982611444
514 2441.431751578285
515 2441.296015548364
516 2441.206270986193
517 2441.127592851588
518 2441.054376032228
519 2440.986717314479
520 2440.885276851868
521 2440.779432920182
522 2440.685626041785
523 2440.554811250832
524 2440.488317123329
525 2440.369359459371
526 2440.243563596768
527 2440.143419772536
528 2439.980498320075
529 2439.75862155785
530 2439.599944519598
531 2439.356370438247
532 2439.10716550056
533 2438.892383917037
534 2438.548716039574
535 2438.308899452732
536 2437.949259810568
537 2437.584942128613
538 2437.310107811805
539 2436.827947550011
540 2436.558924953226
541 2436.108014055424
542 2435.668985885327
543 2435.360749271576
544 2434.922864287577
545 2434.634227768021
546 2434.193061116562
547 2433.779901532419
548 2433.493796457491
549 2433.063575392114
550 2432.68189879435
551 2432.435687769369
552 2432.144279650356
553 2431.826733981219
554 2431.664578692718
555 2431.454226018879
556 2431.308690435575
557 2431.210531072629
558 2431.079362798543
559 2430.986009432494
560 2430.997350637498
561 2431.040126147125
562 2431.147676483378
563 2431.253170464142
564 2431.475514497215
565 2431.739643244407
566 2431.948327542419
567 2432.319733470317
568 2432.755818612135
569 2433.074580771509
570 2433.723231556459
571 2434.388201426313
572 2434.881240774866
573 2435.619695340581
574 2436.198698450855
575 2437.062861432433
576 2437.726658935137
577 2438.755010747869
578 2439.431763553109
579 2440.519551690033
580 2441.271577015986
581 2442.389036193655
582 2443.191292433746
583 2444.399529559398
584 2445.257223856919
585 2446.49619524444
586 2447.357174025934
587 2448.639743366188
588 2449.453970047861
589 2450.675539205909
590 2451.565917015459
591 2452.804989403243
592 2453.623647100935
593 2454.83793639753
594 2455.634820392911
595 2456.907179055037
596 2457.622152173336
597 2458.670941327133
598 2459.373378450926
599 2460.384500472158
600 2461.402937385729
601 2462.061796430449
602 2463.073242194956
603 2463.653756824811
604 2464.518912807498
605 2465.01075571448
606 2465.767147177093
607 2466.4451766376
608 2466.887685422359
609 2467.439871749527
610 2467.803828395028
611 2468.323146569935
612 2468.592330634123
613 2468.941170115559
614 2469.316532526395
615 2469.535603644498
616 2469.769129121376
617 2469.909286276813
618 2470.05892062411
619 2470.135015858344
620 2470.265077725119
621 2470.272718779809
622 2470.280000183396
623 2470.241907832161
624 2470.055952054184
625 2469.872782872829
626 2469.72658871721
627 2469.454372912615
628 2469.110760797849
629 2468.828978056951
630 2468.38395043825
631 2467.923750461692
632 2467.59315481377
633 2467.065034243141
634 2466.521104954239
635 2465.930939045421
636 2465.316984113671
637 2464.690880851882
638 2464.030170191276
639 2463.329498955613
640 2462.61375127578
641 2461.878402748644
642 2461.174285519194
643 2460.483475332547
644 2459.789108462511
645 2459.126901486998
646 2458.433606958395
647 2457.699389332396
648 2457.029370021027
649 2456.359485662595
650 2455.665018917621
651 2454.976068366046
652 2454.303338089298
653 2453.608170582671
654 2452.951618506847
655 2452.283414942478
656 2451.696399764309
657 2451.036735435032
658 2450.437042886274
659 2449.83935917355
660 2449.250238796944
661 2448.653900053872
662 2448.06184341173
663 2447.513534302778
664 2446.961084988597
665 2446.427019858597
666 2445.921482597182
667 2445.427130749207
668 2444.945499087133
669 2444.45506738806
670 2444.037473473406
671 2443.580817595837
672 2443.122132320771
673 2442.660130396344
674 2442.261673647456
675 2441.850634419117
676 2441.427596203747
677 2441.149017540296
678 2440.732043571305
679 2440.259407936413
680 2439.807715501413
681 2439.326742568207
682 2439.031609521006
683 2438.534235183854
684 2438.047253750312
685 2437.691939462688
686 2437.105371233698
687 2436.518266154763
688 2436.105467064108
689 2435.499499843545
690 2434.872916389329
691 2434.422398190862
692 2433.745895991848
693 2433.248307985434
694 2432.483724239715
695 2431.713817652726
696 2431.186280501638
697 2430.382349530896
698 2429.836582606905
699 2428.993095108767
700 2428.439528068386
701 2427.524976825123
702 2426.682136633009
703 2426.137332813944
704 2425.34589501948
705 2424.798692120538
706 2424.026361826704
707 2423.272288027887
708 2422.791532168363
709 2422.072979614114
710 2421.359480265178
711 2420.872587743728
712 2420.158257201971
713 2419.518542227284
714 2419.106913192141
715 2418.476775439067
716 2417.906153595727
717 2417.541542346381
718 2417.043911572819
719 2416.581126187667
720 2416.301606109789
721 2415.884932466224
722 2415.545327012801
723 2415.317820229755
724 2415.021651451268
725 2414.733751650991
726 2414.562455021989
727 2414.292505930408
728 2414.069207239128
729 2413.92552544202
730 2413.728063617338
731 2413.585159543163
732 2413.403501267395
733 2413.281925270398
734 2413.134585232579
735 2413.04022629946
736 2412.837248118656
737 2412.696236054103
738 2412.494938480034
739 2412.351230519365
740 2412.134022305724
741 2411.980972290285
742 2411.709506348418
743 2411.522909992096
744 2411.285891863681
745 2411.092250564996
746 2410.809265749791
747 2410.604969950352
748 2410.299435286332
749 2410.037029629093
750 2409.664737836769
751 2409.386540158604
752 2408.996195623443
753 2408.749003488997
754 2408.357506837854
755 2408.09808794722
756 2407.697486963624
757 2407.392964372226
758 2407.002115288742
759 2406.678901042256
760 2406.212950469397
761 2405.907862356752
762 2405.456090643198
763 2405.138554633057
764 2404.652934775959
765 2404.176120522832
766 2403.826226354839
767 2403.342881056913
768 2402.877810916686
769 2402.582429743198
770 2402.131378132644
771 2401.646813355011
772 2401.338296451896
773 2400.906067312223
774 2400.448315252547
775 2400.136611332513
776 2399.722824297342
777 2399.240701324589
778 2398.929036146449
779 2398.523876976879
780 2398.172277384608
781 2397.731510548933
782 2397.484744002196
783 2397.058187836929
784 2396.582671970377
785 2396.148300459607
786 2395.905947172511
787 2395.433234869884
788 2395.025982527392
789 2394.704036391968
790 2394.290994688653
791 2393.844784795174
792 2393.418037515557
793 2393.147740020999
794 2392.776096050368
795 2392.403918524698
796 2392.181313702672
797 2391.810361124442
798 2391.47915106756
799 2391.282416188831
800 2390.998372861141
801 2390.698919815665
802 2390.546488341234
803 2390.330082735361
804 2390.171109061301
805 2390.091811753641
806 2389.958406880229
807 2389.857249248967
808 2389.830851713476
809 2389.806218011307
810 2389.876892902355
811 2389.867516652815
812 2389.951692731838
813 2390.009971100374
814 2390.058262040813
815 2390.175334566953
816 2390.282331138675
817 2390.373983352194
818 2390.566801168735
819 2390.831377813744
820 2391.158725609361
821 2391.368178388477
822 2391.791925579319
823 2392.223166920287
824 2392.620769074034
825 2393.07060530284
826 2393.387963132983
827 2393.854684500899
828 2394.424861100546
829 2394.991294524781
830 2395.52538114395
831 2395.895202951077
832 2396.474946220524
833 2397.011831334502
834 2397.610038201637
835 2398.223979239451
836 2398.615040985456
837 2399.168763457727
838 2399.66089602877
839 2400.106267890293
840 2400.556893019529
841 2400.796251503912
842 2401.221284419592
843 2401.563668096609
844 2401.884199194163
845 2402.079781882366
846 2402.149592671455
847 2402.250324245435
848 2402.301098611249
849 2402.267982502693
850 2402.148759874711
851 2401.963310480826
852 2401.750539115792
853 2401.436643764036
854 2401.072257167736
855 2400.493674020322
856 2400.023297187292
857 2399.400278922005
858 2398.705510528119
859 2397.824064615377
860 2396.894619261363
861 2395.857018040161
862 2394.822484602332
863 2393.57207641389
864 2392.307227719838
865 2390.928988118825
866 2389.498134632141
867 2387.985126485305
868 2386.331334772364
869 2384.63313477211
870 2382.942880721615
871 2381.151388268955
872 2379.351378843629
873 2377.426906361015
874 2375.545341518868
875 2373.615153594018
876 2371.584666609263
877 2369.51358450889
878 2367.433131264333
879 2365.285962572272
880 2362.54753757413
881 2360.51620761776
882 2358.478777588471
883 2356.400653003593
884 2353.824034672093
885 2351.87892375655
886 2349.926017411819
887 2347.940231333592
888 2345.341887404885
889 2343.540679384467
890 2341.704376512912
891 2339.904218732043
892 2338.133705959316
893 2335.837491527002
894 2334.141218950178
895 2332.487128391931
896 2330.874321382329
897 2329.219532777963
898 2327.724788996297
899 2326.173619978726
900 2324.717308599329
901 2323.220787626733
902 2321.666095817857
903 2320.175543537147
904 2318.618602162146
905 2317.022344072981
906 2315.458387182062
907 2313.905328378795
908 2312.416653595509
909 2310.915671622352
910 2309.474688471311
911 2308.037573392905
912 2306.536532078922
913 2305.065261132348
914 2303.561745561537
915 2302.174707672418
916 2300.718502322763
917 2299.21386213708
918 2297.752509160396
919 2296.277714995757
920 2294.876732870286
921 2293.357944552953
922 2291.917462569025
923 2290.40924936716
924 2289.025851645526
925 2287.598666023067
926 2286.212631384522
927 2284.926859627243
928 2283.748865304996
929 2282.562603992246
930 2281.495970010612
931 2280.47375750032
932 2279.562402541174
933 2278.718684165114
934 2277.943665423192
935 2277.272985463564
936 2276.72628727905
937 2276.251017123351
938 2275.9495573629
939 2275.651976993016
940 2275.465614518923
941 2275.35358222579
942 2275.375236751992
943 2275.513280930794
944 2275.759855037416
945 2275.958617750648
946 2276.413856478408
947 2276.785920380605
948 2277.470790984613
949 2277.993361676467
950 2278.858029386819
951 2279.530588429239
952 2280.635685377446
953 2281.465567713183
954 2282.817203245866
955 2283.753241506173
956 2285.251131953559
957 2286.228885444131
958 2287.28460484475
959 2288.877264054734
960 2289.990715443748
961 2291.611646416683
962 2292.775076605952
963 2294.353653530858
964 2295.447081866057
965 2297.103335095783
966 2298.087846919417
967 2299.460797022857
968 2300.35128371595
969 2301.581993193494
970 2302.287799009824
971 2303.292487596138
972 2303.790464074533
973 2304.442500317209
974 2304.719394444232
975 2304.981175415248
976 2305.129046554996
977 2305.146891455097
978 2305.039557148353
979 2304.826916454769
980 2304.501126288938
981 2303.950461024284
982 2303.067823167783
983 2302.347759350988
984 2301.549975158361
985 2300.598186731437
986 2299.055562515106
987 2297.925444448078
988 2296.702698737602
989 2295.422182668521
990 2294.088107398878
991 2291.93833965224
992 2290.499070915966
993 2288.960132837353
994 2286.555880032673
995 2285.06716882318
996 2282.771919274444
997 2281.240217071267
998 2279.019100898443
999 2277.593988396408
1000 2275.382325702271
1001 2274.023163228099
1002 2272.098473850997
1003 2270.35070367727
1004 2269.329044141529
1005 2267.924678570176
1006 2266.581673606426
1007 2265.825101030636
1008 2264.829285548522
1009 2263.968240967227
1010 2263.561975479255
1011 2263.006669370454
1012 2262.734669081528
1013 2262.431537862044
1014 2262.317053600276
1015 2262.187055658974
1016 2262.158268112678
1017 2262.167384206884
1018 2262.260785068878
1019 2262.35014761514
1020 2262.537220095444
1021 2262.674767132648
1022 2262.803072803631
1023 2262.955010916044
1024 2263.105161144923
1025 2263.269826867364
1026 2263.403430384466
1027 2263.525947642438
1028 2263.614069965208
1029 2263.661539826014
1030 2263.716151145077
1031 2263.676192087318
1032 2263.586265185265
1033 2263.472898350643
1034 2263.297310937116
1035 2263.099754471471
1036 2262.862621235663
1037 2262.584126684923
1038 2262.248031512669
1039 2261.873785807118
1040 2261.445847372531
1041 2260.975290127853
1042 2260.422524289726
1043 2259.876764381489
1044 2259.299253789191
1045 2258.688781352513
1046 2258.06375349887
1047 2257.392703042375
1048 2256.735977956162
1049 2256.027774853489
1050 2255.302922317956
1051 2254.540722080978
1052 2253.447090819531
1053 2252.676536884104
1054 2251.91714097328
1055 2250.851857675149
1056 2250.174578451858
1057 2249.514047614593
1058 2248.551801829789
1059 2247.94094001687
1060 2247.071251149581
1061 2246.530970846136
1062 2245.760036464252
1063 2245.299557359974
1064 2244.655016258047
1065 2244.101771198044
1066 2243.796863377101
1067 2243.342353878968
1068 2242.9276414702
1069 2242.667682893652
1070 2242.353506857276
1071 2242.036872992568
1072 2241.839659631757
1073 2241.553742075672
1074 2241.401995584912
1075 2241.143094877855
1076 2240.983317113897
1077 2240.695198467417
1078 2240.499085944741
1079 2240.159878302419
1080 2239.975135293255
1081 2239.64786955936
1082 2239.421910116498
1083 2238.955428723772
1084 2238.661107646031
1085 2238.337659816732
1086 2237.821532294787
1087 2237.484709315934
1088 2236.986865260858
1089 2236.591084809339
1090 2236.182825879343
1091 2235.534770557187
1092 2235.101637542572
1093 2234.354275420627
1094 2233.889785759792
1095 2233.41513717049
1096 2232.754929471114
1097 2232.310465077982
1098 2231.69445698872
1099 2231.247229239283
1100 2230.6530219056
1101 2230.201947372788
1102 2229.633175274016
1103 2229.271050249587
1104 2228.770901140969
1105 2228.405372270154
1106 2227.980528819931
1107 2227.666391289007
1108 2227.287839670802
1109 2227.022173812481
1110 2226.709358288273
1111 2226.503739352475
1112 2226.231440004079
1113 2226.052344488481
1114 2225.834972620607
1115 2225.677216583833
1116 2225.522458319712
1117 2225.369544082725
1118 2225.174168724738
1119 2225.043200411392
1120 2224.917272677592
1121 2224.799412971101
1122 2224.539227929556
1123 2224.332452406249
1124 2224.004327681202
1125 2223.828727365322
1126 2223.495726203657
1127 2223.20631266782
1128 2222.741411249153
1129 2222.408394187327
1130 2221.897023571516
1131 2221.512193795872
1132 2220.907273757906
1133 2220.403820389657
1134 2219.595855483054
1135 2218.995719443421
1136 2218.00239555803
1137 2217.315325506483
1138 2216.169165015227
1139 2215.369902159475
1140 2214.135431998728
1141 2213.234189892331
1142 2211.776580947334
1143 2210.333687228398
1144 2209.322987367775
1145 2207.876499043333
1146 2206.305909804729
1147 2204.822896426112
1148 2203.808292238183
1149 2202.253960615132
1150 2200.688097561448
1151 2199.109738665111
1152 2197.581266404553
1153 2196.578868255395
1154 2195.102361447661
1155 2193.652229188757
1156 2192.259835722661
1157 2190.931526301641
1158 2189.649377361087
1159 2188.493118670303
1160 2187.781836869071
1161 2186.723116487025
1162 2185.753281672666
1163 2184.823686645387
1164 2183.970187195584
1165 2183.452734702849
1166 2182.793631216343
1167 2182.175893670059
1168 2181.781887869352
1169 2181.341225934797
1170 2180.888450027408
1171 2180.685905748744
1172 2180.444322204193
1173 2180.359426748562
1174 2180.370935012686
1175 2180.420318644445
1176 2180.604603476017
1177 2180.78915240839
1178 2181.036530494743
1179 2181.461167192537
1180 2181.814301352852
1181 2182.256840177802
1182 2182.711867520127
1183 2183.226283786636
1184 2183.825187651578
1185 2184.484024362874
1186 2185.197601112371
1187 2185.906231516344
1188 2186.758312103882
1189 2187.59906076006
1190 2188.497793443864
1191 2189.386901713282
1192 2190.800381195655
1193 2191.784535786828
1194 2192.750751944594
1195 2193.722651795018
1196 2195.18684049843
1197 2196.143558105282
1198 2197.077144153857
1199 2198.426742630848
1200 2199.291103796502
1201 2200.109508800675
1202 2201.30571521416
1203 2202.048515773495
1204 2202.723136923345
1205 2203.794501017703
1206 2204.400638586487
1207 2205.202033217117
1208 2205.71124615084
1209 2206.332856706081
1210 2206.694777400526
1211 2207.018486912713
1212 2207.387270352569
1213 2207.580331889293
1214 2207.779410623536
1215 2207.876592520944
1216 2207.938215150919
1217 2207.936056269747
1218 2207.971640669316
1219 2207.976988307006
1220 2207.838069064015
1221 2207.739225524886
1222 2207.681040112603
1223 2207.59435664221
1224 2207.514716348159
1225 2207.449196213297
1226 2207.398175269127
1227 2207.321823653814
1228 2207.283587917921
1229 2207.2666880989
1230 2207.251053946321
1231 2207.275406328481
1232 2207.335341008497
1233 2207.344936362716
1234 2207.482285376386
1235 2207.685472149054
1236 2207.893528862268
1237 2208.106647153462
1238 2208.433499235993
1239 2208.777580293784
1240 2209.170495616312
1241 2209.652245327846
1242 2210.102861036883
1243 2210.659819974855
1244 2211.277580753383
1245 2211.898483064077
1246 2212.867102456062
1247 2213.564089570448
1248 2214.327187632693
1249 2215.074873058455
1250 2215.927772713937
1251 2216.893977081188
1252 2217.81573491114
1253 2219.283018529572
1254 2220.29712739375
1255 2221.431194315033
1256 2222.588156212292
1257 2224.36808173648
1258 2225.621322927776
1259 2226.832745572213
1260 2228.818550566922
1261 2230.032007169403
1262 2231.867386069607
1263 2233.068080728407
1264 2234.919993005436
1265 2236.106974280567
1266 2237.915519108164
1267 2239.089346875276
1268 2240.830574890958
1269 2241.922421118555
1270 2243.551350659455
1271 2244.607208488488
1272 2246.071684235067
1273 2247.474906600179
1274 2248.393821244693
1275 2249.569529771277
1276 2250.371208129036
1277 2251.439815674502
1278 2252.160108093171
1279 2253.005642583327
1280 2253.541061751639
1281 2254.217021673081
1282 2254.601225789017
1283 2254.97511370827
1284 2255.158061162247
1285 2255.407820054225
1286 2255.509426274092
1287 2255.395997961219
1288 2255.281874780002
1289 2255.063245550853
1290 2254.592243648111
1291 2254.217435845352
1292 2253.759121585419
1293 2253.171717841326
1294 2252.231184895631
1295 2251.601850301196
1296 2250.898045772307
1297 2250.068014056687
1298 2249.075096826366
1299 2248.021477643123
1300 2246.891246043205
1301 2245.742764359265
1302 2244.476233438383
1303 2242.485699757872
1304 2241.172796784901
1305 2239.778433888432
1306 2237.716200041894
1307 2236.320797337145
1308 2234.109933893023
1309 2232.682967560216
1310 2230.580941831696
1311 2229.20337196016
1312 2227.160260930763
1313 2225.806609869791
1314 2223.854569666331
1315 2221.951131013661
1316 2220.763764613213
1317 2218.97045290394
1318 2217.889199094344
1319 2216.312036807658
1320 2214.858004325688
1321 2213.923942296362
1322 2212.658948234034
1323 2211.822028742733
1324 2210.724925370844
1325 2210.042957574409
1326 2209.12946485916
1327 2208.579815637444
1328 2207.837212984427
1329 2207.403091029514
1330 2206.889852120175
1331 2206.582708588529
1332 2206.395485154486
1333 2206.258626187896
1334 2206.187999403985
1335 2206.148821960556
1336 2206.248449612252
1337 2206.363814996005
1338 2206.553136102269
1339 2206.750952507398
1340 2207.027073043302
1341 2207.377187552495
1342 2207.792179061708
1343 2208.311303050548
1344 2208.896161601127
1345 2209.516170526019
1346 2210.261816472554
1347 2210.999629812396
1348 2211.870990906649
1349 2212.760568375312
1350 2213.767677348949
1351 2214.785105195349
1352 2215.892214297352
1353 2216.966170917887
1354 2218.140356449435
1355 2219.315270520352
1356 2221.233314571499
1357 2222.468043103093
1358 2223.746169657267
1359 2225.67410859653
1360 2226.965736408019
1361 2228.827984544242
1362 2230.104927507177
1363 2231.995311765974
1364 2233.310169953911
1365 2235.153467397076
1366 2236.405363051852
1367 2238.140152625616
1368 2239.857780047811
1369 2240.948034499515
1370 2242.563935162302
1371 2244.087286222864
1372 2245.08428655134
1373 2246.457100654793
1374 2247.843402522703
1375 2248.764647878526
1376 2250.00141568172
1377 2251.211751696396
1378 2252.074349080738
1379 2253.289440965828
1380 2254.422279506248
1381 2255.10496294618
1382 2256.199250969765
1383 2257.163101018522
1384 2257.774089932694
1385 2258.684987406111
1386 2259.298145750501
1387 2260.109918040844
1388 2260.932223372182
1389 2261.412461201704
1390 2262.228073395742
1391 2262.696262735501
1392 2263.412287361245
1393 2263.880779813607
1394 2264.566664548557
1395 2264.949536642147
1396 2265.559193724894
1397 2265.940066859158
1398 2266.44497778469
1399 2266.704717700653
1400 2267.007238481191
1401 2267.396408116002
1402 2267.607845959137
1403 2267.764458509832
1404 2268.012542237956
1405 2268.149123409051
1406 2268.241416938508
1407 2268.344019357524
1408 2268.335714308108
1409 2268.310592176227
1410 2268.288350388618
1411 2268.217866983274
1412 2268.212066264352
1413 2268.111799274599
1414 2268.001565765742
1415 2267.903160327781
1416 2267.783448312869
1417 2267.633185774266
1418 2267.483635923068
1419 2267.281328295266
1420 2267.13744692252
1421 2266.979023172607
1422 2266.805820755006
1423 2266.58505559704
1424 2266.430563765822
1425 2266.264629836318
1426 2266.097937932793
1427 2265.921571073758
1428 2265.724923850777
1429 2265.550245565757
1430 2265.416978577779
1431 2265.27956526922
1432 2265.202484333786
1433 2265.100129423937
1434 2265.047318386442
1435 2264.981728293024
1436 2264.967221398491
1437 2264.932377839914
1438 2265.010555150979
1439 2265.128584070258
1440 2265.270603557018
1441 2265.41497394728
1442 2265.64748690549
1443 2265.860256336272
1444 2266.142302476784
1445 2266.399364318264
1446 2266.764858868135
1447 2267.090971589357
1448 2267.48919222908
1449 2267.868242056934
1450 2268.264809302155
1451 2268.655748981273
1452 2269.103092652891
1453 2269.540442670538
1454 2270.036739232542
1455 2270.503574165079
1456 2271.0252983375
1457 2271.580695671247
1458 2272.135069127584
1459 2272.7367241627
1460 2273.376764788054
1461 2273.951450089835
1462 2274.604154062839
1463 2275.218360312821
1464 2275.839777180658
1465 2276.505914257479
1466 2277.137927776875
1467 2277.742516798225
1468 2278.376245290336
1469 2279.28252315252
1470 2279.918796075136
1471 2280.444481575761
1472 2281.022903541184
1473 2281.560455372634
1474 2282.383514052012
1475 2282.829463080666
1476 2283.329777688059
1477 2283.950807793257
1478 2284.426765392447
1479 2284.760881551334
1480 2285.290941219561
1481 2285.584452278596
1482 2285.993737835769
1483 2286.192930796501
1484 2286.405228339705
1485 2286.669313304376
1486 2286.817705076311
1487 2286.906873556001
1488 2286.979308156823
1489 2287.034580270233
1490 2287.007135775903
1491 2286.978242170866
1492 2286.90004358426
1493 2286.704444356897
1494 2286.588315552176
1495 2286.358268900653
1496 2286.116990286774
1497 2285.919788335428
1498 2285.676167869065
1499 2285.451674282698
1500 2285.088982904654
1501 2284.810503395856
1502 2284.40715701675
1503 2284.112803309756
1504 2283.834793318478
1505 2283.56429784687
1506 2283.20763011291
1507 2282.954191442394
1508 2282.540421118695
1509 2282.236291907234
1510 2281.841005872994
1511 2281.571492931428
1512 2281.192397533088
1513 2280.972031162759
1514 2280.706100875625
1515 2280.535347532969
1516 2280.365685380295
1517 2280.098261540231
1518 2279.996167800307
1519 2279.900755976545
1520 2279.77605746702
1521 2279.740776850956
1522 2279.796096200401
1523 2279.851087600297
1524 2279.901526629425
1525 2280.062262981841
1526 2280.244314674164
1527 2280.454839701913
1528 2280.706380536386
1529 2281.007458384959
1530 2281.357529101265
1531 2281.7136511826
1532 2282.135036155154
1533 2282.634093873658
1534 2283.14636413114
1535 2283.639107824002
1536 2284.232648622396
1537 2284.849615028187
1538 2285.509452816121
1539 2286.245384606945
1540 2287.016617475505
1541 2287.849869591077
1542 2288.74114780011
1543 2289.654125102117
1544 2290.603968495042
1545 2291.573839644719
1546 2292.538180479309
1547 2293.510657244294
1548 2294.567180465425
1549 2295.657009176119
1550 2296.743468778608
1551 2297.826261392553
1552 2299.48796824236
1553 2300.573560675849
1554 2301.676243380908
1555 2302.774579108015
1556 2303.91058005277
1557 2304.981952229611
1558 2306.109245839213
1559 2307.75421278654
1560 2308.853231064424
1561 2309.973113861009
1562 2311.060750432149
1563 2312.123083200834
1564 2313.745787913705
1565 2314.791927242788
1566 2315.844919485851
1567 2316.881601047249
1568 2317.925831610617
1569 2319.468184917368
1570 2320.490854866099
1571 2321.51954561594
1572 2322.523018423965
1573 2323.462959177907
1574 2324.869364867596
1575 2325.764980770234
1576 2326.682198219218
1577 2327.522807845799
1578 2328.334318776826
1579 2329.113891188244
1580 2330.277823121118
1581 2331.01024544247
1582 2331.744669525197
1583 2332.4526471943
1584 2333.137627196616
1585 2333.782640121203
1586 2334.42482932663
1587 2335.041259691933
1588 2335.642714197383
1589 2336.231938544408
1590 2336.781664226368
1591 2337.291304924195
1592 2337.817484203889
1593 2338.298006640768
1594 2338.769925233863
1595 2339.163724328765
1596 2339.561992251
1597 2339.940838840751
1598 2340.284304220901
1599 2340.582581653506
1600 2340.849354860725
1601 2341.119473855963
1602 2341.339972072163
1603 2341.537746016515
1604 2341.732955694217
1605 2341.864295913297
1606 2341.979243406206
1607 2342.076069290414
1608 2342.144357884375
1609 2342.207368092483
1610 2342.236688354609
1611 2342.229405077195
1612 2342.234877698529
1613 2342.20347015125
1614 2342.128694360105
1615 2342.067736994381
1616 2342.051161322209
1617 2341.92428063332
1618 2341.870688792729
1619 2341.802260276861
1620 2341.762145722865
1621 2341.701363505078
1622 2341.683536407568
1623 2341.662005828889
1624 2341.693932104028
1625 2341.713855339581
1626 2341.784587174597
1627 2341.832346011015
1628 2341.969967345583
1629 2342.085696010014
1630 2342.330631079422
1631 2342.520803230071
1632 2342.775304282941
1633 2343.168116710036
1634 2343.457827784341
1635 2343.995246744991
1636 2344.411885144783
1637 2345.101245076329
1638 2345.620027208835
1639 2346.484639610117
1640 2347.118087489772
1641 2348.11632601491
1642 2348.839068716225
1643 2349.939369643691
1644 2350.739469970061
1645 2351.970990529411
1646 2352.901646541075
1647 2354.255843265831
1648 2355.237430664189
1649 2356.736695717313
1650 2357.776027396014
1651 2359.374975522071
1652 2360.509355294847
1653 2362.097450418386
1654 2363.751349559127
1655 2364.886684328004
1656 2366.619980186325
1657 2368.273506081247
1658 2369.421105897241
1659 2371.099065831251
1660 2372.731778499402
1661 2374.390265350371
1662 2375.483087894364
1663 2377.125460411261
1664 2378.75069194022
1665 2380.205604021605
1666 2381.646788024852
1667 2382.617225950162
1668 2383.997153935878
1669 2385.308648219092
1670 2386.636532066516
1671 2387.461833276258
1672 2388.645724481432
1673 2389.754557108704
1674 2390.46473012528
1675 2391.408710448563
1676 2392.324207614913
1677 2392.807481860132
1678 2393.504570309999
1679 2393.903986353026
1680 2394.415152986859
1681 2394.704187676836
1682 2395.03175530777
1683 2395.171410469671
1684 2395.327097385513
1685 2395.325309913099
1686 2395.237739956513
1687 2395.084155535465
1688 2394.770606213481
1689 2394.515875524322
1690 2394.035207826145
1691 2393.639195112328
1692 2392.996301174308
1693 2392.454994395355
1694 2391.571482941637
1695 2390.58794168443
1696 2389.907654232185
1697 2388.791733133225
1698 2387.640735405388
1699 2386.436126602517
1700 2385.248388862285
1701 2383.948010804957
1702 2382.627666761061
1703 2381.276343205806
1704 2379.887710782654
1705 2378.524720657912
1706 2377.059021010315
1707 2375.585610864834
1708 2374.103418984741
1709 2372.526628427633
1710 2371.003038705801
1711 2369.41055308698
1712 2367.828339042912
1713 2366.113042696873
1714 2364.373164301356
1715 2362.603302386773
1716 2360.867066926893
1717 2359.058505615107
1718 2357.296660080793
1719 2355.440075223035
1720 2353.578569102619
1721 2351.643483033872
1722 2349.685441565915
1723 2347.736548288748
1724 2345.758020866379
1725 2343.695802267183
1726 2341.668793354357
1727 2339.578670916133
1728 2337.568227268071
1729 2335.513071854708
1730 2333.475236592219
1731 2331.405667421165
1732 2329.375018732268
1733 2327.339177401062
1734 2325.251713819014
1735 2323.234035104527
1736 2321.213325794553
1737 2319.192553048402
1738 2317.180756166325
1739 2315.236979257512
1740 2313.303495914114
1741 2311.38537007751
1742 2309.547821719716
1743 2307.63698667309
1744 2305.759129023689
1745 2303.911340517434
1746 2302.104708090288
1747 2300.299084604721
1748 2298.511288549563
1749 2296.686115326721
1750 2294.874876788788
1751 2293.029406708868
1752 2291.229621159094
1753 2289.384401626496
1754 2287.554696490644
1755 2285.698061045007
1756 2283.837472451453
1757 2281.928575032208
1758 2279.983177115026
1759 2278.651796385747
1760 2276.605677890372
1761 2274.512962721883
1762 2272.41728021138
1763 2270.232185195738
1764 2268.782974577171
1765 2266.588579143751
1766 2264.373328691187
1767 2262.091932704108
1768 2260.59400220817
1769 2258.42330870569
1770 2256.279945461278
1771 2254.843610309182
1772 2252.739519139939
1773 2250.676244690535
1774 2249.407110017674
1775 2247.49360905207
1776 2245.692165057448
1777 2244.526273413675
1778 2242.880837523751
1779 2241.363646156798
1780 2240.435019900216
1781 2239.163087964555
1782 2238.055608375163
1783 2237.39062792615
1784 2236.622985994773
1785 2235.963034775703
1786 2235.624802956167
1787 2235.293836302361
1788 2235.186731221923
1789 2235.056286679625
1790 2235.105681101646
1791 2235.273913568778
1792 2235.479663242809
1793 2235.847407217143
1794 2236.213890868245
1795 2236.852065907851
1796 2237.380094094841
1797 2237.98439229451
1798 2238.864444426683
1799 2239.389621880078
1800 2240.06675136498
1801 2240.724000128059
1802 2241.426155422738
1803 2242.082967819463
1804 2242.798723792233
1805 2243.429572295597
1806 2244.083946237382
1807 2244.940154451037
1808 2245.537002064145
1809 2246.06522761209
1810 2246.546614368719
1811 2247.099755174471
1812 2247.425251699935
1813 2247.690229345184
1814 2248.056657352409
1815 2248.178691470273
1816 2248.292347965344
1817 2248.330361365413
1818 2248.290363207592
1819 2248.156280173734
1820 2247.871978837181
1821 2247.63840145601
1822 2247.346809640198
1823 2246.967247544178
1824 2246.309330233998
1825 2245.76281431614
1826 2245.197789783232
1827 2244.564229547061
1828 2243.858144264071
1829 2243.057362834639
1830 2242.226245629571
1831 2241.299967861741
1832 2240.336198591701
1833 2239.230574188856
1834 2238.137501822769
1835 2236.957900544923
1836 2235.706668105918
1837 2234.376700849063
1838 2233.035521867543
1839 2230.998938557586
1840 2229.612371227686
1841 2228.18135422646
1842 2225.980774205589
1843 2224.504959357882
1844 2222.306478782007
1845 2220.839503179783
1846 2218.618949769206
1847 2217.167330460738
1848 2214.980540597647
1849 2213.49057530991
1850 2211.288774469694
1851 2209.815728771459
1852 2207.566456768479
1853 2205.45973055688
1854 2203.434134340047
1855 2201.359817863154
1856 2200.04572087514
1857 2198.082365969369
1858 2196.161848954323
1859 2194.302959516685
1860 2192.518753026561
1861 2190.76198632594
1862 2189.051866943018
1863 2187.389978713245
1864 2185.841845989425
1865 2184.236978006686
1866 2182.695554463457
1867 2181.227017897146
1868 2179.787250740496
1869 2178.404197254603
1870 2177.069797890328
1871 2175.737333192671
1872 2174.418517926222
1873 2173.097742304958
1874 2172.272375861263
1875 2170.988151390156
1876 2169.739415102289
1877 2168.875759813897
1878 2167.592689290688
1879 2166.275101622178
1880 2165.391143512522
1881 2164.049051480082
1882 2163.143757477418
1883 2161.736879232279
1884 2160.80179410585
1885 2159.345902535721
1886 2158.343640099542
1887 2157.290003997301
1888 2155.735176149771
1889 2154.668862017264
1890 2153.594291447638
1891 2152.49381389333
1892 2151.390469827741
1893 2150.209154010288
1894 2149.059025615562
1895 2147.870083161245
1896 2146.66178775081
1897 2145.463532426068
1898 2144.261404486298
1899 2143.059089108905
1900 2141.871774468172
1901 2140.703866995672
1902 2139.556134787629
1903 2138.369181375209
1904 2137.273928725594
1905 2136.160004784696
1906 2135.158202445445
1907 2134.134130297517
1908 2133.171895226443
1909 2132.221265610675
1910 2131.358403362774
1911 2130.50543304762
1912 2129.703857305154
1913 2128.957822548766
1914 2128.266164989328
1915 2127.604476701969
1916 2127.013486813438
1917 2126.4250942314
1918 2125.921573349794
1919 2125.39970934449
1920 2124.941899065753
1921 2124.525764500026
1922 2124.099262912068
1923 2123.754580556598
1924 2123.435171215271
1925 2123.118809739497
1926 2122.834956728296
1927 2122.533071602133
1928 2122.244890054269
1929 2121.950037273319
1930 2121.726654845688
1931 2121.424414189633
1932 2121.160820245973
1933 2120.838745801477
1934 2120.554968593564
1935 2120.237831756279
1936 2119.900897750151
1937 2119.543027732218
1938 2119.178297828214
1939 2118.776871773001
1940 2118.375999772662
1941 2117.881274575935
1942 2117.393133479095
1943 2116.811427057237
1944 2116.288761520074
1945 2115.688335982969
1946 2115.07936889001
1947 2114.406802254668
1948 2113.768926994562
1949 2113.017756931481
1950 2112.284713837657
1951 2111.449680626403
1952 2110.614885361461
1953 2109.672592037335
1954 2108.743396483084
1955 2107.762849774697
1956 2106.785653976868
1957 2105.757063039851
1958 2104.683842259591
1959 2103.630019081438
1960 2102.555924499688
1961 2101.454636018981
1962 2100.344694295729
1963 2099.209708135336
1964 2098.109334696993
1965 2096.937250975189
1966 2095.788579001257
1967 2094.616084546812
1968 2093.463678028955
1969 2092.264481826395
1970 2091.085178956553
1971 2089.916682447748
1972 2088.819196261037
1973 2087.718274501636
1974 2086.613530461583
1975 2085.55398864624
1976 2084.535549750973
1977 2083.501153984749
1978 2082.56903468445
1979 2081.610758058915
1980 2080.739712012997
1981 2079.879972563263
1982 2079.098960753991
1983 2078.32419371179
1984 2077.653818006064
1985 2077.004373291626
1986 2076.433178232606
1987 2075.906956146374
1988 2075.465256890351
1989 2075.041703900133
1990 2074.697340454286
1991 2074.368035618256
1992 2074.126144614865
1993 2073.946074153666
1994 2073.836154379886
1995 2073.75022093413
1996 2073.720945476662
1997 2073.714535921089
1998 2073.782951494873
1999 2073.87640579145
2000 2074.062611507841
2001 2074.239055282612
2002 2074.487522866218
2003 2074.742054058881
2004 2075.034355189802
2005 2075.345404318133
2006 2075.710762899635
2007 2076.081816525405
2008 2076.494525229451
2009 2076.886074173808
2010 2077.32887788845
2011 2077.744906455549
2012 2078.196699962944
2013 2078.663230601963
2014 2079.163138258356
2015 2079.617188052091
2016 2080.104729373102
2017 2080.55113265758
2018 2081.028295933192
2019 2081.462794663175
2020 2081.906574239899
2021 2082.332476504151
2022 2082.770251110818
2023 2083.187699307747
2024 2083.615373023775
2025 2083.999233335645
2026 2084.433180737804
2027 2084.833713133451
2028 2085.240034956259
2029 2085.59944867428
2030 2086.007984267902
2031 2086.33696628331
2032 2086.708408098911
2033 2087.069246422967
2034 2087.429734502544
2035 2087.760096611986
2036 2088.127335963061
2037 2088.448160544518
2038 2088.811329681518
2039 2089.133503362852
2040 2089.482023013582
2041 2089.806514523424
2042 2090.162918691877
2043 2090.496963088
2044 2090.834402912382
2045 2091.144615610966
2046 2091.475703619594
2047 2091.807312495909
2048 2092.15911590141
2049 2092.479982449487
2050 2092.835822427613
2051 2093.137688529454
2052 2093.445744239954
2053 2093.735021227007
2054 2094.04394175709
2055 2094.31569399363
2056 2094.604667349181
2057 2094.862037896954
2058 2095.152369746324
2059 2095.409726382896
2060 2095.684491847363
2061 2095.923219677336
2062 2096.166802768045
2063 2096.371379275031
2064 2096.633579677894
2065 2096.82648079531
2066 2097.048003480959
2067 2097.249865255927
2068 2097.444728712347
2069 2097.592559429483
2070 2097.754595492057
2071 2097.882038643591
2072 2098.020015200798
2073 2098.131695077424
2074 2098.260517657882
2075 2098.346276095534
2076 2098.422734672259
2077 2098.478407804028
2078 2098.54939380867
2079 2098.59647554809
2080 2098.646311543152
2081 2098.669729575606
2082 2098.726019214624
2083 2098.729657255401
2084 2098.772260088278
2085 2098.771420322089
2086 2098.809377911937
2087 2098.806896033905
2088 2098.819715837576
2089 2098.809264529222
2090 2098.836599344548
2091 2098.806026805435
2092 2098.815208856477
2093 2098.787104978226
2094 2098.809118590037
2095 2098.806257111998
2096 2098.84217451591
2097 2098.855742030961
2098 2098.887638673343
2099 2098.911383282466
2100 2098.946494461697
2101 2098.957633928896
2102 2099.017310503578
2103 2099.051679122853
2104 2099.119624875967
2105 2099.163634503691
2106 2099.246256641698
2107 2099.29545683552
2108 2099.395546685538
2109 2099.455614968426
2110 2099.545320248613
2111 2099.624001796959
2112 2099.737770532761
2113 2099.818809968151
2114 2099.950156617536
2115 2100.044233602799
2116 2100.173889384079
2117 2100.287328995411
2118 2100.422408951593
2119 2100.538917380131
2120 2100.678683623623
2121 2100.808800059538
2122 2100.965433066967
2123 2101.09751953866
2124 2101.244993010542
2125 2101.380177043948
2126 2101.544677425104
2127 2101.696604679118
2128 2101.874522026961
2129 2102.041346583223
2130 2102.218919236008
2131 2102.378742596327
2132 2102.554206367503
2133 2102.716965094911
2134 2102.9011090927
2135 2103.060005203547
2136 2103.250147364446
2137 2103.416265151751
2138 2103.632696949835
2139 2103.829835384778
2140 2104.031172596307
2141 2104.240754384766
2142 2104.473541433088
2143 2104.694084651072
2144 2104.936333569382
2145 2105.173271320175
2146 2105.446922004166
2147 2105.709070590777
2148 2106.007184771973
2149 2106.271997272906
2150 2106.58907607676
2151 2106.886354966033
2152 2107.208703434079
2153 2107.518572274842
2154 2107.84087875917
2155 2108.145849910828
2156 2108.479807898696
2157 2108.808487464932
2158 2109.186970417134
2159 2109.534873263304
2160 2109.917673016401
2161 2110.27971226613
2162 2110.680554996108
2163 2111.07150843716
2164 2111.47578194426
2165 2111.883599195585
2166 2112.324645648461
2167 2112.734815931643
2168 2113.176278346944
2169 2113.599054501785
2170 2114.043721660951
2171 2114.477490170686
2172 2114.931876417575
2173 2115.356866056483
2174 2115.810688216026
2175 2116.243476287779
2176 2116.691700714434
2177 2117.131569855776
2178 2117.587655301667
2179 2118.022025529899
2180 2118.468286838465
2181 2118.893258406771
2182 2119.351289842314
2183 2119.787427894246
2184 2120.245425151278
2185 2120.677621053989
2186 2121.155524618142
2187 2121.608827520098
2188 2122.088407103232
2189 2122.547520449293
2190 2123.029741437901
2191 2123.500523586301
2192 2123.978639738681
2193 2124.468227404787
2194 2124.96445230806
2195 2125.434030715954
2196 2125.929979738618
2197 2126.395456468408
2198 2126.897230649613
2199 2127.385093902168
2200 2127.885116923389
2201 2128.368788309172
2202 2128.881421870444
2203 2129.402051470389
2204 2129.92614817221
2205 2130.438203581174
2206 2130.989783036646
2207 2131.507332493898
2208 2132.066567606584
2209 2132.609046971385
2210 2133.178018741641
2211 2133.735524262549
2212 2134.319774199283
2213 2134.90303462884
2214 2135.492519254733
2215 2136.061071558654
2216 2136.651442082201
2217 2137.221703673176
2218 2137.836708741351
2219 2138.431353467592
2220 2139.033015139864
2221 2139.601809163579
2222 2140.200383722808
2223 2140.784921754817
2224 2141.38146148264
2225 2141.960753628493
2226 2142.542552526276
2227 2143.104349259949
2228 2143.701124037816
2229 2144.263357624311
2230 2144.819457145085
2231 2145.352546098275
2232 2145.902249765313
2233 2146.409528065317
2234 2146.925825365181
2235 2147.426077806167
2236 2147.93065786126
2237 2148.41135721412
2238 2148.888267023585
2239 2149.319046259268
2240 2149.745502980002
2241 2150.160985682131
2242 2150.579086940426
2243 2150.963964918941
2244 2151.34215642202
2245 2151.688812639669
2246 2152.024036523425
2247 2152.327128489601
2248 2152.632138636159
2249 2152.896712585057
2250 2153.157848674013
2251 2153.370011755911
2252 2153.588817126417
2253 2153.794242690858
2254 2154.006930909796
2255 2154.19236040244
2256 2154.376441693072
2257 2154.543472361959
2258 2154.697196517699
2259 2154.821981042697
2260 2154.95790286515
2261 2155.056550810974
2262 2155.16113927781
2263 2155.232375672701
2264 2155.306949638719
2265 2155.35186542331
2266 2155.412277545742
2267 2155.434696875087
2268 2155.454724418469
2269 2155.457349669638
2270 2155.467212064352
2271 2155.450991864296
2272 2155.442847705697
2273 2155.415708262636
2274 2155.383927653623
2275 2155.332273910504
2276 2155.291861489567
2277 2155.228000060982
2278 2155.182513521206
2279 2155.112012099149
2280 2155.033228712678
2281 2154.935745205853
2282 2154.857697601466
2283 2154.736201857136
2284 2154.643342351679
2285 2154.522626346608
2286 2154.414598393779
2287 2154.277111046672
2288 2154.158781311131
2289 2154.003705756213
2290 2153.87004871558
2291 2153.719336210875
2292 2153.573366152879
2293 2153.398084135624
2294 2153.238579382869
2295 2153.043453967946
2296 2152.872775165915
2297 2152.669677853047
2298 2152.482822927146
2299 2152.256574612303
2300 2152.029246063392
2301 2151.795979828514
2302 2151.56526244523
2303 2151.306449392292
2304 2151.046140652933
2305 2150.775442199744
2306 2150.499296548405
2307 2150.206552900786
2308 2149.9259621825
2309 2149.609043366813
2310 2149.296701876604
2311 2148.987753627065
2312 2148.672698576334
2313 2148.339688673308
2314 2148.007364045164
2315 2147.658741816554
2316 2147.322663718487
2317 2146.988854545641
2318 2146.663176501626
2319 2146.338668934738
2320 2146.024673676746
2321 2145.689911029071
2322 2145.374529267976
2323 2145.04460556959
2324 2144.737025766148
2325 2144.413192748872
2326 2144.112616612883
2327 2143.805889224383
2328 2143.544288743214
2329 2143.264231174213
2330 2143.035400712097
2331 2142.792699738218
2332 2142.576670291543
2333 2142.366749083347
2334 2142.180114059144
2335 2142.004444960042
2336 2141.855686190625
2337 2141.721166972555
2338 2141.620874310938
2339 2141.528074203628
2340 2141.468842626336
2341 2141.427536384676
2342 2141.416323787565
2343 2141.42633837936
2344 2141.475944738523
2345 2141.545076365073
2346 2141.651560657098
2347 2141.78247937296
2348 2141.947853183522
2349 2142.125162515526
2350 2142.349112792547
2351 2142.601341264626
2352 2142.904035238071
2353 2143.22612178766
2354 2143.576467480214
2355 2143.954547034664
2356 2144.36289887399
2357 2144.804964916839
2358 2145.273095557164
2359 2145.746232315756
2360 2146.269337268471
2361 2146.805263456286
2362 2147.375568642618
2363 2147.949860721667
2364 2148.543253738238
2365 2149.16375060488
2366 2149.822239204292
2367 2150.468699462768
2368 2151.141617930937
2369 2151.80725415014
2370 2152.509009875067
2371 2153.189320911036
2372 2153.88781776151
2373 2154.954881531994
2374 2155.640916860893
2375 2156.348677188356
2376 2157.055456600141
2377 2158.063460494862
2378 2158.752141253925
2379 2159.399765624502
2380 2160.406163845314
2381 2161.014376325992
2382 2161.637304206299
2383 2162.514318214284
2384 2163.106031608068
2385 2163.663492489583
2386 2164.474439693772
2387 2164.996559183383
2388 2165.519371751109
2389 2166.006893360334
2390 2166.740130097058
2391 2167.209214065427
2392 2167.654705662844
2393 2168.068616967287
2394 2168.725705239666
2395 2169.129728734104
2396 2169.552431404202
2397 2169.948907727487
2398 2170.324371438994
2399 2170.688920692941
2400 2171.058710469452
2401 2171.397576143474
2402 2171.794147213272
2403 2172.132765903506
2404 2172.497079090769
2405 2172.826108673735
2406 2173.174129966922
2407 2173.477636706799
2408 2173.813716366921
2409 2174.112892048532
2410 2174.445694586169
2411 2174.722489922839
2412 2175.002718817094
2413 2175.282278181696
2414 2175.568681213561
2415 2175.825078026732
2416 2176.103279303281
2417 2176.346339758138
2418 2176.59885793507
2419 2176.83896639542
2420 2177.079830348892
2421 2177.279725865454
2422 2177.500132540057
2423 2177.70176658951
2424 2177.89303680754
2425 2178.05451261644
2426 2178.197895687799
2427 2178.31262814307
2428 2178.446463629895
2429 2178.588067376345
2430 2178.706879338043
2431 2178.818156812424
2432 2178.932463419092
2433 2179.018126762068
2434 2179.099457920184
2435 2179.16887421962
2436 2179.248039710911
2437 2179.298008519224
2438 2179.358401720742
2439 2179.354223457302
2440 2179.394875765501
2441 2179.377430386782
2442 2179.38037395664
2443 2179.333165975865
2444 2179.285090845224
2445 2179.215599453682
2446 2179.164300362785
2447 2179.051497350216
2448 2178.96614802955
2449 2178.804538813079
2450 2178.66787683621
2451 2178.474860850085
2452 2178.25254061074
2453 2177.978720743714
2454 2177.679280843029
2455 2177.346241528875
2456 2177.002652673232
2457 2176.603851525147
2458 2176.192094208655
2459 2175.531677911892
2460 2175.106368476101
2461 2174.649072634551
2462 2173.937826059751
2463 2173.428927893467
2464 2172.935154488092
2465 2172.143575338161
2466 2171.618466869757
2467 2170.80759979165
2468 2170.284313761151
2469 2169.438667987239
2470 2168.904237794242
2471 2168.064378190163
2472 2167.481986344211
2473 2166.603609052315
2474 2166.020107822361
2475 2165.125594782471
2476 2164.277831472259
2477 2163.686767732318
2478 2162.825414725456
2479 2162.221687671198
2480 2161.32775911606
2481 2160.413273283
2482 2159.816840447084
2483 2158.899288827137
2484 2157.997871256654
2485 2157.37542786632
2486 2156.480211396544
2487 2155.900570230342
2488 2155.050308411678
2489 2154.460302287234
2490 2153.618617069665
2491 2153.039231098012
2492 2152.214361359392
2493 2151.649531169266
2494 2150.838701596604
2495 2150.295881872857
2496 2149.789845874552
2497 2149.0019943965
2498 2148.532194321122
2499 2148.055499423844
2500 2147.411209380032
2501 2146.998081541098
2502 2146.638711551754
2503 2146.270165112566
2504 2145.957216635014
2505 2145.654784407112
2506 2145.413394989654
2507 2145.174634385756
2508 2144.984222371624
2509 2144.783807858273
2510 2144.670101036296
2511 2144.5831776385
2512 2144.551425174083
2513 2144.558546053625
2514 2144.629645590229
2515 2144.725286502457
2516 2144.849982575738
2517 2144.986586932142
2518 2145.181798952853
2519 2145.447473584164
2520 2145.749821230625
2521 2146.071475178211
2522 2146.432896239125
2523 2146.825639146462
2524 2147.254901931713
2525 2147.724828116793
2526 2148.24119002921
2527 2148.769994288949
2528 2149.334933421126
2529 2149.915200739621
2530 2150.529776108096
2531 2151.160807518513
2532 2151.792560159335
2533 2152.424141604005
2534 2153.084102011819
2535 2153.735475153848
2536 2154.776093206159
2537 2155.412233889341
2538 2156.037292020674
2539 2156.663411770404
2540 2157.614121177432
2541 2158.209506177698
2542 2158.798876582994
2543 2159.65528624405
2544 2160.240510689863
2545 2160.793505507991
2546 2161.61978009031
2547 2162.117979271323
2548 2162.647725664337
2549 2163.1289998062
2550 2163.877914173852
2551 2164.323645350582
2552 2164.781088778143
2553 2165.209914631131
2554 2165.870415522516
2555 2166.282529754826
2556 2166.710912138887
2557 2167.111495313826
2558 2167.514076420163
2559 2167.930916291018
2560 2168.324512657501
2561 2168.717654210189
2562 2169.116436865815
2563 2169.520856549104
2564 2169.909959592429
2565 2170.281980849241
2566 2170.689929179384
2567 2171.08769498906
2568 2171.48172816192
2569 2171.885695013946
2570 2172.307196216868
2571 2172.703357258371
2572 2173.066468653699
2573 2173.437304436467
2574 2173.800040262824
2575 2174.143045158704
2576 2174.482127654167
2577 2174.79101398791
2578 2175.113400414772
2579 2175.394124300769
2580 2175.645355073008
2581 2175.857766827783
2582 2176.089999497565
2583 2176.269627106913
2584 2176.412878788489
2585 2176.508454571408
2586 2176.605001310139
2587 2176.661305913896
2588 2176.680598764298
2589 2176.642466541431
2590 2176.61987881644
2591 2176.545389355306
2592 2176.445046431773
2593 2176.306858593515
2594 2176.126743326749
2595 2175.911158649407
2596 2175.674711169145
2597 2175.388286844358
2598 2175.057172790745
2599 2174.667921089115
2600 2174.283729605424
2601 2173.832216511641
2602 2173.384045940942
2603 2172.854628076483
2604 2172.315820554983
2605 2171.723994778601
2606 2171.111029608449
2607 2170.439976240762
2608 2169.771732070174
2609 2169.071502480969
2610 2168.376225112208
2611 2167.286004927651
2612 2166.584338099848
2613 2165.869371018217
2614 2165.142847012692
2615 2164.381235071863
2616 2163.290588435638
2617 2162.561964487538
2618 2161.840453834976
2619 2161.095318838555
2620 2160.376656693094
2621 2159.285812517563
2622 2158.601331105246
2623 2157.902347155597
2624 2157.241861285397
2625 2156.552594236638
2626 2155.895744608611
2627 2155.237193067641
2628 2154.62828093081
2629 2154.011119786823
2630 2153.437574528933
2631 2152.863083888495
2632 2152.301310330503
2633 2151.762084686293
2634 2151.260763816147
2635 2150.748281649162
2636 2150.289126709077
2637 2149.80280483273
2638 2149.359900081214
2639 2148.915445371696
2640 2148.50063428198
2641 2148.081768910861
2642 2147.705811099208
2643 2147.329236440392
2644 2146.997466704051
2645 2146.652777621371
2646 2146.363122245325
2647 2146.055381729996
2648 2145.788478256371
2649 2145.520100169439
2650 2145.291528540093
2651 2145.055902964968
2652 2144.8542659942
2653 2144.628355034542
2654 2144.438283347242
2655 2144.242435251081
2656 2144.054207254692
2657 2143.86282918391
2658 2143.680495679302
2659 2143.50016045526
2660 2143.340522760032
2661 2143.18760668238
2662 2143.015280943919
2663 2142.82518731729
2664 2142.662183112353
2665 2142.478315839472
2666 2142.312557252982
2667 2142.125860956481
2668 2141.960663059028
2669 2141.759518846814
2670 2141.55277809419
2671 2141.353469497693
2672 2141.162147243529
2673 2140.942978533195
2674 2140.743539255853
2675 2140.520150671036
2676 2140.349636576044
2677 2140.128973751591
2678 2139.929490230333
2679 2139.73850143916
2680 2139.549446858323
2681 2139.358130715213
2682 2139.178757653019
2683 2139.00774724153
2684 2138.855054479012
2685 2138.708290507602
2686 2138.594827094196
2687 2138.470336984988
2688 2138.377831653351
2689 2138.312989026795
2690 2138.261361143642
2691 2138.218898194028
2692 2138.195037277687
2693 2138.183514897652
2694 2138.208436650738
2695 2138.255326213887
2696 2138.351964640501
2697 2138.470687599395
2698 2138.632267912017
2699 2138.792299752598
2700 2139.005894831198
2701 2139.24553190473
2702 2139.550683637172
2703 2139.855337759553
2704 2140.210509894441
2705 2140.57712237041
2706 2140.982452959237
2707 2141.406667029089
2708 2141.878323534158
2709 2142.356683607284
2710 2142.889220951169
2711 2143.399766158707
2712 2143.972684958376
2713 2144.52851139769
2714 2145.099214630186
2715 2145.679765883398
2716 2146.290180049366
2717 2146.894019323414
2718 2147.50789044399
2719 2148.124142594699
2720 2148.750004309264
2721 2149.371315240704
2722 2149.989627596023
2723 2150.57032941571
2724 2151.18609341172
2725 2151.767952630428
2726 2152.378146212615
2727 2152.952965553261
2728 2153.56947058194
2729 2154.121675845582
2730 2154.684571873545
2731 2155.196472664937
2732 2155.697452990569
2733 2156.169837948132
2734 2156.634505703982
2735 2157.088448645269
2736 2157.563484717342
2737 2157.998969946542
2738 2158.402581654097
2739 2158.786719318096
2740 2159.151406701377
2741 2159.492472265126
2742 2159.837876157298
2743 2160.118801554604
2744 2160.409685304405
2745 2160.658135947254
2746 2160.931919276191
2747 2161.153613368766
2748 2161.368609880581
2749 2161.559922880707
2750 2161.750062440007
2751 2161.891869445005
2752 2162.048086329705
2753 2162.154379377943
2754 2162.255985830367
2755 2162.334400362261
2756 2162.417125052619
2757 2162.483625299817
2758 2162.559709237134
2759 2162.616973369833
2760 2162.647613475213
2761 2162.671947753472
2762 2162.676684559084
2763 2162.653775724415
2764 2162.611455973631
2765 2162.565170961501
2766 2162.511767692601
2767 2162.438609297944
2768 2162.357268658675
2769 2162.246337057742
2770 2162.146450493393
2771 2162.010012363472
2772 2161.868137885123
2773 2161.69345755677
2774 2161.530345035373
2775 2161.31196084028
2776 2161.07187851223
2777 2160.829426145588
2778 2160.549236331678
2779 2160.222264390185
2780 2159.889852340761
2781 2159.524800496158
2782 2159.147465863527
2783 2158.709261054995
2784 2158.278695053159
2785 2157.817688592577
2786 2157.304387026855
2787 2156.761482052396
2788 2156.208395446677
2789 2155.600298322593
2790 2154.978689696087
2791 2154.295512817959
2792 2153.610757579815
2793 2152.876084921502
2794 2152.117548527983
2795 2151.309047162501
2796 2150.478048255615
2797 2149.600451009185
2798 2148.709308251947
2799 2147.772724085741
2800 2146.831586977421
2801 2145.844832858995
2802 2144.852733700193
2803 2143.824238067831
2804 2142.780371543753
2805 2141.718471602583
2806 2140.680961611794
2807 2139.57820832359
2808 2137.954210496383
2809 2136.851158568708
2810 2135.783312492013
2811 2134.723059052301
2812 2133.124843946188
2813 2132.088943261363
2814 2131.07471552821
2815 2129.576742924886
2816 2128.627571178945
2817 2127.685665524551
2818 2126.324918320894
2819 2125.445534827275
2820 2124.60745072943
2821 2123.371684990825
2822 2122.615681110483
2823 2121.871486108607
2824 2120.83995568869
2825 2120.182864407897
2826 2119.555132169437
2827 2118.689541908567
2828 2118.159052558808
2829 2117.648581114071
2830 2117.201114733143
2831 2116.78027122351
2832 2116.218484522267
2833 2115.877143679441
2834 2115.581773566054
2835 2115.305834574268
2836 2115.096657514975
2837 2114.904402924715
2838 2114.779897813181
2839 2114.680058030269
2840 2114.617262890363
2841 2114.568372118723
2842 2114.590549335984
2843 2114.662406053526
2844 2114.756119598863
2845 2114.88151812859
2846 2115.078368489224
2847 2115.254293533893
2848 2115.529226544682
2849 2115.800748675826
2850 2116.144178371615
2851 2116.491052056174
2852 2116.883007862881
2853 2117.264710734635
2854 2117.693180811179
2855 2118.140582020575
2856 2118.62891327065
2857 2119.096066318438
2858 2119.628989695683
2859 2120.156818328554
2860 2120.733260117499
2861 2121.276213328961
2862 2121.873170682326
2863 2122.450095149487
2864 2123.035489912393
2865 2123.6224404282
2866 2124.271443367303
2867 2124.863174934947
2868 2125.480264593286
2869 2126.099430083613
2870 2127.034014814925
2871 2127.613450112535
2872 2128.19888249622
2873 2128.758912196889
2874 2129.321631487845
2875 2129.889562659504
2876 2130.454973342434
2877 2130.964875846296
2878 2131.524058639738
2879 2132.044945331861
2880 2132.603117633042
2881 2133.13346833859
2882 2133.689929672114
2883 2134.22596191499
2884 2134.766069400425
2885 2135.324806874965
2886 2135.87835558094
2887 2136.427310523945
2888 2136.995272091054
2889 2137.560688544164
2890 2138.144005280553
2891 2138.685924583692
2892 2139.260114111882
2893 2139.781189675115
2894 2140.330568360873
2895 2140.875823515311
2896 2141.446641093702
2897 2141.99743301108
2898 2142.569233929991
2899 2143.131822579569
2900 2143.685866406825
2901 2144.21512389142
2902 2144.75398909917
2903 2145.283379230847
2904 2145.836071995294
2905 2146.357981231323
2906 2146.888579296923
2907 2147.370071618608
2908 2147.849271279672
2909 2148.319105944482
2910 2148.779256821281
2911 2149.206645977253
2912 2149.64348520675
2913 2150.049767607745
2914 2150.447480888557
2915 2150.794692469531
2916 2151.141606115169
2917 2151.460481409119
2918 2151.75149061956
2919 2152.002473383181
2920 2152.240595995519
2921 2152.428970014387
2922 2152.6093254613
2923 2152.747717346354
2924 2152.859633610963
2925 2152.934449500956
2926 2152.994146744077
2927 2153.002967528157
2928 2152.998493567917
2929 2152.947891368474
2930 2152.873284267037
2931 2152.779859528081
2932 2152.667348158902
2933 2152.510086924472
2934 2152.331291231871
2935 2152.109257617445
2936 2151.874236694287
2937 2151.601626025437
2938 2151.311185072087
2939 2150.995078367222
2940 2150.707762371488
2941 2150.38970021825
2942 2150.060375963957
2943 2149.714538109652
2944 2149.38960746387
2945 2149.032503488379
2946 2148.685145354371
2947 2148.342703862702
2948 2148.032109898627
2949 2147.690640048618
2950 2147.396186349733
2951 2147.090039677145
2952 2146.809452706691
2953 2146.5514561567
2954 2146.328879706128
2955 2146.103217077268
2956 2145.926156326307
2957 2145.759234182239
2958 2145.638603883061
2959 2145.514308024908
2960 2145.444925014931
2961 2145.388073473527
2962 2145.372610294694
2963 2145.345613225251
2964 2145.356890186712
2965 2145.378220235605
2966 2145.459802090862
2967 2145.527874779556
2968 2145.619283320823
2969 2145.730686854082
2970 2145.860986841607
2971 2146.005940590517
2972 2146.159799153204
2973 2146.323665032208
2974 2146.506232985394
2975 2146.646249063855
2976 2146.81131469601
2977 2146.973690615201
2978 2147.151037209634
2979 2147.309495797678
2980 2147.471411678256
2981 2147.634047118168
2982 2147.822001608136
2983 2147.974693993349
2984 2148.154537064814
2985 2148.291508718946
2986 2148.429918660959
2987 2148.522571135434
2988 2148.631290180751
2989 2148.686282903188
2990 2148.756419741907
2991 2148.803296648841
2992 2148.837630218092
2993 2148.826338814316
2994 2148.818449932689
2995 2148.759565712868
2996 2148.716590885374
2997 2148.622230101065
2998 2148.538601003211
2999 2148.40397337301
3000 2148.272623078932
3001 2148.086631597667
3002 2147.885551825342
3003 2147.64207108262
3004 2147.423693050723
3005 2147.188602616364
3006 2146.945285745043
3007 2146.686745948144
3008 2146.440257845264
3009 2146.142649584615
3010 2145.87018988789
3011 2145.587502147546
3012 2145.31487548631
3013 2145.038764708727
3014 2144.77962270024
3015 2144.51956742337
3016 2144.313573072749
3017 2144.10763202833
3018 2143.894371169542
3019 2143.684508331742
3020 2143.515712812634
3021 2143.353065825372
3022 2143.228235030957
3023 2143.140063109905
3024 2143.079162545591
3025 2143.045026448547
3026 2143.050753395859
3027 2143.062654813273
3028 2143.14032915801
3029 2143.227692695032
3030 2143.353691761411
3031 2143.480248920833
3032 2143.656443712618
3033 2143.870161890506
3034 2144.098997464377
3035 2144.342004773978
3036 2144.593166806341
3037 2144.857052401357
3038 2145.165136269743
3039 2145.486053684634
3040 2145.809522115505
3041 2146.129770063131
3042 2146.449705425386
3043 2146.786720133654
3044 2147.111730618522
3045 2147.454036727927
3046 2147.8180546714
3047 2148.150324751319
3048 2148.468819232967
3049 2148.784127995321
3050 2149.094469289214
3051 2149.369183840232
3052 2149.648517821342
3053 2149.94419383887
3054 2150.215374381803
3055 2150.425569305337
3056 2150.620537900847
3057 2150.800577969491
3058 2150.985565806504
3059 2151.138552730298
3060 2151.293488150024
3061 2151.442310044417
3062 2151.587138409807
3063 2151.67840964069
3064 2151.789525425462
3065 2151.8730324863
3066 2151.948799260523
3067 2152.016293995313
3068 2152.139963592048
3069 2152.228224319955
3070 2152.330682331083
3071 2152.429599174424
3072 2152.546428778333
3073 2152.654978772354
3074 2152.791970737025
3075 2152.927339545276
3076 2153.103152930428
3077 2153.308602328869
3078 2153.564950714313
3079 2153.813999867638
3080 2154.105512048443
3081 2154.407164508128
3082 2154.745253810379
3083 2155.088187924699
3084 2155.479923457012
3085 2155.879737441158
3086 2156.33196362542
3087 2156.796000153537
3088 2157.313486005506
3089 2157.829323988962
3090 2158.409324044725
3091 2158.994754445871
3092 2159.632533647727
3093 2160.289973682022
3094 2160.971414385968
3095 2161.651162556601
3096 2162.405386770978
3097 2163.140880036526
3098 2163.930193208804
3099 2164.741784147466
3100 2165.568202704214
3101 2166.374535426082
3102 2167.231052680509
3103 2168.07992756335
3104 2168.963925843644
3105 2169.81618199898
3106 2170.728706762869
3107 2171.616005760911
3108 2172.491787708936
3109 2173.338720921359
3110 2174.211172038199
3111 2175.05296980457
3112 2175.927082539954
3113 2176.742652211748
3114 2177.561169202918
3115 2178.33383029397
3116 2179.113978853726
3117 2179.834270888768
3118 2180.544096438697
3119 2181.18845046755
3120 2181.873082444311
3121 2182.486329891016
3122 2183.083487317924
3123 2183.616766513836
3124 2184.124432590567
3125 2184.581176459753
3126 2185.047279190513
3127 2185.443907651483
3128 2185.829581679636
3129 2186.141671023659
3130 2186.43872949591
3131 2186.676291301061
3132 2186.894024775268
3133 2187.042963768321
3134 2187.183125283408
3135 2187.252277985979
3136 2187.341117164871
3137 2187.373957578166
3138 2187.427656462228
3139 2187.398019618526
3140 2187.378512213129
3141 2187.317157468491
3142 2187.249540689585
3143 2187.173952181192
3144 2187.09960870104
3145 2186.989005301758
3146 2186.882667716285
3147 2186.742797203253
3148 2186.608223004667
3149 2186.451269621398
3150 2186.294320635084
3151 2186.156063596699
3152 2186.014089209796
3153 2185.836435784207
3154 2185.703391849397
3155 2185.562855639437
3156 2185.451118926711
3157 2185.305067744547
3158 2185.200102606415
3159 2185.059788225219
3160 2184.975937114733
3161 2184.861473567245
3162 2184.772409113632
3163 2184.680941653899
3164 2184.582878685527
3165 2184.482172052027
3166 2184.408065178164
3167 2184.320024195784
3168 2184.244299364412
3169 2184.155844857291
3170 2184.092061479137
3171 2184.01512125318
3172 2183.949945593467
3173 2183.872536691435
3174 2183.819639313348
3175 2183.754197190557
3176 2183.703246890715
3177 2183.639323007051
3178 2183.582129719353
3179 2183.49689312288
3180 2183.425304744986
3181 2183.324445987187
3182 2183.243735405802
3183 2183.13793704829
3184 2183.044683779663
3185 2182.932141564273
3186 2182.798439988623
3187 2182.641273544551
3188 2182.492204707943
3189 2182.30986340997
3190 2182.116703152278
3191 2181.89221332858
3192 2181.663184138158
3193 2181.386677976082
3194 2181.112441159062
3195 2180.779165327326
3196 2180.459449955002
3197 2180.097753492637
3198 2179.739858960447
3199 2179.393995620953
3200 2178.997749261558
3201 2178.581302421441
3202 2178.139685877192
3203 2177.709863356934
3204 2177.253182284665
3205 2176.74769862246
3206 2176.260592898258
3207 2175.720829261341
3208 2175.217023956257
3209 2174.677840985429
3210 2174.129311349846
3211 2173.570780137322
3212 2173.016386913481
3213 2172.453903943564
3214 2171.905020221514
3215 2171.308404189015
3216 2170.726611908845
3217 2170.115332772958
3218 2169.511458079512
3219 2168.91315960295
3220 2168.340830340102
3221 2167.735011839261
3222 2167.132588377671
3223 2166.502126151051
3224 2165.601538814823
3225 2164.979413605043
3226 2164.4140392392
3227 2163.810364113626
3228 2163.255265324583
3229 2162.675383613402
3230 2162.112840245979
3231 2161.507193171526
3232 2160.95070324077
3233 2160.08931503265
3234 2159.5474533489
3235 2158.994974475963
3236 2158.478342616421
3237 2157.950315035635
3238 2157.46240333545
3239 2156.962979312691
3240 2156.438624005081
3241 2155.928010043031
3242 2155.441328633781
3243 2154.944277298001
3244 2154.490741551096
3245 2154.022072150195
3246 2153.630871888321
3247 2153.224764024945
3248 2152.851660675944
3249 2152.491892358157
3250 2152.147787110987
3251 2151.797032885555
3252 2151.495759019255
3253 2151.197130811094
3254 2150.936160442876
3255 2150.712784974042
3256 2150.482289533338
3257 2150.239718484251
3258 2150.097022068209
3259 2149.946411384138
3260 2149.886294393234
3261 2149.844844309769
3262 2149.873471197137
3263 2149.884895838001
3264 2149.967936971939
3265 2150.069630455195
3266 2150.240077625089
3267 2150.429998531526
3268 2150.7033156539
3269 2150.997557970455
3270 2151.333398231026
3271 2151.68750686436
3272 2152.070442177119
3273 2152.470282748983
3274 2152.943346606316
3275 2153.419682569837
3276 2153.920336848926
3277 2154.468443856662
3278 2155.052192339418
3279 2155.62350429419
3280 2156.241546974004
3281 2156.845377186953
3282 2157.489872096387
3283 2158.098071712018
3284 2158.75398452775
3285 2159.347956939002
3286 2159.976862433889
3287 2160.910734381157
3288 2161.503771750657
3289 2162.076415003817
3290 2162.633284876204
3291 2163.429562299185
3292 2163.947071073407
3293 2164.395767717218
3294 2164.846498206543
3295 2165.392265895274
3296 2165.737595128524
3297 2166.014686377614
3298 2166.412121330467
3299 2166.623744290187
3300 2166.784914799747
3301 2166.880365826045
3302 2166.964897156401
3303 2166.934049676654
3304 2166.86168227701
3305 2166.693621555894
3306 2166.410268374087
3307 2166.124365415566
3308 2165.824561905099
3309 2165.447140008999
3310 2165.02345867574
3311 2164.338775087139
3312 2163.824937574032
3313 2163.252651389419
3314 2162.648307424905
3315 2161.984113058527
3316 2161.306079471815
3317 2160.554870635228
3318 2159.414389032008
3319 2158.602549393331
3320 2157.780174044814
3321 2156.540251597005
3322 2155.732034521966
3323 2154.484545232963
3324 2153.641939631772
3325 2152.351027984302
3326 2151.490777736643
3327 2150.256161165079
3328 2149.092204746531
3329 2148.361848746823
3330 2147.266411784361
3331 2146.215588770845
3332 2145.20442432614
3333 2144.51687647379
3334 2143.564499912538
3335 2142.666114113032
3336 2141.84757973757
3337 2141.334854573606
3338 2140.655846762835
3339 2139.969152683078
3340 2139.590204752864
3341 2139.098703549945
3342 2138.622365491672
3343 2138.361805727154
3344 2138.051756584735
3345 2137.856710467351
3346 2137.68799766546
3347 2137.576975981609
3348 2137.517878934676
3349 2137.486275078939
3350 2137.516229162182
3351 2137.556408394196
3352 2137.647264745814
3353 2137.85950613817
3354 2138.024022619468
3355 2138.197560415882
3356 2138.416157010963
3357 2138.684023514268
3358 2139.021484951316
3359 2139.372142919275
3360 2139.791934536918
3361 2140.21872869732
3362 2140.68935012492
3363 2141.180195948775
3364 2141.736115270955
3365 2142.277861323063
3366 2143.137743243892
3367 2143.726268183086
3368 2144.327200487881
3369 2145.183451219935
3370 2145.787708665982
3371 2146.396683604655
3372 2147.292460967956
3373 2147.827677939703
3374 2148.691494366124
3375 2149.247816019051
3376 2150.099528745943
3377 2150.607245825302
3378 2151.135174585839
3379 2151.848957033158
3380 2152.313609659666
3381 2152.93043390791
3382 2153.349281689038
3383 2153.707426592902
3384 2154.27459279476
3385 2154.57039715026
3386 2154.891563842352
3387 2155.250384527283
3388 2155.470768543904
3389 2155.688714547114
3390 2155.863198965969
3391 2155.998829049294
3392 2156.092055496561
3393 2156.119950136575
3394 2156.150338611792
3395 2156.120717237474
3396 2156.096834830636
3397 2156.019847998168
3398 2155.926359227696
3399 2155.746002015774
3400 2155.569813904215
3401 2155.345400200114
3402 2155.158309644935
3403 2154.941297274543
3404 2154.71935881005
3405 2154.427135945883
3406 2154.13565756339
3407 2153.809797641824
3408 2153.531112735672
3409 2153.216072354349
3410 2152.915314321011
3411 2152.585054872782
3412 2152.269259301304
3413 2151.901423182307
3414 2151.589659377172
3415 2151.272572295736
3416 2150.985621216494
3417 2150.666168474461
3418 2150.411290560691
3419 2150.170342658023
3420 2149.978501861922
3421 2149.788986164149
3422 2149.645344371163
3423 2149.544486486921
3424 2149.482738795121
3425 2149.442264839355
3426 2149.488252354467
3427 2149.508361425605
3428 2149.659407848479
3429 2149.812901979095
3430 2150.063723624736
3431 2150.319416785528
3432 2150.7905447104
3433 2151.155033926958
3434 2151.598613640393
3435 2152.036107542485
3436 2152.598443652215
3437 2153.204209188842
3438 2153.922210497277
3439 2154.639864391565
3440 2155.407918732387
3441 2156.173721409828
3442 2157.038725328969
3443 2157.897898565455
3444 2158.782991981809
3445 2159.666098696905
3446 2160.623410080813
3447 2162.078633922143
3448 2163.018058774353
3449 2163.959378189394
3450 2165.366510324458
3451 2166.26695697835
3452 2167.197374409076
3453 2168.552027884851
3454 2169.447117284099
3455 2170.673148643609
3456 2171.491705779078
3457 2172.681474064559
3458 2173.426510215551
3459 2174.484461982825
3460 2175.127146285909
3461 2176.008331143086
3462 2176.59727297892
3463 2177.361980718743
3464 2177.863220648546
3465 2178.515370287004
3466 2178.93512943148
3467 2179.479986238628
3468 2179.861566269688
3469 2180.182125948365
3470 2180.555213184478
3471 2180.780494578974
3472 2180.998849050873
3473 2181.237109775615
3474 2181.400200810062
3475 2181.530039977176
3476 2181.661313321304
3477 2181.749861402051
3478 2181.835215357956
3479 2181.898184479402
3480 2181.968206670821
3481 2182.001141274167
3482 2182.032678822045
3483 2182.026768437193
3484 2182.101704331244
3485 2182.135804068522
3486 2182.200619594748
3487 2182.213566224791
3488 2182.268755725881
3489 2182.324362687006
3490 2182.378258914726
3491 2182.430539294839
3492 2182.515820128917
3493 2182.575719457636
3494 2182.710619667213
3495 2182.802015681304
3496 2182.976532097818
3497 2183.09226919305
3498 2183.285025073491
3499 2183.452409395826
3500 2183.687798358625
3501 2183.916158103848
3502 2184.182738870064
3503 2184.435994143195
3504 2184.717890406231
3505 2185.011178206731
3506 2185.316351002355
3507 2185.637622035367
3508 2185.988833680243
3509 2186.330659977322
3510 2186.716309181901
3511 2187.103761920875
3512 2187.495156324275
3513 2187.902540027203
3514 2188.33556141937
3515 2188.802671548132
3516 2189.25350944301
3517 2189.706245254066
3518 2190.179642477751
3519 2190.627555867292
3520 2191.119852204845
3521 2191.554284108312
3522 2192.041360966573
3523 2192.499298896777
3524 2193.017790946549
3525 2193.508299784373
3526 2193.982404116987
3527 2194.446773951582
3528 2194.883171735806
3529 2195.28693007857
3530 2195.691639703089
3531 2196.040211014335
3532 2196.420085017922
3533 2196.71011715225
3534 2197.064958616799
3535 2197.341025819046
3536 2197.636708109349
3537 2197.904301187083
3538 2198.146965787924
3539 2198.331639223492
3540 2198.493100760483
3541 2198.61854181781
3542 2198.716527441066
3543 2198.764834913034
3544 2198.800284735378
3545 2198.818513912289
3546 2198.806639901109
3547 2198.789837194086
3548 2198.743226911303
3549 2198.645982696637
3550 2198.540209150004
3551 2198.382568204201
3552 2198.243200930613
3553 2198.061781274659
3554 2197.857623798738
3555 2197.63040491467
3556 2197.400977269705
3557 2197.137371851013
3558 2196.855679992286
3559 2196.57505912222
3560 2196.324011302689
3561 2196.013993254606
3562 2195.702544819637
3563 2195.367061095485
3564 2195.066834528851
3565 2194.75029280304
3566 2194.460350783833
3567 2194.13552739514
3568 2193.810071756462
3569 2193.325882488961
3570 2193.088071523219
3571 2192.827532015182
3572 2192.563026453979
3573 2192.325005781179
3574 2192.084425214435
3575 2191.862673883049
3576 2191.652846123419
3577 2191.40875699627
3578 2191.130278346296
3579 2190.947266892669
3580 2190.769023782507
3581 2190.572793047739
3582 2190.433356916975
3583 2190.288915863703
3584 2190.171760955213
3585 2190.025873276436
3586 2189.923107770649
3587 2189.810544825181
3588 2189.733691315878
3589 2189.626377052061
3590 2189.581991545149
3591 2189.468326209498
3592 2189.380695350982
3593 2189.257055123897
3594 2189.193845610017
3595 2189.095628109411
3596 2189.006061957929
3597 2188.893523393367
3598 2188.83334295213
3599 2188.769146741879
3600 2188.71848530638
3601 2188.597179468885
3602 2188.478120832481
3603 2188.372951438726
3604 2188.266493998137
3605 2188.123192923869
3606 2187.974010206682
3607 2187.842007402689
3608 2187.718816183995
3609 2187.527406655568
3610 2187.33916037494
3611 2187.114095859563
3612 2186.897250368852
3613 2186.710239076355
3614 2186.522232733469
3615 2186.276689636797
3616 2186.027057318459
3617 2185.743664950174
3618 2185.516413304525
3619 2185.225106596723
3620 2185.01557273952
3621 2184.670871073563
3622 2184.479672787452
3623 2184.301036298542
3624 2184.129324128273
3625 2183.928485116527
3626 2183.643492204571
3627 2183.49328658623
3628 2183.377279132556
3629 2183.287084507656
3630 2183.217165538588
3631 2183.203798887708
3632 2183.178600809935
3633 2183.170559777641
3634 2183.177298557002
3635 2183.201932604967
3636 2183.241238519843
3637 2183.373242849813
3638 2183.512303663988
3639 2183.661664218464
3640 2183.902179531756
3641 2184.101237034988
3642 2184.283367597442
3643 2184.653861725561
3644 2184.914328790092
3645 2185.193598408821
3646 2185.663109714788
3647 2185.987109189898
3648 2186.374337204993
3649 2186.915703202267
3650 2187.348175753575
3651 2187.998048580015
3652 2188.47029052059
3653 2188.913981595954
3654 2189.603618736579
3655 2190.107965103421
3656 2190.854630282236
3657 2191.370928309209
3658 2192.150154982356
3659 2192.670948081917
3660 2193.475561739011
3661 2193.962055740585
3662 2194.733704877227
3663 2195.220853097858
3664 2196.052800596609
3665 2196.5928279608
3666 2197.417181261893
3667 2197.960420529348
3668 2198.770057229331
3669 2199.328837681807
3670 2200.180165573468
3671 2200.749223047818
3672 2201.620776200152
3673 2202.197442312215
3674 2203.0513905487
3675 2203.638379796231
3676 2204.493820892583
3677 2205.000703624648
3678 2205.803083305923
3679 2206.36166065989
3680 2207.120038569167
3681 2207.670652877543
3682 2208.484978628494
3683 2209.022683651251
3684 2209.819273273315
3685 2210.356827071322
3686 2211.205864239048
3687 2211.741840197856
3688 2212.554639440211
3689 2213.092287486023
3690 2213.895680406316
3691 2214.412946537359
3692 2215.240268512108
3693 2215.744045777426
3694 2216.323850685841
3695 2217.282375826661
3696 2217.87701766801
3697 2218.774780118411
3698 2219.325783807007
3699 2219.920095625114
3700 2220.868306064896
3701 2221.477238943274
3702 2222.161133064113
3703 2223.110474382808
3704 2223.775947306542
3705 2224.434052803223
3706 2225.408710412517
3707 2226.025182024308
3708 2226.981163339092
3709 2227.656598809459
3710 2228.377429623024
3711 2229.452760213148
3712 2230.113124695011
3713 2231.151237521265
3714 2231.843864207124
3715 2232.477024023299
3716 2233.432475871992
3717 2234.099446381815
3718 2234.765659780245
3719 2235.662008301795
3720 2236.345558441663
3721 2237.0189002169
3722 2237.999729606594
3723 2238.547596353522
3724 2239.089719679187
3725 2239.805361100862
3726 2240.278578599738
3727 2240.727419355125
3728 2241.353173947246
3729 2241.65065879641
3730 2241.941847980965
3731 2242.073908217479
3732 2242.213130678593
3733 2242.269152008556
3734 2242.255778636076
3735 2242.134185086806
3736 2241.937854817696
3737 2241.641236077875
3738 2241.278422067782
3739 2240.814295237894
3740 2240.328608093201
3741 2239.642396616564
3742 2238.529456019452
3743 2237.706614131727
3744 2236.811792320454
3745 2235.775855904828
3746 2234.662779572601
3747 2232.878270471525
3748 2231.623038250096
3749 2230.290359360621
3750 2228.266315007556
3751 2226.87748986835
3752 2225.425084995979
3753 2223.238707008422
3754 2221.796977091128
3755 2219.556013656868
3756 2218.029558231045
3757 2215.666955810523
3758 2214.1225563238
3759 2211.78895161677
3760 2209.578220309204
3761 2208.143092926921
3762 2206.060383753315
3763 2204.113124595901
3764 2202.844099241275
3765 2200.997568487947
3766 2199.379881513772
3767 2198.347857056007
3768 2196.951820911939
3769 2195.603894592174
3770 2194.869259887475
3771 2193.83759054178
3772 2192.906458635141
3773 2192.368214507223
3774 2191.745226457959
3775 2191.17974262625
3776 2190.94004627047
3777 2190.70380181433
3778 2190.626802086388
3779 2190.596563108288
3780 2190.711213095917
3781 2190.939873075956
3782 2191.171563856094
3783 2191.695784602339
3784 2192.050452343571
3785 2192.487449763822
3786 2193.274172285887
3787 2193.778273034108
3788 2194.362237458483
3789 2195.034789292353
3790 2195.779166217208
3791 2196.435468705066
3792 2197.204628619127
3793 2197.964953760154
3794 2198.756430750989
3795 2199.508418448141
3796 2200.36891008683
3797 2201.226450120801
3798 2202.374229966208
3799 2203.112266245287
3800 2203.847077193891
3801 2204.838829773601
3802 2205.464884865079
3803 2206.289546589235
3804 2206.71073548516
3805 2207.302942465752
3806 2207.569162473927
3807 2207.783397800566
3808 2207.817268602865
3809 2207.698702879145
3810 2207.560477638722
3811 2207.22238547812
3812 2206.883161983059
3813 2206.157581535329
3814 2205.610423289074
3815 2204.709783830383
3816 2203.994045146066
3817 2202.725653363991
3818 2201.892524065333
3819 2200.431356480801
3820 2199.411478719042
3821 2197.770034812039
3822 2196.612831917857
3823 2194.856551523679
3824 2193.622059219592
3825 2191.653994301886
3826 2190.349739087832
3827 2188.359032780451
3828 2186.446325321252
3829 2185.13972227271
3830 2183.251021806328
3831 2181.432186880254
3832 2179.672605228396
3833 2177.962005706259
3834 2176.426979740289
3835 2174.970725420922
3836 2173.534791805244
3837 2172.207620828406
3838 2171.004778410702
3839 2169.873210984681
3840 2168.853613609051
3841 2167.90156174611
3842 2167.083647717367
3843 2166.360903193346
3844 2165.788401589901
3845 2165.247161568916
3846 2164.770832212587
3847 2164.37081756874
3848 2163.956703669235
3849 2163.599102275109
3850 2163.326271237886
3851 2163.07585549926
3852 2162.811256359438
3853 2162.423498475197
3854 2162.172534202768
3855 2161.750901323255
3856 2161.514747074633
3857 2161.036748209275
3858 2160.761462649005
3859 2160.415967628063
3860 2159.803051564658
3861 2159.406403746772
3862 2158.90176703043
3863 2158.384721668229
3864 2157.881176948817
3865 2157.224264912898
3866 2156.598764764552
3867 2155.821325147137
3868 2155.01208111701
3869 2154.209173887263
3870 2153.257103170649
3871 2152.257020668806
3872 2151.195483741244
3873 2150.11722211066
3874 2148.960374630783
3875 2147.796905174958
3876 2146.599387491293
3877 2145.350001982952
3878 2144.031465636578
3879 2142.678107816045
3880 2141.291856379
3881 2139.827318047742
3882 2137.581360525493
3883 2136.075590094468
3884 2134.630213831397
3885 2133.147078608479
3886 2130.96633843589
3887 2129.495056966317
3888 2128.109557204929
3889 2125.997355679535
3890 2124.673795932073
3891 2122.715880819949
3892 2121.49576139118
3893 2119.696109724287
3894 2118.628319174238
3895 2117.009203358153
3896 2116.008101505269
3897 2114.624779475213
3898 2113.821883922149
3899 2112.618392380305
3900 2111.931101012402
3901 2110.949230937898
3902 2110.399373665857
3903 2109.705913781759
3904 2109.319421426769
3905 2108.807945486324
3906 2108.580081238703
3907 2108.292816139082
3908 2108.21198492065
3909 2108.106649154113
3910 2108.14847500778
3911 2108.210745934929
3912 2108.361844906338
3913 2108.487852534743
3914 2108.875666783958
3915 2109.190378584402
3916 2109.572586718962
3917 2109.964144122225
3918 2110.682823113602
3919 2111.13706629434
3920 2111.711380600442
3921 2112.272716249929
3922 2113.233502351821
3923 2113.872651393087
3924 2114.58929009717
3925 2115.629636389435
3926 2116.365936178474
3927 2117.432763717076
3928 2118.200460313879
3929 2119.312826362617
3930 2119.992001352331
3931 2120.998095301623
3932 2122.034230574639
3933 2122.693820389545
3934 2123.68809387698
3935 2124.503224114722
3936 2125.063145125833
3937 2125.788144567864
3938 2126.404698856068
3939 2126.742465796779
3940 2127.220084618691
3941 2127.631279649369
3942 2127.83662555998
3943 2128.020182524625
3944 2128.096327073698
3945 2128.109918022011
3946 2128.055370648492
3947 2127.850210188085
3948 2127.767306095408
3949 2127.528939824372
3950 2127.344201033029
3951 2126.987837134824
3952 2126.746556734921
3953 2126.477474262881
3954 2125.989822491666
3955 2125.675332305368
3956 2125.37567768908
3957 2125.053517529657
3958 2124.70867474833
3959 2124.339687366817
3960 2124.008109835458
3961 2123.670081846383
3962 2123.31372007983
3963 2122.925811115049
3964 2122.597033247117
3965 2122.161759483015
3966 2121.9015836311
3967 2121.688477461386
3968 2121.519798502174
3969 2121.321086055971
3970 2121.254887978978
3971 2121.204392933037
3972 2121.194496988044
3973 2121.2877825854
3974 2121.403355591619
3975 2121.657042963378
3976 2121.861760702905
3977 2122.128545160918
3978 2122.606470934473
3979 2123.004909196175
3980 2123.44624320247
3981 2124.196514269814
3982 2124.749602403494
3983 2125.278735196851
3984 2126.210907222816
3985 2126.817262150103
3986 2127.470467732629
3987 2128.428102131483
3988 2129.102943246439
3989 2129.798566497178
3990 2130.80229806829
3991 2131.448852791337
3992 2132.146113566052
3993 2133.19724904764
3994 2133.913322314886
3995 2134.543050021971
3996 2135.545662799307
3997 2136.146024124492
3998 2137.048881211749
3999 2137.53487311183
4000 2138.009459635218
4001 2138.743991117117
4002 2139.184121662232
4003 2139.727523966471
4004 2140.034757008837
4005 2140.281766117401
4006 2140.59705851548
4007 2140.724539404459
4008 2140.829853732121
4009 2140.893271052568
4010 2140.871067383472
4011 2140.799901989857
4012 2140.705628989515
4013 2140.56649810517
4014 2140.386980994852
4015 2140.159495183796
4016 2139.864364992537
4017 2139.593056531723
4018 2139.27646411931
4019 2138.966727488421
4020 2138.662455725749
4021 2138.314006832929
4022 2137.982729658842
4023 2137.701722555794
4024 2137.436364402125
4025 2137.167653221522
4026 2136.928397602707
4027 2136.712592922308
4028 2136.556411561291
4029 2136.399271027467
4030 2136.29903589746
4031 2136.184226253033
4032 2136.167471550416
4033 2136.206580663263
4034 2136.300928360254
4035 2136.437853714065
4036 2136.67911223502
4037 2136.961110541344
4038 2137.279186645328
4039 2137.666242092429
4040 2138.114869057483
4041 2138.584745358557
4042 2139.197962287973
4043 2139.831148602413
4044 2140.568953529688
4045 2141.29337659339
4046 2142.034509177711
4047 2142.841660379767
4048 2143.750021439426
4049 2144.67568392889
4050 2145.655003906479
4051 2146.6474964808
4052 2147.690079667643
4053 2148.714775757597
4054 2149.759546933033
4055 2150.835506249343
4056 2151.878500208461
4057 2153.383662495025
4058 2154.409292594315
4059 2155.37814368641
4060 2156.836535410387
4061 2157.706210661039
4062 2158.583912956356
4063 2159.75779352127
4064 2160.505307263727
4065 2161.172527803789
4066 2162.136540288514
4067 2162.692532919802
4068 2163.212838400882
4069 2163.928795916102
4070 2164.321277536384
4071 2164.601219773612
4072 2164.961383188547
4073 2165.138128301203
4074 2165.243517439599
4075 2165.298798750657
4076 2165.311464698802
4077 2165.248731153171
4078 2165.110729065088
4079 2164.880341632887
4080 2164.491098274107
4081 2164.183440457792
4082 2163.83941758979
4083 2163.424694286048
4084 2162.929105848274
4085 2162.348484846728
4086 2161.775733212107
4087 2161.095356184176
4088 2160.384814874696
4089 2159.567881619777
4090 2158.781024204649
4091 2157.880623383045
4092 2156.994796710147
4093 2156.005405325542
4094 2155.037965433004
4095 2153.939342363971
4096 2152.274913820226
4097 2151.12530136441
4098 2149.981616038282
4099 2148.224803635799
4100 2147.04919048295
4101 2145.845804202101
4102 2144.051732509599
4103 2142.832504756218
4104 2141.015958003208
4105 2139.808934913404
4106 2138.038590151328
4107 2136.837202805762
4108 2135.111959605143
4109 2133.940869231746
4110 2132.272441643553
4111 2131.142649727698
4112 2129.512837171106
4113 2128.408903482405
4114 2127.337276020789
4115 2125.700865984587
4116 2124.624173622028
4117 2123.053565722199
4118 2122.036979615654
4119 2121.013818504945
4120 2119.558564868933
4121 2118.615723178376
4122 2117.710365846604
4123 2116.801978437351
4124 2115.541189904801
4125 2114.752877070043
4126 2113.990720887306
4127 2113.217630582305
4128 2112.516605979998
4129 2111.85971417547
4130 2111.268881190034
4131 2110.660769763541
4132 2110.124124130557
4133 2109.644927865986
4134 2109.224105519612
4135 2108.806946178455
4136 2108.522371787292
4137 2108.260319347863
4138 2108.094314390142
4139 2107.955645386422
4140 2107.946642646365
4141 2107.953311306233
4142 2108.053735294763
4143 2108.187889695266
4144 2108.452640843416
4145 2108.752857810359
4146 2109.147393002292
4147 2109.584842964249
4148 2110.129897556106
4149 2110.68335338652
4150 2111.363760835544
4151 2112.067073738323
4152 2112.841544789582
4153 2113.711034286332
4154 2114.592627941336
4155 2115.508140164993
4156 2116.953037378097
4157 2117.961208654656
4158 2118.988622768088
4159 2120.552276152398
4160 2121.638137467231
4161 2123.238649277295
4162 2124.323097604002
4163 2125.917688110559
4164 2126.982071870522
4165 2128.543635962081
4166 2130.140695539572
4167 2131.139313852253
4168 2132.676952919814
4169 2134.104598244237
4170 2135.065391878884
4171 2136.438265818639
4172 2137.760803764296
4173 2138.976042290368
4174 2139.79421017301
4175 2140.919776058736
4176 2142.079528898859
4177 2143.14957229064
4178 2143.843255977402
4179 2144.839337697948
4180 2145.751032012369
4181 2146.532027984082
4182 2147.086006827796
4183 2147.891887950616
4184 2148.640083632164
4185 2149.135682271273
4186 2149.83512516304
4187 2150.335460041417
4188 2151.027381212096
4189 2151.452183263273
4190 2152.123442849219
4191 2152.522129796746
4192 2153.130250505385
4193 2153.553907571062
4194 2154.227165911938
4195 2154.675770826178
4196 2155.145858665298
4197 2155.838741098063
4198 2156.336439345342
4199 2156.869418934852
4200 2157.396081182573
4201 2157.940177432444
4202 2158.552354837468
4203 2159.490739903254
4204 2160.151610578971
4205 2160.812802765148
4206 2161.495205403749
4207 2162.191574578975
4208 2162.953738743645
4209 2163.723416350149
4210 2164.553065514126
4211 2165.439535861504
4212 2166.348063642388
4213 2167.285103747528
4214 2168.278368764941
4215 2169.298488881551
4216 2170.388439521772
4217 2171.459754128997
4218 2172.620915845623
4219 2173.745098965646
4220 2174.952551541781
4221 2176.239395138889
4222 2177.50847899024
4223 2178.713937601973
4224 2179.946538988261
4225 2181.765031215627
4226 2183.008969624167
4227 2184.22912083471
4228 2185.46167510808
4229 2186.630643228675
4230 2187.814224686862
4231 2189.464753945113
4232 2190.610551096778
4233 2191.601534775693
4234 2192.600854456202
4235 2194.007076570531
4236 2194.894842725252
4237 2195.753074951888
4238 2196.648614872158
4239 2197.756382750523
4240 2198.461648502195
4241 2199.10008624416
4242 2199.673076368853
4243 2200.415677899072
4244 2200.866629694219
4245 2201.253979666994
4246 2201.535210649628
4247 2201.74706418972
4248 2202.036529113998
4249 2202.133689982246
4250 2202.175480102944
4251 2202.130096455992
4252 2202.047355246819
4253 2201.922197489394
4254 2201.701039633904
4255 2201.400180306903
4256 2201.083206018339
4257 2200.675422180969
4258 2200.241899699414
4259 2199.773698457898
4260 2199.270104276139
4261 2198.730158106359
4262 2198.145473531742
4263 2197.492311120446
4264 2196.839573060198
4265 2196.143768750783
4266 2195.436759146309
4267 2194.693607377377
4268 2193.939374875009
4269 2193.208335405914
4270 2192.488954112794
4271 2191.763809793609
4272 2191.024580496502
4273 2190.270412425474
4274 2189.209026584286
4275 2188.471399467044
4276 2187.792269385805
4277 2186.804586642888
4278 2186.176073999268
4279 2185.557974843488
4280 2184.65585343358
4281 2184.078138444945
4282 2183.526324559868
4283 2182.70695053822
4284 2182.250047443276
4285 2181.548975773413
4286 2181.133732026402
4287 2180.744936123025
4288 2180.272066347354
4289 2179.955193429606
4290 2179.531747578413
4291 2179.257838645838
4292 2179.02737763618
4293 2178.705767876182
4294 2178.539370897665
4295 2178.379157169045
4296 2178.25751239899
4297 2178.118762834932
4298 2178.055889810222
4299 2178.007366415819
4300 2177.988194329277
4301 2177.961546774773
4302 2177.956561514651
4303 2177.989948727216
4304 2178.051172397672
4305 2178.106564265397
4306 2178.213103178548
4307 2178.294226624335
4308 2178.434062634946
4309 2178.595219066484
4310 2178.756588314584
4311 2178.896726014693
4312 2179.032519237483
4313 2179.237935715688
4314 2179.464986234461
4315 2179.695862796502
4316 2179.9544533302
4317 2180.212573356625
4318 2180.531082145988
4319 2180.841671177817
4320 2181.16698976462
4321 2181.493386513097
4322 2181.905141598966
4323 2182.283154741401
4324 2182.713422300081
4325 2183.134122570326
4326 2183.596910442717
4327 2184.095691418884
4328 2184.604469746657
4329 2185.118611329923
4330 2185.650925525489
4331 2186.219098601878
4332 2186.790663661185
4333 2187.372391115113
4334 2188.009809779454
4335 2188.655052175036
4336 2189.351807745353
4337 2190.071119888679
4338 2190.819630596301
4339 2191.582426973468
4340 2192.406399720494
4341 2193.281141058187
4342 2194.179268289844
4343 2195.080559718593
4344 2196.029678791949
4345 2196.993062160899
4346 2197.995656456982
4347 2199.039176743684
4348 2200.117999599409
4349 2201.22240476545
4350 2202.313792600608
4351 2203.421458855091
4352 2204.574594932673
4353 2205.692838894205
4354 2206.900566546307
4355 2208.111324927265
4356 2209.9286615233
4357 2211.121366682165
4358 2212.305607439029
4359 2214.011579564626
4360 2215.212789938626
4361 2216.3577129136
4362 2218.085369254949
4363 2219.161292906202
4364 2220.861602164689
4365 2221.921641659769
4366 2223.539583606957
4367 2224.540945779916
4368 2226.030294382241
4369 2226.978283052255
4370 2228.381892917861
4371 2229.259876883093
4372 2230.576523997129
4373 2231.387438269544
4374 2232.622011120885
4375 2233.393978699117
4376 2234.46670662911
4377 2235.130520259493
4378 2236.10206541121
4379 2236.672516534778
4380 2237.503046242771
4381 2237.965795711644
4382 2238.654841185811
4383 2239.014811282232
4384 2239.55794202019
4385 2239.823109926667
4386 2240.061078901538
4387 2240.333590202976
4388 2240.407297563214
4389 2240.437483426397
4390 2240.431592542392
4391 2240.36459883897
4392 2240.271105542953
4393 2240.082185347875
4394 2239.864530395443
4395 2239.581535230087
4396 2239.213954699748
4397 2238.846143122595
4398 2238.400255759926
4399 2237.886869579953
4400 2237.333044106653
4401 2236.719788559637
4402 2236.12897885169
4403 2235.080689084489
4404 2234.364469433061
4405 2233.591087635822
4406 2232.807453821907
4407 2231.661206541536
4408 2230.860722219295
4409 2229.688734383018
4410 2228.890029937491
4411 2227.679935425555
4412 2226.922906773921
4413 2225.686392431857
4414 2224.943014058159
4415 2223.839377615541
4416 2223.100577932337
4417 2222.078223289047
4418 2221.401346905302
4419 2220.431897830234
4420 2219.834266289048
4421 2218.959164979588
4422 2218.366192602415
4423 2217.525446856419
4424 2217.011794817394
4425 2216.320037458766
4426 2215.88423430861
4427 2215.267392807924
4428 2214.901212043265
4429 2214.399669225338
4430 2214.113805590785
4431 2213.63510656433
4432 2213.399072855741
4433 2213.022135589577
4434 2212.843393719305
4435 2212.566424063089
4436 2212.433337796967
4437 2212.286407268988
4438 2212.157314869628
4439 2212.106360574566
4440 2212.059464335734
4441 2212.011134348084
4442 2211.991833918989
4443 2212.002659519822
4444 2212.026845284495
4445 2212.069643896505
4446 2212.139619476552
4447 2212.191158559604
4448 2212.31762885574
4449 2212.341806050983
4450 2212.491416725969
4451 2212.52183881897
4452 2212.61009947299
4453 2212.695684147119
4454 2212.818574520933
4455 2213.033501383515
4456 2213.200581292723
4457 2213.317141554001
4458 2213.441902918612
4459 2213.561836498764
4460 2213.718093895769
4461 2213.77646213863
4462 2213.761822741826
4463 2213.733917513548
4464 2213.669849074971
4465 2213.581954652553
4466 2213.479635522125
4467 2213.397754162386
4468 2213.149376538058
4469 2212.969120826078
4470 2212.703680804708
4471 2212.496485829638
4472 2212.052633751235
4473 2211.824094808301
4474 2211.412665982556
4475 2211.111430793068
4476 2210.702077907425
4477 2210.38948384416
4478 2209.924792171455
4479 2209.571921310174
4480 2208.982974655924
4481 2208.641120588591
4482 2208.181129386785
4483 2207.907356445862
4484 2207.535845798627
4485 2206.929418580547
4486 2206.583100632326
4487 2205.96769905308
4488 2205.606919436742
4489 2205.040710016582
4490 2204.727450002979
4491 2204.427538313745
4492 2203.933079501171
4493 2203.563300540186
4494 2203.125684208176
4495 2202.848574298701
4496 2202.615118559586
4497 2202.281604605961
4498 2202.133112770416
4499 2201.914793560173
4500 2201.844429346698
4501 2201.73084621393
4502 2201.660527405283
4503 2201.659784026775
4504 2201.773479436252
4505 2201.849830970538
4506 2202.019047938989
4507 2202.277236197923
4508 2202.526554316201
4509 2202.939788199772
4510 2203.27942031752
4511 2203.658550616357
4512 2204.219799507674
4513 2204.648616902935
4514 2205.144271646201
4515 2205.95847127929
4516 2206.471481005588
4517 2207.072318899426
4518 2208.037196068466
4519 2208.659595149068
4520 2209.325040175691
4521 2210.107187294511
4522 2210.958711519379
4523 2212.056122884077
4524 2212.863955028601
4525 2213.693198756126
4526 2214.51979502318
4527 2215.810915061965
4528 2216.730475899589
4529 2217.62503690513
4530 2219.063075175101
4531 2220.014681411764
4532 2220.947833580966
4533 2222.401539695205
4534 2223.366731998153
4535 2224.730189023658
4536 2225.67338892148
4537 2227.034605999465
4538 2227.899619307343
4539 2229.114909460477
4540 2229.923513341437
4541 2230.994845027452
4542 2231.801329509639
4543 2232.891795019957
4544 2233.626175095887
4545 2234.625109331795
4546 2235.24464454482
4547 2236.099500117199
4548 2236.652541268708
4549 2237.324551500122
4550 2237.741696210603
4551 2238.091821725476
4552 2238.595323218464
4553 2238.866091789776
4554 2239.04966127779
4555 2239.195131896424
4556 2239.262305022076
4557 2239.264247633014
4558 2239.221321567662
4559 2239.090999034033
4560 2238.862689940381
4561 2238.593468023204
4562 2238.315949001723
4563 2237.883028347635
4564 2237.405460498192
4565 2236.815617341036
4566 2236.170900981285
4567 2235.439419721863
4568 2234.639199494775
4569 2233.767039377876
4570 2232.82349828843
4571 2231.816633133767
4572 2230.79871160685
4573 2229.647241750899
4574 2228.471732776087
4575 2227.219885406334
4576 2225.899473785004
4577 2224.563172507447
4578 2223.155809125741
4579 2221.75986525148
4580 2220.343068907438
4581 2218.196535403454
4582 2216.740730789384
4583 2215.261236902638
4584 2213.091605595231
4585 2211.652749397559
4586 2210.214701378949
4587 2207.964947116756
4588 2206.574747144065
4589 2204.429049910555
4590 2203.035091093335
4591 2200.940553741681
4592 2199.664126019355
4593 2197.67356921565
