"mz-rfile"
"Iteration" "mz"
("Iteration" "mz")
5373 2798.995619509842
5374 2826.851415406298
5375 2860.70898318124
5376 2938.441516799987
5377 3040.940634603258
5378 3124.523153530157
5379 3211.810701508616
5380 3294.300482605207
5381 3367.910206512801
5382 3428.170634830667
5383 3478.819680156016
5384 3509.578240865013
5385 3518.316842352914
5386 3512.80563229481
5387 3496.40569751639
5388 3473.072302672329
5389 3450.883865476046
5390 3427.057614983662
5391 3412.733869133303
5392 3403.11996992642
5393 3399.885240950781
5394 3402.500960963414
5395 3410.677487166374
5396 3429.415280068059
5397 3449.938235327671
5398 3484.374267066874
5399 3515.744050847326
5400 3551.774654148891
5401 3592.720373077626
5402 3637.139565777038
5403 3684.187805351155
5404 3747.156229495088
5405 3793.972368388576
5406 3840.806613629381
5407 3886.701773700192
5408 3930.740352596484
5409 3972.655779986618
5410 4011.800492790757
5411 4048.020658000742
5412 4080.81595362332
5413 4110.073353107911
5414 4135.395467664413
5415 4157.339082305967
5416 4175.253544075628
5417 4189.675795923504
5418 4200.550309686716
5419 4208.235377664816
5420 4211.476928286149
5421 4214.573922008877
5422 4214.949212755929
5423 4213.764919870402
5424 4211.65882647009
5425 4207.202921153631
5426 4203.253111190303
5427 4198.516015891313
5428 4192.813919727408
5429 4186.719188189221
5430 4179.994792285464
5431 4172.882250128664
5432 4165.302668476475
5433 4157.441618137832
5434 4149.078931059285
5435 4140.552164865596
5436 4131.787817486846
5437 4123.181539175433
5438 4114.344633897246
5439 4105.77700753437
5440 4097.141871422941
5441 4089.040799167506
5442 4081.002232340986
5443 4073.631998934018
5444 4066.534972457432
5445 4060.143404600617
5446 4054.123711068692
5447 4048.921407197015
5448 4044.108618742019
5449 4040.092653323383
5450 4036.495595705313
5451 4033.711253209633
5452 4031.36150435135
5453 4029.713670769623
5454 4028.400026234885
5455 4027.749777648715
5456 4027.338265179978
5457 4027.425069458732
5458 4027.668260586421
5459 4028.286933971407
5460 4028.917596723751
5461 4029.800209888211
5462 4030.546300146587
5463 4031.440961936129
5464 4032.134377449539
5465 4032.884189746073
5466 4033.374514732982
5467 4033.864713860544
5468 4033.979314022982
5469 4034.076995746967
5470 4033.857476560667
5471 4033.53733970809
5472 4032.854689325649
5473 4032.114106913763
5474 4031.021990422203
5475 4029.891975994804
5476 4028.432020450486
5477 4026.970020742833
5478 4025.221754000526
5479 4023.48540453006
5480 4021.55303204632
5481 4019.675733346784
5482 4017.624293832608
5483 4015.642627705835
5484 4013.53316835036
5485 4011.523439132459
5486 4009.427582658618
5487 4007.476174557657
5488 4005.486151908352
5489 4003.701791099419
5490 4001.818773623327
5491 4000.155057315309
5492 3998.405957839027
5493 3996.86549344211
5494 3995.246928229263
5495 3993.834662178846
5496 3992.382853127732
5497 3991.110450778634
5498 3989.81411232306
5499 3988.630569508374
5500 3987.389141238285
5501 3986.302522188262
5502 3985.112810587105
5503 3984.106528089437
5504 3983.012404175262
5505 3982.038221270801
5506 3980.918765698381
5507 3979.964585105929
5508 3978.875018847445
5509 3977.899021144167
5510 3976.828065468874
5511 3975.885462663568
5512 3974.777889400978
5513 3973.778180564108
5514 3972.644065210626
5515 3971.597822289826
5516 3970.468123575194
5517 3969.422401150916
5518 3968.204047952621
5519 3967.090906763497
5520 3965.863670812691
5521 3964.751861579603
5522 3963.555458489147
5523 3962.479237994689
5524 3961.259754203828
5525 3960.147651033638
5526 3958.925380474943
5527 3957.835781133702
5528 3956.6728048661
5529 3955.630052514936
5530 3954.493759409371
5531 3953.484006496693
5532 3952.402075987231
5533 3951.433492242421
5534 3950.39002198627
5535 3949.482885101187
5536 3948.475418523877
5537 3947.607684644382
5538 3946.679412800707
5539 3945.866125570461
5540 3945.014434260799
5541 3944.269582571467
5542 3943.460061090942
5543 3942.792285838665
5544 3942.04685174748
5545 3941.417737407102
5546 3940.751766909764
5547 3940.203203654161
5548 3939.573618731964
5549 3939.096674856985
5550 3938.582638665727
5551 3938.210871075572
5552 3937.743074527235
5553 3937.416189682851
5554 3937.011960059563
5555 3936.75129208109
5556 3936.441912461216
5557 3936.243089332295
5558 3936.009348817905
5559 3935.900005889598
5560 3935.740773823934
5561 3935.699989798662
5562 3935.629814652655
5563 3935.661987139958
5564 3935.67014473221
5565 3935.775220232344
5566 3935.897631596598
5567 3936.114728905895
5568 3936.302171784083
5569 3936.594580102818
5570 3936.894983305902
5571 3937.289597331247
5572 3937.668174618689
5573 3938.141839538386
5574 3938.623590799505
5575 3939.214516224732
5576 3939.747110209059
5577 3940.426087478264
5578 3941.124160877194
5579 3941.946249649901
5580 3942.741858374127
5581 3943.653138974827
5582 3944.552008173498
5583 3945.578886946205
5584 3946.570242012382
5585 3947.687929193719
5586 3948.798433992885
5587 3950.024889015746
5588 3951.189511287818
5589 3952.49444563171
5590 3953.792499509734
5591 3955.192444390975
5592 3956.571480764392
5593 3958.058101390586
5594 3959.548757571365
5595 3961.110224560796
5596 3962.692851508611
5597 3964.320510849845
5598 3965.944740914103
5599 3967.631225751211
5600 3969.291419598931
5601 3971.015469100734
5602 3972.724343999584
5603 3974.519625633443
5604 3976.287764214089
5605 3978.126281271263
5606 3979.943883699534
5607 3981.813187197085
5608 3983.649369010503
5609 3985.532624158014
5610 3987.375678906849
5611 3989.259386667226
5612 3991.072985642269
5613 3992.923295769822
5614 3994.777409928107
5615 3996.636353646631
5616 3998.456337523261
5617 4000.267339862753
5618 4002.07383983028
5619 4003.894505051996
5620 4005.703911490469
5621 4007.451802656311
5622 4009.210117124281
5623 4010.965014348043
5624 4012.654135386328
5625 4014.364021316087
5626 4016.005881955673
5627 4017.664547169083
5628 4019.223587429143
5629 4020.826611945032
5630 4022.362943294384
5631 4023.910742587001
5632 4025.422181481052
5633 4026.921862584545
5634 4028.319347826435
5635 4029.796790524248
5636 4031.177857973906
5637 4032.53838558704
5638 4033.87557044876
5639 4035.181696204418
5640 4036.445224435037
5641 4037.689025299046
5642 4038.896247922652
5643 4040.087403440394
5644 4041.24551034007
5645 4042.381922151328
5646 4043.507287483555
5647 4044.599272559889
5648 4045.684743662419
5649 4046.738360491262
5650 4047.778421457707
5651 4048.780508595821
5652 4049.781741004338
5653 4050.750022074767
5654 4051.702033577101
5655 4052.630706873612
5656 4053.543248165996
5657 4054.445287945299
5658 4055.333140273819
5659 4056.185210702167
5660 4057.056514702674
5661 4057.892498279102
5662 4058.72830034917
5663 4059.540931315927
5664 4060.34312330694
5665 4061.116774224524
5666 4061.889761171282
5667 4062.653818152994
5668 4063.387828712375
5669 4064.117521975017
5670 4064.848488404243
5671 4065.5382548463
5672 4066.229930746149
5673 4066.907883079876
5674 4067.579479630322
5675 4068.241526823347
5676 4068.887670720097
5677 4069.522248624479
5678 4070.187119696065
5679 4070.818563083005
5680 4071.453201943348
5681 4072.052155942417
5682 4072.682417497846
5683 4073.269313828924
5684 4073.881317439725
5685 4074.476143261509
5686 4075.042953106946
5687 4075.599612074568
5688 4076.158930057843
5689 4076.704374349526
5690 4077.266794944197
5691 4077.796704116353
5692 4078.32688534174
5693 4078.865189552049
5694 4079.378983022261
5695 4079.908688383468
5696 4080.418233572148
5697 4080.916751260328
5698 4081.398988402285
5699 4081.892350920638
5700 4082.372926131518
5701 4082.847836562777
5702 4083.310190811383
5703 4083.785468890739
5704 4084.194394290581
5705 4084.648703760504
5706 4085.094167294926
5707 4085.538060185778
5708 4085.976450232529
5709 4086.418719743164
5710 4086.831887642717
5711 4087.284576806417
5712 4087.678344127773
5713 4088.08852395245
5714 4088.487404045519
5715 4088.902406098045
5716 4089.28360480464
5717 4089.686675526175
5718 4090.050142208362
5719 4090.43085109406
5720 4090.807443402688
5721 4091.189885739073
5722 4091.551973301534
5723 4091.953344248393
5724 4092.312655665739
5725 4092.679873933077
5726 4093.022758878904
5727 4093.391939929129
5728 4093.724678329469
5729 4094.073768898346
5730 4094.401632308005
5731 4094.760666132807
5732 4095.069018724843
5733 4095.397116203004
5734 4095.7034735043
5735 4096.026587912643
5736 4096.337286937789
5737 4096.657148266926
5738 4096.96946980011
5739 4097.290877510104
5740 4097.586095137096
5741 4097.890522925545
5742 4098.187352539903
5743 4098.495471632094
5744 4098.767504038336
5745 4099.052938302131
5746 4099.323133036341
5747 4099.581696228825
5748 4099.847492166941
5749 4100.12041672902
5750 4100.392842799661
5751 4100.649900020425
5752 4100.922749876547
5753 4101.185150545861
5754 4101.417780555676
5755 4101.704861871925
5756 4101.944098011476
5757 4102.181538747356
5758 4102.41224692376
5759 4102.671685422417
5760 4102.908669490826
5761 4103.150858611723
5762 4103.369090134507
5763 4103.619951691201
5764 4103.833459263044
5765 4104.051912861348
5766 4104.268425710956
5767 4104.491475118457
5768 4104.712220306034
5769 4104.949297801768
5770 4105.162663028875
5771 4105.407868851758
5772 4105.619452437202
5773 4105.845742478299
5774 4106.039016391024
5775 4106.266208961186
5776 4106.454629888478
5777 4106.662064170905
5778 4106.831260071843
5779 4107.030379024228
5780 4107.22878828821
5781 4107.422552532471
5782 4107.616429667613
5783 4107.810995625474
5784 4108.015822400696
5785 4108.210668665963
5786 4108.405303683914
5787 4108.573866804258
5788 4108.760608383152
5789 4108.923795883535
5790 4109.107406544689
5791 4109.277737369935
5792 4109.464748751961
5793 4109.603542870133
5794 4109.777977746007
5795 4109.948870554283
5796 4110.132218424944
5797 4110.302537272761
5798 4110.48261132987
5799 4110.634888519988
5800 4110.787693384388
5801 4110.95476716471
5802 4111.142803028634
5803 4111.303412001141
5804 4111.464493212061
5805 4111.651624393999
5806 4111.821928283708
5807 4111.992774924691
5808 4112.144834771514
5809 4112.305367574666
5810 4112.47213402445
5811 4112.589460001036
5812 4112.750993363604
5813 4112.918137338158
5814 4113.079695794793
5815 4113.2353364828
5816 4113.399764999721
5817 4113.544167677986
5818 4113.692138522237
5819 4113.837023106667
5820 4113.967648633875
5821 4114.109696246122
5822 4114.266788370049
5823 4114.402778586558
5824 4114.525390030471
5825 4114.668362896766
5826 4114.832887432325
5827 4114.979840627363
5828 4115.105039037978
5829 4115.257482410279
5830 4115.420343490126
5831 4115.559274174859
5832 4115.687803577597
5833 4115.838246496821
5834 4115.971749140574
5835 4116.100963347494
5836 4116.236298594686
5837 4116.378697200504
5838 4116.526198825407
5839 4116.682951179103
5840 4116.819872266641
5841 4116.957391352636
5842 4117.102965408146
5843 4117.233828915815
5844 4117.356570696751
5845 4117.482910902776
5846 4117.632210373019
5847 4117.763068622424
5848 4117.863842840736
5849 4117.993575092952
5850 4118.10759944956
5851 4118.236731211557
5852 4118.355505223351
5853 4118.521545474862
5854 4118.64584516479
5855 4118.801384517748
5856 4118.912971122696
5857 4119.063249026104
5858 4119.17992984503
5859 4119.301447987542
5860 4119.405593558735
5861 4119.542725350952
5862 4119.673627973344
5863 4119.7951062898
5864 4119.890178544666
5865 4120.010557954347
5866 4120.14119427185
5867 4120.259120025455
5868 4120.365605071911
5869 4120.503892879412
5870 4120.638249154201
5871 4120.764628906655
5872 4120.85970848592
5873 4121.00463739565
5874 4121.117662344481
5875 4121.237256324442
5876 4121.324294261035
5877 4121.459241892197
5878 4121.560216668902
5879 4121.673463441455
5880 4121.747921791033
5881 4121.876745178643
5882 4121.994712823895
5883 4122.118860475655
5884 4122.212288283423
5885 4122.33151098213
5886 4122.444363473064
5887 4122.553569965029
5888 4122.630776738664
5889 4122.741192945932
5890 4122.845116501897
5891 4122.943860205555
5892 4123.017973087674
5893 4123.10961198826
5894 4123.214852482201
5895 4123.320556498342
5896 4123.407568357352
5897 4123.520293706939
5898 4123.629475262708
5899 4123.719592837149
5900 4123.786826304831
5901 4123.888425413793
5902 4123.994872674333
5903 4124.088527969283
5904 4124.167551508214
5905 4124.268371162687
5906 4124.359935508922
5907 4124.442156527664
5908 4124.510653354994
5909 4124.596579302283
5910 4124.7104948811
5911 4124.797548816868
5912 4124.879041721118
5913 4124.967290866706
5914 4125.056646821375
5915 4125.150301479242
5916 4125.208787053141
5917 4125.308712390041
5918 4125.388124273902
5919 4125.45865214297
5920 4125.514835246046
5921 4125.601689763738
5922 4125.668493169343
5923 4125.734932396703
5924 4125.823951118747
5925 4125.931430633646
5926 4125.993513089217
5927 4126.073491944075
5928 4126.155965811316
5929 4126.22437550803
5930 4126.301506064503
5931 4126.37032143325
5932 4126.42989470409
5933 4126.493222738067
5934 4126.574779219316
5935 4126.619458554708
5936 4126.678043884824
5937 4126.757239760555
5938 4126.819101917894
5939 4126.884902274678
5940 4126.939849574359
5941 4127.023198146935
5942 4127.103413343777
5943 4127.157856104315
5944 4127.211823628586
5945 4127.280300077455
5946 4127.340051600455
5947 4127.39656189955
5948 4127.466643417722
5949 4127.543087101642
5950 4127.612979776796
5951 4127.659787836994
5952 4127.720960196108
5953 4127.787803162742
5954 4127.843287590908
5955 4127.889851420797
5956 4127.925467978116
5957 4127.99507024105
5958 4128.054545225474
5959 4128.10324537714
5960 4128.168296033982
5961 4128.25596990025
5962 4128.292623556911
5963 4128.337507748905
5964 4128.372030467731
5965 4128.43393030408
5966 4128.49596228771
5967 4128.550023398551
5968 4128.57209598595
5969 4128.617586139542
5970 4128.660359944315
5971 4128.707383340388
5972 4128.751128755622
5973 4128.827290798507
5974 4128.898347889743
5975 4128.934192931665
5976 4128.976656208146
5977 4129.025462395943
5978 4129.068671094319
5979 4129.111646886059
5980 4129.144444340607
5981 4129.200547892404
5982 4129.262787350934
5983 4129.30784732721
5984 4129.358725365207
5985 4129.426773025921
5986 4129.457859926107
5987 4129.502219254846
5988 4129.531612555474
5989 4129.568994940596
5990 4129.616413885027
5991 4129.638578510932
5992 4129.681956674662
5993 4129.712300158008
5994 4129.738735405734
5995 4129.774480531257
5996 4129.820109918266
5997 4129.872780618962
5998 4129.915322566942
5999 4129.945433250896
6000 4129.97578820238
6001 4130.004927057062
6002 4130.041431763623
6003 4130.10328456555
6004 4130.127714740635
6005 4130.17491325519
6006 4130.204414826607
6007 4130.257948285984
6008 4130.283681326279
6009 4130.323320345772
6010 4130.351933118853
6011 4130.402818015989
6012 4130.438282836701
6013 4130.473405409256
6014 4130.529545858583
6015 4130.560821234887
6016 4130.577997549811
6017 4130.624792026221
6018 4130.65159924846
6019 4130.686183920355
6020 4130.712936249094
6021 4130.756345151462
6022 4130.791921702578
6023 4130.814863742367
6024 4130.844722571633
6025 4130.87203247278
6026 4130.882475919843
6027 4130.909689842005
6028 4130.922065212321
6029 4130.951467172659
6030 4130.996124798885
6031 4131.032891247333
6032 4131.051340917072
6033 4131.096528037384
6034 4131.115543681229
6035 4131.140940802393
6036 4131.15975341346
6037 4131.205183298842
6038 4131.244895171283
6039 4131.276532282275
6040 4131.291368093262
6041 4131.308107716173
6042 4131.313296873434
6043 4131.344884572673
6044 4131.374812072499
6045 4131.409471999107
6046 4131.445724753502
6047 4131.477804052009
6048 4131.501182857082
6049 4131.538168200481
6050 4131.549974348393
6051 4131.590531548606
6052 4131.565003810949
6053 4131.599237565955
6054 4131.614985764745
6055 4131.61469305364
6056 4131.635401764793
6057 4131.691543882735
6058 4131.690386829354
6059 4131.739303604555
6060 4131.754298372549
6061 4131.78435550665
6062 4131.812357755221
6063 4131.831882444139
6064 4131.845125817533
6065 4131.877892954431
6066 4131.890407012196
6067 4131.941848806858
6068 4131.952139004931
6069 4131.977861355993
6070 4132.020090507326
6071 4132.035626475718
6072 4132.046125655681
6073 4132.077426865148
6074 4132.092115430019
6075 4132.114337418891
6076 4132.108855622841
6077 4132.127968195743
6078 4132.144513619716
6079 4132.163649935754
6080 4132.168548296671
6081 4132.212571859289
6082 4132.224072265487
6083 4132.252355155516
6084 4132.265464506626
6085 4132.313586835248
6086 4132.332178949457
6087 4132.351596280547
6088 4132.358250450336
6089 4132.377334486793
6090 4132.387586170227
6091 4132.402592886659
6092 4132.41447660866
6093 4132.455499053222
6094 4132.467170941766
6095 4132.473496183672
6096 4132.507560055922
6097 4132.527786657826
6098 4132.543106488145
6099 4132.569977060994
6100 4132.554705030524
6101 4132.573869848653
6102 4132.60346243102
6103 4132.589515777779
6104 4132.596836001328
6105 4132.601262365691
6106 4132.613891234901
6107 4132.639517371482
6108 4132.648526532161
6109 4132.684092873718
6110 4132.706357270382
6111 4132.737476761075
6112 4132.733592210745
6113 4132.759597318189
6114 4132.772451448634
6115 4132.786617684006
6116 4132.791471789443
6117 4132.811571044879
6118 4132.802876820471
6119 4132.805579092806
6120 4132.800963187806
6121 4132.8230256389
6122 4132.843485618811
6123 4132.867793544371
6124 4132.885312560389
6125 4132.898288501136
6126 4132.90571250932
6127 4132.916775594656
6128 4132.927111453459
6129 4132.948608128849
6130 4132.961686317119
6131 4133.004430429802
6132 4133.010711805375
6133 4133.03322315417
6134 4133.041415963608
6135 4133.052782118896
6136 4133.062526794923
6137 4133.082714329042
6138 4133.098092983494
6139 4133.106155483384
6140 4133.134040480461
6141 4133.147401927792
6142 4133.144940397423
6143 4133.153157523986
6144 4133.154987154388
6145 4133.179699081624
6146 4133.203744303546
6147 4133.208098234754
6148 4133.212903956757
6149 4133.221973044935
6150 4133.211878503153
6151 4133.207747048521
6152 4133.219015291274
6153 4133.237125518663
6154 4133.250031994114
6155 4133.255687138505
6156 4133.267642567234
6157 4133.293742895527
6158 4133.30090226732
6159 4133.306895988317
6160 4133.324196357574
6161 4133.340089813179
6162 4133.347638980713
6163 4133.359993744698
6164 4133.376963866282
6165 4133.388022611839
6166 4133.384617566828
6167 4133.379103039095
6168 4133.379106598536
6169 4133.392699662238
6170 4133.413135169614
6171 4133.404830430134
6172 4133.423424844435
6173 4133.433741029162
6174 4133.446884024766
6175 4133.448341122901
6176 4133.470272125573
6177 4133.485857366295
6178 4133.475521622856
6179 4133.448503418003
6180 4133.438603009828
6181 4133.446919423009
6182 4133.453142099649
6183 4133.463799742161
6184 4133.487568310639
6185 4133.519467432033
6186 4133.513300414515
6187 4133.557763739195
6188 4133.546253762428
6189 4133.573372150146
6190 4133.549368498038
6191 4133.579251014432
6192 4133.57781470286
6193 4133.606682744873
6194 4133.572814399461
6195 4133.611152793383
6196 4133.595975121334
6197 4133.633499206216
6198 4133.600076320848
6199 4133.654871940927
6200 4133.648070878725
6201 4133.668223724765
6202 4133.635216633529
6203 4133.653444552785
6204 4133.654999771627
6205 4133.686478924352
6206 4133.682440530895
6207 4133.72853773825
6208 4133.722336334814
6209 4133.751780327313
6210 4133.726216441009
6211 4133.755233043405
6212 4133.715802429217
6213 4133.746618689664
6214 4133.728502433295
6215 4133.747522917319
6216 4133.748302248834
6217 4133.779486896896
6218 4133.766008408257
6219 4133.788900898995
6220 4133.777610303961
6221 4133.811008322004
6222 4133.786180118647
6223 4133.796675237669
6224 4133.800003210325
6225 4133.82184159711
6226 4133.777694182134
6227 4133.807377503046
6228 4133.772528898601
6229 4133.812133247289
6230 4133.797692152521
6231 4133.833816934468
6232 4133.809722351085
6233 4133.844275955164
6234 4133.825763029663
6235 4133.847337030052
6236 4133.821131001195
6237 4133.858385607899
6238 4133.844034051262
6239 4133.878663792047
6240 4133.868366672365
6241 4133.90589197401
6242 4133.887735593441
6243 4133.912110735941
6244 4133.88279459471
6245 4133.921447952371
6246 4133.895045469016
6247 4133.910167643169
6248 4133.891598317523
6249 4133.934391333873
6250 4133.897973834964
6251 4133.929255844065
6252 4133.916570259164
6253 4133.948031689823
6254 4133.942188741511
6255 4133.963424500128
6256 4133.942316150803
6257 4133.972174400226
6258 4133.952870885939
6259 4133.973232979212
6260 4133.93872239723
6261 4133.956594871014
6262 4133.943396465391
6263 4133.941197184246
6264 4133.945477082616
6265 4133.989365040205
6266 4133.988109226678
6267 4134.009037632593
6268 4133.989780828339
6269 4134.027338590186
6270 4134.007445434059
6271 4134.023382845388
6272 4134.007691998341
6273 4134.038572108429
6274 4134.001673314503
6275 4134.030448870722
6276 4134.003057542416
6277 4134.036744300846
6278 4134.028486156242
6279 4134.077983019612
6280 4134.060458997265
6281 4134.099490186923
6282 4134.049680134055
6283 4134.095340235258
6284 4134.076019487181
6285 4134.108045536395
6286 4134.102246067904
6287 4134.12083961465
6288 4134.08626810856
6289 4134.131096764171
6290 4134.10837681165
6291 4134.120412886021
6292 4134.088309889326
6293 4134.115005230112
6294 4134.096648173281
6295 4134.119151476211
6296 4134.10015317368
6297 4134.128936387689
6298 4134.100737555153
6299 4134.142637535148
6300 4134.09817672759
6301 4134.146161067785
6302 4134.123527218772
6303 4134.131118544375
6304 4134.090844903133
6305 4134.130466055716
6306 4134.107492452473
6307 4134.139581610263
6308 4134.112683824791
6309 4134.170510327825
6310 4134.151889229833
6311 4134.190259719082
6312 4134.162473819828
6313 4134.19023530489
6314 4134.169870851066
6315 4134.181007751741
6316 4134.168569826607
6317 4134.181895885176
6318 4134.185243457492
6319 4134.157736109171
6320 4134.154270245385
6321 4134.183397095721
6322 4134.174434540097
6323 4134.180463043767
6324 4134.175380482845
6325 4134.207698207421
6326 4134.210185949843
6327 4134.204807279427
6328 4134.182055013008
6329 4134.205678734148
6330 4134.202382111902
6331 4134.223298339153
6332 4134.211172461889
6333 4134.24234869516
6334 4134.238630767949
6335 4134.239958978459
6336 4134.216342989255
6337 4134.239360296609
6338 4134.249819504923
6339 4134.262465573509
6340 4134.234433608677
6341 4134.264057951144
6342 4134.275444086242
6343 4134.259595129223
6344 4134.229129859434
6345 4134.262327573378
6346 4134.260690806539
6347 4134.284171148105
6348 4134.251414737087
6349 4134.282723101118
6350 4134.282428391836
6351 4134.291831282048
6352 4134.273548600566
6353 4134.284810796494
6354 4134.282035317321
6355 4134.297436911691
6356 4134.27519276748
6357 4134.301989888952
6358 4134.306518263651
6359 4134.309749717215
6360 4134.31709913784
6361 4134.323414834163
6362 4134.326715328006
6363 4134.332171354448
6364 4134.307360728761
6365 4134.302630889856
6366 4134.300677579254
6367 4134.296654759543
6368 4134.283257938432
6369 4134.301231727434
6370 4134.296316379243
6371 4134.314579149852
6372 4134.291152632949
6373 4134.336578771567
6374 4134.322393250449
6375 4134.319962660006
6376 4134.315127003303
6377 4134.339465157227
6378 4134.324199158703
6379 4134.312136450991
6380 4134.275857646799
6381 4134.300350194961
6382 4134.286018810207
6383 4134.305984481829
6384 4134.312510029022
6385 4134.350642009247
6386 4134.360682716681
6387 4134.365721001835
6388 4134.330557524293
6389 4134.353784114276
6390 4134.354080896493
6391 4134.335909862356
6392 4134.293211907554
6393 4134.325198749581
6394 4134.318747248939
6395 4134.32541064723
6396 4134.314408969884
6397 4134.355021162934
6398 4134.367554566535
6399 4134.372435209835
6400 4134.36218039477
6401 4134.376962964386
6402 4134.361749216569
6403 4134.364560859238
6404 4134.34353633149
6405 4134.363861934969
6406 4134.35093314687
6407 4134.355104630189
6408 4134.346436628643
6409 4134.3445233726
6410 4134.336947465069
6411 4134.351704977581
6412 4134.362153900242
6413 4134.378371901404
6414 4134.372577734577
6415 4134.366838506804
6416 4134.345861990203
6417 4134.379283271474
6418 4134.361909695438
6419 4134.347921892047
6420 4134.321667812677
6421 4134.347021117933
6422 4134.331308796773
6423 4134.333040069356
6424 4134.327230787176
6425 4134.352443876998
6426 4134.352584344974
6427 4134.368218258202
6428 4134.34908717884
6429 4134.374906525929
6430 4134.357177042374
6431 4134.363466021935
6432 4134.328366070224
6433 4134.358855276559
6434 4134.368151812667
6435 4134.389877099212
6436 4134.380440775284
6437 4134.390516297031
6438 4134.38668277584
6439 4134.395756156854
6440 4134.370940946829
6441 4134.386014006407
6442 4134.368287437146
6443 4134.368090408242
6444 4134.338450717811
6445 4134.358981416606
6446 4134.329337354078
6447 4134.342736751179
6448 4134.340181209434
6449 4134.356856747974
6450 4134.355126796993
6451 4134.365955582826
6452 4134.357252784741
6453 4134.378434493677
6454 4134.361890389046
6455 4134.340106045302
6456 4134.34839383873
6457 4134.361455130514
6458 4134.365311123278
6459 4134.380203511794
6460 4134.377352177889
6461 4134.402430532856
6462 4134.420012750518
6463 4134.417475417094
6464 4134.408895031749
6465 4134.434534346606
6466 4134.429308920299
6467 4134.427274823229
6468 4134.407230271224
6469 4134.43418765203
6470 4134.425531838393
6471 4134.421157954669
6472 4134.381863937088
6473 4134.413804606823
6474 4134.401558985958
6475 4134.41421689795
6476 4134.388046677757
6477 4134.426457392015
6478 4134.42901084075
6479 4134.430085323217
6480 4134.410283129823
6481 4134.432969562256
6482 4134.427022954042
6483 4134.402825919226
6484 4134.39321286729
6485 4134.40550663764
6486 4134.395825206853
6487 4134.406877318038
6488 4134.397147893185
6489 4134.424208630681
6490 4134.421457003354
6491 4134.437560169988
6492 4134.401476745004
6493 4134.433806396819
6494 4134.418922765243
6495 4134.404663399891
6496 4134.375924462339
6497 4134.414151835683
6498 4134.411159418621
6499 4134.424423574563
6500 4134.406939178336
6501 4134.456433658556
6502 4134.434907909057
6503 4134.451414552967
6504 4134.439323644425
6505 4134.470730433246
6506 4134.459308467846
6507 4134.481487286124
6508 4134.459535393074
6509 4134.443404048458
6510 4134.430152668593
6511 4134.435227183913
6512 4134.412785537958
6513 4134.448698537832
6514 4134.441353531362
6515 4134.457453419194
6516 4134.435992393902
6517 4134.453774314813
6518 4134.440846226272
6519 4134.462012624568
6520 4134.427523624734
6521 4134.44707550264
6522 4134.460052723936
6523 4134.445304780391
6524 4134.439099220285
6525 4134.461805083142
6526 4134.454707134772
6527 4134.455664567638
6528 4134.440587056608
6529 4134.442883179461
6530 4134.451712734168
6531 4134.443227544969
6532 4134.429282331149
6533 4134.464346328728
6534 4134.461688255933
6535 4134.464597962198
6536 4134.451688386549
6537 4134.478817532131
6538 4134.468452814952
6539 4134.473741251794
6540 4134.462863447548
6541 4134.460494445719
6542 4134.440651226784
6543 4134.421100718617
6544 4134.403775139012
6545 4134.444245249825
6546 4134.44443685709
6547 4134.454665754195
6548 4134.442611214721
6549 4134.462085919116
6550 4134.454327168352
6551 4134.447914133515
6552 4134.433252150509
6553 4134.461282994102
6554 4134.448701157489
6555 4134.459551472443
6556 4134.444726576016
6557 4134.463006032339
6558 4134.467625625149
6559 4134.478334723798
6560 4134.466812624912
6561 4134.473338562939
6562 4134.452400562842
6563 4134.453285589539
6564 4134.440219874738
6565 4134.456926943435
6566 4134.467230817723
6567 4134.472894835857
6568 4134.462714686489
6569 4134.479891147599
6570 4134.4650812457
6571 4134.471186446697
6572 4134.459022835355
6573 4134.485599135553
6574 4134.47607842026
6575 4134.469148843888
6576 4134.462459903937
6577 4134.479986494877
6578 4134.483342446021
6579 4134.467560036077
6580 4134.441865888673
6581 4134.468358541583
6582 4134.460026545775
6583 4134.443405743715
6584 4134.4414567198
6585 4134.484893406732
6586 4134.455459180695
6587 4134.483901182659
6588 4134.470539746454
6589 4134.481936147836
6590 4134.475876912233
6591 4134.488259244211
6592 4134.454989111752
6593 4134.455727156216
6594 4134.42726997113
6595 4134.455609309556
6596 4134.440294978021
6597 4134.465831337135
6598 4134.464773784207
6599 4134.469051081191
6600 4134.455380884915
6601 4134.479138864546
6602 4134.472495526213
6603 4134.482124928605
6604 4134.457421960313
6605 4134.460152285429
6606 4134.440310106748
6607 4134.449276746033
6608 4134.426381584104
6609 4134.46042207581
6610 4134.447943327938
6611 4134.475079207486
6612 4134.462456009998
6613 4134.489736722141
6614 4134.469968276889
6615 4134.482818325337
6616 4134.465517378673
6617 4134.485122825391
6618 4134.476059514927
6619 4134.476521021947
6620 4134.459333018517
6621 4134.472108745741
6622 4134.452823481579
6623 4134.459336202728
6624 4134.451905120158
6625 4134.458333522001
6626 4134.450179608658
6627 4134.464683675742
6628 4134.466892688449
6629 4134.452851041105
6630 4134.423067443373
6631 4134.426785902206
6632 4134.419168393212
6633 4134.454364643563
6634 4134.441062590163
6635 4134.455944957355
6636 4134.448734446281
6637 4134.467713880343
6638 4134.429750057935
6639 4134.441648181022
6640 4134.438489304463
6641 4134.458631742587
6642 4134.464438329389
6643 4134.48007984887
6644 4134.471420640744
6645 4134.509624902288
6646 4134.475291469083
6647 4134.468430010266
6648 4134.462015640923
6649 4134.49876525015
6650 4134.466025638421
6651 4134.506055500671
6652 4134.460277099999
6653 4134.493712364042
6654 4134.463092869655
6655 4134.455225689841
6656 4134.45049361957
6657 4134.464663061238
6658 4134.458853042242
6659 4134.482924132001
6660 4134.496411714213
6661 4134.516122977469
6662 4134.515639564331
6663 4134.514640880146
6664 4134.497751543454
6665 4134.515296544741
6666 4134.499843712575
6667 4134.511998790005
6668 4134.502847544203
6669 4134.504218176669
6670 4134.469827354209
6671 4134.456015354543
6672 4134.438204904428
6673 4134.468754111599
6674 4134.460377520061
6675 4134.491246091652
6676 4134.463856933074
6677 4134.488904925369
6678 4134.475778848115
6679 4134.469383748966
6680 4134.47601863313
6681 4134.487712832107
6682 4134.480480629906
6683 4134.480121143018
6684 4134.478251057265
6685 4134.510373823344
6686 4134.473504306376
6687 4134.469400997357
6688 4134.452974055126
6689 4134.466899180871
6690 4134.466478654422
6691 4134.488413857977
6692 4134.491149121
6693 4134.507127304219
6694 4134.484609480888
6695 4134.485292518019
6696 4134.479787948891
6697 4134.502657913997
6698 4134.481436078078
6699 4134.485353353696
6700 4134.466564308602
6701 4134.466966615822
6702 4134.449194122732
6703 4134.445063091621
6704 4134.441836927428
6705 4134.487745626987
6706 4134.472748957731
6707 4134.503319665802
6708 4134.493229077587
6709 4134.51005740989
6710 4134.483696503072
6711 4134.48984445221
6712 4134.461225788033
6713 4134.476824235482
6714 4134.458023081012
6715 4134.457229120207
6716 4134.445484631983
6717 4134.460745651982
6718 4134.45579536026
6719 4134.455769554435
6720 4134.462802575254
6721 4134.470658171361
6722 4134.475716022078
6723 4134.485323769109
6724 4134.480305157571
6725 4134.463722634035
6726 4134.444383568554
6727 4134.474652169349
6728 4134.468518880122
6729 4134.489895351314
6730 4134.49177240057
6731 4134.47473181427
6732 4134.469553571728
6733 4134.48878158566
6734 4134.482863475815
6735 4134.480475598713
6736 4134.4647838192
6737 4134.474413067444
6738 4134.483450923858
6739 4134.479858053503
6740 4134.462468681018
6741 4134.470957400726
6742 4134.470773331999
6743 4134.466292014745
6744 4134.472761161999
6745 4134.478201812244
6746 4134.48464891755
6747 4134.489981121856
6748 4134.487981060841
6749 4134.485805308991
6750 4134.477938848581
6751 4134.485474029097
6752 4134.472646036521
6753 4134.492776643017
6754 4134.497970522559
6755 4134.503060070342
6756 4134.512268310224
6757 4134.511001838447
6758 4134.503912132353
6759 4134.514373812029
6760 4134.510067856225
6761 4134.500897027639
6762 4134.512792809377
6763 4134.490411578373
6764 4134.479314552811
6765 4134.469346685358
6766 4134.462248201045
6767 4134.478637474682
6768 4134.469880250992
6769 4134.479805477024
6770 4134.485760245725
6771 4134.493093842762
6772 4134.490482186036
6773 4134.487800925677
6774 4134.475029055872
6775 4134.479858478591
6776 4134.445683401035
6777 4134.458754963804
6778 4134.450474849999
6779 4134.453151348222
6780 4134.459427166857
6781 4134.463696138006
6782 4134.448239527977
6783 4134.45571697052
6784 4134.456257249238
6785 4134.463137143723
6786 4134.472711002582
6787 4134.476883784552
6788 4134.482870102333
6789 4134.485379262951
6790 4134.489842490938
6791 4134.476699885317
6792 4134.470873520429
6793 4134.485370282783
6794 4134.475798674281
6795 4134.475297626464
6796 4134.466605485053
6797 4134.457645631501
6798 4134.466188000332
6799 4134.462953837618
6800 4134.461663126334
6801 4134.453208842705
6802 4134.456218787661
6803 4134.453849786516
6804 4134.480056574784
6805 4134.501283774645
6806 4134.48826408111
6807 4134.509572654578
6808 4134.495177389435
6809 4134.490752775821
6810 4134.5020301902
6811 4134.514249925712
6812 4134.497468955305
6813 4134.48486339936
6814 4134.469234593876
6815 4134.471081947107
6816 4134.461933004002
6817 4134.472502613545
6818 4134.48113297588
6819 4134.487063522238
6820 4134.500282649586
6821 4134.492177286391
6822 4134.48043216377
6823 4134.483003485653
6824 4134.469785206879
6825 4134.480965354111
6826 4134.485230228399
6827 4134.481312997788
6828 4134.487390023936
6829 4134.503125459299
6830 4134.496611784764
6831 4134.493793005109
6832 4134.503855602851
6833 4134.493409423203
6834 4134.50250057676
6835 4134.503268300368
6836 4134.496096958121
6837 4134.498155123048
6838 4134.501611273629
6839 4134.482028861012
6840 4134.501133596494
6841 4134.504159219031
6842 4134.51208340075
6843 4134.517315955748
6844 4134.508953484587
6845 4134.509766576386
6846 4134.500052313106
6847 4134.493689744676
6848 4134.475452932528
6849 4134.47210712899
6850 4134.47630445851
6851 4134.479403842796
6852 4134.485605627009
6853 4134.500975719123
6854 4134.48386555751
6855 4134.506415783006
6856 4134.504362830508
6857 4134.516576128811
6858 4134.518163959155
6859 4134.514685953683
6860 4134.521602976513
6861 4134.51131036971
6862 4134.496986178762
6863 4134.489599768695
6864 4134.485622631953
6865 4134.49043353554
6866 4134.491137061871
6867 4134.494082915359
6868 4134.505645176237
6869 4134.517030842881
6870 4134.509729290744
6871 4134.508287805765
6872 4134.516729889452
6873 4134.508097327663
6874 4134.501393974149
6875 4134.493445303158
6876 4134.464375473952
6877 4134.464696824486
6878 4134.451521567816
6879 4134.448364068166
6880 4134.461237887929
6881 4134.482158318749
6882 4134.489460030269
6883 4134.513306957298
6884 4134.490756805658
6885 4134.501127028688
6886 4134.487226553381
6887 4134.481074280666
6888 4134.458397450184
6889 4134.465793298802
6890 4134.468931254557
6891 4134.449516184517
6892 4134.443521103439
6893 4134.454974174887
6894 4134.440847529742
6895 4134.451861980962
6896 4134.464118097586
6897 4134.452429434707
6898 4134.461379215034
6899 4134.459463438252
6900 4134.447384126936
6901 4134.448664399069
6902 4134.44832950511
6903 4134.46298724848
6904 4134.457507259993
6905 4134.474853979493
6906 4134.47195961749
6907 4134.493272820961
6908 4134.460408714678
6909 4134.448841104047
6910 4134.455911338002
6911 4134.459686846767
6912 4134.473391507793
6913 4134.480044481064
6914 4134.503851149103
6915 4134.50045520187
6916 4134.479678104568
6917 4134.479873585035
6918 4134.480733774096
6919 4134.474366818726
6920 4134.466357247016
6921 4134.458943861378
6922 4134.455757018362
6923 4134.447140477826
6924 4134.437582688038
6925 4134.443289586188
6926 4134.445652104867
6927 4134.465418732304
6928 4134.461610198733
6929 4134.462852377183
6930 4134.471686427593
6931 4134.469114198274
6932 4134.464104762881
6933 4134.479115913233
6934 4134.494590735486
6935 4134.486509052684
6936 4134.492896857625
6937 4134.486561140072
6938 4134.483136992111
6939 4134.493247444288
6940 4134.488849597515
6941 4134.471074090923
6942 4134.479158046047
6943 4134.444636924059
6944 4134.453306418468
6945 4134.462780581483
6946 4134.465316126374
6947 4134.450828681884
6948 4134.467269841519
6949 4134.472770560385
6950 4134.471558435569
6951 4134.459553211659
6952 4134.472722661262
6953 4134.479618783869
6954 4134.48322249687
6955 4134.476244287096
6956 4134.464953262222
6957 4134.471948747482
6958 4134.458478898392
6959 4134.449603709686
6960 4134.447044894158
6961 4134.464963313339
6962 4134.475134982212
6963 4134.467079611671
6964 4134.455339944825
6965 4134.472757539836
6966 4134.456167828159
6967 4134.459006273303
6968 4134.462986200988
6969 4134.470569305558
6970 4134.483582723576
6971 4134.501761631765
6972 4134.475590274682
6973 4134.49694885826
6974 4134.493123333505
6975 4134.499533605518
6976 4134.494662381914
6977 4134.497039826302
6978 4134.496876439567
6979 4134.482915213198
6980 4134.460500909963
6981 4134.473515349023
6982 4134.474917147149
6983 4134.472964266293
6984 4134.479153920417
6985 4134.483163337248
6986 4134.481975787687
6987 4134.46355560402
6988 4134.437549023596
6989 4134.453957132549
6990 4134.446294894993
6991 4134.45893180154
6992 4134.463970734388
6993 4134.494062537015
6994 4134.482864027921
6995 4134.493565056363
6996 4134.470413070811
6997 4134.506488675821
6998 4134.499000308128
6999 4134.505628510544
7000 4134.485252511178
7001 4134.487112020159
7002 4134.489759080138
7003 4134.501596464702
7004 4134.487937213067
7005 4134.524581799482
7006 4134.510248286188
7007 4134.493471982094
7008 4134.484625338167
7009 4134.507168679423
7010 4134.516777065973
7011 4134.510176334839
7012 4134.492358759967
7013 4134.496740569607
7014 4134.47643775781
7015 4134.483071912244
7016 4134.48182179687
7017 4134.482538368412
7018 4134.477672856524
7019 4134.474622676858
7020 4134.47092827535
7021 4134.491851160338
7022 4134.488865224076
7023 4134.470649029507
7024 4134.46505127169
7025 4134.475462166904
7026 4134.474913411227
7027 4134.475840224557
7028 4134.455510185515
7029 4134.477162500225
7030 4134.463268210439
7031 4134.451717674875
7032 4134.451802812562
7033 4134.474209814378
7034 4134.470265843164
7035 4134.450890374633
7036 4134.419797157924
7037 4134.44060164585
7038 4134.436549182157
7039 4134.426580737853
7040 4134.423092004635
7041 4134.445658435879
7042 4134.444633678097
7043 4134.463586585202
7044 4134.459340247271
7045 4134.473579911163
7046 4134.473814950157
7047 4134.457817223832
7048 4134.441281660556
7049 4134.453325493827
7050 4134.460532061711
7051 4134.442560487581
7052 4134.452319353124
7053 4134.468640972525
7054 4134.493860710711
7055 4134.482515598053
7056 4134.476174064723
7057 4134.490688088857
7058 4134.488494424055
7059 4134.457662056564
7060 4134.432857560108
7061 4134.445155988932
7062 4134.454199909274
7063 4134.448738822901
7064 4134.454664693948
7065 4134.481531763159
7066 4134.464213250491
7067 4134.489866442602
7068 4134.470114627464
7069 4134.486893190351
7070 4134.496470733058
7071 4134.478504982031
7072 4134.46386620924
7073 4134.474642769776
7074 4134.474148271587
7075 4134.472178289278
7076 4134.493176952035
7077 4134.50552724082
7078 4134.505142262275
7079 4134.503859878059
7080 4134.47527233979
7081 4134.496340348123
7082 4134.483727420006
7083 4134.469792558461
7084 4134.473480984627
7085 4134.486655514888
7086 4134.477579609485
7087 4134.460686196831
7088 4134.436821141932
7089 4134.473427236021
7090 4134.461295422112
7091 4134.462912932429
7092 4134.458254922339
7093 4134.483911184676
7094 4134.483085067286
7095 4134.485500252518
7096 4134.459107516882
7097 4134.487939876167
7098 4134.477186026595
7099 4134.459791073131
7100 4134.445820280152
7101 4134.468334555119
7102 4134.463005340289
7103 4134.470735621308
7104 4134.464057868954
7105 4134.488700180182
7106 4134.492997764566
7107 4134.490889492841
7108 4134.475393912012
7109 4134.491301808307
7110 4134.485989234733
7111 4134.490577938039
7112 4134.438235958438
7113 4134.465962711107
7114 4134.463191857321
7115 4134.457635755255
7116 4134.470734170677
7117 4134.501944452521
7118 4134.492040352076
7119 4134.505847397973
7120 4134.493160469352
7121 4134.500327217081
7122 4134.506496533195
7123 4134.501463902251
7124 4134.49093325753
7125 4134.509913113611
7126 4134.491256539786
7127 4134.477695661824
7128 4134.447137376921
7129 4134.473519857903
7130 4134.470716706955
7131 4134.491726586615
7132 4134.459983652503
7133 4134.473747652296
7134 4134.469712755355
7135 4134.475041932618
7136 4134.447034128359
7137 4134.479558811743
7138 4134.472317140961
7139 4134.487866810112
7140 4134.464100276991
7141 4134.509631373194
7142 4134.479824224266
7143 4134.492052994538
7144 4134.464920877702
7145 4134.495181691066
7146 4134.487802553125
7147 4134.499496902297
7148 4134.501435724314
7149 4134.528938124627
7150 4134.499312808097
7151 4134.507615356178
7152 4134.472981137627
7153 4134.52147537879
7154 4134.510085020856
7155 4134.511016282756
7156 4134.489837390765
7157 4134.512501226285
7158 4134.478020798551
7159 4134.474761553558
7160 4134.448391271509
7161 4134.474082747908
7162 4134.466658712735
7163 4134.462431454085
7164 4134.467859562678
7165 4134.498105847226
7166 4134.470689354574
7167 4134.486857424812
7168 4134.443275401346
7169 4134.473655269662
7170 4134.464669867814
7171 4134.476736308476
7172 4134.460525865951
7173 4134.47478532815
7174 4134.447463767593
7175 4134.449888454451
7176 4134.417164109226
7177 4134.442149137164
7178 4134.445076210599
7179 4134.45049879456
7180 4134.43295192597
7181 4134.468042486521
7182 4134.449304008655
7183 4134.46400610951
7184 4134.457978370889
7185 4134.473993353157
7186 4134.444116142653
7187 4134.451336938413
7188 4134.428496503179
7189 4134.468844856722
7190 4134.44811434912
7191 4134.482882024496
7192 4134.457394975439
7193 4134.500680742458
7194 4134.476984711852
7195 4134.485855334563
7196 4134.466316830403
7197 4134.477517997486
7198 4134.446498026236
7199 4134.454773144564
7200 4134.440335477163
7201 4134.479087240224
7202 4134.457566231235
7203 4134.486885211372
7204 4134.462255370154
7205 4134.48839916528
7206 4134.480998094329
7207 4134.496538102238
7208 4134.472478980303
7209 4134.480018317435
7210 4134.438536092901
7211 4134.454519953676
7212 4134.440547783968
7213 4134.457907011097
7214 4134.453198815056
7215 4134.474127834781
7216 4134.453847823824
7217 4134.482855097415
7218 4134.457338083902
7219 4134.482475030461
7220 4134.4507413459
7221 4134.471705095138
7222 4134.458489605535
7223 4134.455747710193
7224 4134.456916739151
7225 4134.475486152041
7226 4134.475326253018
7227 4134.48617384819
7228 4134.470636457149
7229 4134.492700735912
7230 4134.472918220792
7231 4134.471941535396
7232 4134.45508369757
7233 4134.488905371499
7234 4134.475800596976
7235 4134.463958562338
7236 4134.428786847366
7237 4134.461105029115
7238 4134.440037323412
7239 4134.47489507629
7240 4134.46048500863
7241 4134.476681775963
7242 4134.472294477347
7243 4134.493026868951
7244 4134.487211626324
7245 4134.507034490098
7246 4134.494423212764
7247 4134.50273911693
7248 4134.476364291393
7249 4134.500859568536
7250 4134.465549901623
7251 4134.471015768685
7252 4134.44352713761
7253 4134.462266146987
7254 4134.464960122497
7255 4134.478278774814
7256 4134.46853277457
7257 4134.502570118974
7258 4134.477607810781
7259 4134.490816386812
7260 4134.460786678789
7261 4134.497987285929
7262 4134.484360612696
7263 4134.478189248361
7264 4134.442628913562
7265 4134.451797940955
7266 4134.44077859691
7267 4134.455723001772
7268 4134.437973888776
7269 4134.478563431021
7270 4134.461470310767
7271 4134.500048784336
7272 4134.474239832562
7273 4134.503195355594
7274 4134.478811361824
7275 4134.493204832791
7276 4134.465680650597
7277 4134.486140432741
7278 4134.480177728001
7279 4134.478285191394
7280 4134.42719945528
7281 4134.449802510745
7282 4134.441307012738
7283 4134.471451560942
7284 4134.451159049302
7285 4134.483507919919
7286 4134.485302531456
7287 4134.493831473171
7288 4134.460174736052
7289 4134.462638806214
7290 4134.454638109553
7291 4134.459606590762
7292 4134.412124288452
7293 4134.440252895874
7294 4134.439227946097
7295 4134.450592584836
7296 4134.437698865713
7297 4134.46418615226
7298 4134.45930460845
7299 4134.47910389161
7300 4134.441621202116
7301 4134.466042587238
7302 4134.451449119271
7303 4134.460611094749
7304 4134.438884192666
7305 4134.46260189963
7306 4134.463125357016
7307 4134.478894100866
7308 4134.471477402198
7309 4134.496178266369
7310 4134.490824499644
7311 4134.507587754225
7312 4134.489891584393
7313 4134.51301127352
7314 4134.496363919365
7315 4134.492485095257
7316 4134.456732903192
7317 4134.483091327456
7318 4134.459079336801
7319 4134.48187553115
7320 4134.455281383628
7321 4134.492533339338
7322 4134.462535751508
7323 4134.48604008605
7324 4134.467978775019
7325 4134.493109828895
7326 4134.479634459398
7327 4134.472560250685
7328 4134.443664965052
7329 4134.470654894286
7330 4134.448854265923
7331 4134.474979828778
7332 4134.467300720246
7333 4134.48275195425
7334 4134.483948556219
7335 4134.498974581605
7336 4134.471557448241
7337 4134.485848850759
7338 4134.475348756476
7339 4134.499245730929
7340 4134.480523603213
7341 4134.495957426228
7342 4134.4656172594
7343 4134.476025107599
7344 4134.464434354426
7345 4134.483867019539
7346 4134.475230094503
7347 4134.504803916858
7348 4134.468922564188
7349 4134.492110764418
7350 4134.501565159113
7351 4134.510045086935
7352 4134.487983423674
7353 4134.499840930737
7354 4134.488149000523
7355 4134.48483697032
7356 4134.463576885365
7357 4134.483904077409
7358 4134.483515910657
7359 4134.488288129112
7360 4134.475976797738
7361 4134.474517978682
7362 4134.462593202858
7363 4134.462426296115
7364 4134.455093218753
7365 4134.453955086868
7366 4134.463778623887
7367 4134.453862295313
7368 4134.427844914533
7369 4134.426858878343
7370 4134.421792629998
7371 4134.432339899757
7372 4134.422262688614
7373 4134.448481107564
7374 4134.455414681195
7375 4134.476721723847
7376 4134.471864010421
7377 4134.472794594775
7378 4134.481790111403
7379 4134.480386404616
7380 4134.477576823444
7381 4134.472795784965
7382 4134.473970586301
7383 4134.475083916324
7384 4134.466429138564
7385 4134.479530628271
7386 4134.479166063453
7387 4134.476191970683
7388 4134.476523456254
7389 4134.463459118662
7390 4134.475100177001
7391 4134.467885308723
7392 4134.454526824527
7393 4134.452658942033
7394 4134.453688804142
7395 4134.457399494134
7396 4134.469597294945
7397 4134.467739174793
7398 4134.490134662819
7399 4134.480810272854
7400 4134.470150324968
7401 4134.47028881686
7402 4134.464878317658
7403 4134.458104400403
7404 4134.464330393057
7405 4134.468738228384
7406 4134.483184689047
7407 4134.471178696307
7408 4134.47143030152
7409 4134.468319778173
7410 4134.474502170741
7411 4134.47599898167
7412 4134.474288117009
7413 4134.493146406973
7414 4134.498510055247
7415 4134.479219787355
7416 4134.484801004011
7417 4134.464194517761
7418 4134.472096510764
7419 4134.456196473137
7420 4134.454034420905
7421 4134.487210541558
7422 4134.494385402654
7423 4134.46281177992
7424 4134.476355243458
7425 4134.483386746468
7426 4134.470276548423
7427 4134.440395557965
7428 4134.438834082128
7429 4134.470879720205
7430 4134.482963778789
7431 4134.477444230218
7432 4134.461574043207
7433 4134.47863928825
7434 4134.472793752439
7435 4134.468061095434
7436 4134.482095447526
7437 4134.501297585511
7438 4134.502260472956
7439 4134.488207876776
7440 4134.491209181369
7441 4134.49212465558
7442 4134.477622257206
7443 4134.458025089177
7444 4134.467041781662
7445 4134.461403995491
7446 4134.468863552824
7447 4134.471786522588
7448 4134.482650478573
7449 4134.500629956992
7450 4134.480229424435
7451 4134.483850924003
7452 4134.496039529517
7453 4134.496238554833
7454 4134.489818224291
7455 4134.489815165458
7456 4134.468425561028
7457 4134.48422441282
7458 4134.496606399263
7459 4134.47975281563
7460 4134.477225663331
7461 4134.498767035109
7462 4134.472963835237
7463 4134.469008216798
7464 4134.471358991526
7465 4134.48985213185
7466 4134.502320074724
7467 4134.500936550997
7468 4134.497843849887
7469 4134.502161754959
7470 4134.469834626756
7471 4134.474351213184
7472 4134.465824147547
7473 4134.477697853955
7474 4134.476241484542
7475 4134.47687804135
7476 4134.476130424617
7477 4134.475356298846
7478 4134.465669334803
7479 4134.460449904934
7480 4134.427245790682
7481 4134.437581736935
7482 4134.432979499367
7483 4134.435220170793
7484 4134.446435603544
7485 4134.465498806418
7486 4134.460399212256
7487 4134.46386907043
7488 4134.459181988852
7489 4134.461798954096
7490 4134.472586107668
7491 4134.483435962686
7492 4134.47776370772
7493 4134.501803823841
7494 4134.485836967069
7495 4134.495467638818
7496 4134.473944842913
7497 4134.487780233138
7498 4134.469572245046
7499 4134.468399464256
7500 4134.477567241397
7501 4134.479489753123
7502 4134.480044574455
7503 4134.478572666337
7504 4134.461419126215
7505 4134.466057991736
7506 4134.468901254059
7507 4134.449003596988
7508 4134.460027737297
7509 4134.477585951201
7510 4134.47814223311
7511 4134.465218794816
7512 4134.467863360675
7513 4134.488953364157
7514 4134.484832394522
7515 4134.45845716328
7516 4134.470787489541
7517 4134.474486610633
7518 4134.474742553713
7519 4134.466875994784
7520 4134.481543755142
7521 4134.510612976766
7522 4134.509557283003
7523 4134.48626134992
7524 4134.487957011594
7525 4134.483995301031
7526 4134.483638256846
7527 4134.469022831579
7528 4134.481556455116
7529 4134.491530177974
7530 4134.519302509507
7531 4134.498890537665
7532 4134.514364616192
7533 4134.513939794794
7534 4134.507616844772
7535 4134.495673840807
7536 4134.491091998734
7537 4134.49251991792
7538 4134.490187970925
7539 4134.459741680522
7540 4134.471431728711
7541 4134.468306147639
7542 4134.466958440095
7543 4134.46736729327
7544 4134.485959917086
7545 4134.49420507927
7546 4134.500958957336
7547 4134.483298252725
7548 4134.475657489296
7549 4134.473585280718
7550 4134.476636115394
7551 4134.446699930917
7552 4134.454604867868
7553 4134.474071460661
7554 4134.490288475703
7555 4134.479918550892
7556 4134.503084747055
7557 4134.52581582683
7558 4134.514785497931
7559 4134.495290546679
7560 4134.499508371365
7561 4134.498725223848
7562 4134.493358434651
7563 4134.464436394495
7564 4134.473313312893
7565 4134.47395674654
7566 4134.470096378561
7567 4134.48602242168
7568 4134.488346649688
7569 4134.500653380545
7570 4134.505198580267
7571 4134.500260139551
7572 4134.501717019258
7573 4134.521891140423
7574 4134.502052320599
7575 4134.486554918323
7576 4134.476235061153
7577 4134.496886563938
7578 4134.492293122194
7579 4134.501467601396
7580 4134.509927319217
7581 4134.527045212966
7582 4134.516378703279
7583 4134.520288284183
7584 4134.524328368282
7585 4134.547715175758
7586 4134.538669797661
7587 4134.519055268765
7588 4134.476789038824
7589 4134.497838044223
7590 4134.486379003062
7591 4134.46852638515
7592 4134.469983345946
7593 4134.501013817492
7594 4134.476635451605
7595 4134.474117298996
7596 4134.471597730526
7597 4134.514280685496
7598 4134.508629601292
7599 4134.500679066477
7600 4134.4836800941
7601 4134.509938800378
7602 4134.486687437489
7603 4134.472854151509
7604 4134.45603191496
7605 4134.490919539522
7606 4134.484747907124
7607 4134.496096491925
7608 4134.488751405218
7609 4134.508068181158
7610 4134.499769385831
7611 4134.515445485175
7612 4134.481399141
7613 4134.506523163092
7614 4134.4905635513
7615 4134.476307076705
7616 4134.476455131618
7617 4134.492297036923
7618 4134.484681999194
7619 4134.487593375266
7620 4134.489636755518
7621 4134.502494317642
7622 4134.503301269003
7623 4134.513104618958
7624 4134.502036446287
7625 4134.508109418133
7626 4134.48852137795
7627 4134.476225554287
7628 4134.456378324739
7629 4134.469572310798
7630 4134.470163161399
7631 4134.46720997782
7632 4134.474861534359
7633 4134.497404804103
7634 4134.479484790361
7635 4134.486993835615
7636 4134.488264109214
7637 4134.498510057651
7638 4134.497884659615
7639 4134.497444366696
7640 4134.484041936763
7641 4134.49338167394
7642 4134.481862913446
7643 4134.494960450103
7644 4134.514703875053
7645 4134.52889072752
7646 4134.524331182142
7647 4134.503722893152
7648 4134.490861383742
7649 4134.497598126186
7650 4134.46901727538
7651 4134.465921763426
7652 4134.443705637414
7653 4134.444158621584
7654 4134.434945602296
7655 4134.431291002556
7656 4134.434210073148
7657 4134.467642553195
7658 4134.459977675269
7659 4134.450937245781
7660 4134.462558652918
7661 4134.484022860212
7662 4134.462796243164
7663 4134.449759610158
7664 4134.44030619232
7665 4134.463881084873
7666 4134.459861551906
7667 4134.454338570036
7668 4134.464184499143
7669 4134.502941795346
7670 4134.493344143314
7671 4134.464614631202
7672 4134.454663080158
7673 4134.47841295396
7674 4134.477927811699
7675 4134.461852793249
7676 4134.47006087301
7677 4134.479731673545
7678 4134.454463420047
7679 4134.445268049735
7680 4134.402827992389
7681 4134.43034445891
7682 4134.448747771894
7683 4134.445382435997
7684 4134.438648649618
7685 4134.466440905609
7686 4134.44983675769
7687 4134.44027871346
7688 4134.416193130328
7689 4134.442175719382
7690 4134.448212708202
7691 4134.448985874924
7692 4134.465133170545
7693 4134.484532848052
7694 4134.483119721034
7695 4134.471546139915
7696 4134.446432531829
7697 4134.478993157631
7698 4134.471721981076
7699 4134.48423871332
7700 4134.466351958768
7701 4134.48169019708
7702 4134.463894654225
7703 4134.446275349079
7704 4134.435367579265
7705 4134.458225106961
7706 4134.464915780885
7707 4134.458276757608
7708 4134.457182496992
7709 4134.495518606803
7710 4134.481241993017
7711 4134.474029175259
7712 4134.475056513888
7713 4134.497824473283
7714 4134.489234335392
7715 4134.462468473651
7716 4134.449453542543
7717 4134.452494934004
7718 4134.443078938162
7719 4134.462841905237
7720 4134.462178397696
7721 4134.462297320436
7722 4134.463716381088
7723 4134.462181421512
7724 4134.451849035061
7725 4134.487422852863
7726 4134.473979792558
7727 4134.459362824555
7728 4134.4364179809
7729 4134.454590541058
7730 4134.439361448504
7731 4134.457794114687
7732 4134.448638364748
7733 4134.465180429343
7734 4134.458610930782
7735 4134.471271523546
7736 4134.469925695767
7737 4134.497487446912
7738 4134.475087429081
7739 4134.484038669144
7740 4134.462998061613
7741 4134.485785618435
7742 4134.475706218454
7743 4134.485130794783
7744 4134.461407051062
7745 4134.481242965219
7746 4134.469025606419
7747 4134.464841011578
7748 4134.456149462085
7749 4134.48273640117
7750 4134.47410080309
7751 4134.491154181165
7752 4134.473539586782
7753 4134.50098635573
7754 4134.481387408922
7755 4134.48133142815
7756 4134.469757346514
7757 4134.491385944896
7758 4134.450015574584
7759 4134.448293351248
7760 4134.43684722232
7761 4134.469514036265
7762 4134.462642520869
7763 4134.48305683925
7764 4134.467043497811
7765 4134.504168744086
7766 4134.483564824884
7767 4134.493047804391
7768 4134.471567394649
7769 4134.505123312133
7770 4134.463157573326
7771 4134.459741375187
7772 4134.461597031544
7773 4134.488034209661
7774 4134.45751029544
7775 4134.462076775742
7776 4134.452052745874
7777 4134.481440273955
7778 4134.479954507207
7779 4134.486469285359
7780 4134.480762771016
7781 4134.497303451058
7782 4134.475792509735
7783 4134.471345829876
7784 4134.445952751523
7785 4134.47920478257
7786 4134.463111150762
7787 4134.468152004961
7788 4134.464795528543
7789 4134.504660343739
7790 4134.483655996056
7791 4134.493310756581
7792 4134.481882347248
7793 4134.500978203252
7794 4134.468777180034
7795 4134.479829603381
7796 4134.461759751638
7797 4134.49806159935
7798 4134.478712645939
7799 4134.476224291346
7800 4134.459484931735
7801 4134.472321852602
7802 4134.477266683843
7803 4134.48639045279
7804 4134.473455469132
7805 4134.509702667933
7806 4134.478358880998
7807 4134.480138204206
7808 4134.480200111473
7809 4134.498969271674
7810 4134.494357915375
7811 4134.480951482526
7812 4134.473292492776
7813 4134.481085877218
7814 4134.471117751064
7815 4134.491308251134
7816 4134.477726835873
7817 4134.511579163511
7818 4134.498402536524
7819 4134.494548518821
7820 4134.496580618915
7821 4134.504795405732
7822 4134.49303833059
7823 4134.482205831644
7824 4134.460786570319
7825 4134.471805432568
7826 4134.469640643044
7827 4134.470431184686
7828 4134.456045337837
7829 4134.504159727851
7830 4134.485249601227
