"x-rfile"
"Iteration" "x"
("Iteration" "x")
1 6353.620974062967
2 5711.457812241933
3 4189.493522936784
4 3351.483105975059
5 2528.055273125737
6 2092.613387911479
7 1425.34037931033
8 1034.394477315817
9 654.89366764939
10 405.8260420986138
11 221.7250335079927
12 100.6618862069852
13 33.32010906542371
14 -5.7232959912568
15 -17.78432974490608
16 -13.61364590666253
17 -0.4649629712125529
18 16.90142016862292
19 36.97015530271203
20 57.66261962213
21 76.90698874578342
22 95.92984240998101
23 111.224465308692
24 124.8486344289042
25 134.1013260102527
26 140.0858528517176
27 143.186776216297
28 144.5054388470569
29 144.0777927169268
30 143.1374189107868
31 141.1004740027824
32 139.0311333381219
33 136.5692179243412
34 134.1304633807811
35 131.4571783893587
36 129.244350367014
37 126.3968506766767
38 123.8644094933305
39 121.020643447205
40 118.4082624153475
41 116.0161763399339
42 114.0876319708137
43 112.525199568022
44 111.2919040581405
45 110.1915044161353
46 109.3582743286325
47 108.4580205340313
48 107.8136890853382
49 106.9866020515355
50 106.3337822903496
51 105.5194620278273
52 104.7852920894765
53 103.8869740281832
54 103.0327052495536
55 101.9497228596347
56 100.9470955017225
57 99.57984778203755
58 98.36973175919803
59 96.86229078514731
60 95.57634598789447
61 94.1595141349475
62 92.83131603975752
63 91.50882687824267
64 90.33834105040387
65 88.99483653191929
66 87.82238416403329
67 86.60818427107776
68 85.53672899707934
69 84.27439678374014
70 83.32724636892596
71 82.17711799514787
72 81.35217815405848
73 80.3169376914757
74 79.43173312536413
75 78.35764472192292
76 77.44822972200136
77 76.365261861706
78 75.47214874950177
79 74.41575941312212
80 73.55215315407439
81 72.34206486516348
82 71.56999476294492
83 70.47486938544252
84 69.7911657909093
85 68.79992684630948
86 68.18512729455935
87 67.41665119782785
88 66.84147939922686
89 66.11086107463763
90 65.56773117106796
91 64.86649379314503
92 64.35368570366812
93 63.68146119580445
94 63.19377651834167
95 62.67235220882435
96 62.18651376084975
97 61.67555111220132
98 61.31669854483066
99 60.79736544402777
100 60.30386434442516
101 59.80084571238991
102 59.45259234528727
103 58.81994307060415
104 58.49457339964553
105 57.88092206837623
106 57.57330125120775
107 56.98332994286811
108 56.69583960107897
109 56.12638376933783
110 55.8554923663612
111 55.30732370769799
112 55.05290956324944
113 54.53038580328847
114 54.28858767949939
115 53.78351211940665
116 53.55267162806439
117 53.17233199010364
118 52.94239986041791
119 52.57018127171717
120 52.34133004198145
121 51.97474616471827
122 51.75161083984835
123 51.39192197882072
124 51.17730617546551
125 50.82768642920463
126 50.63058394007731
127 50.2981878694231
128 50.11836523320351
129 49.79565729182077
130 49.63791167365824
131 49.33693396679455
132 49.20041313387861
133 48.9173928100457
134 48.80140240976994
135 48.53277866901797
136 48.43403052333318
137 48.18281309339775
138 48.10345036820393
139 47.86868725772868
140 47.80329335919092
141 47.58695229826033
142 47.5374857537802
143 47.3381439033171
144 47.30067787038148
145 47.1165347358441
146 47.09274290996918
147 46.9233151356842
148 46.91068810037953
149 46.75368828843965
150 46.75382744391349
151 46.60984865464712
152 46.62209695005889
153 46.48658702473016
154 46.50765591634031
155 46.38234854140083
156 46.41214203370957
157 46.29426747602669
158 46.33159486389259
159 46.22094975143909
160 46.26747110705588
161 46.16175179520254
162 46.21187082247964
163 46.10893471331847
164 46.15888930267199
165 46.06521756054801
166 46.11636659340168
167 46.02060621573084
168 46.07632717521382
169 45.98379443031232
170 46.03974351345484
171 45.94705074724514
172 46.00091119237166
173 45.90928083500086
174 45.95981707494013
175 45.86668773247031
176 45.918586841644
177 45.82582668442231
178 45.87452423707628
179 45.77775776421804
180 45.82350947567373
181 45.724944557372
182 45.76886630406627
183 45.66977861878994
184 45.71111725050877
185 45.60978821186627
186 45.64679341795507
187 45.54317816094233
188 45.57722734175645
189 45.47338013085508
190 45.50347633696585
191 45.39835977539402
192 45.42731280871179
193 45.31861511126866
194 45.34148216992598
195 45.2347146414296
196 45.2572271913988
197 45.14733558074146
198 45.16611002030675
199 45.05348567680652
200 45.07242665484478
201 44.95661984214105
202 44.97452751883952
203 44.85789033088019
204 44.87410397105749
205 44.75640941930465
206 44.77135405849787
207 44.65362416596548
208 44.67046043522414
209 44.55099676847341
210 44.5658230961401
211 44.44360914257293
212 44.4600438501875
213 44.33834701548371
214 44.3546977129287
215 44.23308862650882
216 44.25016034725456
217 44.12779671543586
218 44.14554870430346
219 44.02391012352189
220 44.04364721268435
221 43.92214000835727
222 43.94152955166741
223 43.81995485085407
224 43.83872425417434
225 43.72140187105094
226 43.74158140352888
227 43.62137804140951
228 43.64253532326764
229 43.5257835084339
230 43.54977692180481
231 43.43404254075058
232 43.45971814211596
233 43.34595344054671
234 43.37212913848106
235 43.25899910418272
236 43.28753659641863
237 43.17568925856936
238 43.20577095042477
239 43.0956094036367
240 43.12961759232545
241 43.01982454443284
242 43.05432985109729
243 42.94598043518874
244 42.98412054732202
245 42.87853373604999
246 42.91799555776549
247 42.81299104735535
248 42.85575970877436
249 42.75279048479438
250 42.7957776026828
251 42.69244631710414
252 42.73722325352501
253 42.63821538527552
254 42.67988430058105
255 42.58620656547743
256 42.63307188060924
257 42.53949025863633
258 42.58638587781456
259 42.49094748030672
260 42.54074982193869
261 42.44718300252913
262 42.49683177913943
263 42.4043940869685
264 42.45524608467682
265 42.36357595916117
266 42.41416708731373
267 42.32491912192329
268 42.37458294646764
269 42.28682210809191
270 42.33739960822118
271 42.25153216770448
272 42.3053366681677
273 42.22004835217987
274 42.27256946007343
275 42.18811376651243
276 42.24193796392149
277 42.15790704395513
278 42.21136155648307
279 42.12781632636108
280 42.1823808373268
281 42.10211450069232
282 42.15704421775133
283 42.07556789330375
284 42.12886432717998
285 42.05424006335635
286 42.10699243740841
287 42.03002656525761
288 42.08506949108999
289 42.00759714805685
290 42.06192675864835
291 41.98244271651626
292 42.0384192850945
293 41.9614524969313
294 42.01497722762736
295 41.93954486445599
296 41.99545218457937
297 41.91940532091327
298 41.97615404597195
299 41.89879946652999
300 41.95541473657049
301 41.87719660289694
302 41.93413095279575
303 41.85593838934167
304 41.91532866726452
305 41.83692435893192
306 41.89613389079301
307 41.81471903688462
308 41.87488619325275
309 41.79476539467495
310 41.85633626671228
311 41.77649369998795
312 41.84009507020614
313 41.76125315475658
314 41.82001858083393
315 41.74221840402363
316 41.80289818940363
317 41.72359501632857
318 41.78477151290692
319 41.70562349072007
320 41.76826721155854
321 41.6863994565927
322 41.74923366504527
323 41.67003449833567
324 41.73392992039558
325 41.65411881383148
326 41.7168136199125
327 41.63731876890762
328 41.70198951247139
329 41.6206660931664
330 41.68423059658267
331 41.60220874575205
332 41.66739358548837
333 41.58479336618626
334 41.64967998261429
335 41.56603901199601
336 41.63134089949815
337 41.54934503104484
338 41.6140856580716
339 41.53195677258716
340 41.59679917229692
341 41.51774397830731
342 41.58257379171678
343 41.50305341268795
344 41.56406051385738
345 41.48714464354681
346 41.54929191405839
347 41.47066820237955
348 41.53445869748535
349 41.45624701010086
350 41.51826427277949
351 41.44011541789376
352 41.50215181671233
353 41.42648909277099
354 41.48634044789383
355 41.41360197290467
356 41.47296766334397
357 41.39867632189446
358 41.45711826044775
359 41.38432761860501
360 41.44214505079915
361 41.36905544904815
362 41.42628670736627
363 41.35283014809337
364 41.40923058035639
365 41.33788175322402
366 41.39360790420639
367 41.32163436456317
368 41.37640370916164
369 41.30523664651294
370 41.36351511620471
371 41.29142385507373
372 41.35060762338583
373 41.27705981011285
374 41.33399925989369
375 41.26180569683591
376 41.321860385531
377 41.2470454550614
378 41.30686609408198
379 41.23146719811514
380 41.29226738343365
381 41.21450586592206
382 41.27543019042712
383 41.20023828640266
384 41.26234439729957
385 41.18675279755983
386 41.24960254011441
387 41.17187232791855
388 41.23484767983732
389 41.15748375086352
390 41.21923683892223
391 41.14091573186536
392 41.20381444722896
393 41.1266856379731
394 41.18951494278362
395 41.11171681558823
396 41.17374418623827
397 41.09611982896622
398 41.15915552072851
399 41.08209554834556
400 41.14590307766862
401 41.06854710194996
402 41.13395343197786
403 41.05650462857055
404 41.11907658592281
405 41.04313975951892
406 41.10663457272901
407 41.03030681553182
408 41.09416799824967
409 41.01558570709805
410 41.07989781413734
411 41.00182364330272
412 41.06558594523743
413 40.98983397905542
414 41.05354232103232
415 40.97776787368092
416 41.0415998003451
417 40.96625144945311
418 41.02931728140954
419 40.95230175084927
420 41.01567625709607
421 40.93980120907466
422 41.00173855216957
423 40.92457159620359
424 40.98737243125854
425 40.91221690445814
426 40.97358370069929
427 40.89634007564546
428 40.95916846436171
429 40.88353764204745
430 40.94714182173132
431 40.87106987415973
432 40.93446807706826
433 40.85991657620131
434 40.92335016160855
435 40.84890841058742
436 40.9108683573914
437 40.83800006663471
438 40.8983767002041
439 40.82756404250598
440 40.88614557650085
441 40.81648330483434
442 40.87462876072175
443 40.80775083442573
444 40.86486826742499
445 40.79782892745492
446 40.85501216501312
447 40.78651461558098
448 40.84515569896567
449 40.77828985159405
450 40.8335258217074
451 40.76506784844035
452 40.82419719427802
453 40.75576538251593
454 40.81331966096266
455 40.74477499733026
456 40.80368124175682
457 40.73362726639805
458 40.79287295654017
459 40.72202826182827
460 40.78347745590455
461 40.71100356168098
462 40.77354745972665
463 40.70085906900864
464 40.76244448026679
465 40.68945087487459
466 40.75290840662628
467 40.6774853691684
468 40.74338926621481
469 40.665928961854
470 40.73171390589594
471 40.65400139691688
472 40.72028864238381
473 40.64535650051807
474 40.71210176946288
475 40.63640065719422
476 40.70369368343292
477 40.62772648891868
478 40.69345844136495
479 40.61623768912529
480 40.68287329076934
481 40.60732544985484
482 40.67318544495149
483 40.59571043332744
484 40.66244158575928
485 40.58722042990672
486 40.65308471860466
487 40.57754927930496
488 40.64332992059036
489 40.56889843940913
490 40.635979500717
491 40.56125478456617
492 40.62808171190329
493 40.55348017854947
494 40.61862959503056
495 40.54547499879617
496 40.61186951102842
497 40.53606275465003
498 40.60292154462806
499 40.52576303851001
500 40.59342745159002
501 40.51677065031616
502 40.58340577920292
503 40.50733893448681
504 40.57525647572661
505 40.50065915099114
506 40.5676337719314
507 40.49182538870036
508 40.55846019248286
509 40.48355717406955
510 40.54979050545683
511 40.47378614452518
512 40.54118658029439
513 40.46786598544054
514 40.53333356844196
515 40.45981009242141
516 40.52547912465845
517 40.45451812563181
518 40.51752440385991
519 40.44696192759258
520 40.5108831655309
521 40.44006013457599
522 40.50417728229143
523 40.433759646163
524 40.49588981226759
525 40.42689845451878
526 40.49017640678485
527 40.41777630907569
528 40.48371658062211
529 40.41123045699628
530 40.47661825305987
531 40.40345539014005
532 40.46970641851235
533 40.39891073322298
534 40.46417188437924
535 40.39146322423853
536 40.4578559054202
537 40.38614001586315
538 40.45205939558419
539 40.37728064027851
540 40.44445426111749
541 40.36977219926726
542 40.43687401657526
543 40.36270409230594
544 40.42947055565516
545 40.35672145497551
546 40.42298525037043
547 40.35127313440055
548 40.41622556876115
549 40.34543222085517
550 40.41052169075616
551 40.34027817957232
552 40.40534822528234
553 40.33591075945586
554 40.39817653203907
555 40.33119207484087
556 40.39402605663931
557 40.32650955549816
558 40.38879608156736
559 40.31854280455735
560 40.38129417673597
561 40.31318751079523
562 40.37584127532269
563 40.3087869953111
564 40.37075439822413
565 40.30404037161943
566 40.36818069017971
567 40.29824137790459
568 40.36253404357493
569 40.29320287714442
570 40.35715445753532
571 40.28654521651548
572 40.3519439833853
573 40.27939223372416
574 40.3457937908636
575 40.27251938632796
576 40.34036571159728
577 40.26681408229675
578 40.3341730061488
579 40.26139228587935
580 40.33041304595073
581 40.25657212921365
582 40.32488179308542
583 40.2524314180659
584 40.31803717245408
585 40.24822055003546
586 40.31484569326143
587 40.24250527927781
588 40.31035239397778
589 40.23920675789216
590 40.30642520713386
591 40.2335682669243
592 40.30063800707919
593 40.23121394652782
594 40.29767479521661
595 40.22914433422192
596 40.29430685820426
597 40.22633290357839
598 40.29104664600912
599 40.22190627484221
600 40.28640103863236
601 40.21803110651135
602 40.28440363625963
603 40.21416089181246
604 40.27964105494828
605 40.20888394556324
606 40.27575540845319
607 40.20486654235521
608 40.27116358204935
609 40.199382668349
610 40.26760478491607
611 40.19556861159877
612 40.26435695133449
613 40.1911633875223
614 40.25801244608297
615 40.18546966893634
616 40.25482515727769
617 40.18115474340009
618 40.25104882797633
619 40.17583624764671
620 40.24650990135338
621 40.17295081837997
622 40.24299677973779
623 40.17117700501988
624 40.24168344672167
625 40.1694142725913
626 40.23933472552311
627 40.16878815424049
628 40.23663698145022
629 40.16557209593937
630 40.23258661999518
631 40.16135060921619
632 40.22882457397567
633 40.15670730550648
634 40.22516244994353
635 40.15420422150523
636 40.22144153434875
637 40.14929353921804
638 40.21784346784364
639 40.14441316171077
640 40.21280845716434
641 40.14014714271423
642 40.20937722839656
643 40.13598022530053
644 40.20350879965122
645 40.13387655242057
646 40.20234131219675
647 40.13021373370874
648 40.20046648902288
649 40.12674425820568
650 40.19816125336603
651 40.12290692928494
652 40.19316576320579
653 40.11955113824102
654 40.1918520050723
655 40.11928955021222
656 40.19055678075504
657 40.11800623738714
658 40.18850076773876
659 40.11610872697378
660 40.18553122969824
661 40.11344122766583
662 40.18330427231889
663 40.10966663895519
664 40.17918177211248
665 40.10587432457041
666 40.17649159402113
667 40.10293279592961
668 40.17316443235604
669 40.09981233126946
670 40.1700633345521
671 40.09662771747286
672 40.16580939563302
673 40.09423644296795
674 40.16430500987867
675 40.09225646012136
676 40.1621525631212
677 40.09149438489965
678 40.16043087135647
679 40.0883162504195
680 40.15796843304796
681 40.08546643276006
682 40.15557683730108
683 40.08412329683046
684 40.15180689284978
685 40.08083585800161
686 40.15023735947599
687 40.07910191747693
688 40.14835807819084
689 40.0780974591154
690 40.14730669644402
691 40.07706831897989
692 40.14551552415374
693 40.07478355238521
694 40.14257565174676
695 40.07261651766713
696 40.1410287262313
697 40.07129471271818
698 40.13915295534299
699 40.06836973269584
700 40.13605204231339
701 40.06634095506909
702 40.13326954077027
703 40.06306597760189
704 40.12658891305769
705 40.0608673282909
706 40.1272785559295
707 40.059118339367
708 40.12535264029616
709 40.05778725131241
710 40.12437311823149
711 40.0559988392045
712 40.12093846160879
713 40.05289585220662
714 40.1189143320512
715 40.05168602628259
716 40.11524470758076
717 40.0483821885466
718 40.11351692299411
719 40.0474742552102
720 40.11334013840265
721 40.04493081862231
722 40.11207778241729
723 40.04350921469192
724 40.11146737413673
725 40.04065939291857
726 40.109653735955
727 40.0366291090273
728 40.10749408041635
729 40.03581395547511
730 40.10783523941988
731 40.03343364411887
732 40.10595238556864
733 40.03182249889537
734 40.10537501349076
735 40.02965273774733
736 40.10053262250167
737 40.02762041885723
738 40.09938507622928
739 40.02644173945058
740 40.09872078704859
741 40.02484849531704
742 40.09717468699652
743 40.02518259665875
744 40.09488748909318
745 40.02197393682351
746 40.09519037256609
747 40.02188488362891
748 40.09324880967051
749 40.02064875093534
750 40.09305806401391
751 40.01941677096461
752 40.09113580600035
753 40.0189953931658
754 40.09028881496211
755 40.017934203935
756 40.08851253955505
757 40.01577026020313
758 40.08588789764796
759 40.01190208528233
760 40.08189323986641
761 40.01112760521049
762 40.07938959368911
763 40.0085012882641
764 40.07639259502989
765 40.00732250970267
766 40.07502302823444
767 40.00694392301377
768 40.07400956737341
769 40.00482279716927
770 40.07365409487959
771 40.00559624353615
772 40.07287010295774
773 40.00606341029706
774 40.0705235775453
775 40.00720094872813
776 40.07135594487728
777 40.00483718433611
778 40.07046480845742
779 40.00267130963482
780 40.06840955830743
781 40.00034844916978
782 40.06783132158589
783 39.99861104572899
784 40.06578294055412
785 39.99829999515843
786 40.06536879229196
787 39.99699071303039
788 40.0638144741114
789 39.99573325233554
790 40.06358149737
791 39.99438342736753
792 40.06236156804749
793 39.99316696330383
794 40.0627241492929
795 39.9929220901858
796 40.0605731748064
797 39.99032074558745
798 40.05854274863069
799 39.9893375984025
800 40.05652899065377
801 39.98814872661585
802 40.05488545046673
803 39.98701610722546
804 40.05193010092798
805 39.98694275239755
806 40.05363508818208
807 39.98692327725774
808 40.05518812407944
809 39.98624417870488
810 40.05435320105591
811 39.98445797152306
812 40.05244485994102
813 39.98338357146904
814 40.05184343671487
815 39.9815115506463
816 40.05151117327769
817 39.98002119589781
818 40.05148755734621
819 39.97871976772224
820 40.05069379205214
821 39.97649477610408
822 40.04909698503604
823 39.97414755511387
824 40.04737452245507
825 39.97306669441998
826 40.04608282224296
827 39.97270782520067
828 40.04454696211781
829 39.97047056078873
830 40.0434731510564
831 39.96958059786842
832 40.04103703219852
833 39.96974644283638
834 40.03955440269623
835 39.96972911087835
836 40.04111203142421
837 39.97174034309919
838 40.04096258415511
839 39.9696629300133
840 40.03990916969826
841 39.96893098432681
842 40.03865080102907
843 39.96759960856897
844 40.03633309492672
845 39.96671563981661
846 40.03703770867979
847 39.96696577750586
848 40.03712810217699
849 39.96668887488557
850 40.03598913948687
851 39.96631264331008
852 40.03511645782039
853 39.96501876697445
854 40.03417971017831
855 39.96316916992005
856 40.03257071912792
857 39.96188690364163
858 40.03173881248168
859 39.96158345317335
860 40.0309513590701
861 39.9612552266476
862 40.02972620881189
863 39.95985205005079
864 40.02428422712359
865 39.95954007997952
866 40.02686868495996
867 39.95974655262956
868 40.02762288194054
869 39.96004315413189
870 40.0277592059428
871 39.95766428701008
872 40.0261432947236
873 39.95790928021653
874 40.0261280811895
875 39.95667156433759
876 40.02459283254586
877 39.95459227282342
878 40.02469742947766
879 39.95530615034788
880 40.02517142599913
881 39.95527547854839
882 40.02479164293172
883 39.95453039255848
884 40.02477695048102
885 39.95406168112928
886 40.02333589118044
887 39.95326862366441
888 40.02351229208997
889 39.95290309949907
890 40.02289330163864
891 39.95102233765338
892 40.02163188964444
893 39.95138484290854
894 40.01867286991794
895 39.94852013135743
896 40.01786757550776
897 39.94881980040287
898 40.0207589548579
899 39.9494144372193
900 40.02204449411478
901 39.94837786122405
902 40.02134940487564
903 39.94789916375535
904 40.02129806794558
905 39.94709180216186
906 40.02105315395836
907 39.94568748804997
908 40.0193579808046
909 39.94448292092206
910 40.0188809139287
911 39.94612146120154
912 40.01966561853379
913 39.94520936404877
914 40.01953913451219
915 39.9455678341544
916 40.01773350442851
917 39.94588129413571
918 40.01647028790704
919 39.94262077306551
920 40.01356063833405
921 39.94269479821512
922 40.01239163600479
923 39.94219330622261
924 40.00779474309419
925 39.94198418217854
926 40.00936910410633
927 39.9421463099197
928 40.0082804232777
929 39.94159061456033
930 40.00915709313551
931 39.94028695157685
932 40.01007983491042
933 39.94171721400824
934 40.01019948009296
935 39.94228073342165
936 40.01179403343579
937 39.94200710854808
938 40.01271442640885
939 39.94200914033602
940 40.01121138992453
941 39.94046039541029
942 40.01081260152475
943 39.94031046425446
944 40.01059865207564
945 39.94104475411881
946 40.01006347729275
947 39.93921804061969
948 40.00921713976933
949 39.93870568885387
950 40.00820388593866
951 39.93602040467686
952 40.00516636904432
953 39.93646033254342
954 40.00270483452505
955 39.93646204072622
956 40.00410384745609
957 39.93656529712091
958 40.00448294966748
959 39.93581847254251
960 40.003208209485
961 39.93412325475891
962 40.00330364029401
963 39.93527298908437
964 40.00495898753907
965 39.93577873014466
966 40.0054551178279
967 39.93499508487515
968 40.00666001134194
969 39.93517310151665
970 40.00689621025411
971 39.93353855507929
972 40.00542433477217
973 39.93439062628027
974 40.00720117273929
975 39.93389066478053
976 40.00635950526936
977 39.93455106248376
978 40.00663280903285
979 39.93196029844074
980 40.00495332558954
981 39.93049018490275
982 40.00378167752983
983 39.92791457527194
984 40.00026275765667
985 39.92778627003162
986 40.00054620493387
987 39.92802869480548
988 40.00166230411143
989 39.92851714061128
990 40.00160350580087
991 39.9281339417204
992 39.99916703357339
993 39.92896044874947
994 40.00060883094695
995 39.93131612792308
996 40.00138905931639
997 39.93208307742325
998 40.00313160352114
999 39.93264362842097
1000 40.00256917297921
1001 39.93160969386251
1002 40.00090071922757
1003 39.92909527901704
1004 39.99801986814916
1005 39.92892178566081
1006 39.99778404313943
1007 39.92872507504486
1008 39.99836849987545
1009 39.92854602533174
1010 39.99865261109191
1011 39.92836306761938
1012 39.99853588916122
1013 39.92634596533508
1014 39.99519769027033
1015 39.92782567281709
1016 39.99803035475554
1017 39.92775229498669
1018 39.99809304639941
1019 39.92715130829615
1020 39.99741799518554
1021 39.92542854909277
1022 39.99552109914174
1023 39.92522427067661
1024 39.99329257539532
1025 39.92519774070136
1026 39.9943258405565
1027 39.92575720843521
1028 39.99521188089211
1029 39.92611160934619
1030 39.99521214826164
1031 39.92528027259466
1032 39.99337153821554
1033 39.92482363157697
1034 39.99458840865198
1035 39.92525050813335
1036 39.99123716748924
1037 39.9245259205431
1038 39.99158717074056
1039 39.92583258826659
1040 39.99178725972074
1041 39.92462704199102
1042 39.99152190481571
1043 39.92468270064757
1044 39.9890416621606
1045 39.92367657472765
1046 39.99085632113289
1047 39.92345503232274
1048 39.9927975861353
1049 39.92430530708749
1050 39.99488298004781
1051 39.92334140535409
1052 39.99462176357386
1053 39.92348130794873
1054 39.99520436256792
1055 39.92257346333877
1056 39.99368234355425
1057 39.92230028834963
1058 39.99563051946525
1059 39.92154500226766
1060 39.99536627744222
1061 39.9220661776686
1062 39.99626626218845
1063 39.92086376399546
1064 39.99539592338136
1065 39.92056864023183
1066 39.99530515980417
1067 39.91929865442435
1068 39.99263653552991
1069 39.91873668233931
1070 39.99268392874912
1071 39.9200584718178
1072 39.99299960055817
1073 39.92042631754837
1074 39.98989680384496
1075 39.92156855359761
1076 39.99196363923389
1077 39.92101543122578
1078 39.99209472730569
1079 39.92017293436161
1080 39.99312456225383
1081 39.91945592996162
1082 39.99253816406021
1083 39.91916995450013
1084 39.9907707347263
1085 39.91808391529617
1086 39.99017851210161
1087 39.91761424011501
1088 39.98880788299049
1089 39.91831945827435
1090 39.99013519310522
1091 39.91894110466272
1092 39.9906334637417
1093 39.91964371191003
1094 39.99167027131623
1095 39.92068219032537
1096 39.99060768808072
1097 39.91927935855394
1098 39.98950339279506
1099 39.92018148961156
1100 39.98809387237969
1101 39.9181408825269
1102 39.9867111655612
1103 39.91908746746756
1104 39.98525196269615
1105 39.91999895460741
1106 39.98858979474875
1107 39.9201924031032
1108 39.98870464191184
1109 39.92053528735816
1110 39.98894210133817
1111 39.9173108863433
1112 39.98646269711301
1113 39.91829840179604
1114 39.98723835474966
1115 39.91784293520514
1116 39.98704474969531
1117 39.91793717521159
1118 39.98818783327717
1119 39.91938880965752
1120 39.98770937403841
1121 39.91762518922093
1122 39.98651290300673
1123 39.91801178892321
1124 39.98737399876423
1125 39.91867649042257
1126 39.98685191720646
1127 39.91927577981961
1128 39.98667686913198
1129 39.91853757595422
1130 39.98628447781734
1131 39.91736075695121
1132 39.98450561710546
1133 39.91690741451096
1134 39.98175882808896
1135 39.91732393065142
1136 39.9843015012427
1137 39.91895495774544
1138 39.98626953078482
1139 39.91831126942143
1140 39.98697419726239
1141 39.91804255129883
1142 39.98662502455546
1143 39.91686641439042
1144 39.98730093780573
1145 39.91619369251436
1146 39.98706468082026
1147 39.91571592046864
1148 39.9884533584389
1149 39.91676905822023
1150 39.98781083469379
1151 39.91533855359897
1152 39.98704785767078
1153 39.91359257676864
1154 39.9867822735571
1155 39.91438810149858
1156 39.98813713218183
1157 39.91458533723485
1158 39.98772179963004
1159 39.9137196084753
1160 39.98831326435901
1161 39.91456468877155
1162 39.98787025274824
1163 39.91401529455633
1164 39.98301631095655
1165 39.91373979720151
1166 39.98455049865401
1167 39.91414850423919
1168 39.98601561412953
1169 39.91559036491086
1170 39.98849970386583
1171 39.9130408312764
1172 39.98715059496394
1173 39.91471612208362
1174 39.98770593880957
1175 39.91427639584543
1176 39.98735124963787
1177 39.91453521824588
1178 39.98744990947297
1179 39.91458537051581
1180 39.98682785160285
1181 39.91447983149411
1182 39.98626519791816
1183 39.91516204180735
1184 39.98499453856331
1185 39.91387865673916
1186 39.98435844688441
1187 39.91523364648123
1188 39.98551112429569
1189 39.91547006898946
1190 39.98502920202566
1191 39.91429527035562
1192 39.98422727984936
1193 39.91461412773186
1194 39.98034171395379
1195 39.91355814892506
1196 39.98137236620579
1197 39.91319395422414
1198 39.98243110784283
1199 39.91475566647534
1200 39.98418138759887
1201 39.9146306937097
1202 39.98374852427578
1203 39.9153119295198
1204 39.98367434977155
1205 39.91319625054234
1206 39.98263445366651
1207 39.91332019635034
1208 39.98356587876064
1209 39.91210614476883
1210 39.98371798756634
1211 39.91223509149945
1212 39.98309612217151
1213 39.91352422532331
1214 39.9845608746204
1215 39.91460461295974
1216 39.98272599222114
1217 39.91383982423783
1218 39.98361464632571
1219 39.91503873270818
1220 39.98436166177696
1221 39.91568811106147
1222 39.98488260399167
1223 39.91539461838678
1224 39.98130132251856
1225 39.91517648966814
1226 39.98297203074373
1227 39.91371639871813
1228 39.98054263166802
1229 39.91219002854285
1230 39.9812381775358
1231 39.91274482112107
1232 39.9809642908755
1233 39.91378075027519
1234 39.9827056061545
1235 39.91391999501749
1236 39.98262129313562
1237 39.91244424180121
1238 39.98154872435022
1239 39.91332180414183
1240 39.9822703660908
1241 39.91264716727457
1242 39.98203812322151
1243 39.9135679721967
1244 39.98258890332707
1245 39.91356631201791
1246 39.98223269685791
1247 39.91222809863524
1248 39.98091394752831
1249 39.91203517332961
1250 39.98297600043627
1251 39.91385280069147
1252 39.98348895855356
1253 39.91486077229089
1254 39.98193398155204
1255 39.91447735591804
1256 39.98341461088556
1257 39.91353895257867
1258 39.98394142008809
1259 39.91361656212685
1260 39.98368955449726
1261 39.91062098024304
1262 39.98288187350872
1263 39.91165560142136
1264 39.98314794135246
1265 39.91152314312895
1266 39.98265171514889
1267 39.91065867661496
1268 39.98250382076031
1269 39.91016813105056
1270 39.98159004275364
1271 39.90999870733058
1272 39.98231073869405
1273 39.91053712071385
1274 39.98331517055306
1275 39.91020937900844
1276 39.98221045049952
1277 39.91089732812351
1278 39.98172982205883
1279 39.91088105897417
1280 39.97925893655831
1281 39.91112821537483
1282 39.98107279752797
1283 39.91193980114519
1284 39.97826171758469
1285 39.91302205318285
1286 39.98169157399686
1287 39.91275577148215
1288 39.98292420715748
1289 39.91228384228148
1290 39.98264811234706
1291 39.9121403478489
1292 39.98198246275083
1293 39.91134122812013
1294 39.98251081135211
1295 39.91121864593764
1296 39.98482959217706
1297 39.91144162271794
1298 39.9851882178733
1299 39.91068742226881
1300 39.98570133061813
1301 39.91024941778569
1302 39.98483858042887
1303 39.90919209544169
1304 39.9845657266767
1305 39.90994382658666
1306 39.98433443477555
1307 39.90953074656243
1308 39.98475165652605
1309 39.91020320530183
1310 39.98359288184247
1311 39.9110107246006
1312 39.98233646789503
1313 39.91166593379788
1314 39.97879888496872
1315 39.91293708210357
1316 39.98069486311522
1317 39.91228539522126
1318 39.97952118685218
1319 39.91170718265376
1320 39.97949368435328
1321 39.9103239673854
1322 39.97834263482665
1323 39.91068237942224
1324 39.97664847258103
1325 39.90998479233792
1326 39.97786400162872
1327 39.9095156593008
1328 39.97843379224172
1329 39.91166851035167
1330 39.97927620927881
1331 39.91214684284591
1332 39.98049436351746
1333 39.9127025039386
1334 39.9817536861183
1335 39.91186123555288
1336 39.98123657922817
1337 39.91229670925587
1338 39.98201115491386
1339 39.91246405818898
1340 39.98222810946273
1341 39.91139475635615
1342 39.9814132062665
1343 39.91182222300012
1344 39.97754686490149
1345 39.91048573900669
1346 39.97960252619396
1347 39.91117081453699
1348 39.98151310332999
1349 39.9117731512158
1350 39.98225140943066
1351 39.91069763097826
1352 39.98175370102716
1353 39.91049061161745
1354 39.98185914922304
1355 39.90993316995561
1356 39.98057563203982
1357 39.90932552216815
1358 39.98153470805943
1359 39.90886368256687
1360 39.98171752463988
1361 39.90855559899455
1362 39.9817846880714
1363 39.9083933232339
1364 39.98187165069551
1365 39.90836211247302
1366 39.98215911517821
1367 39.90773260609907
1368 39.98131662998742
1369 39.90758223043888
1370 39.9819390092176
1371 39.90820287279543
1372 39.9805025556513
1373 39.90703950492765
1374 39.97753171543823
1375 39.90882051368333
1376 39.97731117539353
1377 39.90828908589543
1378 39.97941141435381
1379 39.91012608620215
1380 39.98097979011013
1381 39.91113763973866
1382 39.9826313918121
1383 39.91090676912933
1384 39.98262495630269
1385 39.911102110607
1386 39.98274250046927
1387 39.91027256435515
1388 39.9815474467359
1389 39.90997046059114
1390 39.98081582332497
1391 39.90991413236399
1392 39.98022855196855
1393 39.91005426941181
1394 39.98094196034768
1395 39.91015181772384
1396 39.98057291619453
1397 39.90830073289225
1398 39.9790111066086
1399 39.90907760274688
1400 39.97869496475113
1401 39.90842099444183
1402 39.97798277097104
1403 39.91011727152295
1404 39.97668136154796
1405 39.91044987893494
1406 39.97892861652547
1407 39.91139440822869
1408 39.9797899591502
1409 39.910674263456
1410 39.98063195272218
1411 39.91049153578521
1412 39.98127683307487
1413 39.91151757822789
1414 39.9819095087835
1415 39.91087179155066
1416 39.98223794282553
1417 39.90994834006332
1418 39.98214594707889
1419 39.9092365821808
1420 39.97921305051878
1421 39.90695718165074
1422 39.97879767687522
1423 39.90719127964496
1424 39.97968276001361
1425 39.908692724831
1426 39.97991085295292
1427 39.90955086559411
1428 39.97963626287966
1429 39.909527164328
1430 39.97996226440498
1431 39.90991748496536
1432 39.97947701874922
1433 39.90931066404942
1434 39.97702052153338
1435 39.9096567350982
1436 39.97830098261178
1437 39.91015936825833
1438 39.97794239322892
1439 39.90991128821219
1440 39.97745312213721
1441 39.90983412960018
1442 39.97793965905937
1443 39.91116284954733
1444 39.97866420986347
1445 39.91179725291855
1446 39.97921561177695
1447 39.9113684492248
1448 39.98031855052965
1449 39.9110155274663
1450 39.980241856352
1451 39.91058067511023
1452 39.97953203455535
1453 39.90897407077332
1454 39.97994638442159
1455 39.91035276946489
1456 39.98111223035527
1457 39.91065499632192
1458 39.98155402312189
1459 39.91035099689336
1460 39.98213700651593
1461 39.90944905825587
1462 39.98154003707722
1463 39.90855842755064
1464 39.97843043881255
1465 39.90855974095795
1466 39.98149036226656
1467 39.90859425906506
1468 39.98111199265769
1469 39.90778032934806
1470 39.98145871442042
1471 39.90560865817663
1472 39.97823905577413
1473 39.90577848816351
1474 39.98072840727093
1475 39.90668618118583
1476 39.98116020360391
1477 39.90795684877775
1478 39.98196986161491
1479 39.90972351499173
1480 39.98129027531082
1481 39.90833163773205
1482 39.98028459495743
1483 39.90830965039
1484 39.97828819371436
1485 39.90837590279613
1486 39.97778091087631
1487 39.90992285305578
1488 39.97840071711516
1489 39.91117078813082
1490 39.98031804208382
1491 39.91171024429383
1492 39.97989887218184
1493 39.91234185155736
1494 39.98134609153096
1495 39.9111666549496
1496 39.98150846694175
1497 39.91255142696269
1498 39.98232718026886
1499 39.91202342706124
1500 39.98177823337418
1501 39.91051280721116
1502 39.98167378793747
1503 39.91117493991239
1504 39.97956753837619
1505 39.90867853601474
1506 39.97887978906879
1507 39.90832849536503
1508 39.97964521592063
1509 39.90854362252791
1510 39.97829241473353
1511 39.90782988476719
1512 39.97833897251829
1513 39.90697825374064
1514 39.97834046244383
1515 39.9078867542671
1516 39.97754691183266
1517 39.90870084409865
1518 39.97748154577578
1519 39.90892363189138
1520 39.97899316001611
1521 39.91147634464005
1522 39.98013421320834
1523 39.91211883553098
1524 39.97775607614413
1525 39.91279178455507
1526 39.97983909959527
1527 39.91258413598535
1528 39.98010499686013
1529 39.91212410444106
1530 39.98094274519391
1531 39.91200675934478
1532 39.98107427629118
1533 39.91101880748272
1534 39.98006720115929
1535 39.90955131605354
1536 39.97730373580026
1537 39.90750766296342
1538 39.97681224437184
1539 39.9088792441575
1540 39.97831832799999
1541 39.90858319111003
1542 39.97783438809477
1543 39.90849061279565
1544 39.97750150657443
1545 39.91000738043991
1546 39.97854056757502
1547 39.9084564871083
1548 39.97652543714047
1549 39.90849042847294
1550 39.97848862558666
1551 39.90923704517475
1552 39.97908787918092
1553 39.91055238515771
1554 39.98093751472549
1555 39.90962797483097
1556 39.98145666212388
1557 39.91049068095242
1558 39.98176316841946
1559 39.90975610868303
1560 39.98224137495453
1561 39.90915828006624
1562 39.98223359507827
1563 39.91034819202974
1564 39.97893799213558
1565 39.9101242360006
1566 39.98097550596621
1567 39.90944710732364
1568 39.97990969906668
1569 39.90918505712487
1570 39.98110710209428
1571 39.90938169472577
1572 39.98102332205686
1573 39.90908698482518
1574 39.98236422741342
1575 39.90758300769996
1576 39.98043477772919
1577 39.90612813362848
1578 39.98026372934363
1579 39.9051246943644
1580 39.97803218514905
1581 39.90554437975428
1582 39.97967397853363
1583 39.90721374576798
1584 39.98196161097455
1585 39.90795768971461
1586 39.98314023769774
1587 39.9095341051126
1588 39.98322416853296
1589 39.90950869563101
1590 39.98195225803877
1591 39.90940264126118
1592 39.98098476683573
1593 39.91063505741106
1594 39.98042090101826
1595 39.91032240135137
1596 39.97946765498192
1597 39.9089881711101
1598 39.97821168874825
1599 39.90911959127606
1600 39.97575632933491
1601 39.9082409174667
1602 39.97612506665607
1603 39.9084717329271
1604 39.97368054645246
1605 39.90959985275368
1606 39.97498630880061
1607 39.90932931151777
1608 39.97590004348365
1609 39.90979357271444
1610 39.9783655814544
1611 39.90999648515188
1612 39.97661911271989
1613 39.91075685984141
1614 39.97853157114181
1615 39.91215212215145
1616 39.98023522274817
1617 39.91338057303604
1618 39.98127669609286
1619 39.91383213925
1620 39.98117172457477
1621 39.91151440066105
1622 39.98131202881853
1623 39.91052548371579
1624 39.98069360369753
1625 39.9091983323996
1626 39.97956234624134
1627 39.90780265289724
1628 39.97942468229023
1629 39.9089461509183
1630 39.97884280998423
1631 39.90686432843219
1632 39.97640308106777
1633 39.90683676874728
1634 39.97517767561489
1635 39.90786249381499
1636 39.97668762658022
1637 39.90888895674473
1638 39.97813370501608
1639 39.90969831358612
1640 39.97842352684167
1641 39.91050940541126
1642 39.97906651345628
1643 39.91050160308991
1644 39.97723172622896
1645 39.91046992822527
1646 39.97857968248024
1647 39.91132068988391
1648 39.97977034700499
1649 39.91081164938874
1650 39.98022537789478
1651 39.91001324848147
1652 39.98060592817405
1653 39.90865730032539
1654 39.98024539280534
1655 39.90802476474489
1656 39.98027481044127
1657 39.90654445594112
1658 39.9809470428597
1659 39.90705112981948
1660 39.98094832416947
1661 39.9068629966287
1662 39.9808584164143
1663 39.90604454069352
1664 39.97591905968224
1665 39.90869296308709
1666 39.97974836030913
1667 39.90946666693155
1668 39.9805067963484
1669 39.90965502605126
1670 39.98090489894638
1671 39.91033913295536
1672 39.97976442073488
1673 39.90856646285926
1674 39.9792283242314
1675 39.90788445799793
1676 39.97761814750892
1677 39.90699326262521
1678 39.9776371694014
1679 39.90898472279999
1680 39.97883823930085
1681 39.90895134226165
1682 39.97984398079785
1683 39.90967745838922
1684 39.98051882034043
1685 39.90853438233539
1686 39.98070804291311
1687 39.90716493308648
1688 39.98020561985
1689 39.90808058241192
1690 39.98050919657505
1691 39.90822004763473
1692 39.98014705669249
1693 39.90882465220125
1694 39.97835064022839
1695 39.90877033035634
1696 39.97825121213296
1697 39.90857810422496
1698 39.97919410310654
1699 39.90935035545282
1700 39.9811116065699
1701 39.90943138124025
1702 39.97934098762619
1703 39.91018434462094
1704 39.97949565850389
1705 39.9083374270529
1706 39.97791257530018
1707 39.9083870784193
1708 39.9760323559228
1709 39.90656134752575
1710 39.97621655479216
1711 39.907194795071
1712 39.97656453347372
1713 39.90942207032594
1714 39.97888282329587
1715 39.90948404296623
1716 39.97740489642353
1717 39.91058097226015
1718 39.97851196453222
1719 39.91078908577575
1720 39.97760542841575
1721 39.91033505515118
1722 39.97798281783562
1723 39.91006795957422
1724 39.97486615951853
1725 39.91145442084844
1726 39.97802560072655
1727 39.91071938896633
1728 39.97806614042474
1729 39.90941311094024
1730 39.97974503827255
1731 39.91127072544691
1732 39.9800093530451
1733 39.91023684605933
1734 39.98095127811477
1735 39.90951781519743
1736 39.98078416844765
1737 39.90972482572735
1738 39.9810742376776
1739 39.91008635824318
1740 39.97992430284938
1741 39.90833477025909
1742 39.98080562574743
1743 39.90797500559366
1744 39.97929433791107
1745 39.90802104914067
1746 39.98006127745157
1747 39.90669936400756
1748 39.97842002218911
1749 39.90722576487977
1750 39.97905674885661
1751 39.90610024049355
1752 39.9786147278039
1753 39.90613147757517
1754 39.97761673903399
1755 39.90735688170419
1756 39.97913880848743
1757 39.90768088628273
1758 39.97991584277203
1759 39.90824145988695
1760 39.97961917148171
1761 39.90680352846006
1762 39.97933045301316
1763 39.90949910076738
1764 39.9808637359891
1765 39.90876883092049
1766 39.98083059964399
1767 39.90964080932898
1768 39.98079144634858
1769 39.90920952941293
1770 39.98076007978028
1771 39.90804055500982
1772 39.9788597758192
1773 39.90896034099988
1774 39.979996670128
1775 39.91040798398597
1776 39.9817687797572
1777 39.91241939087988
1778 39.98169650383221
1779 39.91158297171044
1780 39.98087596938771
1781 39.9110740599372
1782 39.98029347441148
1783 39.90984837262203
1784 39.97685795001598
1785 39.90931246244087
1786 39.97725347697327
1787 39.90876064704304
1788 39.97721151895348
1789 39.90756056400457
1790 39.9771340550496
1791 39.90726177575296
1792 39.97502020036109
1793 39.9070139110006
1794 39.97547276708325
1795 39.90809452380716
1796 39.97730349425726
1797 39.90960021007029
1798 39.97757695720691
1799 39.90871374458155
1800 39.97781969764573
1801 39.90827961132475
1802 39.97835940407332
1803 39.90804223976617
1804 39.97581438587623
1805 39.90738501760566
1806 39.97632681827718
1807 39.90799496335259
1808 39.97693514861747
1809 39.91092893886814
1810 39.97912651274494
1811 39.90998457807573
1812 39.97842916173179
1813 39.90876539571885
1814 39.97599704919988
1815 39.90937815458784
1816 39.97734838086065
1817 39.91014326832205
1818 39.97829653750698
1819 39.91021019267146
1820 39.97897391499245
1821 39.91035608604489
1822 39.9766830152154
1823 39.91009771138339
1824 39.97636656660794
1825 39.91003973068607
1826 39.97839340038384
1827 39.91018008604995
1828 39.97911483503821
1829 39.91192052250052
1830 39.9799028971689
1831 39.91042332628933
1832 39.97997827013852
1833 39.91124401867916
1834 39.98138505914049
1835 39.91079623613163
1836 39.98005585316008
1837 39.9094645094361
1838 39.98114039281894
1839 39.91019137707599
1840 39.98076720843721
1841 39.91030312699537
1842 39.98021553235756
1843 39.90996529627459
1844 39.97636248566316
1845 39.9096772598531
1846 39.97631517465143
1847 39.90868008111139
1848 39.97724640968949
1849 39.90725640891046
1850 39.977567467001
1851 39.90742577187018
1852 39.97662474614278
1853 39.90773329557284
1854 39.97801163308118
1855 39.90747547115106
1856 39.97593957387036
1857 39.90914468599022
1858 39.97883846974355
1859 39.90954113354955
1860 39.97902837849097
1861 39.91104408624751
1862 39.98185298367201
1863 39.91032551684402
1864 39.9808438480278
1865 39.90967612329945
1866 39.98134035853174
1867 39.90882258874629
1868 39.97904362585822
1869 39.90808437833518
1870 39.97789464636752
1871 39.90957476267258
1872 39.97872351422171
1873 39.90882570795798
1874 39.97846961112738
1875 39.90966896213699
1876 39.9785078548657
1877 39.90849006012851
1878 39.97771103530602
1879 39.90787585229017
1880 39.97708980018717
1881 39.90831190607044
1882 39.9767722418413
1883 39.90864917501442
1884 39.97616970699714
1885 39.90844100051445
1886 39.9760662842964
1887 39.90857063791265
1888 39.9750919269348
1889 39.90958752062762
1890 39.97761751316488
1891 39.91097521818622
1892 39.97978526335182
1893 39.91202607949796
1894 39.98114128658489
1895 39.91264976175839
1896 39.98114973297295
1897 39.91082575363556
1898 39.98165147715949
1899 39.91163316209011
1900 39.97974481440384
1901 39.90959876426975
1902 39.98067935242268
1903 39.91006718359436
1904 39.9774493369554
1905 39.91079399306638
1906 39.97925721159432
1907 39.90990008311891
1908 39.97974920501934
1909 39.90922272535794
1910 39.97934819700735
1911 39.90714195579611
1912 39.9774124760027
1913 39.90710051065516
1914 39.97665493248477
1915 39.90592878480428
1916 39.97544606591812
1917 39.90772208141867
1918 39.97622350028153
1919 39.90865975918859
1920 39.97610756594181
1921 39.90907724485547
1922 39.97706912832327
1923 39.90992955672831
1924 39.97830848992236
1925 39.9102094308062
1926 39.97835422140463
1927 39.91002254520385
1928 39.97948157983697
1929 39.91043228078664
1930 39.97967068922709
1931 39.91008876778656
1932 39.97893617619435
1933 39.91013231549925
1934 39.9797392839566
1935 39.91146732393947
1936 39.98099712077799
1937 39.9122355389765
1938 39.981653291455
1939 39.91144115692742
1940 39.98147723124327
1941 39.91075492728654
1942 39.98137991736999
1943 39.90906210995841
1944 39.97831932619583
1945 39.90857889347292
1946 39.97951845505055
1947 39.908464781313
1948 39.9784403702922
1949 39.9074749170075
1950 39.97780065951814
1951 39.90656624589408
1952 39.97585159831112
1953 39.90623006971151
1954 39.97636248860773
1955 39.90856578680644
1956 39.97834101238972
1957 39.90947615766306
1958 39.97797445575662
1959 39.91097527304679
1960 39.97761161822339
1961 39.90991086453755
1962 39.97720437491588
1963 39.90941470164672
1964 39.97473057061283
1965 39.90862048577133
1966 39.975026577251
1967 39.90853570534583
1968 39.97543044411275
1969 39.91039413706133
1970 39.97771262029208
1971 39.91076547138682
1972 39.97804863400383
1973 39.91092082419863
1974 39.97659476061455
1975 39.9099555533427
1976 39.97763835829382
1977 39.90973201781105
1978 39.98024661900823
1979 39.90994031611714
1980 39.98108588053844
1981 39.90872769239708
1982 39.98109688464658
1983 39.90878619339665
1984 39.97881693771511
1985 39.90806012308286
1986 39.97922749627665
1987 39.90750463511743
1988 39.97979157958746
1989 39.90787821812668
1990 39.97934223723065
1991 39.90797553840587
1992 39.97859574039388
1993 39.90776646549524
1994 39.97936992623374
1995 39.90736576428697
1996 39.97606874375198
1997 39.90867429725447
1998 39.97641718581362
1999 39.90935130381219
2000 39.97602941151708
2001 39.91103445603994
2002 39.97762248951855
2003 39.911067069815
2004 39.97659790680508
2005 39.9096680065749
2006 39.97729653327292
2007 39.90940145346391
2008 39.97721710664744
2009 39.9085053860515
2010 39.97744631482426
2011 39.90962780194148
2012 39.97819121218034
2013 39.90895948508648
2014 39.97634462084608
2015 39.91021511037572
2016 39.97676359076443
2017 39.90856413690049
2018 39.97831963433918
2019 39.90951730343669
2020 39.97949668232034
2021 39.90961910264845
2022 39.97994262861549
2023 39.90897571791785
2024 39.97875982554378
2025 39.90871308867754
2026 39.97891838619129
2027 39.90805443189766
2028 39.97705045905676
2029 39.90708986268032
2030 39.9771096235267
2031 39.90726118083045
2032 39.97768959455048
2033 39.9102520741539
2034 39.97936810607214
2035 39.9101844988868
2036 39.97915600673358
2037 39.90967308413946
2038 39.97857451706298
2039 39.90997810435569
2040 39.97846159846461
2041 39.90844127041947
2042 39.9789357332819
2043 39.90873494884143
2044 39.97577922483875
2045 39.90958599581921
2046 39.97887871617439
2047 39.90907117629222
2048 39.9777252353899
2049 39.90974572136588
2050 39.97969442481712
2051 39.9101014809431
2052 39.97947732860003
2053 39.91172340910345
2054 39.98130388527635
2055 39.91066591156398
2056 39.98018744302196
2057 39.9107839372064
2058 39.98037110703423
2059 39.90799029212155
2060 39.97813326044501
2061 39.90772837557441
2062 39.97781810610221
2063 39.90828135531609
2064 39.97831019730392
2065 39.90867518920731
2066 39.97845953307936
2067 39.90888276000384
2068 39.97820374414393
2069 39.90890298876005
2070 39.97820314174007
2071 39.90849652178639
2072 39.97840288645781
2073 39.90772988368836
2074 39.97547831925273
2075 39.90934075416629
2076 39.97766198743266
2077 39.90944780094494
2078 39.97867739979057
2079 39.91004951769674
2080 39.9782410389673
2081 39.9091442738678
2082 39.97784193764641
2083 39.9084354650736
2084 39.97867449987216
2085 39.91020038295632
2086 39.97926302044755
2087 39.9099292985145
2088 39.98000184898562
2089 39.90868227628862
2090 39.98040384521892
2091 39.90739339061664
2092 39.97902846352849
2093 39.90525957578237
2094 39.97912240761674
2095 39.90571678170984
2096 39.98059652208791
2097 39.9067880786062
2098 39.98121138834382
2099 39.90753472485402
2100 39.98246951333
2101 39.90736482480332
2102 39.98291391766919
2103 39.90763001175569
2104 39.98001461386387
2105 39.90777147621429
2106 39.98144784677667
2107 39.90792763731904
2108 39.98188490299994
2109 39.90930357637507
2110 39.98302937197851
2111 39.90852354983148
2112 39.97924943650901
2113 39.90949629922507
2114 39.9806195124084
2115 39.910389100065
2116 39.97933507837154
2117 39.91177408137639
2118 39.9792211623391
2119 39.91111910203027
2120 39.97783618632156
2121 39.90897236646553
2122 39.97627811357027
2123 39.90890511926362
2124 39.97477458393462
2125 39.90697357115224
2126 39.9753977900826
2127 39.90816148122623
2128 39.97653015312677
2129 39.90862398301249
2130 39.97865767933338
2131 39.90780616549897
2132 39.97898545461388
2133 39.90870737197762
2134 39.97749237470301
2135 39.9083801599778
2136 39.9791795265166
2137 39.90960258164488
2138 39.98083781788206
2139 39.90955681877073
2140 39.97885932565651
2141 39.9094784333846
2142 39.97879159670587
2143 39.91047536360131
2144 39.97712553124991
2145 39.90956529690784
2146 39.97794211572953
2147 39.9123790714517
2148 39.97879161320381
2149 39.91224406474367
2150 39.97893187943951
2151 39.91143938146615
2152 39.97705296517606
2153 39.90949864018832
2154 39.97634876840838
2155 39.90819121865456
2156 39.97483829138646
2157 39.90752084137991
2158 39.97551372416508
2159 39.90765309792951
2160 39.97684405316738
2161 39.9091940341164
2162 39.97958299500497
2163 39.90914572071862
2164 39.97657760077826
2165 39.90959391456369
2166 39.97824822463199
2167 39.90949064425525
2168 39.97987546730236
2169 39.91044734138075
2170 39.98107065401486
2171 39.90960846180855
2172 39.98011822497096
2173 39.91047595812533
2174 39.98057132352616
2175 39.91124245308613
2176 39.97894951717055
2177 39.90960642377964
2178 39.97876281315904
2179 39.91102905143227
2180 39.9798123493614
2181 39.91071279465793
2182 39.97941736665896
2183 39.90953100095378
2184 39.97842284381846
2185 39.90968002952467
2186 39.97807189182521
2187 39.90773683600766
2188 39.97543510182489
2189 39.90642799010219
2190 39.97563949579709
2191 39.90638561967206
2192 39.97601152081101
2193 39.9080319339763
2194 39.97554759769085
2195 39.90868560378775
2196 39.97806046015212
2197 39.90950803534768
2198 39.97971869629816
2199 39.90943875277094
2200 39.97954848859541
2201 39.90875943211286
2202 39.97893652749096
2203 39.90897209264181
2204 39.97879855041139
2205 39.90889774531843
2206 39.97825441888541
2207 39.90892688814208
2208 39.97661191859852
2209 39.90806821787787
2210 39.97723458399651
2211 39.909854548945
2212 39.9777865547596
2213 39.91003082594614
2214 39.97850383660472
2215 39.90970177611354
2216 39.97829252724702
2217 39.90960031480115
2218 39.97850325056325
2219 39.90963542510615
2220 39.97602974889276
2221 39.9095542041176
2222 39.97819368160321
2223 39.90954412952946
2224 39.97553414543309
2225 39.91213915452794
2226 39.97969009426827
2227 39.91209584827939
2228 39.98181133227406
2229 39.91214779794132
2230 39.98146714905006
2231 39.91123889955106
2232 39.98035168461037
2233 39.91009494427724
2234 39.98007476811345
2235 39.91061634606893
2236 39.97918331444696
2237 39.90926281017656
2238 39.97842811371182
2239 39.90923194066431
2240 39.97655843877352
2241 39.90833054334146
2242 39.97691259703863
2243 39.90782238131724
2244 39.9771857122639
2245 39.90840665221695
2246 39.97813749936285
2247 39.90714920998673
2248 39.97769163861192
2249 39.90823100573511
2250 39.978388493243
2251 39.90717021749018
2252 39.97701368467571
2253 39.9075537692739
2254 39.97532234869929
2255 39.90940305881302
2256 39.97776088687014
2257 39.9102979306542
2258 39.98055400785919
2259 39.91155881655381
2260 39.98080646547957
2261 39.91070604310704
2262 39.98015369785467
2263 39.91017254750394
2264 39.97965882052551
2265 39.90928611739542
2266 39.9792423162455
2267 39.91026192351598
2268 39.97958965861825
2269 39.91065953239341
2270 39.97896628468878
2271 39.9097979706008
2272 39.97619662346732
2273 39.90925903622828
2274 39.97646791920802
2275 39.90918678638769
2276 39.97666611604992
2277 39.90952827216563
2278 39.97776121023923
2279 39.90992956133862
2280 39.97824952870439
2281 39.90850170842358
2282 39.97871655392041
2283 39.90740954582652
2284 39.9734487293943
2285 39.90634028472715
2286 39.97611966262898
2287 39.90675229746393
2288 39.97795467002007
2289 39.90940691610067
2290 39.98067131039618
2291 39.90935260130158
2292 39.98022841681902
2293 39.91106204041427
2294 39.98303216996837
2295 39.91091242800469
2296 39.98113299544662
2297 39.910399044485
2298 39.98218692241164
2299 39.90949385296241
2300 39.98079512225958
2301 39.9081114077142
2302 39.98031814568094
2303 39.9055705990346
2304 39.97874332916346
2305 39.90445543881956
2306 39.98081319384928
2307 39.90449934557427
2308 39.98110806971204
2309 39.90480986812192
2310 39.98221071170942
2311 39.90582339809738
2312 39.98268275908434
2313 39.90642952493133
2314 39.98052146184343
2315 39.90843096008016
2316 39.98001397053545
2317 39.90688062571835
2318 39.98025037258579
2319 39.90866644641975
2320 39.98043374974776
2321 39.90971777497359
2322 39.97880609413281
2323 39.9111111915954
2324 39.97847966942054
2325 39.91234656563721
2326 39.97763186505036
2327 39.91158734131186
2328 39.97760338436443
2329 39.91262416564257
2330 39.97891276183165
2331 39.91132933563028
2332 39.97712238964404
2333 39.91113905190554
2334 39.97720546963964
2335 39.90892286901911
2336 39.97512546411466
2337 39.90881621654852
2338 39.97668237411118
2339 39.90818321528478
2340 39.97794167792973
2341 39.90837989062668
2342 39.97930415416807
2343 39.90866333824739
2344 39.97681731424614
2345 39.9077412432274
2346 39.97786008841431
2347 39.90819953703132
2348 39.97839186173366
2349 39.90688287991315
2350 39.97818000459551
2351 39.90788077630421
2352 39.97911217331576
2353 39.90760373787184
2354 39.98041216589013
2355 39.90725878727466
2356 39.97977426685051
2357 39.90755015106349
2358 39.97894322461205
2359 39.90614570174247
2360 39.97804193926112
2361 39.90645230667353
2362 39.97768227021748
2363 39.9069602429874
2364 39.97785662200008
2365 39.90855726197172
2366 39.97880078950535
2367 39.90863287835476
2368 39.97866950594273
2369 39.90853565760882
2370 39.98031428122199
2371 39.90894746584097
2372 39.9816391871725
2373 39.90873772567065
2374 39.98100423730123
2375 39.90852262889413
2376 39.98159816425946
2377 39.90752377805565
2378 39.98080573395723
2379 39.90719725110494
2380 39.97957126036552
2381 39.90589039444459
2382 39.97970809858542
2383 39.90628033224888
2384 39.98015842054279
2385 39.90828047622021
2386 39.98119471576603
2387 39.9084582805005
2388 39.98105621899859
2389 39.90939865439105
2390 39.9821421680864
2391 39.90852217889969
2392 39.98054586532484
2393 39.90903431770353
2394 39.98113793080904
2395 39.90905714485321
2396 39.98028290731166
2397 39.90900183779421
2398 39.97867665002315
2399 39.90919782602347
2400 39.97681330322928
2401 39.90740101201208
2402 39.97750866239345
2403 39.90935690892876
2404 39.97785840289774
2405 39.90901654167046
2406 39.97870656101476
2407 39.90890674511878
2408 39.97827592871801
2409 39.90922168952762
2410 39.97864572722712
2411 39.90861462108246
2412 39.9769811781808
2413 39.90933285659987
2414 39.97541687855844
2415 39.91044668117857
2416 39.97750605763892
2417 39.91306140177987
2418 39.97996215748027
2419 39.91236996744211
2420 39.98084608153047
2421 39.9122416203533
2422 39.98045846987938
2423 39.91169263347444
2424 39.97963215581953
2425 39.91029121397761
2426 39.97939546836211
2427 39.91065218058408
2428 39.97856002085213
2429 39.90914144976789
2430 39.978442565843
2431 39.90866829645071
2432 39.97671507129036
2433 39.90807593116671
2434 39.9774292365809
2435 39.90912108965182
2436 39.97794316915986
2437 39.91101243323732
2438 39.97900725673831
2439 39.91029876743431
2440 39.97805153140725
2441 39.91024187371777
2442 39.97811141009501
2443 39.90874821869711
2444 39.97591458003365
2445 39.9082338226431
2446 39.97712369289468
2447 39.90849686504371
2448 39.97898746382745
2449 39.90976442873163
2450 39.98152132003677
2451 39.91062512414224
2452 39.9816143670074
2453 39.90988276730143
2454 39.98017687397488
2455 39.90988828209726
2456 39.98251234298433
2457 39.90949826119921
2458 39.98359761305223
2459 39.90912963464047
2460 39.98273710255387
2461 39.90719077156091
2462 39.98105284732633
2463 39.90698097303159
2464 39.97940620000404
2465 39.90606475482102
2466 39.97984062157221
2467 39.90484522549844
2468 39.97953368099881
2469 39.90569242152395
2470 39.98008250600327
2471 39.90510581855924
2472 39.97847068523439
2473 39.9059980063311
2474 39.97977937443333
2475 39.90689724932974
2476 39.97694685996901
2477 39.90706724738799
2478 39.97723876477602
2479 39.90904398889877
2480 39.97842075219173
2481 39.90914004302595
2482 39.9785764764392
2483 39.91000045836969
2484 39.97627784640175
2485 39.90984986681838
2486 39.97766773989292
2487 39.91068127293379
2488 39.97993935389491
2489 39.91033835629672
2490 39.98037208957926
2491 39.90920886331082
2492 39.97944832323984
2493 39.90975083541004
2494 39.9791908510449
2495 39.90844689908491
2496 39.97819650453353
2497 39.90785418807906
2498 39.97822546463817
2499 39.90936728988668
2500 39.97913961971977
2501 39.91009373926071
2502 39.97896419672627
2503 39.90979653984802
2504 39.97886150359538
2505 39.91015104895027
2506 39.97840408506411
2507 39.9092477908927
2508 39.97759558296289
2509 39.90900838927659
2510 39.97773344007193
2511 39.91119799439852
2512 39.97928472492298
2513 39.91150497769876
2514 39.9763872682912
2515 39.9113486748332
2516 39.97846297431659
2517 39.91079366347484
2518 39.97875106003698
2519 39.90981755154796
2520 39.9787898274389
2521 39.90842304688323
2522 39.97842723585104
2523 39.90823902642909
2524 39.97667591340419
2525 39.90703497192115
2526 39.975761696797
2527 39.90636418417559
2528 39.97397753294333
2529 39.90728925163259
2530 39.9759958035906
2531 39.90796975409195
2532 39.97725638190723
2533 39.90949052877554
2534 39.97973197558416
2535 39.91039373781914
2536 39.97987681493354
2537 39.90899875632214
2538 39.98019940974166
2539 39.90996358286471
2540 39.97895355240161
2541 39.90840010990262
2542 39.9784360974927
2543 39.90871453225408
2544 39.97635226613865
2545 39.90914570421472
2546 39.97957984265445
2547 39.90982795572675
2548 39.98088425130989
2549 39.91044254276494
2550 39.9816644354872
2551 39.90941797719021
2552 39.97946338774774
2553 39.91006424752162
2554 39.98000144242436
2555 39.90967158631003
2556 39.97896670399994
2557 39.90792936772981
2558 39.97834855250421
2559 39.90900293871204
2560 39.9766909032241
2561 39.9066852337119
2562 39.97666877121966
2563 39.90828592813079
2564 39.97795384424558
2565 39.90785294304187
2566 39.97745405848688
2567 39.90893569909245
2568 39.97863753322108
2569 39.90786638905919
2570 39.97877468041896
2571 39.9082605053349
2572 39.97876967294776
2573 39.90801606710255
2574 39.97737378650543
2575 39.90903718661617
2576 39.97956240060017
2577 39.9093362635122
2578 39.98164325988601
2579 39.90962667424152
2580 39.98234660968356
2581 39.90904422541926
2582 39.98340134962249
2583 39.90816127355773
2584 39.98282075030295
2585 39.90790824093234
2586 39.98305097160623
2587 39.907392124245
2588 39.98198188194085
2589 39.90751109471159
2590 39.97964869602113
2591 39.90764956164888
2592 39.97700030496688
2593 39.90564164131258
2594 39.97638975101164
2595 39.90741349118836
2596 39.97756152319916
2597 39.90754630401733
2598 39.97707531657573
2599 39.90820272050847
2600 39.97776849875716
2601 39.90924852647007
2602 39.97778578287787
2603 39.90770758661237
2604 39.9732257202102
2605 39.90785214716
2606 39.97592512041857
2607 39.90853840245264
2608 39.97864312282554
2609 39.91168932685316
2610 39.98124255603594
2611 39.91124406442388
2612 39.98177727223659
2613 39.91179042111071
2614 39.98099290985864
2615 39.9112655263284
2616 39.98030781831129
2617 39.91029389738088
2618 39.97937546458331
2619 39.91064575100367
2620 39.97839440451537
2621 39.90829605521299
2622 39.97680342965624
2623 39.90807309293588
2624 39.97584918613565
2625 39.90727406959329
2626 39.9765175908521
2627 39.90862114004236
2628 39.97699253489966
2629 39.90920707261367
2630 39.97795942339622
2631 39.90882677766216
2632 39.97684700186664
2633 39.90830798967166
2634 39.97461082755498
2635 39.90722481539287
2636 39.97557828573318
2637 39.90821326952558
2638 39.97787516377726
2639 39.90978268918076
2640 39.98078886784377
2641 39.90972754137456
2642 39.98022662141418
2643 39.91125427920706
2644 39.98086217600729
2645 39.90996648938236
2646 39.97961448122899
2647 39.90984060682496
2648 39.98013101857692
2649 39.90918211733706
2650 39.98011087915906
2651 39.91008212185714
2652 39.98037916547417
2653 39.90910089803255
2654 39.98013858441488
2655 39.90936244787012
2656 39.97868945267575
2657 39.90841701675005
2658 39.97903595760921
2659 39.90765011730232
2660 39.97953747629764
2661 39.90844112528157
2662 39.98057602929929
2663 39.90753309700879
2664 39.97789499289034
2665 39.90767343237009
2666 39.98090327152823
2667 39.90688874070874
2668 39.97979193770907
2669 39.90581048063626
2670 39.98082947172394
2671 39.90653919215429
2672 39.98120233033495
2673 39.90885993556383
2674 39.98265846116831
2675 39.90960081645812
2676 39.98217003377769
2677 39.909076945264
2678 39.98112680684045
2679 39.90968699291143
2680 39.97995630371386
2681 39.90901912342864
2682 39.97880823053774
2683 39.90831610203438
2684 39.97806594365989
2685 39.90869884383567
2686 39.97719752617763
2687 39.9067992427202
2688 39.9750862799679
2689 39.90696942713175
2690 39.97724921696733
2691 39.90783076967492
2692 39.97736289304393
2693 39.90935327202618
2694 39.97579962394872
2695 39.90893960254092
2696 39.9781438886487
2697 39.90932389839336
2698 39.97890672049927
2699 39.90902198100696
2700 39.9789086879115
2701 39.90773709346369
2702 39.97858165112262
2703 39.90903891334523
2704 39.97929570098326
2705 39.9099317657636
2706 39.97902271235913
2707 39.90973987094188
2708 39.97951355973416
2709 39.90873624379639
2710 39.977589221462
2711 39.90728772570515
2712 39.97835920855937
2713 39.90743676558772
2714 39.97882087118548
2715 39.90757582092377
2716 39.97819017990914
2717 39.90900661935393
2718 39.97835154362405
2719 39.90912371619233
2720 39.9770598949851
2721 39.90901675069021
2722 39.97797560523439
2723 39.90884645213755
2724 39.9758932815998
2725 39.90992333166533
2726 39.97977617821368
2727 39.91102328364331
2728 39.98128654278199
2729 39.90998450257992
2730 39.98190091844435
2731 39.90918570109609
2732 39.97901067215594
2733 39.90741929204125
2734 39.97836851367367
2735 39.90856708133768
2736 39.97930287972051
2737 39.90823739651339
2738 39.97879959624552
2739 39.9081766940679
2740 39.97933303659858
2741 39.90667540507695
2742 39.97781576114211
2743 39.90483191190602
2744 39.97693098205365
2745 39.90546199220915
2746 39.97740063798096
2747 39.90446091043682
2748 39.97687128617768
2749 39.90477153729926
2750 39.97845578170179
2751 39.90413981024738
2752 39.97635779482734
2753 39.90457060047433
2754 39.97614157203009
2755 39.90741178662668
2756 39.98084657719987
2757 39.90947794649718
2758 39.98151468847107
2759 39.91004067852776
2760 39.98276663156462
2761 39.90883965420611
2762 39.98187487967424
2763 39.90882325632637
2764 39.98009404519551
2765 39.90823356413665
2766 39.97950973112744
2767 39.90894533922289
2768 39.97957577575146
2769 39.91098922285648
2770 39.97974796362956
2771 39.91050795941968
2772 39.97960190823903
2773 39.91069678186106
2774 39.98010545086353
2775 39.90956629824073
2776 39.97847655830786
2777 39.90884069712143
2778 39.97813032861276
2779 39.90808513910314
2780 39.97808721075301
2781 39.90780576693977
2782 39.97789001213021
2783 39.90842303361443
2784 39.97458125189107
2785 39.90706237137761
2786 39.97668132185108
2787 39.90861616820273
2788 39.97929592452532
2789 39.90932350954598
2790 39.98075403898554
2791 39.90978194363267
2792 39.98069844275148
2793 39.90945232258898
2794 39.97997467652313
2795 39.90981549418165
2796 39.97832078895475
2797 39.90879440622106
2798 39.97777822650545
2799 39.90876344998399
2800 39.97722159706322
2801 39.90879274489322
2802 39.97700266598523
2803 39.90754082644505
2804 39.97589326525879
2805 39.90770889422618
2806 39.9765298398012
2807 39.90749051464784
2808 39.977866179919
2809 39.90743619118999
2810 39.97843024511426
2811 39.90786023348965
2812 39.97892041136212
2813 39.90781047437353
2814 39.97680831867562
2815 39.90789337302197
2816 39.97862012276504
2817 39.90783129052743
2818 39.98100922318767
2819 39.90995255235806
2820 39.98335048077811
2821 39.90953803732107
2822 39.98287891445138
2823 39.90952376889717
2824 39.98230468526883
2825 39.90961667040585
2826 39.98244600147695
2827 39.90745896013922
2828 39.9796982146749
2829 39.9071945443459
2830 39.97911044447809
2831 39.90724770683438
2832 39.97902782731832
2833 39.90732204804077
2834 39.98000587884455
2835 39.90734090317851
2836 39.97832139658938
2837 39.90687757911248
2838 39.9776439072009
2839 39.9062282326713
2840 39.97738020620698
2841 39.90675469206327
2842 39.9775847648953
2843 39.90790131747389
2844 39.97521382148911
2845 39.90737197844345
2846 39.97632176873539
2847 39.90836544930409
2848 39.97632973530756
2849 39.90902252922626
2850 39.97824504962636
2851 39.9095864934412
2852 39.9786910750277
2853 39.91068215169816
2854 39.98013025777995
2855 39.91096940963688
2856 39.98027140101299
2857 39.91145100172821
2858 39.98196209252209
2859 39.91123400066201
2860 39.97894401189004
2861 39.91018093578683
2862 39.97942270559547
2863 39.90917538563625
2864 39.97859668928736
2865 39.90993253741859
2866 39.97898179026673
2867 39.90937232907665
2868 39.97802835895057
2869 39.90883169209077
2870 39.9786526831007
2871 39.90831294762022
2872 39.97761930428914
2873 39.9065156386622
2874 39.97485915487639
2875 39.90794747694918
2876 39.97786292998036
2877 39.9070507930575
2878 39.97815748757711
2879 39.9078659289745
2880 39.97835494423067
2881 39.90661856146903
2882 39.97846466972833
2883 39.90814909140563
2884 39.97890924100653
2885 39.90966227893632
2886 39.9784138816014
2887 39.90926563617856
2888 39.97796593508378
2889 39.91013908614757
2890 39.97793791212323
2891 39.91016887388702
2892 39.97732642632821
2893 39.90904469274758
2894 39.9771427539826
2895 39.91031707659119
2896 39.97841856520382
2897 39.91037077302008
2898 39.97761989007571
2899 39.9111115137382
2900 39.97848107814509
2901 39.90970929778504
2902 39.97704109999258
2903 39.90787576286703
2904 39.97461735248857
2905 39.90785140479026
2906 39.97679503154476
2907 39.90787934811048
2908 39.97872392175487
2909 39.90826227729822
2910 39.97912391007592
2911 39.90806423216672
2912 39.97694811770564
2913 39.90930829418402
2914 39.97808711673846
2915 39.90983348202079
2916 39.97834600623822
2917 39.91141828862928
2918 39.97913865485758
2919 39.91180279106286
2920 39.97817178927618
2921 39.91189900495001
2922 39.97803708022825
2923 39.91034133862743
2924 39.97576937976272
2925 39.91034587264774
2926 39.97602197655075
2927 39.91036859813259
2928 39.97752613090115
2929 39.90957476811187
2930 39.97880972622329
2931 39.90990009866756
2932 39.97933827033698
2933 39.90911970054317
2934 39.98058932069736
2935 39.90854003988074
2936 39.98042272936505
2937 39.90871563712059
2938 39.98059878854112
2939 39.90863802689912
2940 39.97960973471076
2941 39.90821546479032
2942 39.98055174913925
2943 39.90769120083116
2944 39.97738890073364
2945 39.90753000464448
2946 39.97813729909181
2947 39.90776829896161
2948 39.9789395783965
2949 39.90822336311417
2950 39.97900251110254
2951 39.91012623862216
2952 39.97967180925367
2953 39.9090492157958
2954 39.97965995929756
2955 39.91018925122061
2956 39.97852794987367
2957 39.90902346108523
2958 39.97778135458483
2959 39.91048399038353
2960 39.97895686302294
2961 39.91007839434717
2962 39.97877140552939
2963 39.91049070344319
2964 39.97609226271606
2965 39.90979567042137
2966 39.97832077470608
2967 39.90893499539218
2968 39.97889880227587
2969 39.90894544353343
2970 39.9801472015039
2971 39.90786804174082
2972 39.97927230478982
2973 39.90865664995691
2974 39.98171625344943
2975 39.90786891823338
2976 39.97986407787012
2977 39.90592563835865
2978 39.98212827670391
2979 39.90739008730144
2980 39.98270043187426
2981 39.9069139590934
2982 39.9832786405667
2983 39.9076178112301
2984 39.98355411513823
2985 39.90687595175423
2986 39.98266682408984
2987 39.90613853383213
2988 39.98083778609444
2989 39.90482132946367
2990 39.98019608873738
2991 39.90565093532094
2992 39.97886436687486
2993 39.90703595382341
2994 39.97922057591344
2995 39.90716115283463
2996 39.97765126889094
2997 39.90816797946854
2998 39.97748188616892
2999 39.90871211265143
3000 39.97765038664205
3001 39.9082343783299
3002 39.97678479902852
3003 39.909483896527
3004 39.97295847060415
3005 39.91021458533462
3006 39.97465058189782
3007 39.91152174531028
3008 39.97525819159998
3009 39.91127575643206
3010 39.97661175204075
3011 39.91279061945374
3012 39.97794213928452
3013 39.91380233524502
3014 39.97933814106276
3015 39.91306272242561
3016 39.9791661534603
3017 39.91228369087929
3018 39.97860691992859
3019 39.91036317120462
3020 39.97717872021148
3021 39.90965317238497
3022 39.97671476705416
3023 39.90806095616832
3024 39.97763359847956
3025 39.90800915771641
3026 39.97866665713423
3027 39.90822713533198
3028 39.97877422749958
3029 39.90722179846649
3030 39.97813071864198
3031 39.90693754660719
3032 39.9791950288733
3033 39.90638534806013
3034 39.9784872843912
3035 39.90776165355715
3036 39.97937902556755
3037 39.90609631192819
3038 39.97819136320969
3039 39.90665478391517
3040 39.97811912574478
3041 39.90607380820587
3042 39.97817192494861
3043 39.90798299306686
3044 39.9771952126402
3045 39.91053389506449
3046 39.97937649356123
3047 39.91000047438266
3048 39.98049746378095
3049 39.91001798072597
3050 39.98234860482957
3051 39.90940541896023
3052 39.97986429382073
3053 39.90862921030965
3054 39.98061459298823
3055 39.90831449309994
3056 39.98055042605812
3057 39.90846736632403
3058 39.98078059527328
3059 39.90767091224585
3060 39.98116904286954
3061 39.90616713844882
3062 39.98033973912106
3063 39.90604145545448
3064 39.98151597315935
3065 39.90606981906877
3066 39.98180794757453
3067 39.90796834498639
3068 39.9816228379719
3069 39.90937874415388
3070 39.9807767113421
3071 39.90898917317742
3072 39.97908776159719
3073 39.90897720951458
3074 39.97611005027018
3075 39.91002667645002
3076 39.9782924347153
3077 39.91092951295103
3078 39.97867554774066
3079 39.90920347777131
3080 39.97808267589676
3081 39.90908196763934
3082 39.97768468986906
3083 39.90800620384073
3084 39.97531237309681
3085 39.9068826695488
3086 39.97749896347331
3087 39.90995807045288
3088 39.97934148459392
3089 39.90991724665678
3090 39.98019029504829
3091 39.91045954030029
3092 39.98019608003068
3093 39.90911420363978
3094 39.97934406729087
3095 39.90962514437459
3096 39.97988279970632
3097 39.90892646960957
3098 39.97957478744375
3099 39.9095830951611
3100 39.97863979605454
3101 39.90846414779892
3102 39.97870050108639
3103 39.90916262863038
3104 39.97420472156239
3105 39.90957539532781
3106 39.97654345604413
3107 39.9092665315691
3108 39.97671639421996
3109 39.9104971874273
3110 39.97817181149176
3111 39.90986626333998
3112 39.97602900920273
3113 39.90972608645578
3114 39.9776951639662
3115 39.91001950549057
3116 39.97660931517581
3117 39.90876343064296
3118 39.97660350838505
3119 39.91002080667976
3120 39.97762240419335
3121 39.9107863969988
3122 39.97914937284661
3123 39.91113291921184
3124 39.97930223622561
3125 39.90976844985859
3126 39.9790317097378
3127 39.90933509890314
3128 39.97993639838517
3129 39.90968339190444
3130 39.98073797767717
3131 39.90933440249389
3132 39.98034304266931
3133 39.90963184997309
3134 39.97817968440714
3135 39.90871619814737
3136 39.97739454773482
3137 39.907764866066
3138 39.97839301439205
3139 39.90723898908812
3140 39.97984950788948
3141 39.906891568547
3142 39.9792270310806
3143 39.90789985472202
3144 39.98008599134829
3145 39.90684859772906
3146 39.9781387454405
3147 39.90705294107516
3148 39.97758315000047
3149 39.90752336430565
3150 39.97719606457458
3151 39.90815227403154
3152 39.97827015994802
3153 39.90978660774756
3154 39.97910575650285
3155 39.90976981235372
3156 39.97861143673926
3157 39.91089952724086
3158 39.9793008433977
3159 39.91067501372544
3160 39.97819324718232
3161 39.91079977045018
3162 39.97820930874516
3163 39.91088629611156
3164 39.97551915565337
3165 39.91112421780497
3166 39.97703250617267
3167 39.91079089530751
3168 39.97729156208923
3169 39.90938826384171
3170 39.977222193765
3171 39.91049477789629
3172 39.97817916188391
3173 39.90960183967075
3174 39.97763463953769
3175 39.90902180057686
3176 39.9783627429691
3177 39.90832346382691
3178 39.97752293803458
3179 39.90834042531386
3180 39.97730342256879
3181 39.90885443356194
3182 39.97848899829867
3183 39.90981561989388
3184 39.97883217290206
3185 39.91122254922431
3186 39.97916384516607
3187 39.91039884019507
3188 39.97932833807337
3189 39.91147703396145
3190 39.9793616273441
3191 39.911265013535
3192 39.98002306847219
3193 39.9091206241407
3194 39.97624166652807
3195 39.91008532785835
3196 39.97793135861136
3197 39.90887167114796
3198 39.9777250900157
3199 39.90945044273037
3200 39.97667835932219
3201 39.90800754162932
3202 39.9770373390479
3203 39.90813550771318
3204 39.97757624212481
3205 39.90898428002541
3206 39.97939203216922
3207 39.90956214245474
3208 39.97964315013351
3209 39.90967093402226
3210 39.97926076003372
3211 39.90972432630125
3212 39.97775899151171
3213 39.90965614995751
3214 39.97874755365024
3215 39.90987975442758
3216 39.97912465112996
3217 39.91036794642281
3218 39.98075439678532
3219 39.90942117824213
3220 39.97948796429733
3221 39.90832539224527
3222 39.98043028899338
3223 39.90721569318337
3224 39.97790493471688
3225 39.90697513881456
3226 39.97944236487066
3227 39.90750559023549
3228 39.98140611619387
3229 39.90626782335561
3230 39.98074753588402
3231 39.90659473094426
3232 39.97958177239686
3233 39.90664091957463
3234 39.98025598738409
3235 39.90811623493963
3236 39.98164288908168
3237 39.90896625716945
3238 39.98078374950907
3239 39.90864595651868
3240 39.98011293314657
3241 39.90691387517047
3242 39.97969512141567
3243 39.90508168152049
3244 39.97626010780661
3245 39.9036564999672
3246 39.97601887747112
3247 39.90442031833535
3248 39.97651912141335
3249 39.90817668727477
3250 39.97942773112458
3251 39.9104155375768
3252 39.98049902606209
3253 39.90914254718248
3254 39.97837850335817
3255 39.91057653221493
3256 39.98034635806047
3257 39.91014731974797
3258 39.98153699736694
3259 39.91155494927249
3260 39.98179581541325
3261 39.9116255974788
3262 39.98034991568148
3263 39.91076376606904
3264 39.97855038803885
3265 39.90971782394014
3266 39.97973777733407
3267 39.90908308817231
3268 39.97909073081447
3269 39.90929721464006
3270 39.97925349280787
3271 39.90879581274498
3272 39.97809044811166
3273 39.90817263737453
3274 39.978467850382
