"y-rfile"
"Iteration" "y"
("Iteration" "y")
1 5860.83565134636
2 5920.831821626284
3 5589.187037741443
4 5155.148216021879
5 4542.441867868189
6 4176.588202998294
7 3465.963715079467
8 2865.857290961929
9 2302.544224203642
10 1888.988547144071
11 1538.844785150466
12 1327.100583906679
13 1197.849935581071
14 1141.411290372966
15 1142.333541455574
16 1183.384506083838
17 1253.602879304135
18 1344.296148798712
19 1448.919423785541
20 1557.740027845959
21 1653.689582479856
22 1758.571013387804
23 1855.911678750399
24 1950.288392362582
25 2028.89266255505
26 2092.839862446862
27 2149.754370573668
28 2190.210132545418
29 2222.439997300643
30 2248.73284701379
31 2268.347158562022
32 2286.091990269919
33 2301.3874461514
34 2314.664606041524
35 2326.444821228938
36 2339.088943623758
37 2352.39713767429
38 2366.211297759986
39 2380.402763569999
40 2396.805991990333
41 2412.565124215835
42 2429.417729934954
43 2444.586017327456
44 2459.777397116563
45 2472.017599211124
46 2484.524267488365
47 2495.214644285132
48 2505.542942415732
49 2514.297564685776
50 2523.281515962646
51 2532.316975330572
52 2539.209977316288
53 2547.916023166719
54 2554.118627978088
55 2562.539805208558
56 2569.580374074197
57 2577.188589693371
58 2585.114394631479
59 2594.704385210514
60 2603.533929186025
61 2612.975634064591
62 2620.972870519609
63 2627.896035009704
64 2633.780728741578
65 2639.440993892771
66 2643.481842057445
67 2647.013866037811
68 2650.21112961362
69 2653.185950176523
70 2655.661325745176
71 2658.224971751616
72 2660.46985843639
73 2662.996614393814
74 2665.748266744369
75 2668.001887783189
76 2670.577105593298
77 2673.337938467796
78 2676.234565130267
79 2679.220596904916
80 2682.240794231364
81 2685.196449909548
82 2688.101339663828
83 2691.620952109385
84 2693.948796758659
85 2696.71712668594
86 2698.460263486525
87 2700.522496564451
88 2702.10429107946
89 2703.069869143631
90 2704.126664557434
91 2704.739113723981
92 2705.369982284294
93 2705.773170647061
94 2706.173610259098
95 2706.52573480125
96 2706.851138223075
97 2707.201453963037
98 2707.578133300778
99 2707.988639743206
100 2708.314049206476
101 2708.886256981028
102 2709.298445384029
103 2709.981722208396
104 2710.450660802619
105 2711.177351780292
106 2711.879917810226
107 2712.484782238732
108 2713.065622623719
109 2713.540090296996
110 2714.01228751792
111 2714.414436364094
112 2714.794596864712
113 2715.128247426089
114 2715.451839683356
115 2715.744048475166
116 2716.04908809362
117 2716.307789007441
118 2716.527846082774
119 2716.887689901047
120 2717.146431669379
121 2717.569148503149
122 2717.890514975805
123 2718.411827800243
124 2718.793141470113
125 2719.238227689945
126 2719.751648488229
127 2720.3069944691
128 2720.907159985118
129 2721.558132491988
130 2722.279830718574
131 2723.019614340003
132 2723.812713793749
133 2724.61612688554
134 2725.459159773974
135 2726.306397372714
136 2727.188232926945
137 2728.062907219127
138 2728.970952300641
139 2729.856307391382
140 2730.787492045876
141 2731.690259248149
142 2732.630086148311
143 2733.550581393372
144 2734.483867184229
145 2735.396007081123
146 2736.33105109274
147 2737.265942224437
148 2738.216682006099
149 2739.158774417159
150 2740.140510750553
151 2741.109116329733
152 2742.108425956564
153 2743.107501875003
154 2744.140116501271
155 2745.170516296004
156 2746.247666362233
157 2747.310628283433
158 2748.42370636824
159 2749.541344283738
160 2750.700155598954
161 2752.379594570749
162 2753.481884997506
163 2754.587838023028
164 2755.727108923768
165 2757.369589166975
166 2758.454858711844
167 2759.536708256994
168 2761.152364343215
169 2762.191620785574
170 2763.266216871915
171 2764.820802347844
172 2765.852891963813
173 2767.368138506376
174 2768.3644015549
175 2769.810266685092
176 2770.772301382609
177 2771.732276843225
178 2773.185978081774
179 2774.121578235583
180 2775.532150989711
181 2776.441314202001
182 2777.396875406684
183 2778.790007244121
184 2779.714317954303
185 2780.640858186875
186 2782.03270178059
187 2782.923835300961
188 2783.857640739366
189 2785.201150481323
190 2786.10259272102
191 2786.992409104641
192 2788.323046117843
193 2789.169809630527
194 2790.046436479651
195 2790.898262877735
196 2792.181770340107
197 2792.985602836885
198 2793.82020791785
199 2794.623840977517
200 2795.452863333885
201 2796.643882391589
202 2797.420936917951
203 2798.177894557608
204 2798.94942035537
205 2799.692954839188
206 2800.452521225451
207 2801.192631569676
208 2801.950306443634
209 2802.682955904029
210 2803.433351763732
211 2804.151677974543
212 2804.890420279382
213 2805.597258175451
214 2806.312778760655
215 2806.994709183771
216 2807.694601026072
217 2808.361905880716
218 2809.042554203302
219 2809.683085096692
220 2810.340973699501
221 2810.955276328142
222 2811.588452011629
223 2812.192515153135
224 2812.808943656329
225 2813.392007899344
226 2813.991402847821
227 2814.556387564126
228 2815.145170064321
229 2815.69821721267
230 2816.274510237095
231 2816.822796200549
232 2817.385399324587
233 2817.92053306082
234 2818.47392957527
235 2819.009686238851
236 2819.564562867593
237 2820.103349754179
238 2820.661003182697
239 2821.201776760374
240 2821.758975092681
241 2822.300269608917
242 2822.864475622129
243 2823.417394007742
244 2823.992138107406
245 2824.553483767905
246 2825.144161111531
247 2825.719241049388
248 2826.319170358909
249 2826.90338039201
250 2827.517803233151
251 2828.112871142948
252 2828.740180862808
253 2829.348436409394
254 2829.98645363345
255 2830.610345617757
256 2831.260440004557
257 2831.894605691419
258 2832.55895853347
259 2833.208251313538
260 2833.884988292702
261 2834.541364922761
262 2835.22942167017
263 2835.894745756265
264 2836.592867137726
265 2837.271630275448
266 2837.978367234113
267 2838.669382937409
268 2839.390401947814
269 2840.091219010473
270 2840.820249381633
271 2841.530467168805
272 2842.273421207166
273 2842.995763895301
274 2843.750652201894
275 2844.476543006643
276 2845.244957235343
277 2845.98776068312
278 2846.761737951785
279 2847.872657858126
280 2848.611322116251
281 2849.329964715751
282 2850.076494391592
283 2850.802546204422
284 2851.904941110739
285 2852.601750020021
286 2853.330488567847
287 2854.041694508414
288 2855.122593241128
289 2855.806500181624
290 2856.525132441996
291 2857.562161859041
292 2858.261659055192
293 2858.950079116602
294 2860.015065870167
295 2860.687994143024
296 2861.402553105592
297 2862.436892137221
298 2863.138629036531
299 2864.162495524539
300 2864.859998622468
301 2865.872098206796
302 2866.561225484823
303 2867.563780365376
304 2868.24803055049
305 2869.239997199672
306 2869.92570701656
307 2870.917565472148
308 2871.915929032083
309 2872.556436757758
310 2873.558003485288
311 2874.195551923543
312 2875.200326549326
313 2875.842728892538
314 2876.85142915707
315 2877.800460900933
316 2878.460803790854
317 2879.415570139768
318 2880.08088639031
319 2881.045668435942
320 2882.019840186738
321 2882.644065278207
322 2883.634098663776
323 2884.26104640776
324 2885.256361827097
325 2885.88855826362
326 2886.892251937431
327 2887.833372546541
328 2888.486604122384
329 2889.431184885482
330 2890.089818284069
331 2891.040087999143
332 2891.696462870742
333 2892.649824551111
334 2893.310302992896
335 2894.26889385174
336 2894.928633447523
337 2895.886955202699
338 2896.544106934047
339 2897.49676896761
340 2898.152133735501
341 2898.792794184282
342 2899.796756293461
343 2900.42653644295
344 2901.423931353465
345 2902.051395007018
346 2903.037074288257
347 2903.652498042766
348 2904.623833795346
349 2905.226117648392
350 2905.887879152418
351 2906.825695465999
352 2907.469067008646
353 2908.386777328501
354 2909.024396936458
355 2909.632426393634
356 2910.588567281777
357 2911.186440600074
358 2911.834165295172
359 2912.747594779008
360 2913.378108655135
361 2913.98354785181
362 2914.930946040316
363 2915.516358249225
364 2916.150837908226
365 2916.755810484274
366 2917.707922106191
367 2918.294123433731
368 2918.932706366551
369 2919.832675171639
370 2920.444747823206
371 2921.029248990401
372 2921.656365962257
373 2922.253076425205
374 2923.18399183116
375 2923.759625298293
376 2924.378648076522
377 2924.963089904307
378 2925.591595214099
379 2926.18336039011
380 2926.817910646153
381 2927.710214742789
382 2928.319219291937
383 2928.891843932418
384 2929.503648892528
385 2930.079776584701
386 2930.693661076764
387 2931.270183984022
388 2931.890627215123
389 2932.467116143322
390 2933.089184637523
391 2933.669142062497
392 2934.292009376364
393 2934.870347568255
394 2935.491428862427
395 2936.066200669803
396 2936.680618140429
397 2937.248235173656
398 2937.852231070391
399 2938.411526847634
400 2939.005750863369
401 2939.560512147291
402 2940.151193773115
403 2940.693823890814
404 2941.271851494197
405 2941.805816322795
406 2942.374759437499
407 2942.897258900222
408 2943.451920749757
409 2943.963141087122
410 2944.510998231591
411 2945.012608697582
412 2945.550395613672
413 2946.045977587813
414 2946.574646313989
415 2947.061998835778
416 2947.582501384996
417 2948.059971500973
418 2948.573951636408
419 2949.044583886343
420 2949.550265098363
421 2950.017326283203
422 2950.519107500928
423 2950.977765416661
424 2951.473105074189
425 2951.928561180977
426 2952.417206356367
427 2952.863064053958
428 2953.345716996177
429 2953.781683243598
430 2954.258521041156
431 2954.689598452581
432 2955.161991013188
433 2955.589795785155
434 2956.052637896883
435 2956.472267079469
436 2956.929611627038
437 2957.340775893336
438 2957.792107252551
439 2958.197812702132
440 2958.638714909986
441 2959.041089186465
442 2959.47750503678
443 2959.870407811755
444 2960.300465852648
445 2960.688473557057
446 2961.111006744044
447 2961.490803492818
448 2961.908329891412
449 2962.282039332104
450 2962.69280603576
451 2963.061715391132
452 2963.465210406921
453 2963.827553185089
454 2964.226203898865
455 2964.586681034963
456 2964.977482044733
457 2965.330694439753
458 2965.716362959626
459 2966.0644238732
460 2966.443093261339
461 2966.786781753654
462 2967.161382820763
463 2967.497766368664
464 2967.862806338379
465 2968.195104394775
466 2968.557247120615
467 2968.882948854375
468 2969.240182714865
469 2969.56033116974
470 2969.913482915165
471 2970.227537207712
472 2970.57546467313
473 2970.883344194142
474 2971.226799013496
475 2971.531677724969
476 2971.867483833109
477 2972.167725083321
478 2972.498469884686
479 2972.793572407123
480 2973.117253468065
481 2973.407376873597
482 2973.726657801868
483 2974.013101665368
484 2974.328670012369
485 2974.609730681012
486 2974.923657465528
487 2975.199618902451
488 2975.507341155655
489 2975.779409049324
490 2976.083375660878
491 2976.349922389372
492 2976.649040577093
493 2976.91085260883
494 2977.206951137264
495 2977.46316139999
496 2977.754786382342
497 2978.009944981569
498 2978.298838279183
499 2978.550884152008
500 2978.833251307331
501 2979.083118628578
502 2979.362590782664
503 2979.607045534919
504 2979.880528889172
505 2980.122444954092
506 2980.391633893747
507 2980.628672000295
508 2980.892189546903
509 2981.126115612122
510 2981.385399953258
511 2981.614150171583
512 2981.869904341637
513 2982.094119769854
514 2982.346384012209
515 2982.566580983231
516 2982.81501207161
517 2983.032101243329
518 2983.278815141165
519 2983.491373784728
520 2983.729083184559
521 2983.940490459065
522 2984.179603550905
523 2984.388254123052
524 2984.62075909579
525 2984.829637154673
526 2985.063393837278
527 2985.268390383064
528 2985.49884509097
529 2985.703291356243
530 2985.933127572576
531 2986.133314834432
532 2986.358093436667
533 2986.553544863088
534 2986.775841821675
535 2986.96740341445
536 2987.183754613613
537 2987.372363880825
538 2987.586936796129
539 2987.771785689471
540 2987.982730540824
541 2988.165208274369
542 2988.374240762148
543 2988.554912628188
544 2988.757853001105
545 2988.935070996372
546 2989.137454478451
547 2989.310177072167
548 2989.508636241843
549 2989.680858438967
550 2989.877128100541
551 2990.046189439532
552 2990.239886449511
553 2990.405189499502
554 2990.59592235618
555 2990.759437396317
556 2990.949119733689
557 2991.110242807009
558 2991.299729955811
559 2991.458841848279
560 2991.644140561011
561 2991.80093682817
562 2991.986318613641
563 2992.140346109201
564 2992.323684916863
565 2992.474930491913
566 2992.656734918822
567 2992.806163577673
568 2992.984643388033
569 2993.132552473515
570 2993.310153683781
571 2993.456407229427
572 2993.63139143529
573 2993.774364969372
574 2993.944802371727
575 2994.086323543946
576 2994.255106116361
577 2994.392963021117
578 2994.560573630663
579 2994.697991003936
580 2994.859934629775
581 2994.995582146289
582 2995.157949969996
583 2995.293008174379
584 2995.448061347714
585 2995.582133203314
586 2995.736392990278
587 2995.868784414468
588 2996.021712538871
589 2996.15356719571
590 2996.305294947399
591 2996.436009338611
592 2996.585519163743
593 2996.713402989968
594 2996.863339244795
595 2996.991284220119
596 2997.137531126514
597 2997.263179797656
598 2997.40766627129
599 2997.53190794282
600 2997.673026991124
601 2997.796941339274
602 2997.937841457756
603 2998.05936846839
604 2998.196369510938
605 2998.31691563582
606 2998.453014171302
607 2998.570532122067
608 2998.703597916069
609 2998.818878860529
610 2998.949667572132
611 2999.062863872567
612 2999.1936918163
613 2999.306105071261
614 2999.433971562458
615 2999.545053122768
616 2999.669500767003
617 2999.778641712922
618 2999.906217448449
619 3000.013888754524
620 3000.138336003776
621 3000.245782033955
622 3000.371023941188
623 3000.475745644603
624 3000.598855598513
625 3000.704700949895
626 3000.827032836237
627 3000.930532455717
628 3001.051385749001
629 3001.153958982467
630 3001.274035649234
631 3001.375101551589
632 3001.492573951453
633 3001.59211195575
634 3001.707796901978
635 3001.805051878186
636 3001.919776733261
637 3002.016285930256
638 3002.130386342678
639 3002.223167243477
640 3002.331102371577
641 3002.424365002071
642 3002.533266037636
643 3002.623015292244
644 3002.730403675348
645 3002.819259495782
646 3002.926842707436
647 3003.012068373689
648 3003.120179773822
649 3003.203708585105
650 3003.311428566866
651 3003.393896007758
652 3003.501322851057
653 3003.582805839503
654 3003.691861128324
655 3003.775290606047
656 3003.883026697262
657 3003.96488293536
658 3004.072241791092
659 3004.152890857102
660 3004.257535277872
661 3004.3388021097
662 3004.442562643918
663 3004.521195514284
664 3004.620193928037
665 3004.698162519321
666 3004.797340822629
667 3004.871813436558
668 3004.969116931511
669 3005.043913574767
670 3005.13958838863
671 3005.213385446502
672 3005.30637354244
673 3005.379617612592
674 3005.472154423387
675 3005.544066071908
676 3005.633375954234
677 3005.705085550308
678 3005.795419821172
679 3005.867332242066
680 3005.95425833078
681 3006.025754430442
682 3006.112618468831
683 3006.182753498168
684 3006.270281211124
685 3006.341317105812
686 3006.428346467236
687 3006.497238278202
688 3006.582706546615
689 3006.651865965368
690 3006.737743269206
691 3006.804808785327
692 3006.889099314662
693 3006.954964595716
694 3007.03821996318
695 3007.102893672096
696 3007.185929987099
697 3007.249334657712
698 3007.332077764668
699 3007.393662947613
700 3007.473081388477
701 3007.536041103746
702 3007.615189283797
703 3007.674531827086
704 3007.7509771521
705 3007.811067528174
706 3007.888916003738
707 3007.945738194779
708 3008.022842726462
709 3008.079381781572
710 3008.158681741395
711 3008.213390455346
712 3008.29077291014
713 3008.345071858032
714 3008.422315477487
715 3008.475362354979
716 3008.551612589568
717 3008.603555530057
718 3008.679153829471
719 3008.730843403239
720 3008.804684312065
721 3008.855901260333
722 3008.929224571124
723 3008.978796750196
724 3009.049549918987
725 3009.100930890066
726 3009.17290111162
727 3009.222296276871
728 3009.291376750413
729 3009.341636863854
730 3009.411232051633
731 3009.459343830242
732 3009.52751555727
733 3009.575295359959
734 3009.643051086408
735 3009.689171365751
736 3009.756101956952
737 3009.801812709054
738 3009.868453659123
739 3009.913828527729
740 3009.97942739369
741 3010.025158526013
742 3010.089321606371
743 3010.134558486252
744 3010.197323591669
745 3010.241875268297
746 3010.303867723695
747 3010.347798651237
748 3010.407278731925
749 3010.452092680342
750 3010.51348451196
751 3010.557488309131
752 3010.61592802605
753 3010.660350132671
754 3010.719718560415
755 3010.761889184531
756 3010.819335195349
757 3010.862619061204
758 3010.921860749057
759 3010.962385593186
760 3011.020577786022
761 3011.059599093191
762 3011.117867916012
763 3011.156339671456
764 3011.213444861447
765 3011.250712494615
766 3011.309031899545
767 3011.343270845319
768 3011.400904691945
769 3011.433976793537
770 3011.491978229913
771 3011.52412123946
772 3011.579076641941
773 3011.611012984562
774 3011.667318782489
775 3011.699218847168
776 3011.753501604893
777 3011.786231130073
778 3011.842620585627
779 3011.873728250333
780 3011.928463114026
781 3011.961366524571
782 3012.017240344728
783 3012.048860865795
784 3012.102888305478
785 3012.134420129385
786 3012.188209237047
787 3012.219876778889
788 3012.27343732643
789 3012.303036189892
790 3012.354003860849
791 3012.382370100036
792 3012.432779379747
793 3012.461895666584
794 3012.511449215152
795 3012.540069701597
796 3012.589756912959
797 3012.615388970558
798 3012.665203067719
799 3012.690813278778
800 3012.73881369358
801 3012.764605472578
802 3012.813556057616
803 3012.837948231243
804 3012.886167052269
805 3012.911873739758
806 3012.960484117539
807 3012.985901790185
808 3013.032074715301
809 3013.058941745268
810 3013.105695801983
811 3013.13255079101
812 3013.178245443536
813 3013.206874361576
814 3013.251393759947
815 3013.280748961597
816 3013.324595422542
817 3013.352078032292
818 3013.394958886775
819 3013.420455629647
820 3013.461169407272
821 3013.485318165524
822 3013.526318708054
823 3013.549281571484
824 3013.588006424498
825 3013.610508281533
826 3013.651933061496
827 3013.671055357369
828 3013.710498092821
829 3013.731888214504
830 3013.77357665164
831 3013.793543702149
832 3013.833111651699
833 3013.85401490254
834 3013.896389023269
835 3013.916217809892
836 3013.958070738807
837 3013.978156256161
838 3014.019507215515
839 3014.039927017856
840 3014.081374234635
841 3014.102024028781
842 3014.144135201275
843 3014.16415394668
844 3014.206270712564
845 3014.223450439528
846 3014.26559634108
847 3014.280951204976
848 3014.321746213515
849 3014.338378138049
850 3014.378051663414
851 3014.392458797297
852 3014.429648251266
853 3014.446008111583
854 3014.48379407283
855 3014.497774553136
856 3014.533021728241
857 3014.5472845846
858 3014.583448577254
859 3014.596205898498
860 3014.631940341575
861 3014.645875390914
862 3014.682124067532
863 3014.696896107856
864 3014.73394158999
865 3014.748625324984
866 3014.786840297837
867 3014.800868591748
868 3014.837913505086
869 3014.85096739022
870 3014.888760279541
871 3014.903227170231
872 3014.940741632595
873 3014.954768738607
874 3014.992275040716
875 3015.005166204544
876 3015.039842431088
877 3015.054505291005
878 3015.088872904641
879 3015.102381386655
880 3015.133732640679
881 3015.147781071854
882 3015.179756366756
883 3015.191776973867
884 3015.222381526973
885 3015.234609750379
886 3015.264907958021
887 3015.276940104351
888 3015.307933980282
889 3015.318724008377
890 3015.349296678651
891 3015.361409091006
892 3015.393417108112
893 3015.404403017249
894 3015.435847404706
895 3015.44780445806
896 3015.478335074312
897 3015.488121092307
898 3015.519339001562
899 3015.528876002626
900 3015.558091682115
901 3015.568008006454
902 3015.598274358183
903 3015.60850610885
904 3015.637958452602
905 3015.648675548941
906 3015.677683389038
907 3015.686634231133
908 3015.714367804985
909 3015.723866672371
910 3015.753114455923
911 3015.759630089455
912 3015.789330830017
913 3015.796678882905
914 3015.825057031019
915 3015.832944770787
916 3015.861451392827
917 3015.869665327491
918 3015.898327435182
919 3015.908328859901
920 3015.937270107315
921 3015.945493068857
922 3015.973846956909
923 3015.979644817122
924 3016.00567177855
925 3016.012616119373
926 3016.040005625165
927 3016.04556169397
928 3016.069622270561
929 3016.075752995684
930 3016.10136297457
931 3016.106926235434
932 3016.13329250503
933 3016.140251427409
934 3016.169046041424
935 3016.173486536472
936 3016.202165103093
937 3016.206447576895
938 3016.235270705805
939 3016.239231812506
940 3016.267501447111
941 3016.271415178262
942 3016.299331304802
943 3016.303842006159
944 3016.330981183314
945 3016.334931387933
946 3016.361653765546
947 3016.366196886189
948 3016.392190965686
949 3016.39611203333
950 3016.422246595621
951 3016.42612517614
952 3016.450078455306
953 3016.454075954757
954 3016.478528163469
955 3016.480858854847
956 3016.502500831442
957 3016.506738729573
958 3016.528929453112
959 3016.531506891684
960 3016.553956746875
961 3016.558133186345
962 3016.582097787702
963 3016.585293774012
964 3016.609311103367
965 3016.612196621411
966 3016.636460821393
967 3016.640189488851
968 3016.66420511128
969 3016.667566017149
970 3016.691114474213
971 3016.693302151896
972 3016.718087835358
973 3016.720606631539
974 3016.746667048075
975 3016.748738010551
976 3016.772472436799
977 3016.772703304209
978 3016.798118565713
979 3016.797458075136
980 3016.819766740275
981 3016.817965577347
982 3016.840627855052
983 3016.837025047783
984 3016.85990126135
985 3016.857532567846
986 3016.879538400283
987 3016.876674277765
988 3016.89920637949
989 3016.896935319529
990 3016.920617335291
991 3016.920914673608
992 3016.943556623135
993 3016.944388250941
994 3016.966839467178
995 3016.969719720157
996 3016.993974804255
997 3016.995161022724
998 3017.018873115558
999 3017.020377934287
1000 3017.041413460702
1001 3017.042457060255
1002 3017.064051028713
1003 3017.064189846509
1004 3017.084163793549
1005 3017.084858608383
1006 3017.106160818679
1007 3017.105559866778
1008 3017.125334221445
1009 3017.125973732092
1010 3017.145325865715
1011 3017.144599842231
1012 3017.162511365731
1013 3017.161648292053
1014 3017.179914612047
1015 3017.180389106509
1016 3017.199277956099
1017 3017.198884209418
1018 3017.21668640092
1019 3017.217179398022
1020 3017.235506977518
1021 3017.236261811222
1022 3017.255155322085
1023 3017.256315484827
1024 3017.273651875441
1025 3017.274436544395
1026 3017.294407090158
1027 3017.293996927825
1028 3017.312785211795
1029 3017.313850277804
1030 3017.332747046291
1031 3017.331789521441
1032 3017.350067622418
1033 3017.349212200772
1034 3017.365528897393
1035 3017.364501634397
1036 3017.38131423991
1037 3017.379762228037
1038 3017.396320365734
1039 3017.394802420795
1040 3017.41218140477
1041 3017.410010919636
1042 3017.427222328663
1043 3017.424345990034
1044 3017.442969846267
1045 3017.439717096915
1046 3017.458543687856
1047 3017.455174437203
1048 3017.474677688831
1049 3017.47172244002
1050 3017.492724877088
1051 3017.489694693389
1052 3017.508717000195
1053 3017.507108848041
1054 3017.526045328965
1055 3017.523381434694
1056 3017.542235308391
1057 3017.540305134974
1058 3017.558946454055
1059 3017.555841186148
1060 3017.574539134501
1061 3017.570840407345
1062 3017.589007220922
1063 3017.585537280237
1064 3017.603903673961
1065 3017.599026204623
1066 3017.617576903057
1067 3017.612057655147
1068 3017.63158424797
1069 3017.62598176259
1070 3017.646231723122
1071 3017.640161955229
1072 3017.658158436316
1073 3017.653709940756
1074 3017.671820846561
1075 3017.666604841237
1076 3017.682895468647
1077 3017.678511225713
1078 3017.695515169132
1079 3017.690824022656
1080 3017.705934239642
1081 3017.703211054737
1082 3017.719460627763
1083 3017.71595893304
1084 3017.73185029874
1085 3017.727118879826
1086 3017.745316822664
1087 3017.740496517667
1088 3017.759711789775
1089 3017.754743364112
1090 3017.772886622673
1091 3017.766064950242
1092 3017.783528555705
1093 3017.77707901662
1094 3017.794553155287
1095 3017.789908755617
1096 3017.806084307661
1097 3017.801404866291
1098 3017.819506869131
1099 3017.815740758334
1100 3017.831159622894
1101 3017.828978353003
1102 3017.844630390592
1103 3017.839927790116
1104 3017.853663592506
1105 3017.850253362655
1106 3017.86383846646
1107 3017.859590892453
1108 3017.873613678733
1109 3017.867994366404
1110 3017.882885716152
1111 3017.877932056454
1112 3017.891616430295
1113 3017.887459591938
1114 3017.901081426102
1115 3017.89554919086
1116 3017.910406409343
1117 3017.905944133378
1118 3017.92079556696
1119 3017.917589541782
1120 3017.931807363014
1121 3017.927482545238
1122 3017.943175449859
1123 3017.938728621593
1124 3017.952791840547
1125 3017.94915749253
1126 3017.964691485602
1127 3017.960834896027
1128 3017.976020100505
1129 3017.971274922894
1130 3017.988726812713
1131 3017.982876920819
1132 3017.998985142203
1133 3017.993036335656
1134 3018.008641848824
1135 3018.00084128889
1136 3018.016054656558
1137 3018.008144097119
1138 3018.022399953806
1139 3018.014702829194
1140 3018.029090793684
1141 3018.022646421626
1142 3018.035917146933
1143 3018.029589014137
1144 3018.043740397525
1145 3018.036781733487
1146 3018.049206429446
1147 3018.044437524261
1148 3018.057979259704
1149 3018.05236449079
1150 3018.067335675534
1151 3018.062558709874
1152 3018.077189959915
1153 3018.072766425152
1154 3018.0895815994
1155 3018.0837775595
1156 3018.099275016568
1157 3018.092518381909
1158 3018.108772996991
1159 3018.101533217661
1160 3018.115871194262
1161 3018.108110398099
1162 3018.121882724585
1163 3018.112547581187
1164 3018.125966253742
1165 3018.117514178327
1166 3018.129186119075
1167 3018.121247717883
1168 3018.133890741789
1169 3018.125205044521
1170 3018.138285351368
1171 3018.13122965349
1172 3018.145511665218
1173 3018.138434868761
1174 3018.154473323273
1175 3018.14723732602
1176 3018.162433343542
1177 3018.156744273678
1178 3018.173168056657
1179 3018.166145055181
1180 3018.181085942423
1181 3018.174908856493
1182 3018.191022880866
1183 3018.184574254049
1184 3018.199854422327
1185 3018.193343352335
1186 3018.209838027818
1187 3018.20088859052
1188 3018.218058440732
1189 3018.208995317185
1190 3018.225291162822
1191 3018.215521194103
1192 3018.23098812159
1193 3018.221007651957
1194 3018.234145338686
1195 3018.225438833145
1196 3018.238026957255
1197 3018.228780109667
1198 3018.240819083051
1199 3018.232483404913
1200 3018.243901436713
1201 3018.235618506487
1202 3018.247997106474
1203 3018.238773461118
1204 3018.249047314538
1205 3018.242841334571
1206 3018.255690355232
1207 3018.249071470735
1208 3018.261458494798
1209 3018.256056982738
1210 3018.270360415817
1211 3018.262568781271
1212 3018.276063250094
1213 3018.269926800971
1214 3018.283710114334
1215 3018.277105098471
1216 3018.291433266422
1217 3018.283285900765
1218 3018.297392869543
1219 3018.290553764054
1220 3018.304629218691
1221 3018.297628729333
1222 3018.310221606931
1223 3018.303313234489
1224 3018.315007667122
1225 3018.308050294459
1226 3018.319368872277
1227 3018.311638197931
1228 3018.320472572756
1229 3018.313552193058
1230 3018.323489318177
1231 3018.317629855534
1232 3018.32685260685
1233 3018.321956479774
1234 3018.333031905803
1235 3018.325630234382
1236 3018.33704104442
1237 3018.331599079413
1238 3018.343743417303
1239 3018.335836652299
1240 3018.348263899096
1241 3018.338596174518
1242 3018.350041155728
1243 3018.340917472027
1244 3018.353559310972
1245 3018.344727462671
1246 3018.357519052402
1247 3018.349007225413
1248 3018.362722927891
1249 3018.353487209442
1250 3018.367614688042
1251 3018.35929762322
1252 3018.371847424544
1253 3018.364554715195
1254 3018.378843716966
1255 3018.371360029475
1256 3018.383654808439
1257 3018.377094882407
1258 3018.390054859
1259 3018.382468717856
1260 3018.394683112227
1261 3018.388001311588
1262 3018.401222903514
1263 3018.392018415334
1264 3018.405184231012
1265 3018.394709928295
1266 3018.408184349763
1267 3018.398382184117
1268 3018.410438516888
1269 3018.402041904028
1270 3018.413412137105
1271 3018.403486776883
1272 3018.416793524299
1273 3018.406626466744
1274 3018.418075683891
1275 3018.410520970854
1276 3018.421614977383
1277 3018.412803146988
1278 3018.425787783379
1279 3018.417566065788
1280 3018.429443329815
1281 3018.421759217429
1282 3018.43454596936
1283 3018.424968232823
1284 3018.438030874958
1285 3018.430254067921
1286 3018.444122204773
1287 3018.434311452805
1288 3018.44613794513
1289 3018.435972526826
1290 3018.447416142213
1291 3018.437548186312
1292 3018.448113956646
1293 3018.437704855119
1294 3018.447845476708
1295 3018.437498360858
1296 3018.448721967371
1297 3018.440038493474
1298 3018.450955626841
1299 3018.441530725695
1300 3018.452774694347
1301 3018.442553669757
1302 3018.453883508731
1303 3018.44476588202
1304 3018.456866316265
1305 3018.44884636035
1306 3018.462480715538
1307 3018.453522245135
1308 3018.468082540515
1309 3018.460140130976
1310 3018.476167403398
1311 3018.468021378239
1312 3018.484863370974
1313 3018.475279084926
1314 3018.492103725125
1315 3018.480963209941
1316 3018.49614425044
1317 3018.484822731341
1318 3018.498811604105
1319 3018.487672433917
1320 3018.499042335866
1321 3018.488407113305
1322 3018.498779474482
1323 3018.488668757266
1324 3018.498339486693
1325 3018.489554938174
1326 3018.499534354082
1327 3018.490281443355
1328 3018.499257785495
1329 3018.490023239674
1330 3018.499419923002
1331 3018.489620235131
1332 3018.499311175247
1333 3018.491553023598
1334 3018.502630737278
1335 3018.494820293533
1336 3018.504544470195
1337 3018.4969073628
1338 3018.509701475725
1339 3018.501140675857
1340 3018.513041262519
1341 3018.504886076316
1342 3018.515698091424
1343 3018.507535409771
1344 3018.519105474673
1345 3018.50947073043
1346 3018.520230292299
1347 3018.512080805132
1348 3018.521830039505
1349 3018.513211779904
1350 3018.523193427799
1351 3018.51479072356
1352 3018.524864769477
1353 3018.517237429992
1354 3018.52676571642
1355 3018.517869271513
1356 3018.526666874485
1357 3018.518504387775
1358 3018.529952611542
1359 3018.521835671789
1360 3018.531272543276
1361 3018.524670338816
1362 3018.536020908801
1363 3018.529487455316
1364 3018.541112864908
1365 3018.533308479293
1366 3018.546013471913
1367 3018.536423032036
1368 3018.550133630568
1369 3018.538941155484
1370 3018.553064577169
1371 3018.541389094508
1372 3018.555040058703
1373 3018.542906394779
1374 3018.556262709147
1375 3018.544604907369
1376 3018.559131431678
1377 3018.544808497817
1378 3018.55850686396
1379 3018.544747649024
1380 3018.556579573173
1381 3018.54402499724
1382 3018.557066801707
1383 3018.544758102519
1384 3018.555358102768
1385 3018.544503085629
1386 3018.556753518405
1387 3018.546156444218
1388 3018.557012115802
1389 3018.547805750551
1390 3018.559011022235
1391 3018.551073865814
1392 3018.563071882567
1393 3018.554199319467
1394 3018.566145909684
1395 3018.557517840671
1396 3018.569627967122
1397 3018.560099897724
1398 3018.573340854679
1399 3018.564319297195
1400 3018.57579694116
1401 3018.566898107255
1402 3018.579084955992
1403 3018.568606884348
1404 3018.579520578175
1405 3018.569604972422
1406 3018.581656279627
1407 3018.571342956525
1408 3018.581247316517
1409 3018.571518271334
1410 3018.582981377803
1411 3018.572770485273
1412 3018.583575582692
1413 3018.573878987971
1414 3018.582890458193
1415 3018.573328006723
1416 3018.582772881143
1417 3018.572916176126
1418 3018.583356289274
1419 3018.573314567123
1420 3018.58356086518
1421 3018.572316383511
1422 3018.582994355293
1423 3018.572743139435
1424 3018.581880840183
1425 3018.57149626779
1426 3018.581560079902
1427 3018.571039641776
1428 3018.582953535116
1429 3018.574462178651
1430 3018.58664343693
1431 3018.577894908812
1432 3018.589119790824
1433 3018.580597981088
1434 3018.593531246463
1435 3018.584189514735
1436 3018.596727623192
1437 3018.588891505565
1438 3018.6012822722
1439 3018.593231297581
1440 3018.605386024214
1441 3018.597228003171
1442 3018.608872068644
1443 3018.599961224349
1444 3018.611429422212
1445 3018.600976644666
1446 3018.61063698268
1447 3018.601906321374
1448 3018.610880004931
1449 3018.601709067942
1450 3018.611194597996
1451 3018.601474622657
1452 3018.607765826716
1453 3018.600087591533
1454 3018.608712411991
1455 3018.598419288335
1456 3018.604914941999
1457 3018.595756064981
1458 3018.604654700697
1459 3018.59562282002
1460 3018.605803317346
1461 3018.598047774575
1462 3018.607622787265
1463 3018.600153985443
1464 3018.610341944209
1465 3018.602177015906
1466 3018.611960950723
1467 3018.603741072333
1468 3018.614613714545
1469 3018.605439754366
1470 3018.617917314957
1471 3018.609381655553
1472 3018.619897045222
1473 3018.612240567858
1474 3018.622320707122
1475 3018.612838810256
1476 3018.621402964791
1477 3018.613089962809
1478 3018.6219936542
1479 3018.61228142374
1480 3018.619922163724
1481 3018.611205423129
1482 3018.6208246217
1483 3018.610905814773
1484 3018.621093205704
1485 3018.612524642404
1486 3018.623039731002
1487 3018.614550246777
1488 3018.625620583683
1489 3018.616771829072
1490 3018.628480505323
1491 3018.61876009143
1492 3018.630497544489
1493 3018.620232932184
1494 3018.631594265642
1495 3018.621384526401
1496 3018.631979596308
1497 3018.623466533649
1498 3018.634428158511
1499 3018.626910153954
1500 3018.636126976067
1501 3018.628759142231
1502 3018.638494112834
1503 3018.630225540889
1504 3018.63639303665
1505 3018.627369689445
1506 3018.636122994561
1507 3018.625192721157
1508 3018.633416331546
1509 3018.622412796821
1510 3018.630713215638
1511 3018.619108819739
1512 3018.629034523775
1513 3018.618557886376
1514 3018.629365540629
1515 3018.619008379012
1516 3018.631690770804
1517 3018.621201048832
1518 3018.63430834056
1519 3018.623899773714
1520 3018.638434475385
1521 3018.62723421953
1522 3018.642376687343
1523 3018.630132954096
1524 3018.643843606994
1525 3018.633315905287
1526 3018.648394184455
1527 3018.637790830434
1528 3018.651012102614
1529 3018.640518021316
1530 3018.654784322061
1531 3018.643488890334
1532 3018.657011981686
1533 3018.644488732277
1534 3018.65546393675
1535 3018.64336826184
1536 3018.653677336115
1537 3018.641348914537
1538 3018.649693306606
1539 3018.638627260751
1540 3018.646495714955
1541 3018.635207147427
1542 3018.642680050827
1543 3018.633688772609
1544 3018.642019790574
1545 3018.632941327907
1546 3018.642213203391
1547 3018.632701016688
1548 3018.643026388124
1549 3018.633975696251
1550 3018.646226976678
1551 3018.635564905341
1552 3018.645314953834
1553 3018.636199386291
1554 3018.647593190531
1555 3018.639043739558
1556 3018.649541805431
1557 3018.641584613509
1558 3018.652182460846
1559 3018.646054664449
1560 3018.657048062602
1561 3018.650817051906
1562 3018.660459980154
1563 3018.653980771916
1564 3018.662932163993
1565 3018.655435532144
1566 3018.664496599073
1567 3018.657108306365
1568 3018.66591420615
1569 3018.657437313476
1570 3018.666121843097
1571 3018.656944156964
1572 3018.664087280573
1573 3018.65648580366
1574 3018.665269466457
1575 3018.655424839133
1576 3018.664439111949
1577 3018.654825060806
1578 3018.665498507935
1579 3018.654632863322
1580 3018.664343100593
1581 3018.652291101991
1582 3018.663879556816
1583 3018.652392134577
1584 3018.663159625513
1585 3018.651792935243
1586 3018.662224213665
1587 3018.652453346284
1588 3018.663245771454
1589 3018.652008852085
1590 3018.663136434522
1591 3018.651578595179
1592 3018.662518428493
1593 3018.651186507058
1594 3018.663027447096
1595 3018.651926687781
1596 3018.662343902751
1597 3018.653090115147
1598 3018.665005637821
1599 3018.654133379584
1600 3018.66384784064
1601 3018.654332687243
1602 3018.664895710819
1603 3018.653194281987
1604 3018.66516477932
1605 3018.65393432484
1606 3018.666654429996
1607 3018.655807883737
1608 3018.669576080747
1609 3018.658066210944
1610 3018.669588078687
1611 3018.65781159384
1612 3018.671266525738
1613 3018.660129316352
1614 3018.672505506227
1615 3018.66352802793
1616 3018.674392017884
1617 3018.664806489728
1618 3018.675066735633
1619 3018.667185796815
1620 3018.677883767855
1621 3018.668946682279
1622 3018.678966982779
1623 3018.671294273569
1624 3018.680114290367
1625 3018.672667843526
1626 3018.682780122371
1627 3018.673790310844
1628 3018.683458329189
1629 3018.674476793864
1630 3018.684001268527
1631 3018.672423178872
1632 3018.681388468262
1633 3018.668327060768
1634 3018.676561217912
1635 3018.664273699409
1636 3018.672048737056
1637 3018.659065997575
1638 3018.668038710888
1639 3018.657951502928
1640 3018.667850821157
1641 3018.657917074037
1642 3018.667610023269
1643 3018.658769428399
1644 3018.668819851668
1645 3018.65894332021
1646 3018.670288127256
1647 3018.661042506948
1648 3018.670772260608
1649 3018.66125895406
1650 3018.672429811391
1651 3018.664300583452
1652 3018.676556688548
1653 3018.668167121411
1654 3018.681491600871
1655 3018.672982407625
1656 3018.684771211191
1657 3018.675551690605
1658 3018.685718767701
1659 3018.676506781585
1660 3018.685840630731
1661 3018.675483750449
1662 3018.683149449179
1663 3018.674243707958
1664 3018.683077520531
1665 3018.672609453174
1666 3018.681286011171
1667 3018.670537404077
1668 3018.680497930992
1669 3018.668985532071
1670 3018.679658460957
1671 3018.6686483208
1672 3018.677605725408
1673 3018.66668747495
1674 3018.67725016393
1675 3018.666231111252
1676 3018.675398534685
1677 3018.666158079455
1678 3018.675848631764
1679 3018.667787451432
1680 3018.678657559328
1681 3018.671498013197
1682 3018.681368297601
1683 3018.674089305626
1684 3018.684773196428
1685 3018.675641767499
1686 3018.684622560057
1687 3018.677960065142
1688 3018.68747137872
1689 3018.677704068144
1690 3018.687421929917
1691 3018.677654283413
1692 3018.686354880904
1693 3018.676663282463
1694 3018.685929561712
1695 3018.677234613575
1696 3018.68573829653
1697 3018.676998807119
1698 3018.687799489503
1699 3018.678313366032
1700 3018.688160440679
1701 3018.680162992746
1702 3018.691041952433
1703 3018.681354545181
1704 3018.692125976296
1705 3018.682506640658
1706 3018.692025757121
1707 3018.681528033838
1708 3018.691732519243
1709 3018.680390108535
1710 3018.690800567599
1711 3018.678843104243
1712 3018.689537898522
1713 3018.676961617636
1714 3018.688813831993
1715 3018.676696776794
1716 3018.686780784925
1717 3018.676776950642
1718 3018.688795981779
1719 3018.676393694566
1720 3018.685398948602
1721 3018.674355099142
1722 3018.684316765133
1723 3018.672364708795
1724 3018.68131693102
1725 3018.671637886616
1726 3018.682037039258
1727 3018.670969181323
1728 3018.681922264303
1729 3018.672817609609
1730 3018.685337572028
1731 3018.674788135403
1732 3018.688534506984
1733 3018.676408725446
1734 3018.689814164046
1735 3018.679153378484
1736 3018.69236442023
1737 3018.681137930925
1738 3018.694265769473
1739 3018.683697021515
1740 3018.694277910893
1741 3018.684027211859
1742 3018.694303275055
1743 3018.685396386892
1744 3018.694476069817
1745 3018.686930705268
1746 3018.696489369564
1747 3018.687369236608
1748 3018.695931879968
1749 3018.687537005351
1750 3018.695903204548
1751 3018.686179323655
1752 3018.694323884448
1753 3018.684934605936
1754 3018.693125540896
1755 3018.682687204509
1756 3018.690926959121
1757 3018.679182035038
1758 3018.688135651469
1759 3018.677721402505
1760 3018.687167568578
1761 3018.675607309647
1762 3018.685938366623
1763 3018.67554087944
1764 3018.686676829591
1765 3018.676620092473
1766 3018.687603304236
1767 3018.677836633789
1768 3018.686848935381
1769 3018.677912022033
1770 3018.687143752336
1771 3018.678635573455
1772 3018.687338135454
1773 3018.680585826002
1774 3018.690601679441
1775 3018.683050576819
1776 3018.693659156196
1777 3018.686058968651
1778 3018.697147891038
1779 3018.688723975892
1780 3018.699204351519
1781 3018.689282915587
1782 3018.698540327618
1783 3018.690028543399
1784 3018.699431878475
1785 3018.688615381129
1786 3018.697587802041
1787 3018.687936350375
1788 3018.696839150905
1789 3018.687856867241
1790 3018.697489022381
1791 3018.687577266532
1792 3018.69555021648
1793 3018.686146524665
1794 3018.69595411828
1795 3018.684948123753
1796 3018.693146653748
1797 3018.681697140829
1798 3018.690634479649
1799 3018.679901466374
1800 3018.688715132341
1801 3018.678282754091
1802 3018.689551510487
1803 3018.67918607723
1804 3018.690929607467
1805 3018.679836634793
1806 3018.692896081387
1807 3018.682417209356
1808 3018.695689099776
1809 3018.683136057711
1810 3018.695561449117
1811 3018.683536767846
1812 3018.695870340398
1813 3018.68402961596
1814 3018.695965476406
1815 3018.686406510844
1816 3018.697656536425
1817 3018.687045880529
1818 3018.699485086516
1819 3018.690482418908
1820 3018.700852371492
1821 3018.691386846058
1822 3018.702522727624
1823 3018.692533811114
1824 3018.701849733365
1825 3018.691936234814
1826 3018.70194788388
1827 3018.690381863979
1828 3018.70028451244
1829 3018.688699179511
1830 3018.698875272623
1831 3018.689147668788
1832 3018.69987921721
1833 3018.689406671857
1834 3018.700699576934
1835 3018.690703523557
1836 3018.701875998962
1837 3018.690490358472
1838 3018.701666338777
1839 3018.691784015534
1840 3018.702652331629
1841 3018.690376442707
1842 3018.700142026831
1843 3018.690117287915
1844 3018.698132081274
1845 3018.687363170785
1846 3018.696328179461
1847 3018.685451089533
1848 3018.693518226548
1849 3018.683094178534
1850 3018.692231494828
1851 3018.681161369576
1852 3018.688796485926
1853 3018.678410616391
1854 3018.688367015328
1855 3018.678580092314
1856 3018.688461594234
1857 3018.678664907814
1858 3018.688717239347
1859 3018.680499639957
1860 3018.691674413849
1861 3018.683022447188
1862 3018.694053888141
1863 3018.687507205637
1864 3018.698513306149
1865 3018.691580629742
1866 3018.702267872272
1867 3018.695746691398
1868 3018.705962666227
1869 3018.698389205483
1870 3018.708612735561
1871 3018.700115711644
1872 3018.709922260668
1873 3018.700732894857
1874 3018.711461937426
1875 3018.700196243042
1876 3018.709070960766
1877 3018.69792759232
1878 3018.706713336363
1879 3018.694522616982
1880 3018.702529773804
1881 3018.689529091226
1882 3018.699229934482
1883 3018.685591241418
1884 3018.695389199864
1885 3018.683220101348
1886 3018.692400330523
1887 3018.68174018542
1888 3018.690870367425
1889 3018.679552801788
1890 3018.689454951419
1891 3018.678793852295
1892 3018.690962029406
1893 3018.682001332504
1894 3018.694777849852
1895 3018.68645401252
1896 3018.696753486559
1897 3018.6889012051
1898 3018.700791669663
1899 3018.692560062574
1900 3018.70289639521
1901 3018.694021382306
1902 3018.705212279824
1903 3018.697003615282
1904 3018.707349079937
1905 3018.699365019952
1906 3018.709545752696
1907 3018.698414228642
1908 3018.708681860033
1909 3018.698285549052
1910 3018.707606675666
1911 3018.697615987679
1912 3018.707231269885
1913 3018.696592186554
1914 3018.705820910014
1915 3018.695824419262
1916 3018.706303685305
1917 3018.695482347281
1918 3018.704252200828
1919 3018.695086536803
1920 3018.702593519678
1921 3018.692134733245
1922 3018.700443699172
1923 3018.691204269885
1924 3018.698576811718
1925 3018.689221320543
1926 3018.699331033458
1927 3018.690246628805
1928 3018.699411411956
1929 3018.691228363541
1930 3018.700952979907
1931 3018.691638078012
1932 3018.701943548062
1933 3018.692304183603
1934 3018.702700228192
1935 3018.692433865944
1936 3018.703291286532
1937 3018.692048498756
1938 3018.702801847912
1939 3018.691922850259
1940 3018.702377253941
1941 3018.691720573349
1942 3018.702453286402
1943 3018.692948751825
1944 3018.704230745839
1945 3018.694623477179
1946 3018.705969678315
1947 3018.695546100384
1948 3018.70425642055
1949 3018.693298793144
1950 3018.705277991584
1951 3018.693657568834
1952 3018.703783735653
1953 3018.69319347112
1954 3018.703199802405
1955 3018.692990702408
1956 3018.701994838751
1957 3018.693507398905
1958 3018.704078774917
1959 3018.694188584475
1960 3018.70416938464
1961 3018.693996599312
1962 3018.70361791561
1963 3018.693363613806
1964 3018.703504274495
1965 3018.692669536555
1966 3018.702637515662
1967 3018.691716219803
1968 3018.702267410737
1969 3018.691183649311
1970 3018.702743117385
1971 3018.690928251418
1972 3018.701632813552
1973 3018.690231540938
1974 3018.701141123708
1975 3018.689131081362
1976 3018.69828193427
1977 3018.687749525842
1978 3018.698549427587
1979 3018.687605682186
1980 3018.695504163136
1981 3018.685794622695
1982 3018.694256262926
1983 3018.68558640209
1984 3018.694434300928
1985 3018.686467273707
1986 3018.695869580642
1987 3018.689870161152
1988 3018.700010054052
1989 3018.693503074543
1990 3018.703174629237
1991 3018.697285427763
1992 3018.707122160752
1993 3018.699368327248
1994 3018.709651538938
1995 3018.701865143944
1996 3018.713535059046
1997 3018.702947275055
1998 3018.715988962569
1999 3018.704371553501
2000 3018.715979497368
2001 3018.703904496367
2002 3018.71575182434
2003 3018.701021705244
2004 3018.710365640149
2005 3018.698361888206
2006 3018.708301358776
2007 3018.695350498559
2008 3018.704370729
2009 3018.691424833388
2010 3018.699514816204
2011 3018.68740469144
2012 3018.696634945593
2013 3018.683198249069
2014 3018.691972145662
2015 3018.681493173155
2016 3018.691538952721
2017 3018.68055786625
2018 3018.691135957458
2019 3018.682761799907
2020 3018.694515052121
2021 3018.684339040615
2022 3018.697138198812
2023 3018.687713741205
2024 3018.69893909893
2025 3018.689093008601
2026 3018.702396772114
2027 3018.691674462598
2028 3018.704529183373
2029 3018.694287505335
2030 3018.708702377523
2031 3018.697048943386
2032 3018.70981978828
2033 3018.698310006961
2034 3018.710590546222
2035 3018.699579165886
2036 3018.710245797943
2037 3018.699013399627
2038 3018.708350392806
2039 3018.698589339046
2040 3018.708007662521
2041 3018.697193861331
2042 3018.705935659036
2043 3018.696723845383
2044 3018.705342840231
2045 3018.695878644033
2046 3018.70470342015
2047 3018.695080542229
2048 3018.703096853868
2049 3018.692851067057
2050 3018.701908049687
2051 3018.690905318674
2052 3018.700111084231
2053 3018.690994786554
2054 3018.70153269993
2055 3018.691631170198
2056 3018.701639396496
2057 3018.692368549459
2058 3018.703333478369
2059 3018.691829790833
2060 3018.701418360278
2061 3018.691466738935
2062 3018.701371386567
2063 3018.690196001817
2064 3018.700708777273
2065 3018.690411437675
2066 3018.701778466362
2067 3018.692139975758
2068 3018.701656695154
2069 3018.691026926084
2070 3018.702738166533
2071 3018.692981477365
2072 3018.702477174761
2073 3018.693428790749
2074 3018.703587747488
2075 3018.694295357074
2076 3018.702442858597
2077 3018.694324745004
2078 3018.702454411121
2079 3018.695112867445
2080 3018.702327509162
2081 3018.695881078223
2082 3018.704137338767
2083 3018.697564078644
2084 3018.706268881112
2085 3018.699230761058
2086 3018.707301210794
2087 3018.699502957134
2088 3018.708570857448
2089 3018.698193310745
2090 3018.70712926532
2091 3018.696280762879
2092 3018.706205988203
2093 3018.694589547051
2094 3018.704105467649
2095 3018.693233365754
2096 3018.702561377336
2097 3018.691129337452
2098 3018.69962575607
2099 3018.688163868034
2100 3018.697392647915
2101 3018.686857455129
2102 3018.697047254183
2103 3018.686876679611
2104 3018.696780884798
2105 3018.6874664056
2106 3018.698995643736
2107 3018.686658614482
2108 3018.698729309258
2109 3018.687681154164
2110 3018.698514027841
2111 3018.688799708091
2112 3018.700107627503
2113 3018.691007335334
2114 3018.703046923535
2115 3018.695451778335
2116 3018.707546333531
2117 3018.697534665256
2118 3018.710131241007
2119 3018.700446018093
2120 3018.71081961533
2121 3018.701956734721
2122 3018.71252968156
2123 3018.70250430655
2124 3018.712564876272
2125 3018.702989699168
2126 3018.713775999871
2127 3018.703117484046
2128 3018.712035850641
2129 3018.70122249832
2130 3018.709597094037
2131 3018.697910420442
2132 3018.706789277682
2133 3018.695038807459
2134 3018.702477325794
2135 3018.692706927085
2136 3018.701125935254
2137 3018.690583116348
2138 3018.698980860326
2139 3018.689705466571
2140 3018.697325360083
2141 3018.687763071456
2142 3018.696902203968
2143 3018.687239546866
2144 3018.696289309913
2145 3018.687083222207
2146 3018.697590425712
2147 3018.68762311601
2148 3018.697888179272
2149 3018.689039090137
2150 3018.702057988424
2151 3018.692624223736
2152 3018.703524521311
2153 3018.693861056442
2154 3018.705453572549
2155 3018.69347168955
2156 3018.704813666581
2157 3018.694756216956
2158 3018.706094442105
2159 3018.695839984272
2160 3018.706539086574
2161 3018.69540943083
2162 3018.706173921228
2163 3018.695370812922
2164 3018.7067990891
2165 3018.69544233237
2166 3018.707556299923
2167 3018.695300748419
2168 3018.706567155742
2169 3018.696325655954
2170 3018.708068044009
2171 3018.695757115192
2172 3018.706220032932
2173 3018.696523896187
2174 3018.707670812175
2175 3018.69687764187
2176 3018.708008112174
2177 3018.697883577037
2178 3018.709479518546
2179 3018.698735978724
2180 3018.710257441515
2181 3018.700943054029
2182 3018.710161303577
2183 3018.699617821731
2184 3018.708233766815
2185 3018.698228935298
2186 3018.705562678919
2187 3018.694754401686
2188 3018.701601849491
2189 3018.690791257392
2190 3018.699535832792
2191 3018.68981649502
2192 3018.698811881144
2193 3018.690396161397
2194 3018.700869180475
2195 3018.690439295566
2196 3018.700021330062
2197 3018.690819934974
2198 3018.701666415805
2199 3018.691371608258
2200 3018.701000380669
2201 3018.690998305091
2202 3018.701435360568
2203 3018.691909181416
2204 3018.703014409618
2205 3018.694821685202
2206 3018.704865905526
2207 3018.697511979672
2208 3018.708464510707
2209 3018.701482949603
2210 3018.71132799013
2211 3018.703155926014
2212 3018.713249782046
2213 3018.704065676104
2214 3018.713926934192
2215 3018.70313975826
2216 3018.711156486618
2217 3018.700187799182
2218 3018.707195052163
2219 3018.696462375862
2220 3018.70385158253
2221 3018.694111978286
2222 3018.702992017178
2223 3018.693346569798
2224 3018.70111158091
2225 3018.690772025933
2226 3018.700068340281
2227 3018.688911284458
2228 3018.698601046486
2229 3018.686493845469
2230 3018.695794425028
2231 3018.684202508906
2232 3018.695608304743
2233 3018.683781005937
2234 3018.696629934489
2235 3018.686492949632
2236 3018.699366695103
2237 3018.68917938089
2238 3018.704089453541
2239 3018.695157904589
2240 3018.709020468312
2241 3018.699213910099
2242 3018.712761413512
2243 3018.701593026856
2244 3018.713027524949
2245 3018.703651394751
2246 3018.714825706024
2247 3018.703985883016
2248 3018.713546362644
2249 3018.702705947959
2250 3018.71282623425
2251 3018.702556353145
2252 3018.711764919899
2253 3018.701874337899
2254 3018.710455571459
2255 3018.700485577626
2256 3018.708602172183
2257 3018.696846729466
2258 3018.704519660885
2259 3018.693077030709
2260 3018.701236067184
2261 3018.690504392002
2262 3018.697900635776
2263 3018.687032879349
2264 3018.697386505486
2265 3018.687110695406
2266 3018.698767347988
2267 3018.688161342509
2268 3018.697719862892
2269 3018.689809637855
2270 3018.700771188157
2271 3018.691461984924
2272 3018.701359454993
2273 3018.691372735137
2274 3018.702816255771
2275 3018.692401710171
2276 3018.702975845039
2277 3018.694174018019
2278 3018.705261916917
2279 3018.695155401581
2280 3018.707012457945
2281 3018.697653351137
2282 3018.708578899093
2283 3018.698761243988
2284 3018.710143692821
2285 3018.699340813861
2286 3018.71083824266
2287 3018.70070381691
2288 3018.712163570247
2289 3018.70012947665
2290 3018.710337668641
2291 3018.699046502718
2292 3018.708117212886
2293 3018.695963991994
2294 3018.705459022847
2295 3018.69572842597
2296 3018.704311297938
2297 3018.695588509285
2298 3018.706252910752
2299 3018.697122781122
2300 3018.706727875104
2301 3018.69743737716
2302 3018.708258634381
2303 3018.697510903556
2304 3018.707113774858
2305 3018.698017235831
2306 3018.708523490942
2307 3018.698779147448
2308 3018.707917772286
2309 3018.697667299721
2310 3018.706055056
2311 3018.696357616212
2312 3018.705189487907
2313 3018.693900225055
2314 3018.701229970647
2315 3018.691873395191
2316 3018.700569553364
2317 3018.6910213755
2318 3018.699621237084
2319 3018.691681019718
2320 3018.700558480586
2321 3018.690524698435
2322 3018.699120446779
2323 3018.689575899276
2324 3018.697287906807
2325 3018.688689160133
2326 3018.699185096405
2327 3018.689712727541
2328 3018.700890121816
2329 3018.693142508213
2330 3018.7064566637
2331 3018.697406727902
2332 3018.71019381902
2333 3018.70208618575
2334 3018.713722727274
2335 3018.704104587122
2336 3018.715163790373
2337 3018.703205891612
2338 3018.713095503181
2339 3018.701428743038
2340 3018.71187697639
2341 3018.69956203234
2342 3018.710739446474
2343 3018.697761612388
2344 3018.707667709538
2345 3018.695373705409
2346 3018.706145199899
2347 3018.693999310548
2348 3018.703292499979
2349 3018.691757370999
2350 3018.702469559391
2351 3018.688603132946
2352 3018.698258729359
2353 3018.686188150374
2354 3018.696939314998
2355 3018.684658796114
2356 3018.696081077985
2357 3018.686589222143
2358 3018.698317617857
2359 3018.689073581976
2360 3018.700725355767
2361 3018.693012466567
2362 3018.704017252358
2363 3018.697037366066
2364 3018.707432865149
2365 3018.699347845056
2366 3018.709874889263
2367 3018.701487188098
2368 3018.71055946211
2369 3018.702039276894
2370 3018.713691833481
2371 3018.704077430884
2372 3018.71375204108
2373 3018.704754229021
2374 3018.714221365613
2375 3018.703892186026
2376 3018.713481464182
2377 3018.703849840468
2378 3018.71275207528
2379 3018.702062983002
2380 3018.709783752626
2381 3018.698683502384
2382 3018.705800992532
2383 3018.695585964262
2384 3018.702677080335
2385 3018.692232322242
2386 3018.699773447759
2387 3018.689733098763
2388 3018.699432418264
2389 3018.688925664126
2390 3018.698851144587
2391 3018.689654985966
2392 3018.699563070753
2393 3018.689812333626
2394 3018.701117671233
2395 3018.691208221011
2396 3018.701028786966
2397 3018.69163425114
2398 3018.702379189646
2399 3018.693358095488
2400 3018.7026473674
2401 3018.694097362188
2402 3018.704629998601
2403 3018.696016026822
2404 3018.706319974625
2405 3018.69743425983
2406 3018.707727315043
2407 3018.698614524628
2408 3018.708500458114
2409 3018.699005903342
2410 3018.707684857321
2411 3018.698162918056
2412 3018.707221398316
2413 3018.697451864953
2414 3018.707364546343
2415 3018.696167825746
2416 3018.705888165679
2417 3018.694480724714
2418 3018.706409709451
2419 3018.693232771584
2420 3018.70542111689
2421 3018.694523144728
2422 3018.707191751803
2423 3018.696455452736
2424 3018.707662999162
2425 3018.699153399303
2426 3018.710887741735
2427 3018.701846748063
2428 3018.710869632823
2429 3018.702433541387
2430 3018.71355240566
2431 3018.702678759303
2432 3018.712939207176
2433 3018.70260322998
2434 3018.712308796569
2435 3018.700334499898
2436 3018.710266650447
2437 3018.698587497704
2438 3018.708159176656
2439 3018.696425149355
2440 3018.705820630162
2441 3018.694668500833
2442 3018.70357841602
2443 3018.692330390466
2444 3018.702761210879
2445 3018.691049712548
2446 3018.702446278156
2447 3018.689778679634
2448 3018.699815299432
2449 3018.689109762375
2450 3018.700485385051
2451 3018.690543701288
2452 3018.701349193604
2453 3018.693194253206
2454 3018.705836752616
2455 3018.697305948394
2456 3018.708876048849
2457 3018.700095812223
2458 3018.712031939137
2459 3018.699987640232
2460 3018.710971820837
2461 3018.700302107311
2462 3018.71018903619
2463 3018.7000475246
2464 3018.709039256361
2465 3018.698910733237
2466 3018.708506390452
2467 3018.699654797224
2468 3018.709228154844
2469 3018.699292068515
2470 3018.708088353536
2471 3018.697972047384
2472 3018.70648273576
2473 3018.696493259831
2474 3018.705341551911
2475 3018.694875770234
2476 3018.702899707002
2477 3018.692995535649
2478 3018.702229394742
2479 3018.691266451133
2480 3018.700480637233
2481 3018.690244865432
2482 3018.700290986319
2483 3018.691141330981
2484 3018.701897366026
2485 3018.693726214868
2486 3018.704658971121
2487 3018.697624346058
2488 3018.707481782987
2489 3018.699973856503
2490 3018.709691786119
2491 3018.701625477484
2492 3018.712329053062
2493 3018.703418242373
2494 3018.713997767884
2495 3018.705538702913
2496 3018.717036805971
2497 3018.706657749189
2498 3018.718556204043
2499 3018.707228153261
2500 3018.71744602515
2501 3018.705554789604
2502 3018.715248570758
2503 3018.701041168817
2504 3018.71058669816
2505 3018.697540533019
2506 3018.70801525442
2507 3018.694741504554
2508 3018.705356564255
2509 3018.693024582486
2510 3018.703369435212
2511 3018.69322742222
2512 3018.70334493564
2513 3018.692785270547
2514 3018.702415287305
2515 3018.694559213151
2516 3018.70264892529
2517 3018.694514277382
2518 3018.701298941623
2519 3018.695206675487
2520 3018.7030600997
2521 3018.695031644625
2522 3018.702064696577
2523 3018.694826317103
2524 3018.702747450267
2525 3018.69437298983
2526 3018.704429896625
2527 3018.694455550963
2528 3018.704171487696
2529 3018.692962080119
2530 3018.704173313897
2531 3018.692610791009
2532 3018.703740298712
2533 3018.693302958218
2534 3018.70503768502
2535 3018.693374858412
2536 3018.704568543011
2537 3018.693525482682
2538 3018.706291190126
2539 3018.695822309502
2540 3018.708417328876
2541 3018.697924108251
2542 3018.709960910853
2543 3018.700259532206
2544 3018.711983040467
2545 3018.701149528686
2546 3018.71292786518
2547 3018.702506860091
2548 3018.713960443861
2549 3018.702556118325
2550 3018.714817679838
2551 3018.703458504607
2552 3018.714770805645
2553 3018.70223911436
2554 3018.71413824168
2555 3018.70113890866
2556 3018.711291072305
2557 3018.698056844269
2558 3018.708074446243
2559 3018.694164005998
2560 3018.703875835849
2561 3018.690370743052
2562 3018.699571717396
2563 3018.689246838078
2564 3018.698595290627
2565 3018.688025566708
2566 3018.696821228871
2567 3018.686566766847
2568 3018.696807616389
2569 3018.687005280149
2570 3018.696866126443
2571 3018.688100554002
2572 3018.699957868476
2573 3018.689420426216
2574 3018.701295933527
2575 3018.691953625669
2576 3018.703341342866
2577 3018.696184790067
2578 3018.707408130389
2579 3018.700122840613
2580 3018.709876636854
2581 3018.703923841552
2582 3018.712933812599
2583 3018.706296648523
2584 3018.713457227405
2585 3018.70694335394
2586 3018.713938842995
2587 3018.706047571332
2588 3018.712757360189
2589 3018.703556489308
2590 3018.710374427429
2591 3018.700908132541
2592 3018.708925996354
2593 3018.698278799115
2594 3018.706889787732
2595 3018.696422386886
2596 3018.705742905584
2597 3018.693209435036
2598 3018.702902398884
2599 3018.692484144795
2600 3018.70295595883
2601 3018.689987952187
2602 3018.700620259141
2603 3018.688530193865
2604 3018.698099856859
2605 3018.687147618125
2606 3018.697840783608
2607 3018.687801186678
2608 3018.696757016868
2609 3018.689126698247
2610 3018.699592665434
2611 3018.691622412988
2612 3018.702334588371
2613 3018.695131743936
2614 3018.705809358449
2615 3018.696745598059
2616 3018.70731078761
2617 3018.697495830572
2618 3018.708411216654
2619 3018.699395482087
2620 3018.710369259652
2621 3018.699278014115
2622 3018.71137777687
2623 3018.700832503744
2624 3018.711958940702
2625 3018.700788762369
2626 3018.712116979155
2627 3018.699559188516
2628 3018.710107974118
2629 3018.698342775648
2630 3018.710007441702
2631 3018.69861994792
2632 3018.708728288347
2633 3018.696704431365
2634 3018.707170470835
2635 3018.696131059099
2636 3018.705102419318
2637 3018.695473392977
2638 3018.704221108102
2639 3018.694391590935
2640 3018.702688473728
2641 3018.693791339478
2642 3018.702177566804
2643 3018.694196829888
2644 3018.702666769783
2645 3018.694836330178
2646 3018.702926477471
2647 3018.696503827382
2648 3018.705166042067
2649 3018.695916311015
2650 3018.703686784323
2651 3018.69565221277
2652 3018.704157021781
2653 3018.693919522297
2654 3018.702755516927
2655 3018.693359028009
2656 3018.701259128698
2657 3018.691460097912
2658 3018.702008784797
2659 3018.69048850048
2660 3018.70134446697
2661 3018.690650891733
2662 3018.702907156892
2663 3018.691184142499
2664 3018.703204632725
2665 3018.692696662009
2666 3018.704631685887
2667 3018.694352838595
2668 3018.70626334645
2669 3018.695307681175
2670 3018.707476320835
2671 3018.698691948925
2672 3018.710153785435
2673 3018.700914583769
2674 3018.71227527946
2675 3018.702901020398
2676 3018.715052625702
2677 3018.7044357589
2678 3018.714276036224
2679 3018.705503271567
2680 3018.712890776734
2681 3018.701033831451
2682 3018.710270432753
2683 3018.697601503897
2684 3018.706734555547
2685 3018.695322942109
2686 3018.704294312187
2687 3018.692778374455
2688 3018.701870249281
2689 3018.691160467019
2690 3018.702302827741
2691 3018.689342303081
2692 3018.699658800423
2693 3018.688262178568
2694 3018.697352355884
2695 3018.686796203999
2696 3018.697223008323
2697 3018.686323459904
2698 3018.697528350928
2699 3018.688112383516
2700 3018.700044243157
2701 3018.690702227071
2702 3018.70256433075
2703 3018.694010994898
2704 3018.70595191251
2705 3018.697306502408
2706 3018.711362041149
2707 3018.702488431743
2708 3018.713702654902
2709 3018.705477940479
2710 3018.715464365544
2711 3018.704964018625
2712 3018.711949433257
2713 3018.704726898677
2714 3018.711774815868
2715 3018.702759900807
2716 3018.709572629476
2717 3018.701023691513
2718 3018.709012038843
2719 3018.699854157527
2720 3018.707882152235
2721 3018.697661849626
2722 3018.705739723607
2723 3018.694709455845
2724 3018.70369895747
2725 3018.691964473139
2726 3018.701270312022
2727 3018.690647865666
2728 3018.700217030899
2729 3018.688694932568
2730 3018.699872441794
2731 3018.689302668319
2732 3018.70136999887
2733 3018.692154386663
2734 3018.704860439982
2735 3018.694120084915
2736 3018.705410046744
2737 3018.695802007056
2738 3018.708361725373
2739 3018.697790019029
2740 3018.707922357624
2741 3018.698084811909
2742 3018.709739624913
2743 3018.700114443762
2744 3018.711769287059
2745 3018.702431649459
2746 3018.712721578978
2747 3018.701784506794
2748 3018.712889521269
2749 3018.701824808177
2750 3018.711385513535
2751 3018.699841266232
2752 3018.709422244759
2753 3018.696677783403
2754 3018.705291843467
2755 3018.69574224124
2756 3018.704893372165
2757 3018.69377501179
2758 3018.702424971598
2759 3018.693413891087
2760 3018.701022224208
2761 3018.69193194977
2762 3018.701650094529
2763 3018.691786537846
2764 3018.701074832129
2765 3018.691329526041
2766 3018.702782186925
2767 3018.693703412929
2768 3018.705146682878
2769 3018.694686334773
2770 3018.705112220487
2771 3018.694744826681
2772 3018.705686544028
2773 3018.6952076906
2774 3018.706364893016
2775 3018.696864857203
2776 3018.708230273409
2777 3018.695779777254
2778 3018.706547268169
2779 3018.696230945822
2780 3018.70713708919
2781 3018.696185211524
2782 3018.706787659726
2783 3018.695830917445
2784 3018.705580440815
2785 3018.696155879928
2786 3018.70751851208
2787 3018.697002092934
2788 3018.706826292765
2789 3018.697446609027
2790 3018.709292033768
2791 3018.699261555411
2792 3018.709064783415
2793 3018.70178323415
2794 3018.712825218799
2795 3018.703223598461
2796 3018.713251636429
2797 3018.704958101977
2798 3018.71434466759
2799 3018.706590791639
2800 3018.715069452857
2801 3018.706334794982
2802 3018.71456295798
2803 3018.705971525213
2804 3018.714361561805
2805 3018.703514128288
2806 3018.713267881957
2807 3018.701341627419
2808 3018.709254691613
2809 3018.697828196323
2810 3018.707920639096
2811 3018.695461063216
2812 3018.704186559902
2813 3018.692287050741
2814 3018.70272911556
2815 3018.690558071745
2816 3018.699426027053
2817 3018.688824661277
2818 3018.698735695546
2819 3018.687199533133
2820 3018.696537580582
2821 3018.686828260422
2822 3018.697048562035
2823 3018.688534518273
2824 3018.698785468816
2825 3018.689598213768
2826 3018.701352522599
2827 3018.692524135177
2828 3018.704518626449
2829 3018.695887886488
2830 3018.707747991167
2831 3018.699613058204
2832 3018.711382272427
2833 3018.70204302201
2834 3018.713854344781
2835 3018.70515767806
2836 3018.714029816087
2837 3018.704788335059
2838 3018.716559108137
2839 3018.707152947332
2840 3018.714743238158
2841 3018.704469152252
2842 3018.715029997691
2843 3018.703432071764
2844 3018.713110849047
2845 3018.702716439169
2846 3018.71225050325
2847 3018.701450844776
2848 3018.709622033872
2849 3018.69871936005
2850 3018.70681464787
2851 3018.696766158871
2852 3018.705130217219
2853 3018.694937954372
2854 3018.702796889235
2855 3018.695240173893
2856 3018.703661676632
2857 3018.69553102508
2858 3018.704764313647
2859 3018.697134968324
2860 3018.70360823268
2861 3018.695823007488
2862 3018.704485302312
2863 3018.696095323773
2864 3018.704878010006
2865 3018.696402978876
2866 3018.707085329818
2867 3018.69699252784
2868 3018.707367525443
2869 3018.697260411092
2870 3018.708607940634
2871 3018.698145862234
2872 3018.709847732052
2873 3018.698780554369
2874 3018.709789143778
2875 3018.698362481417
2876 3018.70916437885
2877 3018.696813978798
2878 3018.708458668978
2879 3018.696863919549
2880 3018.708482627993
2881 3018.695622553131
2882 3018.707396673493
2883 3018.695509611589
2884 3018.70681430688
2885 3018.694072945832
2886 3018.707164958152
2887 3018.696161356991
2888 3018.707831972498
2889 3018.697462320933
2890 3018.70985657303
2891 3018.697602884471
2892 3018.708600406881
2893 3018.697139336798
2894 3018.708789260293
2895 3018.696767010875
2896 3018.707673983093
2897 3018.696797694419
2898 3018.707626094817
2899 3018.69799196429
2900 3018.707371428296
2901 3018.698228901833
2902 3018.706495102648
2903 3018.696336614474
2904 3018.703995633821
2905 3018.694184210221
2906 3018.701623572661
2907 3018.692246606637
2908 3018.699554500167
2909 3018.689167783824
2910 3018.699847558102
2911 3018.691232305212
2912 3018.700054184334
2913 3018.691363791027
2914 3018.703354432908
2915 3018.694061428822
2916 3018.706130452408
2917 3018.697859666453
2918 3018.711073520099
2919 3018.702510420403
2920 3018.714390526042
2921 3018.704690580963
2922 3018.714395057515
2923 3018.705401242094
2924 3018.71443661373
2925 3018.703875632063
2926 3018.712749470969
2927 3018.702910204198
2928 3018.712537393409
2929 3018.70203771862
2930 3018.711760684295
2931 3018.701370649548
2932 3018.709919173206
2933 3018.698294296771
2934 3018.707961149868
2935 3018.697021710369
2936 3018.705148569274
2937 3018.693900167384
2938 3018.702883277799
2939 3018.690909023002
2940 3018.699588313722
2941 3018.689831770532
2942 3018.698975741863
2943 3018.688688808315
2944 3018.698274819045
2945 3018.688668681212
2946 3018.698475591415
2947 3018.690711645178
2948 3018.700428147348
2949 3018.691947433269
2950 3018.701757388429
2951 3018.693784635436
2952 3018.705809062538
2953 3018.696408193622
2954 3018.70833490425
2955 3018.699175913178
2956 3018.711531780101
2957 3018.699941075393
2958 3018.712253581637
2959 3018.701143556655
2960 3018.712063773798
2961 3018.701345047147
2962 3018.712776560318
2963 3018.701776737409
2964 3018.712069937805
2965 3018.701459015592
2966 3018.711232830367
2967 3018.700143357344
2968 3018.709368872066
2969 3018.699067704638
2970 3018.70773731899
2971 3018.696776179734
2972 3018.705814891346
2973 3018.695814627026
2974 3018.703887976154
2975 3018.693792359438
2976 3018.7022028802
2977 3018.692887406552
2978 3018.701978624805
2979 3018.6933986904
2980 3018.702431540912
2981 3018.692865485481
2982 3018.703501288061
2983 3018.693601601378
2984 3018.703738107536
2985 3018.694185034613
2986 3018.705315441123
2987 3018.695138590939
2988 3018.706372670703
2989 3018.697170237171
2990 3018.708823884743
2991 3018.698178355718
2992 3018.708739514265
2993 3018.69765914465
2994 3018.708109562581
2995 3018.696890246837
2996 3018.707011375948
2997 3018.696140188694
2998 3018.70578580255
2999 3018.694775978751
3000 3018.704024446029
3001 3018.694395485938
3002 3018.703613370294
3003 3018.695350961701
3004 3018.704595702111
3005 3018.694366461852
3006 3018.705223030078
3007 3018.695794388101
3008 3018.706467089929
3009 3018.697279007679
3010 3018.708830881767
3011 3018.698189136916
3012 3018.708229427957
3013 3018.698272470944
3014 3018.70948701123
3015 3018.698704900115
3016 3018.708715178953
3017 3018.696965985795
3018 3018.707718551295
3019 3018.697671626599
3020 3018.706878878224
3021 3018.695554025326
3022 3018.705731279726
3023 3018.694767826285
3024 3018.704714475777
3025 3018.6934643747
3026 3018.701417939618
3027 3018.691497416185
3028 3018.699075601191
3029 3018.688908055542
3030 3018.697565370805
3031 3018.688354203541
3032 3018.696893978327
3033 3018.687923223357
3034 3018.69808728892
3035 3018.688675714334
3036 3018.699031331794
3037 3018.691406005533
3038 3018.702498646498
3039 3018.694377087147
3040 3018.70385977676
3041 3018.695709522483
3042 3018.706424645899
3043 3018.6978572301
3044 3018.708793652915
3045 3018.701273148476
3046 3018.711700486272
3047 3018.7041982694
3048 3018.71583657315
3049 3018.707046802987
3050 3018.71804861187
3051 3018.707256604969
3052 3018.716932887576
3053 3018.707030844481
3054 3018.715661815888
3055 3018.706062756392
3056 3018.71396588177
3057 3018.703849758683
3058 3018.711138067641
3059 3018.699463856071
3060 3018.705398758425
3061 3018.694649026106
3062 3018.701582724765
3063 3018.690177211719
3064 3018.696928493065
3065 3018.6877776354
3066 3018.696045464907
3067 3018.687365890486
3068 3018.695906521118
3069 3018.6851156016
3070 3018.6939766442
3071 3018.684125045769
3072 3018.693703191867
3073 3018.684152422948
3074 3018.694587740494
3075 3018.686372260227
3076 3018.698453457803
3077 3018.689736764551
3078 3018.703252354347
3079 3018.695921147045
3080 3018.709510987078
3081 3018.70119141384
3082 3018.714063154183
3083 3018.705119216917
3084 3018.716512304571
3085 3018.706715160418
3086 3018.718216388167
3087 3018.70689221705
3088 3018.71693195593
3089 3018.705054441245
3090 3018.716176283284
3091 3018.702819115244
3092 3018.713338402418
3093 3018.70125782445
3094 3018.7133961663
3095 3018.698504366719
3096 3018.71008270031
3097 3018.696332529974
3098 3018.706950821001
3099 3018.694247020521
3100 3018.705246180511
3101 3018.691109051378
3102 3018.703443455442
3103 3018.692264541903
3104 3018.702784424383
3105 3018.693253184672
3106 3018.703731350471
3107 3018.695143034937
3108 3018.705102738058
3109 3018.696889064812
3110 3018.707445737503
3111 3018.697514993037
3112 3018.706319329089
3113 3018.695946800882
3114 3018.706263678551
3115 3018.695583232003
3116 3018.704089524766
3117 3018.693498192499
3118 3018.702749875713
3119 3018.692879979308
3120 3018.702068564363
3121 3018.693211309863
3122 3018.702094309696
3123 3018.692910195334
3124 3018.700955126087
3125 3018.692446194441
3126 3018.700442196081
3127 3018.69297401255
3128 3018.702897426266
3129 3018.693292495368
3130 3018.702245858049
3131 3018.695019339976
3132 3018.705258714045
3133 3018.697783309581
3134 3018.708400086844
3135 3018.700501695522
3136 3018.709807941286
3137 3018.701740038738
3138 3018.71297224259
3139 3018.70275608487
3140 3018.712672541629
3141 3018.702399020995
3142 3018.712997313254
3143 3018.701641689364
3144 3018.710981030902
3145 3018.700868219449
3146 3018.710520632721
3147 3018.69984181975
3148 3018.709239768327
3149 3018.698645951502
3150 3018.708214391329
3151 3018.6980982147
3152 3018.706486779193
3153 3018.694914513594
3154 3018.703243463795
3155 3018.692129378488
3156 3018.700804934958
3157 3018.689495306043
3158 3018.698940829583
3159 3018.689336401347
3160 3018.699803286134
3161 3018.689655347942
3162 3018.702067374461
3163 3018.693510640368
3164 3018.705044588668
3165 3018.696065229603
3166 3018.708742326522
3167 3018.697124226464
3168 3018.709038009232
3169 3018.699901497108
3170 3018.712354920267
3171 3018.702384295689
3172 3018.714305191361
3173 3018.705065757092
3174 3018.714850906519
3175 3018.707089111883
3176 3018.716009543467
3177 3018.705593585129
3178 3018.714106067279
3179 3018.704158795706
3180 3018.714293704119
3181 3018.702516019699
3182 3018.712601132557
3183 3018.701639305847
3184 3018.709802745052
3185 3018.697236437926
3186 3018.706607150787
3187 3018.694795454708
3188 3018.703022006357
3189 3018.690960911806
3190 3018.700917873078
3191 3018.688760757978
3192 3018.697718757193
3193 3018.687214415508
3194 3018.697933314032
3195 3018.68670658652
3196 3018.697103511196
3197 3018.685707929566
3198 3018.698195015962
3199 3018.687958234793
3200 3018.699811952378
3201 3018.690430569721
3202 3018.702434203013
3203 3018.692657895475
3204 3018.70606301034
3205 3018.698149306454
3206 3018.71077545378
3207 3018.702465526044
3208 3018.712357606856
3209 3018.703680878559
3210 3018.714064368593
3211 3018.704548515928
3212 3018.712826701518
3213 3018.704008501452
3214 3018.713964095877
3215 3018.704231616305
3216 3018.713834726026
3217 3018.70455094481
3218 3018.714205381237
3219 3018.70339021299
3220 3018.711362107822
3221 3018.700060189587
3222 3018.70932994607
3223 3018.69708649126
3224 3018.70612309481
3225 3018.694367608694
3226 3018.703558040468
3227 3018.691194608099
3228 3018.700984851301
3229 3018.690563814179
3230 3018.701504510226
3231 3018.692477614331
3232 3018.702577943285
3233 3018.693760118324
3234 3018.702928463871
3235 3018.695110748683
3236 3018.704069782051
3237 3018.69617661717
3238 3018.705365328439
3239 3018.697156316296
3240 3018.704692168052
3241 3018.696974387188
3242 3018.707073730735
3243 3018.69793951033
3244 3018.706425065357
3245 3018.697994911517
3246 3018.706275732206
3247 3018.697309312029
3248 3018.703945539839
3249 3018.696295220845
3250 3018.704563836613
3251 3018.695072677478
3252 3018.702366858141
3253 3018.694074734465
3254 3018.701981909712
3255 3018.693882252376
3256 3018.70265433696
3257 3018.693291442454
3258 3018.703519376524
3259 3018.694876534258
3260 3018.706013483873
3261 3018.696649374263
3262 3018.707585658846
3263 3018.698434093883
3264 3018.710872728596
3265 3018.700050714514
3266 3018.713106328029
3267 3018.700011857612
3268 3018.711798605986
3269 3018.700270693206
3270 3018.713188921101
3271 3018.700027077843
3272 3018.709557620398
3273 3018.697774778537
3274 3018.708041417654
3275 3018.694326182499
3276 3018.70408313014
3277 3018.69290353989
3278 3018.702200006675
3279 3018.691676451584
3280 3018.699875538672
3281 3018.688289669815
3282 3018.696786412658
3283 3018.688216643003
3284 3018.698459885809
3285 3018.688407326752
3286 3018.699549889052
3287 3018.689984367649
3288 3018.700899902671
3289 3018.693039281806
3290 3018.7049619032
3291 3018.696202922828
3292 3018.706161923281
3293 3018.697850391248
3294 3018.709227163385
3295 3018.700027442152
3296 3018.710136408911
3297 3018.702853007116
3298 3018.714225656145
3299 3018.704838120145
3300 3018.714013738865
3301 3018.70677488704
3302 3018.716100368452
3303 3018.706821099813
3304 3018.714618110645
3305 3018.70438984631
3306 3018.711409681402
3307 3018.701988329746
3308 3018.709781911931
3309 3018.699729152093
3310 3018.708122866155
3311 3018.697073015931
3312 3018.706407790559
3313 3018.694734267969
3314 3018.70382879685
3315 3018.691859907963
3316 3018.701395615919
3317 3018.68909315984
3318 3018.701081198699
3319 3018.688206159392
3320 3018.700097822716
3321 3018.68750135232
3322 3018.700240022731
3323 3018.686992053436
3324 3018.698617590049
3325 3018.688148603751
3326 3018.701651803256
3327 3018.69019430006
3328 3018.702719524896
3329 3018.691344105713
3330 3018.703054241753
3331 3018.692696096272
3332 3018.70434548314
3333 3018.693855851877
3334 3018.704372271335
3335 3018.695719528187
3336 3018.706259003123
3337 3018.696925747499
3338 3018.707613768105
3339 3018.698806562259
3340 3018.708409623193
3341 3018.69938683699
3342 3018.710257949515
3343 3018.700584177203
3344 3018.709826871155
3345 3018.70234971668
3346 3018.712782172357
3347 3018.70236168191
3348 3018.71255215929
3349 3018.704128972823
3350 3018.714979040182
3351 3018.705086395478
3352 3018.714171548121
3353 3018.704678805105
3354 3018.713095017319
3355 3018.705009318867
3356 3018.71289270276
3357 3018.704097906332
3358 3018.711127142201
3359 3018.702161910916
3360 3018.709235596177
3361 3018.699002776736
3362 3018.706208165654
3363 3018.696579813942
3364 3018.704940852947
3365 3018.693830759487
3366 3018.703869015685
3367 3018.69355646636
3368 3018.701608198712
3369 3018.691182343495
3370 3018.700780317028
3371 3018.687233035295
3372 3018.696884023023
3373 3018.686175260627
3374 3018.698356305592
3375 3018.686755141712
3376 3018.698236691707
3377 3018.687998645756
3378 3018.701387248833
3379 3018.690989610919
3380 3018.703536970043
3381 3018.694654675095
3382 3018.707135622125
3383 3018.697598525448
3384 3018.710373065898
3385 3018.700803467162
3386 3018.712673510487
3387 3018.703059835098
3388 3018.714639837548
3389 3018.703181602289
3390 3018.714988998511
3391 3018.703793710871
3392 3018.715558481143
3393 3018.703327445881
3394 3018.715677003926
3395 3018.702631207137
3396 3018.713689611323
3397 3018.70184509683
3398 3018.71378776976
3399 3018.701326558413
3400 3018.70961432319
3401 3018.6980370377
3402 3018.70561471231
3403 3018.692791287845
3404 3018.699712266241
3405 3018.690305676603
3406 3018.699470294253
3407 3018.689890667566
3408 3018.698765755377
3409 3018.689998943178
3410 3018.700201569188
3411 3018.690564687552
3412 3018.701905996702
3413 3018.691600261938
3414 3018.70216652089
3415 3018.69283121127
3416 3018.703394534732
3417 3018.693901177879
3418 3018.705505161362
3419 3018.697109475306
3420 3018.707214322999
3421 3018.699884704502
3422 3018.711974973578
3423 3018.703731055806
3424 3018.714216356699
3425 3018.70630428149
3426 3018.717625922695
3427 3018.708625034739
3428 3018.718219595811
3429 3018.708486984974
3430 3018.716255223284
3431 3018.705781302907
3432 3018.712585817209
3433 3018.700456414121
3434 3018.706619881011
3435 3018.696195795869
3436 3018.703658852852
3437 3018.692555795771
3438 3018.701321886321
3439 3018.691786856782
3440 3018.701803009107
3441 3018.69045021125
3442 3018.700785385513
3443 3018.69066945672
3444 3018.69885717945
3445 3018.691334574396
3446 3018.701514427492
3447 3018.693662613948
3448 3018.701368393981
3449 3018.693955727405
3450 3018.703936509736
3451 3018.696373080583
3452 3018.707532837687
3453 3018.699022158631
3454 3018.709227014755
3455 3018.699606338022
3456 3018.709830472004
3457 3018.700078291502
3458 3018.711513419817
3459 3018.699857577945
3460 3018.70952911222
3461 3018.697683552379
3462 3018.707060864343
3463 3018.69542351066
3464 3018.705634784517
3465 3018.69419570029
3466 3018.705479513343
3467 3018.694923888957
3468 3018.705299476819
3469 3018.696069711499
3470 3018.70834413649
3471 3018.697430309808
3472 3018.706986056433
3473 3018.696779609912
3474 3018.707955069967
3475 3018.696993410282
3476 3018.707003410858
3477 3018.69744402231
3478 3018.708488901158
3479 3018.698442939033
3480 3018.708913343594
3481 3018.698205322305
3482 3018.7082974736
3483 3018.697477334773
3484 3018.707678868926
3485 3018.695865987837
3486 3018.704687345399
3487 3018.694400004141
3488 3018.702123584475
3489 3018.691269724619
3490 3018.700033094324
3491 3018.689381140037
3492 3018.696715274132
3493 3018.687916521175
3494 3018.696109936605
3495 3018.686276202285
3496 3018.694069214315
3497 3018.685274520662
3498 3018.696187960234
3499 3018.686327862168
3500 3018.697907209396
3501 3018.689953751415
3502 3018.700399457047
3503 3018.6923971766
3504 3018.70430428595
3505 3018.696605748083
3506 3018.708199393118
3507 3018.700911546389
3508 3018.7117390987
3509 3018.701645197839
3510 3018.712485240463
3511 3018.70427493245
3512 3018.715527068903
3513 3018.706425376374
3514 3018.717346667199
3515 3018.707416389147
3516 3018.716360820475
3517 3018.705880481899
3518 3018.715335373166
3519 3018.704505061195
3520 3018.711298112836
3521 3018.700447077845
3522 3018.708443672713
3523 3018.697254249936
3524 3018.705146783258
3525 3018.694149209028
3526 3018.701954388689
3527 3018.691587474963
3528 3018.700952859912
3529 3018.688789828448
3530 3018.698700161878
3531 3018.687983667669
3532 3018.699665667644
3533 3018.688794439217
3534 3018.699951265274
3535 3018.68960484673
3536 3018.700951099526
3537 3018.689843063724
3538 3018.701892425155
3539 3018.689779099658
