"y-rfile"
"Iteration" "y"
("Iteration" "y")
1 3588.128861317162
2 3523.767275326463
3 3244.732975963059
4 2984.075155892351
5 2692.09850889228
6 2468.99286066524
7 2192.302414164252
8 1925.116686061519
9 1674.681036870721
10 1475.885241421359
11 1336.154152453907
12 1225.682454402979
13 1154.871307092203
14 1101.156522317987
15 1063.008833522902
16 1042.385509823478
17 1037.766207224216
18 1048.037330799992
19 1068.766854176727
20 1103.859373897956
21 1146.173613766076
22 1193.787723579263
23 1245.596469615424
24 1299.051342275742
25 1350.17547372154
26 1394.189494003198
27 1437.106391438024
28 1471.57908593384
29 1505.338371100351
30 1531.383749811125
31 1557.374906520066
32 1588.174779067907
33 1615.90707923583
34 1645.192986951548
35 1669.784332746413
36 1689.93933704952
37 1706.245522325261
38 1719.10372753055
39 1727.637273697702
40 1734.628647076633
41 1740.630121868441
42 1745.061548852094
43 1749.533935186558
44 1752.980116713681
45 1756.904292554567
46 1762.431808190697
47 1766.980417615713
48 1773.394596617065
49 1779.981022008449
50 1786.632245271927
51 1793.271993443609
52 1799.854657718965
53 1806.309934841625
54 1812.46320651778
55 1817.060019845003
56 1821.873253226086
57 1826.712705821427
58 1831.641710291887
59 1836.598185389139
60 1839.984626457653
61 1845.283678515421
62 1848.823704125334
63 1854.243478108021
64 1857.777457369669
65 1863.103064201762
66 1868.024039018019
67 1872.69646821151
68 1876.919088347591
69 1880.870128241691
70 1884.380866533334
71 1887.518150744313
72 1890.210177817141
73 1891.87382658275
74 1894.135411491793
75 1895.478946382559
76 1897.265985803429
77 1898.378983086437
78 1899.838013133196
79 1900.735719026985
80 1901.594074922768
81 1902.468908640178
82 1903.296002069905
83 1904.141985112541
84 1904.950928767654
85 1905.754647630956
86 1906.522279260106
87 1907.31621094146
88 1908.038139041922
89 1908.787232325294
90 1909.457783092532
91 1910.123540296183
92 1910.728780861739
93 1911.341154439405
94 1911.859652673047
95 1912.383804162733
96 1912.821711610864
97 1913.263435954824
98 1913.62140005725
99 1914.016059875034
100 1914.333071622283
101 1914.68177839797
102 1914.96950605638
103 1915.292781181018
104 1915.583493366506
105 1915.933663283853
106 1916.241668062264
107 1916.615049861424
108 1916.961011758904
109 1917.403576031319
110 1917.816610478722
111 1918.319033955099
112 1918.811727978211
113 1919.397481833102
114 1919.977297562787
115 1920.637478409069
116 1921.300166511751
117 1922.043545765613
118 1922.783468904116
119 1923.596348547913
120 1924.405512852728
121 1925.279928257457
122 1926.159859245686
123 1927.097101576148
124 1928.030724579469
125 1929.022744529723
126 1930.003730362547
127 1931.032633978535
128 1932.057207004311
129 1933.126082799619
130 1934.187411679165
131 1935.278802814376
132 1936.351710722437
133 1937.46744683572
134 1938.562536955924
135 1939.696620973137
136 1940.793708242366
137 1941.940140527056
138 1943.04203929054
139 1944.190421309035
140 1945.299166066987
141 1946.442083276551
142 1947.542870172287
143 1948.694142136608
144 1949.780319429346
145 1950.922262199304
146 1952.011776518677
147 1953.147705614034
148 1954.753152571082
149 1955.821193864909
150 1956.833723653129
151 1957.9015950582
152 1958.906256498504
153 1959.950349640203
154 1960.938686341809
155 1962.470447181399
156 1963.385331345793
157 1964.357666569747
158 1965.290490550727
159 1966.286377026026
160 1967.210156586836
161 1968.206202792021
162 1969.141388938735
163 1970.143037075994
164 1971.105697986852
165 1972.122375561851
166 1973.089394058677
167 1974.110557889162
168 1975.56019726914
169 1976.533470204588
170 1977.454320851864
171 1978.434526785424
172 1979.348164245438
173 1980.319466967371
174 1981.245596971925
175 1982.203734298843
176 1983.1213027808
177 1984.073080960196
178 1984.98836131019
179 1985.950403383164
180 1986.842788735456
181 1987.788226165106
182 1988.686694913603
183 1989.626161599378
184 1990.508449104615
185 1991.439062741349
186 1992.32164608318
187 1993.239847420801
188 1994.120482662635
189 1995.033306981561
190 1995.881720100096
191 1996.774450416699
192 1997.618819654377
193 1998.502006960551
194 1999.318266423896
195 2000.183661996523
196 2001.001204272892
197 2001.851186374546
198 2002.654584818521
199 2003.498258902672
200 2004.292754133646
201 2005.123854875368
202 2005.898575080972
203 2006.731761895971
204 2007.498000190567
205 2008.319853044288
206 2009.075145315419
207 2009.894910062107
208 2010.64250930599
209 2011.45189032853
210 2012.193477074529
211 2012.987283671226
212 2013.729446840247
213 2014.520818114934
214 2015.244278442891
215 2016.028718240031
216 2016.754047780347
217 2017.516258700891
218 2018.224640124022
219 2018.99493237561
220 2019.690343848968
221 2020.448375255779
222 2021.130291774465
223 2021.882333134434
224 2022.560594467653
225 2023.300862154949
226 2023.966586986156
227 2024.693435367305
228 2025.359903082677
229 2026.079484750185
230 2026.73341334991
231 2027.437331740705
232 2028.084402207276
233 2028.777566476693
234 2029.405193402672
235 2030.103852123456
236 2030.722201033535
237 2031.407111172652
238 2032.014762112858
239 2032.686419796205
240 2033.283093020757
241 2033.945011345164
242 2034.526659803538
243 2035.176787066401
244 2035.747204196465
245 2036.381919106954
246 2036.956039699212
247 2037.583534642024
248 2038.142275528511
249 2038.751167190687
250 2039.292999091523
251 2039.890218715177
252 2040.424032562513
253 2041.012932691555
254 2041.528227348181
255 2042.111546333874
256 2042.620811282213
257 2043.195563559168
258 2043.689183865219
259 2044.249156218082
260 2044.747970644627
261 2045.296214562937
262 2045.767198002144
263 2046.303396445378
264 2046.77675709276
265 2047.300308974547
266 2047.756450295969
267 2048.269197308275
268 2048.716672491728
269 2049.214024193866
270 2049.643175050423
271 2050.143825155
272 2050.568999443588
273 2051.056273518449
274 2051.467461269227
275 2051.943390039032
276 2052.348767964739
277 2052.817641044367
278 2053.20671279378
279 2053.667391448184
280 2054.049995241711
281 2054.497110266281
282 2054.878533688066
283 2055.314497115938
284 2055.68556663211
285 2056.113069786716
286 2056.472600919742
287 2056.896481968236
288 2057.24894544842
289 2057.663679144219
290 2057.995746018416
291 2058.403814269473
292 2058.732892781939
293 2059.131227775971
294 2059.451248906133
295 2059.838778202535
296 2060.156779565626
297 2060.53126977355
298 2060.842855959705
299 2061.213482828368
300 2061.524304846025
301 2061.880898919946
302 2062.176322440584
303 2062.533924637149
304 2062.818016391184
305 2063.170642405032
306 2063.441852406096
307 2063.791764091713
308 2064.069461988408
309 2064.402143480595
310 2064.668201115519
311 2065.001318107721
312 2065.262106818915
313 2065.588924987467
314 2065.839288836485
315 2066.155391710335
316 2066.415965036627
317 2066.726081582108
318 2066.974877484521
319 2067.285903483755
320 2067.537993785551
321 2067.830264239835
322 2068.064775223657
323 2068.372327117172
324 2068.603015438716
325 2068.897501136024
326 2069.123351302688
327 2069.41593536108
328 2069.638105142252
329 2069.928872793197
330 2070.139979631406
331 2070.426262301476
332 2070.641773306037
333 2070.908824816397
334 2071.119159733
335 2071.395168633225
336 2071.594608900765
337 2071.861484573999
338 2072.062820537537
339 2072.332693023819
340 2072.524569866416
341 2072.784450945651
342 2072.969117686592
343 2073.231030827941
344 2073.416442213991
345 2073.668090737172
346 2073.845787681328
347 2074.098024482876
348 2074.270854236839
349 2074.5102646706
350 2074.687722063041
351 2074.931485398873
352 2075.104515251116
353 2075.336749151648
354 2075.505916323584
355 2075.737048776222
356 2075.903062263374
357 2076.135815877112
358 2076.291156185414
359 2076.525116396476
360 2076.679702933005
361 2076.903850081494
362 2077.049391831163
363 2077.278063498638
364 2077.425935547901
365 2077.646263558961
366 2077.784414297572
367 2077.998978064262
368 2078.156324641219
369 2078.363009918314
370 2078.505870458292
371 2078.713815406929
372 2078.859548607641
373 2079.052807830973
374 2079.189487875972
375 2079.395427214948
376 2079.524487405965
377 2079.729447383111
378 2079.853658150218
379 2080.058788800842
380 2080.18474976578
381 2080.382361223719
382 2080.500385678052
383 2080.701363408341
384 2080.815972549625
385 2081.000372868324
386 2081.128377484027
387 2081.312001019774
388 2081.429099085888
389 2081.606734179888
390 2081.722347309319
391 2081.911409622423
392 2082.020638802872
393 2082.199971646729
394 2082.304241517326
395 2082.487279237884
396 2082.586476806602
397 2082.760442883697
398 2082.864795733279
399 2083.03889930295
400 2083.136974936364
401 2083.301852026764
402 2083.402168968738
403 2083.569110118409
404 2083.669384706616
405 2083.828314626272
406 2083.923729231006
407 2084.088096163688
408 2084.174819103164
409 2084.337329189892
410 2084.424578072034
411 2084.587508978174
412 2084.673402508525
413 2084.831975924551
414 2084.90927735593
415 2085.07350575559
416 2085.154382651791
417 2085.305134133654
418 2085.38380986339
419 2085.532990277246
420 2085.616625958291
421 2085.76014586163
422 2085.840248953632
423 2085.981804572776
424 2086.06348326345
425 2086.200677789827
426 2086.272205585847
427 2086.42245285037
428 2086.488897855195
429 2086.628287287549
430 2086.694580870272
431 2086.843767364383
432 2086.903558715171
433 2087.049431227301
434 2087.111546623843
435 2087.253425747411
436 2087.318577574395
437 2087.447034588508
438 2087.515491919215
439 2087.648808578852
440 2087.718422904503
441 2087.837749879681
442 2087.903771282596
443 2088.029364243298
444 2088.083667722119
445 2088.221355605746
446 2088.272239178571
447 2088.408477878733
448 2088.456338481957
449 2088.585460105937
450 2088.631781119165
451 2088.765025281916
452 2088.814355308405
453 2088.934678693716
454 2088.978936804516
455 2089.100538554635
456 2089.153414411564
457 2089.268874515201
458 2089.316035137751
459 2089.432155446453
460 2089.484837497771
461 2089.598261806128
462 2089.632896633067
463 2089.756386500097
464 2089.797490569315
465 2089.904405537442
466 2089.94143732947
467 2090.06098861359
468 2090.092194589345
469 2090.203540595442
470 2090.238918282576
471 2090.33916945858
472 2090.387522490869
473 2090.486433739081
474 2090.518777675959
475 2090.623094108636
476 2090.659022914272
477 2090.761320772351
478 2090.789621803642
479 2090.898982698116
480 2090.925221908796
481 2091.028416816493
482 2091.060729334083
483 2091.161706057838
484 2091.192636511246
485 2091.283752125242
486 2091.309654959962
487 2091.408704281533
488 2091.448300275842
489 2091.532604145091
490 2091.562676264811
491 2091.652754977007
492 2091.674779215618
493 2091.772872234792
494 2091.791072682255
495 2091.888618451299
496 2091.909641544544
497 2092.001358375529
498 2092.015725060311
499 2092.116835198504
500 2092.135724755022
501 2092.221274527635
502 2092.240218577472
503 2092.323782010491
504 2092.352520034653
505 2092.432498872114
506 2092.453447104784
507 2092.532094467604
508 2092.559796407049
509 2092.631554804863
510 2092.643490679815
511 2092.73534330071
512 2092.751560670152
513 2092.831780771982
514 2092.841861143255
515 2092.927630678895
516 2092.936374140614
517 2093.022250543127
518 2093.02988469313
519 2093.112519241851
520 2093.126270898536
521 2093.196734009955
522 2093.215097813225
523 2093.291127301462
524 2093.308719884347
525 2093.377183180474
526 2093.383939256416
527 2093.467353765171
528 2093.475378003799
529 2093.549780111269
530 2093.5568973789
531 2093.636945265891
532 2093.64402795227
533 2093.718725498472
534 2093.716399061514
535 2093.790019992198
536 2093.804223446506
537 2093.871669202018
538 2093.879642097259
539 2093.950993499388
540 2093.953739963647
541 2094.028367820975
542 2094.027905245916
543 2094.101956861808
544 2094.10244198346
545 2094.177321693139
546 2094.17217442117
547 2094.248998436175
548 2094.248481482665
549 2094.308070456535
550 2094.312415371636
551 2094.377689213597
552 2094.380987234138
553 2094.44099647345
554 2094.446715975459
555 2094.501647736249
556 2094.501279134
557 2094.574483161335
558 2094.562492870952
559 2094.637124560251
560 2094.635004274528
561 2094.700259760421
562 2094.68991502497
563 2094.763901775832
564 2094.75517698613
565 2094.821980430891
566 2094.813212525768
567 2094.870983365116
568 2094.872711372611
569 2094.935935919319
570 2094.926262898493
571 2094.986860129922
572 2094.985963954092
573 2095.040426791168
574 2095.032080882052
575 2095.102515651267
576 2095.087916890569
577 2095.152497175032
578 2095.139227425766
579 2095.20424225873
580 2095.192599804186
581 2095.249211957264
582 2095.233155995817
583 2095.29981010764
584 2095.289725363837
585 2095.337941017743
586 2095.330135006058
587 2095.389197932277
588 2095.381407862751
589 2095.432911249326
590 2095.425710360582
591 2095.488166465149
592 2095.472505079891
593 2095.532144256655
594 2095.515917968412
595 2095.575147686635
596 2095.562056654748
597 2095.62042413276
598 2095.601705220045
599 2095.661588147355
600 2095.644297346492
601 2095.692049199059
602 2095.684203337493
603 2095.736867852221
604 2095.731758088574
605 2095.778780465921
606 2095.768447257205
607 2095.816539472522
608 2095.804494418427
609 2095.857087497564
610 2095.841602425089
611 2095.899387644488
612 2095.88080746274
613 2095.935343249998
614 2095.916469412789
615 2095.973331222544
616 2095.957478070494
617 2096.011336495811
618 2095.99031155176
619 2096.039569636393
620 2096.033169763162
621 2096.083074972144
622 2096.069300353689
623 2096.116450629135
624 2096.102615388475
625 2096.142759341338
626 2096.127097682031
627 2096.186820982836
628 2096.164569146632
629 2096.218312473627
630 2096.195620653913
631 2096.250241622565
632 2096.229111921937
633 2096.284017809405
634 2096.260468937031
635 2096.314242250648
636 2096.292917380524
637 2096.335725901705
638 2096.325383739949
639 2096.373855609057
640 2096.357806566843
641 2096.407640902368
642 2096.386319482136
643 2096.442811362036
644 2096.419807551013
645 2096.471396173117
646 2096.448871324647
647 2096.504754815747
648 2096.481325727551
649 2096.532551169349
650 2096.510413117684
651 2096.56688819592
652 2096.542553435951
653 2096.579163521572
654 2096.564930231298
655 2096.611934961479
656 2096.600169358733
657 2096.639783510076
658 2096.615836196568
659 2096.65883970989
660 2096.636156909604
661 2096.680754284329
662 2096.654846535298
663 2096.709511277356
664 2096.685689219015
665 2096.727241161747
666 2096.701964585524
667 2096.754447656413
668 2096.729776853987
669 2096.775111340035
670 2096.746527432287
671 2096.791858877879
672 2096.774087035545
673 2096.813654694982
674 2096.796254039999
675 2096.840259298071
676 2096.82313042908
677 2096.859711950955
678 2096.827733643184
679 2096.876928079212
680 2096.856181576331
681 2096.898748615667
682 2096.870102724807
683 2096.924379551171
684 2096.895319989586
685 2096.940927274496
686 2096.911496910515
687 2096.958970853998
688 2096.938016223404
689 2096.970770564049
690 2096.94994659445
691 2096.991209566026
692 2096.968038584709
693 2097.003983518949
694 2096.981471883446
695 2097.032011305553
696 2096.998603267395
697 2097.043698407321
698 2097.015881352686
699 2097.063616036291
700 2097.038220931749
701 2097.077868969051
702 2097.041526920347
703 2097.09019833634
704 2097.066367071199
705 2097.096722493244
706 2097.079501741166
707 2097.119956280698
708 2097.097936094721
709 2097.134291549247
710 2097.110901559506
711 2097.148942664268
712 2097.126092129988
713 2097.165055100525
714 2097.127715933708
715 2097.17695431764
716 2097.152208213437
717 2097.193608541723
718 2097.163314759969
719 2097.21023124913
720 2097.179733721746
721 2097.223281949101
722 2097.194783552846
723 2097.233110190615
724 2097.218285759562
725 2097.252579743559
726 2097.222463550757
727 2097.269238303824
728 2097.247933200209
729 2097.281727482803
730 2097.252147978514
731 2097.298991620447
732 2097.266293000458
733 2097.306082260053
734 2097.27583732664
735 2097.319804729513
736 2097.290341483923
737 2097.330569238444
738 2097.29919503319
739 2097.351190489203
740 2097.325330238535
741 2097.359401136821
742 2097.335964297741
743 2097.376472687107
744 2097.348000016698
745 2097.3854315861
746 2097.360714885256
747 2097.406368303999
748 2097.379079049538
749 2097.418233256191
750 2097.380050566363
751 2097.430794231751
752 2097.39792711862
753 2097.437425139854
754 2097.406519802763
755 2097.44710016358
756 2097.413470407214
757 2097.44641219513
758 2097.425443881275
759 2097.460625735407
760 2097.444178279337
761 2097.474522150042
762 2097.444404997353
763 2097.483623873914
764 2097.456460664522
765 2097.496815700869
766 2097.461961324085
767 2097.505307146405
768 2097.471697551811
769 2097.518240933126
770 2097.479660492595
771 2097.525287564352
772 2097.492892080452
773 2097.531521842741
774 2097.492709225294
775 2097.531094291323
776 2097.508562307548
777 2097.543712713499
778 2097.516765406261
779 2097.550752654331
780 2097.52576604362
781 2097.55642679874
782 2097.526154165854
783 2097.566928146717
784 2097.536647120749
785 2097.572511360012
786 2097.5404812313
787 2097.586592651041
788 2097.554626151772
789 2097.593243932899
790 2097.56111765752
791 2097.599378052674
792 2097.566868306287
793 2097.601768829962
794 2097.578107704652
795 2097.612223969008
796 2097.585369080857
797 2097.618293816127
798 2097.589341569214
799 2097.635400244661
800 2097.602632759775
801 2097.639195367688
802 2097.606297287961
803 2097.646256293152
804 2097.610208471519
805 2097.647320811816
806 2097.61681322549
807 2097.657568569383
808 2097.623096698331
809 2097.649832630164
810 2097.621474650356
811 2097.658716739596
812 2097.635282480827
813 2097.665270522895
814 2097.635544840633
815 2097.668501205243
816 2097.638576087005
817 2097.678606898915
818 2097.645026126464
819 2097.684766442544
820 2097.653374530173
821 2097.693070570159
822 2097.652274433387
823 2097.696382018999
824 2097.668676315614
825 2097.705044240477
826 2097.665406511257
827 2097.698822123196
828 2097.676413578569
829 2097.71300731527
830 2097.685776768286
831 2097.717269187714
832 2097.692816558781
833 2097.729570977391
834 2097.691371130153
835 2097.737225778314
836 2097.704594661091
837 2097.740771445138
838 2097.707180072111
839 2097.748228002285
840 2097.716131670546
841 2097.754993716121
842 2097.72001444767
843 2097.762732820682
844 2097.72888896597
845 2097.760512014578
846 2097.731318028676
847 2097.767952329101
848 2097.739658719928
849 2097.769967905536
850 2097.739480057792
851 2097.782145219312
852 2097.752694529122
853 2097.787466931355
854 2097.753998213323
855 2097.797831919842
856 2097.767898410005
857 2097.799812306636
858 2097.761525076237
859 2097.802691491073
860 2097.770539148663
861 2097.797675420536
862 2097.769669412039
863 2097.803543719446
864 2097.776137090538
865 2097.807246735783
866 2097.777150819911
867 2097.806289636258
868 2097.777295885821
869 2097.812087906729
870 2097.767932220341
871 2097.814361217592
872 2097.781767220809
873 2097.818834023129
874 2097.782291035184
875 2097.82274528818
876 2097.786248399925
877 2097.825814026718
878 2097.788148712239
879 2097.823239690638
880 2097.802216735263
881 2097.833209300954
882 2097.798550659877
883 2097.833778025697
884 2097.806467339232
885 2097.832120169336
886 2097.800564363059
887 2097.835717058952
888 2097.803789487969
889 2097.842844761207
890 2097.804240967325
891 2097.847261598839
892 2097.816882065551
893 2097.847792275973
894 2097.808869414891
895 2097.852668189949
896 2097.817901765502
897 2097.844113549324
898 2097.815581377642
899 2097.852150441356
900 2097.818287199823
901 2097.851173101476
902 2097.818674646097
903 2097.862328770911
904 2097.829350810165
905 2097.861050612684
906 2097.821534314457
907 2097.864062678933
908 2097.832791998099
909 2097.870335786868
910 2097.833813043731
911 2097.870555474876
912 2097.834757716804
913 2097.864250088949
914 2097.836147616454
915 2097.872426623016
916 2097.845220407741
917 2097.872489335924
918 2097.837892226938
919 2097.868160667673
920 2097.840332988486
921 2097.878334976876
922 2097.839199078433
923 2097.879715566075
924 2097.844223731326
925 2097.881742839917
926 2097.846196406127
927 2097.887350861525
928 2097.853166433413
929 2097.887047392994
930 2097.848585888382
931 2097.88455933741
932 2097.86692939378
933 2097.896108874344
934 2097.866649424449
935 2097.900703093758
936 2097.873518271922
937 2097.901286712834
938 2097.870914873607
939 2097.911855934022
940 2097.877209551695
941 2097.915494658836
942 2097.87326368248
943 2097.916618489235
944 2097.887033763947
945 2097.925291182382
946 2097.885891567102
947 2097.927817971891
948 2097.889173529638
949 2097.922883760523
950 2097.894319918239
951 2097.926513626628
952 2097.897958276511
953 2097.930801436346
954 2097.89626503097
955 2097.937333645437
956 2097.905671495896
957 2097.944074349029
958 2097.901225111439
959 2097.943098921206
960 2097.905361498777
961 2097.943761422844
962 2097.90693672618
963 2097.942861611422
964 2097.909013642714
965 2097.942396151895
966 2097.908196626885
967 2097.946996145269
968 2097.918105091421
969 2097.946104551271
970 2097.913172375285
971 2097.944273316516
972 2097.909918833188
973 2097.948546568214
974 2097.907843760652
975 2097.948662172296
976 2097.912868377687
977 2097.951228483221
978 2097.909902752327
979 2097.9539928906
980 2097.920703907122
981 2097.957118939396
982 2097.913485317077
983 2097.946675598553
984 2097.921176571038
985 2097.947312187961
986 2097.923082690279
987 2097.951664359343
988 2097.92772900677
989 2097.95347321602
990 2097.913451694183
991 2097.957817505692
992 2097.924676552432
993 2097.956850950734
994 2097.918560055112
995 2097.962744819978
996 2097.925048419742
997 2097.965068834084
998 2097.926629118426
999 2097.963192651488
1000 2097.930601753224
1001 2097.959872551435
1002 2097.927763435073
1003 2097.962738096422
1004 2097.9316660315
1005 2097.961502819325
1006 2097.927767861102
1007 2097.971108514883
1008 2097.934208049129
1009 2097.9675492478
1010 2097.928023612411
1011 2097.969150734675
1012 2097.930286767325
1013 2097.966575681422
1014 2097.925445464989
1015 2097.967966876391
1016 2097.93368739755
1017 2097.958320459686
1018 2097.92533357631
1019 2097.958478792772
1020 2097.931286662476
1021 2097.957693158927
1022 2097.928336727756
1023 2097.959673884143
1024 2097.926997988447
1025 2097.969212317223
1026 2097.925397041407
1027 2097.964911328314
1028 2097.933052830686
1029 2097.966164381362
1030 2097.929193160589
1031 2097.971609702748
1032 2097.936118851801
1033 2097.973893137765
1034 2097.938776660009
1035 2097.971507897566
1036 2097.946780447684
1037 2097.979566516008
1038 2097.942324986999
1039 2097.974292458577
1040 2097.949793724803
1041 2097.97627770321
1042 2097.940130856606
1043 2097.980043375906
1044 2097.945270535491
1045 2097.985029700523
1046 2097.949203827225
1047 2097.984468107653
1048 2097.955330623097
1049 2097.991535455022
1050 2097.955335876226
1051 2097.990680104354
1052 2097.96226468328
1053 2097.987215783538
1054 2097.959688376451
1055 2097.989569027559
1056 2097.958826017048
1057 2097.992753790736
1058 2097.959487267573
1059 2097.994102596442
1060 2097.959457937861
1061 2097.997001731434
1062 2097.953713403302
1063 2097.994068308215
1064 2097.958450767692
1065 2097.990456828093
1066 2097.953904391689
1067 2097.987033626122
1068 2097.960257024774
1069 2097.991871277
1070 2097.960819556096
1071 2097.989742575692
1072 2097.95940920292
1073 2097.995124125174
1074 2097.952711898687
1075 2097.996788924116
1076 2097.95785847051
1077 2097.991984572769
1078 2097.95224609142
1079 2097.993018509428
1080 2097.95742172753
1081 2097.982133449865
1082 2097.9552403949
1083 2097.990429047487
1084 2097.966903733162
1085 2097.990416400785
1086 2097.961463119308
1087 2097.991671326759
1088 2097.959383277756
1089 2097.994558810489
1090 2097.952987326809
1091 2097.996254174247
1092 2097.959116108148
1093 2097.992480499835
1094 2097.953986287116
1095 2097.992483770104
1096 2097.957229608234
1097 2097.993249923685
1098 2097.950210863742
1099 2097.979570430974
1100 2097.956204392591
1101 2097.985288512021
1102 2097.954018147017
1103 2097.988156537878
1104 2097.960407616561
1105 2097.986496284224
1106 2097.948346214351
1107 2097.985317673472
1108 2097.952176299148
1109 2097.989260754467
1110 2097.951344560413
1111 2097.990079640686
1112 2097.956388393133
1113 2097.993799320825
1114 2097.955823281388
1115 2097.99228404424
1116 2097.956884690738
1117 2097.985951180856
1118 2097.956325889463
1119 2097.98677356748
1120 2097.954058990453
1121 2097.983400722386
1122 2097.952082185824
1123 2097.989757148303
1124 2097.957128005248
1125 2097.989934838829
1126 2097.953289976369
1127 2097.989761026322
1128 2097.955066988823
1129 2097.987288990513
1130 2097.95480084361
1131 2097.990754534615
1132 2097.957686841218
1133 2097.986313121342
1134 2097.956042446687
1135 2097.992193140777
1136 2097.967848477177
1137 2097.993407336762
1138 2097.962611342564
1139 2097.994249373626
1140 2097.959090664749
1141 2097.99773253485
1142 2097.957364354514
1143 2098.001727617576
1144 2097.969418499912
1145 2098.000873254472
1146 2097.964283694977
1147 2098.004022314375
1148 2097.974714658684
1149 2098.009815096763
1150 2097.969160712846
1151 2098.004201300455
1152 2097.978679136064
1153 2098.006191739202
1154 2097.977431145209
1155 2098.00698671933
1156 2097.983139311813
1157 2098.009350294142
1158 2097.966285826244
1159 2098.010353381984
1160 2097.976284642281
1161 2098.011877266631
1162 2097.971114248761
1163 2098.015882135977
1164 2097.976980388651
1165 2098.008802635704
1166 2097.972565930022
1167 2098.012590256152
1168 2097.978289277809
1169 2098.00574025089
1170 2097.972412141867
1171 2098.009091071268
1172 2097.980400349156
1173 2098.008299355457
1174 2097.979762605919
1175 2098.015307088634
1176 2097.980846806975
1177 2098.01559285534
1178 2097.979311845469
1179 2098.013071599446
1180 2097.980125402801
1181 2098.013585856317
1182 2097.969413952792
1183 2098.013684117423
1184 2097.979270014779
1185 2098.003791898506
1186 2097.973634357907
1187 2098.006827141664
1188 2097.979913742721
1189 2098.006917538866
1190 2097.972968639201
1191 2098.000777968874
1192 2097.967750522509
1193 2098.002332002118
1194 2097.960578395837
1195 2098.000484285222
1196 2097.969662847443
1197 2098.005265123732
1198 2097.965894687125
1199 2098.004576842424
1200 2097.968150272724
1201 2098.00160726794
1202 2097.963551925529
1203 2097.99155287539
1204 2097.968267708909
1205 2097.999123131773
1206 2097.962618647804
1207 2097.993589918604
1208 2097.968123255348
1209 2097.996390374247
1210 2097.956967992464
1211 2097.996433697065
1212 2097.959672895837
1213 2097.993379748837
1214 2097.959319595417
1215 2097.994078236888
1216 2097.962484058773
1217 2097.996735513441
1218 2097.962264083887
1219 2098.000154322042
1220 2097.96528924968
1221 2097.991546128458
1222 2097.960452226307
1223 2097.991324897989
1224 2097.959105764075
1225 2097.990148505188
1226 2097.962135313763
1227 2097.999749058773
1228 2097.963902578299
1229 2098.002087512269
1230 2097.963529871638
1231 2098.00301063522
1232 2097.96911782626
1233 2098.001570628071
1234 2097.96240477532
1235 2098.009247037116
1236 2097.968348499427
1237 2097.995599954658
1238 2097.967332539785
1239 2097.999783654214
1240 2097.974120633146
1241 2098.000257845027
1242 2097.970552350399
1243 2097.997191687616
1244 2097.9670805799
1245 2098.002854980647
1246 2097.962284114904
1247 2098.003488533914
1248 2097.969915617232
1249 2097.999182615609
1250 2097.968853260249
1251 2098.004870913332
1252 2097.970722495917
1253 2098.007198689876
1254 2097.968190774598
1255 2098.000224489967
1256 2097.979539415044
1257 2098.006201140966
1258 2097.97236901157
1259 2098.007571530384
1260 2097.976687749728
1261 2098.006814910102
1262 2097.972267907568
1263 2098.006956705906
1264 2097.973430401358
1265 2098.006776643461
1266 2097.971053817484
1267 2098.014060452448
1268 2097.981538971786
1269 2098.012030908654
1270 2097.975162595348
1271 2098.015452106245
1272 2097.981271728072
1273 2098.007943246955
1274 2097.980248223808
1275 2098.011107115507
1276 2097.981780633221
1277 2098.009616957053
1278 2097.97793155572
1279 2098.013320735842
1280 2097.978626765759
1281 2098.019573570065
1282 2097.975317306635
1283 2098.014013311265
1284 2097.979651421847
1285 2098.013371768977
1286 2097.974455732835
1287 2098.017081809785
1288 2097.981969562763
1289 2098.004531736379
1290 2097.977480501836
1291 2098.008576332
1292 2097.984859629481
1293 2098.011748413189
1294 2097.981832017776
1295 2098.011538734608
1296 2097.977884332719
1297 2098.014745955664
1298 2097.972111862656
1299 2098.01015974108
1300 2097.978355106236
1301 2098.009547392667
1302 2097.973300391093
1303 2098.010145603801
1304 2097.976873044954
1305 2098.011371683219
1306 2097.971993017306
1307 2098.003361502424
1308 2097.978259687829
1309 2098.006243134804
1310 2097.976325891883
1311 2098.007925961369
1312 2097.984235783216
1313 2098.007994420706
1314 2097.974808838141
1315 2098.012489105283
1316 2097.980794100225
1317 2098.01845957157
1318 2097.976555442679
1319 2098.017140081496
1320 2097.981477127162
1321 2098.016717404052
1322 2097.979053153074
1323 2098.016425887609
1324 2097.979269664795
1325 2098.008755850801
1326 2097.978758236312
1327 2098.008225674421
1328 2097.978730588901
1329 2098.00602648124
1330 2097.976045904968
1331 2098.013041283942
1332 2097.977276893841
1333 2098.014626246296
1334 2097.976120680219
1335 2098.015442994775
1336 2097.981871829183
1337 2098.016456874184
1338 2097.975208514762
1339 2098.013072341394
1340 2097.979128345676
1341 2098.005940374557
1342 2097.977809759614
1343 2098.010730558756
1344 2097.980360838753
1345 2098.010748846769
1346 2097.979526802223
1347 2098.012023274865
1348 2097.980368001666
1349 2098.014570289232
1350 2097.972348855327
1351 2098.015128349752
1352 2097.984504560722
1353 2098.01907736204
1354 2097.978497147107
1355 2098.022301396896
1356 2097.983101779618
1357 2098.021909224938
1358 2097.982271340691
1359 2098.015168963432
1360 2097.992285444378
1361 2098.024195495397
1362 2097.985628701623
1363 2098.014388646347
1364 2097.991735910573
1365 2098.01385504941
1366 2097.979800020743
1367 2098.018205244839
1368 2097.978409967402
1369 2098.015517550861
1370 2097.977623783203
1371 2098.019128090977
1372 2097.982776188195
1373 2098.014194513321
1374 2097.97281349889
1375 2098.013863114943
1376 2097.97780771105
1377 2098.005850356829
1378 2097.97803003372
1379 2098.006011912388
1380 2097.976180499125
1381 2098.008258014297
1382 2097.977737725229
1383 2098.018554723592
1384 2097.979665490122
1385 2098.016744042401
1386 2097.975869932378
1387 2098.01703827436
1388 2097.986025117752
1389 2098.019183383974
1390 2097.983976948364
1391 2098.021887129794
1392 2097.983726863024
1393 2098.013666113223
1394 2097.986197200426
1395 2098.017161790878
1396 2097.990521753701
1397 2098.015691605818
1398 2097.980841579288
1399 2098.010516331153
1400 2097.976179166729
1401 2098.013032959184
1402 2097.975297658495
1403 2098.013516480846
1404 2097.978663919163
1405 2098.01026126782
1406 2097.973539334537
1407 2098.009614991603
1408 2097.973603905256
1409 2098.008782688694
1410 2097.9663421659
1411 2097.995128520882
1412 2097.974712272257
1413 2098.002788968448
1414 2097.970257009984
1415 2097.998777029094
1416 2097.971211709499
1417 2097.99824928848
1418 2097.966323149902
1419 2097.99884419837
1420 2097.96627075502
1421 2098.000173911641
1422 2097.962407595208
1423 2098.003466907202
1424 2097.968001458572
1425 2098.005730396962
1426 2097.963761676373
1427 2098.003677856111
1428 2097.967253382155
1429 2097.995385417216
1430 2097.967030385499
1431 2097.995453346575
1432 2097.962785733089
1433 2097.998575143748
1434 2097.962667852488
1435 2098.000532805038
1436 2097.966485863112
1437 2098.003814339569
1438 2097.965179205062
1439 2098.000671106009
1440 2097.966877573558
1441 2098.001013943509
1442 2097.961949964576
1443 2097.991242971477
1444 2097.970520863632
1445 2097.996122709928
1446 2097.968982612352
1447 2097.997968720868
1448 2097.966107037621
1449 2098.000091941748
1450 2097.964089659662
1451 2098.001334101527
1452 2097.966922666062
1453 2097.997096666779
1454 2097.962716625976
1455 2098.001892878428
1456 2097.967432637503
1457 2097.991826386214
1458 2097.96733043007
1459 2097.999500321894
1460 2097.976887106729
1461 2098.003448097727
1462 2097.974721371521
1463 2098.002414681773
1464 2097.971795892542
1465 2098.00395305809
1466 2097.966829208413
1467 2098.011153104318
1468 2097.979934371294
1469 2098.012157091178
1470 2097.97634311124
1471 2098.016487658916
1472 2097.982824370466
1473 2098.016731917053
1474 2097.974423108053
1475 2098.008739446042
1476 2097.983780832856
1477 2098.013365524636
1478 2097.979796188583
1479 2098.014723120453
1480 2097.989990081054
1481 2098.013034027289
1482 2097.975369899691
1483 2098.012843352079
1484 2097.98237360761
1485 2098.018524486148
1486 2097.979756575048
1487 2098.019685666381
1488 2097.983326157857
1489 2098.015173319353
1490 2097.982237061202
1491 2098.017645155834
1492 2097.983716697072
1493 2098.006314020878
1494 2097.975355418349
1495 2098.00870549225
1496 2097.976619431839
1497 2098.007603342207
1498 2097.979934162877
1499 2098.017263525848
1500 2097.983613095538
1501 2098.017811448591
1502 2097.980440893806
1503 2098.021778178115
1504 2097.987108784435
1505 2098.017661761472
1506 2097.974246830011
1507 2098.004137038352
1508 2097.985387018505
1509 2098.009642409225
1510 2097.978916086447
1511 2098.005232535131
1512 2097.971666427447
1513 2098.013627259859
1514 2097.969479267042
1515 2098.010871318237
1516 2097.977562824697
1517 2098.004463062673
1518 2097.966791984712
1519 2098.007913598626
1520 2097.972598634565
1521 2098.000347707977
1522 2097.969358532596
1523 2097.999392857607
1524 2097.97095784459
1525 2097.9991969258
1526 2097.96892204719
1527 2097.992954824633
1528 2097.960731024021
1529 2097.996641564401
1530 2097.959350970799
1531 2098.001072596476
1532 2097.966947416622
1533 2098.004625130162
1534 2097.967234184435
1535 2098.005966205513
1536 2097.970507484698
1537 2098.009185720924
1538 2097.971790935456
1539 2098.001195595227
1540 2097.975283542867
1541 2098.003434233943
1542 2097.974306553574
1543 2098.010192723618
1544 2097.98179588282
1545 2098.007786169618
1546 2097.970143390339
1547 2098.008815253126
1548 2097.970339255526
1549 2098.004725054444
1550 2097.968237326672
1551 2098.003596640137
1552 2097.967818044142
1553 2098.003195517318
1554 2097.961899039298
1555 2098.000523054326
1556 2097.966522291489
1557 2097.994513416388
1558 2097.966654025303
1559 2097.998712337056
1560 2097.969227435963
1561 2097.995833119422
1562 2097.971534280037
1563 2098.007075190206
1564 2097.972233767651
1565 2098.011216492833
1566 2097.969629282025
1567 2098.010872288872
1568 2097.977404527153
1569 2098.010262483189
1570 2097.971932915038
1571 2098.01404983066
1572 2097.977043718606
1573 2098.004738730534
1574 2097.981727452991
1575 2098.010475684116
1576 2097.986266723575
1577 2098.012814180647
1578 2097.980938665879
1579 2098.008966123918
1580 2097.978370617469
1581 2098.010682439635
1582 2097.971667760195
1583 2098.010628543788
1584 2097.976301004724
1585 2098.008728680605
1586 2097.969356316225
1587 2098.00956437873
1588 2097.974075537233
1589 2098.008494642274
1590 2097.966054266141
1591 2097.995411149147
1592 2097.975464404816
1593 2098.006995746403
1594 2097.975308170494
1595 2098.007416764375
1596 2097.978804646541
1597 2098.005989803446
1598 2097.968161756542
1599 2098.006790710264
1600 2097.972878624118
1601 2098.007962724483
1602 2097.968278025572
1603 2098.004982838114
1604 2097.97236812004
1605 2098.009716225412
1606 2097.97128416845
1607 2098.010092325535
1608 2097.972502928715
1609 2098.000663541658
1610 2097.970099767578
1611 2098.001023079321
1612 2097.971162889447
1613 2098.0009997676
1614 2097.966833140592
1615 2098.008409249418
1616 2097.973494027882
1617 2098.008691296326
1618 2097.965729699519
1619 2098.006376751523
1620 2097.968693709402
1621 2098.002350095167
1622 2097.963065314491
1623 2098.003292274311
1624 2097.965748043833
1625 2097.99299526916
1626 2097.964000030985
1627 2097.995314065712
1628 2097.968392801994
1629 2097.997745137338
1630 2097.963415638424
1631 2097.993413523742
1632 2097.959488855199
1633 2097.99466058394
1634 2097.957003476082
1635 2097.999005114211
1636 2097.966693141307
1637 2098.000739739292
1638 2097.96481592503
1639 2098.001924740368
1640 2097.967343386088
1641 2097.998248789638
1642 2097.961309311356
1643 2097.990767173447
1644 2097.967330049786
1645 2097.994560335479
1646 2097.963776198672
1647 2097.993985664041
1648 2097.966072220854
1649 2097.992166146008
1650 2097.956393715353
1651 2097.997133576796
1652 2097.962772521557
1653 2098.001827696596
1654 2097.963251850552
1655 2098.004770448943
1656 2097.967012281666
1657 2098.002304613603
1658 2097.967610861387
1659 2098.010341003009
1660 2097.972561090853
1661 2098.003549202804
1662 2097.97052202656
1663 2098.007557600067
1664 2097.975886098481
1665 2098.006849875944
1666 2097.969816884462
1667 2098.00929032343
1668 2097.969256628068
1669 2098.008853175572
1670 2097.969488944438
1671 2098.011304448521
1672 2097.976751061846
1673 2098.011825971432
1674 2097.971080790843
1675 2098.010535198224
1676 2097.978620379933
1677 2098.005855404245
1678 2097.98116078768
1679 2098.012644694898
1680 2097.985522099234
1681 2098.015894063629
1682 2097.979016071228
1683 2098.010950639483
1684 2097.977898693954
1685 2098.015506260929
1686 2097.972024894576
1687 2098.019243474083
1688 2097.981898947353
1689 2098.022610899659
1690 2097.981744861772
1691 2098.020028947756
1692 2097.986922135482
1693 2098.020725672385
1694 2097.980795448506
1695 2098.016063308894
1696 2097.989197187846
1697 2098.021224495742
1698 2097.985014364027
1699 2098.017254266612
1700 2097.988989151628
1701 2098.014691356944
1702 2097.980028405515
1703 2098.018931971812
1704 2097.980695163374
1705 2098.015503411074
1706 2097.976770112405
1707 2098.021295030693
1708 2097.982844891618
1709 2098.018693726789
1710 2097.976180210503
1711 2098.020014141104
1712 2097.982345137567
1713 2098.009962047146
1714 2097.980135066193
1715 2098.01277969797
1716 2097.981123660817
1717 2098.009324734964
1718 2097.979445469752
1719 2098.015889346068
1720 2097.978629270112
1721 2098.013022796846
1722 2097.973882863494
1723 2098.012705977447
1724 2097.976199695408
1725 2098.010510314549
1726 2097.971162313677
1727 2098.005993876176
1728 2097.972116448903
1729 2097.999455153985
1730 2097.973691567081
1731 2098.001802058525
1732 2097.975727347124
1733 2098.003329683826
1734 2097.972455756617
1735 2097.999583259879
1736 2097.965603231132
1737 2098.004664309588
1738 2097.96172413879
1739 2098.000602262186
1740 2097.965487690302
1741 2098.001544107413
1742 2097.964145813593
1743 2098.002139864642
1744 2097.967032027932
1745 2098.002549878353
1746 2097.963853434925
1747 2097.995320241194
1748 2097.970551367775
1749 2098.00262066467
1750 2097.966157930008
1751 2097.999895404693
1752 2097.969082760734
1753 2098.001112700937
1754 2097.961973172628
1755 2097.999628539711
1756 2097.963999281195
1757 2098.001449748032
1758 2097.967815832044
1759 2098.012913170409
1760 2097.978797730415
1761 2098.009274239127
1762 2097.969421182993
1763 2098.013467923651
1764 2097.97607005317
1765 2098.002476154112
1766 2097.97437477024
1767 2098.005212995088
1768 2097.975430547594
1769 2098.007622528097
1770 2097.975282681591
1771 2098.017526530305
1772 2097.979345722011
1773 2098.014269056954
1774 2097.975519845847
1775 2098.017767281121
1776 2097.979993737892
1777 2098.011297865747
1778 2097.975180122623
1779 2098.015726398679
1780 2097.977513433434
1781 2098.00839048274
1782 2097.977868081845
1783 2098.011972614977
1784 2097.987413908515
1785 2098.015083604181
1786 2097.981222356145
1787 2098.016699584624
1788 2097.982444186874
1789 2098.021320739323
1790 2097.979876686147
1791 2098.02336971573
1792 2097.984582561506
1793 2098.022896894921
1794 2097.979922786161
1795 2098.022504249006
1796 2097.986777671041
1797 2098.023298768326
1798 2097.980666911703
1799 2098.011263217603
1800 2097.98774711811
1801 2098.01852121579
1802 2097.985259915776
1803 2098.018942901844
1804 2097.992396320104
1805 2098.020575175512
1806 2097.979989107319
1807 2098.022270357523
1808 2097.987161810429
1809 2098.019823153258
1810 2097.98020806814
1811 2098.02164987683
1812 2097.985407868939
1813 2098.020022460736
1814 2097.983173651839
1815 2098.023051195527
1816 2097.985584157091
1817 2098.009970822991
1818 2097.979705769269
1819 2098.009119101951
1820 2097.978570737932
1821 2098.007269242472
1822 2097.970784532535
1823 2098.011293203647
1824 2097.976713777465
1825 2098.011594327548
1826 2097.970282761679
1827 2098.014633349197
1828 2097.976958242755
1829 2098.010115277705
1830 2097.969671192552
1831 2098.011429418189
1832 2097.975757997615
1833 2098.00476211686
1834 2097.973390995733
1835 2098.00582682645
1836 2097.979709594681
1837 2098.008125414918
1838 2097.973426428842
1839 2098.003402890431
1840 2097.967886620347
1841 2098.006118369711
1842 2097.963044636947
1843 2098.002602915959
1844 2097.968516942331
1845 2098.00348201606
1846 2097.965001863786
1847 2098.008068114984
1848 2097.974795270588
1849 2098.005881862044
1850 2097.965949045111
1851 2097.999282270704
1852 2097.972615819332
1853 2098.005520451349
1854 2097.974316402961
1855 2098.005808903055
1856 2097.981025148889
1857 2098.005791241041
1858 2097.972254700638
1859 2098.012881020921
1860 2097.980149456328
1861 2098.012941425131
1862 2097.974731580772
1863 2098.016593037507
1864 2097.983241826924
1865 2098.016403449425
1866 2097.978023246576
1867 2098.017557967615
1868 2097.98287535974
1869 2098.007182809842
1870 2097.976681611352
1871 2098.014500967483
1872 2097.982147339639
1873 2098.009561323947
1874 2097.977509492387
1875 2098.017051957423
1876 2097.984972125469
1877 2098.017205662734
1878 2097.979749805097
1879 2098.019676575431
1880 2097.984779695688
1881 2098.017860265824
1882 2097.978574563081
1883 2098.016246257096
1884 2097.982697309014
1885 2098.011146724597
1886 2097.985413445294
1887 2098.01908428952
1888 2097.995666560093
1889 2098.021497649434
1890 2097.986411772357
1891 2098.017170210179
1892 2097.986248126514
1893 2098.01855726073
1894 2097.984123682631
1895 2098.021422122911
1896 2097.986253494327
1897 2098.021391294405
1898 2097.986507283529
1899 2098.026346493263
1900 2097.995690473785
1901 2098.029188133494
1902 2097.988211755169
1903 2098.021604270245
1904 2097.995664490051
1905 2098.021481117115
1906 2097.996153285378
1907 2098.022749371021
1908 2097.996420002632
1909 2098.023293961237
1910 2097.985787369753
1911 2098.027508549348
1912 2097.993513229371
1913 2098.022569726803
1914 2097.98190402669
1915 2098.024564400392
1916 2097.986945367822
1917 2098.022885090694
1918 2097.98361570806
1919 2098.023269826007
1920 2097.984966532006
1921 2098.012270325967
1922 2097.980367734185
1923 2098.017629127822
1924 2097.984982753693
1925 2098.012691279818
1926 2097.975160287607
1927 2098.020259189912
1928 2097.981592086554
1929 2098.015671687284
1930 2097.970497052616
1931 2098.01178981775
1932 2097.973992217567
1933 2098.006558459144
1934 2097.967743606893
1935 2098.007937431496
1936 2097.97463729512
1937 2098.001968916438
1938 2097.966881080213
1939 2098.004026582478
1940 2097.980800875383
1941 2098.000332055404
1942 2097.969868571039
1943 2098.00024524871
1944 2097.969084440936
1945 2098.006974801395
1946 2097.964177659674
1947 2098.00178545598
1948 2097.971146440767
1949 2098.006271250945
1950 2097.965041073438
1951 2098.005938298307
1952 2097.973050599854
1953 2098.005484785563
1954 2097.970137388265
1955 2098.0019601414
1956 2097.97607410437
1957 2098.004424146612
1958 2097.973894677756
1959 2098.004565774241
1960 2097.97619000502
1961 2098.003440549827
1962 2097.962311611968
1963 2098.003093218032
1964 2097.968333049569
1965 2098.000992104525
1966 2097.965455135834
1967 2098.005905171731
1968 2097.97257907707
1969 2098.009138999517
1970 2097.973405429049
1971 2098.014915485554
1972 2097.981582695172
1973 2098.009444764406
1974 2097.979932260061
1975 2098.021334248049
1976 2097.985690184065
1977 2098.01729240737
1978 2097.980835544265
1979 2098.021776718322
1980 2097.986590052137
1981 2098.021858898425
1982 2097.983905658839
1983 2098.024226353731
1984 2097.99191283932
1985 2098.021153454435
1986 2097.980389212552
1987 2098.023221482255
1988 2097.98841578161
1989 2098.013603464811
1990 2097.982166732194
1991 2098.017064141954
1992 2097.988652413775
1993 2098.014048578069
1994 2097.97755828348
1995 2098.013633983026
1996 2097.976813557096
1997 2098.016006433112
1998 2097.972299731533
1999 2098.017697286547
2000 2097.981023716919
2001 2098.01538964236
2002 2097.972377506556
2003 2098.011278848654
2004 2097.979780992689
2005 2098.015097901136
2006 2097.975141120996
2007 2098.01244514883
2008 2097.985407000044
2009 2098.016336903299
2010 2097.979300197887
2011 2098.01169117131
2012 2097.988084339916
2013 2098.009287030677
2014 2097.972807336181
2015 2098.011682559817
2016 2097.976193648898
2017 2098.011652358062
2018 2097.970975771936
2019 2098.008862451627
2020 2097.975300634093
2021 2098.010468949321
2022 2097.972080087841
2023 2098.012884177418
2024 2097.9783822678
2025 2098.004489090767
2026 2097.970627720535
2027 2098.006662840797
2028 2097.975399263402
2029 2098.008462017196
2030 2097.971366960247
2031 2098.012993280599
2032 2097.977698132057
2033 2098.01336552952
2034 2097.97151109184
2035 2098.0050860359
2036 2097.971358558183
2037 2098.006417862065
2038 2097.966392560067
2039 2098.00751798588
2040 2097.970249589147
2041 2097.996054335976
2042 2097.967567938887
2043 2098.004294723815
2044 2097.979065576802
2045 2098.005276372742
2046 2097.969744566365
2047 2097.998284460587
2048 2097.964638504453
2049 2098.000538223289
2050 2097.957225676063
2051 2097.99874724793
2052 2097.963585381949
2053 2097.998801556864
2054 2097.961563023121
2055 2098.00168984087
2056 2097.967988118222
2057 2098.002337701535
2058 2097.966580158661
2059 2097.993331292399
2060 2097.976171724359
2061 2098.003800003293
2062 2097.970932347609
2063 2098.00480565903
2064 2097.976948998396
2065 2097.998958884013
2066 2097.962831371092
2067 2098.003478524192
2068 2097.969297080139
2069 2098.00217044987
2070 2097.964556106656
2071 2098.004699925457
2072 2097.970667775906
2073 2098.00651353322
2074 2097.967614425122
2075 2098.006937885408
2076 2097.973687771713
2077 2098.000279654641
2078 2097.973600250366
2079 2098.009658631555
2080 2097.978397765218
2081 2098.010813549854
2082 2097.978371347513
2083 2098.014010983934
2084 2097.985257137171
2085 2098.021426889441
2086 2097.982882321923
2087 2098.025480573525
2088 2097.990382702109
2089 2098.024050095857
2090 2097.984827370724
2091 2098.026624844829
2092 2097.989718959934
2093 2098.015905871589
2094 2097.984762913582
2095 2098.01872038707
2096 2097.989096430997
2097 2098.018064944411
2098 2097.98528135618
2099 2098.016256188955
2100 2097.981371068278
2101 2098.014970342583
2102 2097.973900656918
2103 2098.016653851535
2104 2097.979678361241
2105 2098.014575846591
2106 2097.972835687512
2107 2098.019443431552
2108 2097.980694909199
2109 2098.017161072997
2110 2097.97639281196
2111 2098.00886972751
2112 2097.985353734535
2113 2098.015159617229
2114 2097.982057898618
2115 2098.015994367872
2116 2097.988203338678
2117 2098.012038989284
2118 2097.976641731771
2119 2098.015622820787
2120 2097.980017867834
2121 2098.013324266087
2122 2097.972599584085
2123 2098.016838738941
2124 2097.977614724211
2125 2098.015532019709
2126 2097.9751670149
2127 2098.019106124364
2128 2097.982180330953
2129 2098.007865450195
2130 2097.975902934528
2131 2098.011221785463
2132 2097.977231352339
2133 2098.008597844317
2134 2097.973668064997
2135 2098.011619419261
2136 2097.976112026377
2137 2098.006941602311
2138 2097.970025127785
2139 2098.011689216396
2140 2097.974170395277
2141 2098.00857581849
2142 2097.9687712402
2143 2098.008840170286
2144 2097.972717837859
2145 2098.001054818218
2146 2097.968936532691
2147 2098.001285396172
2148 2097.971619475827
2149 2097.995214669618
2150 2097.963944539493
2151 2097.996525092647
2152 2097.962977920162
2153 2097.994195193357
2154 2097.954533261297
2155 2097.99694571921
2156 2097.962178562436
2157 2097.994849014672
2158 2097.957838345218
2159 2097.99844794284
2160 2097.962823909183
2161 2097.999107449621
2162 2097.9588757016
2163 2097.995018662694
2164 2097.970876595709
2165 2098.0043952803
2166 2097.969002806732
2167 2098.005895627567
2168 2097.978312368895
2169 2098.004882137131
2170 2097.970735970897
2171 2098.013819754781
2172 2097.975559175621
2173 2098.011251038326
2174 2097.971719209728
2175 2098.012662272082
2176 2097.978689004505
2177 2098.012993892888
2178 2097.970213106516
2179 2098.011113958165
2180 2097.97713551928
2181 2098.004241872518
2182 2097.97697433425
2183 2098.011018622568
2184 2097.975757925589
2185 2098.008597677642
2186 2097.976212083533
2187 2098.016882025514
2188 2097.98407485926
2189 2098.020141348918
2190 2097.975902763161
2191 2098.020889148287
2192 2097.986563210928
2193 2098.018869590463
2194 2097.981980513198
2195 2098.023072278898
2196 2097.986360315921
2197 2098.017987431906
2198 2097.987231838605
2199 2098.01846399998
2200 2097.99280791677
2201 2098.023143418145
2202 2097.989412106272
2203 2098.018179392151
2204 2097.987900832992
2205 2098.021741402922
2206 2097.981613907442
2207 2098.020689933413
2208 2097.985925352516
2209 2098.018703773891
2210 2097.981837315962
2211 2098.020246312829
2212 2097.987755865843
2213 2098.01815954215
2214 2097.976211232777
2215 2098.009289718273
2216 2097.982739870291
2217 2098.013028629779
2218 2097.976659461533
2219 2098.010783858666
2220 2097.98083459393
2221 2098.008371897185
2222 2097.971029396734
2223 2098.007262888259
2224 2097.974177667487
2225 2098.006520841723
2226 2097.969588322906
2227 2098.005247735751
2228 2097.974508551074
2229 2098.014494382531
2230 2097.972930971969
2231 2098.012755968909
2232 2097.972196736619
2233 2098.000707056401
2234 2097.971532632183
2235 2098.004900322012
2236 2097.970798348048
2237 2098.000933588492
2238 2097.965106384164
2239 2098.002052734863
2240 2097.97039614679
2241 2098.007063802227
2242 2097.968695146168
2243 2098.005702768954
2244 2097.971383283334
2245 2098.006297689623
2246 2097.969424036061
2247 2098.005232813825
2248 2097.972722967417
2249 2098.001279851219
2250 2097.969881004301
2251 2098.000567043465
2252 2097.97430574741
2253 2098.002544094399
2254 2097.969780218078
2255 2097.999354406308
2256 2097.96224923378
2257 2098.001370138425
2258 2097.960089046957
2259 2097.993582834753
2260 2097.963830503534
2261 2098.00168910715
2262 2097.960059976277
2263 2097.998411446125
2264 2097.963897230725
2265 2098.000606057752
2266 2097.961776475295
2267 2097.994764373963
2268 2097.967332361594
2269 2097.997757875902
2270 2097.965486970803
2271 2097.998119889407
2272 2097.971780714093
2273 2098.003542932313
2274 2097.964444998829
2275 2098.003264312805
2276 2097.971590173968
2277 2098.012774674599
2278 2097.971830784666
2279 2098.016737597254
2280 2097.980860063806
2281 2098.021588342668
2282 2097.981991890706
2283 2098.021302059736
2284 2097.988448998555
2285 2098.020230381393
2286 2097.988570445996
2287 2098.020353075457
2288 2097.991461303608
2289 2098.023739363482
2290 2097.98875718215
2291 2098.02613569618
2292 2097.988488728764
2293 2098.026411243592
2294 2097.983787393267
2295 2098.017205209126
2296 2097.984930026959
2297 2098.021843031843
2298 2097.984260727225
2299 2098.018351286962
2300 2097.98355178074
2301 2098.017840288424
2302 2097.990141087327
2303 2098.019292498444
2304 2097.991855780275
2305 2098.020528704201
2306 2097.989075571616
2307 2098.016859430396
2308 2097.983261782775
2309 2098.021111120004
2310 2097.980104250378
2311 2098.018692064812
2312 2097.982734469657
2313 2098.021435666109
2314 2097.983733432647
2315 2098.01840382515
2316 2097.984539630188
2317 2098.020854271408
2318 2097.9784148241
2319 2098.007082067642
2320 2097.984633795054
2321 2098.017326814708
2322 2097.983118548244
2323 2098.010426892093
2324 2097.984235812585
2325 2098.010883340659
2326 2097.971325777319
2327 2098.010936008883
2328 2097.973898737935
2329 2098.009583274746
2330 2097.969662597901
2331 2098.005571125143
2332 2097.970872822606
2333 2098.009493593829
2334 2097.968814258414
2335 2098.00899641757
2336 2097.971785293164
2337 2098.00075886143
2338 2097.972138435873
2339 2098.008240321919
2340 2097.97306999916
2341 2098.003999435508
2342 2097.970545846249
2343 2098.008832637003
2344 2097.978494386509
2345 2098.00914600616
2346 2097.968591655249
2347 2098.004366468807
2348 2097.974251916904
2349 2098.010533959634
2350 2097.968816346529
2351 2098.003842229616
2352 2097.969310987218
2353 2098.000295642381
2354 2097.974231160392
2355 2098.007463771817
2356 2097.978278255473
2357 2098.006192333242
2358 2097.970507158116
2359 2098.006195292895
2360 2097.97771897863
2361 2098.01303186417
2362 2097.971689918009
2363 2098.012014062951
2364 2097.97346723218
2365 2098.012206912883
2366 2097.973070190933
2367 2098.01420235595
2368 2097.978919396368
2369 2098.014533207778
2370 2097.970198537516
2371 2098.003344059697
2372 2097.978238491518
2373 2098.008563913093
2374 2097.977000078612
2375 2098.006855900966
2376 2097.976266770258
2377 2098.008580288294
2378 2097.969003665547
2379 2098.008674727352
2380 2097.97322791685
2381 2098.012854027797
2382 2097.9697848393
2383 2098.011085289134
2384 2097.976343936384
2385 2098.01682400817
2386 2097.973659415001
2387 2098.011303748194
2388 2097.978065396337
2389 2098.014053223551
2390 2097.983949683353
2391 2098.019884450791
2392 2097.987605490387
2393 2098.022131386365
2394 2097.988400272226
2395 2098.026346067896
2396 2097.990721695868
2397 2098.029601205433
2398 2097.986261564212
2399 2098.029795538331
2400 2097.99034110105
2401 2098.028312834245
2402 2097.987159182958
2403 2098.030292584712
2404 2097.98786081671
2405 2098.015785105697
2406 2097.981865850351
2407 2098.017393946979
2408 2097.989487595643
2409 2098.017322867908
2410 2097.983413857938
2411 2098.016636087411
2412 2097.982173413207
2413 2098.0204772132
2414 2097.979998258023
2415 2098.0224870558
2416 2097.984004218805
2417 2098.025129937003
2418 2097.981330457813
2419 2098.020061173635
2420 2097.984770889587
2421 2098.017943361817
2422 2097.977143578235
2423 2098.005991889135
2424 2097.981785527176
2425 2098.011272642658
2426 2097.980579597165
2427 2098.010574928133
2428 2097.982818365994
2429 2098.010602124353
2430 2097.969545693176
2431 2098.008041495188
2432 2097.974893559412
2433 2098.010784813382
2434 2097.970827781696
2435 2098.010776000826
2436 2097.97641949579
2437 2098.014202675882
2438 2097.974019891303
2439 2098.010311674382
2440 2097.972774518409
2441 2098.001527852665
2442 2097.969329841289
2443 2098.005036467998
2444 2097.972114427569
2445 2098.001819155565
2446 2097.968860326349
2447 2098.005697250702
2448 2097.968952037388
2449 2098.006050118859
2450 2097.968102601797
2451 2098.00536531318
2452 2097.969950080963
2453 2098.008504196271
2454 2097.967362357742
2455 2098.005677593618
2456 2097.969297176106
2457 2097.999408584194
2458 2097.966340627642
2459 2097.999524669581
2460 2097.970171870219
2461 2097.998301147459
2462 2097.968540237103
2463 2098.001418724108
2464 2097.965363788623
2465 2098.002576916259
2466 2097.963265611868
2467 2098.006817171813
2468 2097.97133196083
2469 2098.007954401096
2470 2097.968083770803
2471 2098.013748074099
2472 2097.973633302024
2473 2098.0099650444
2474 2097.968168041514
2475 2098.001768755503
2476 2097.974422685697
2477 2098.005552482717
2478 2097.967917209606
2479 2098.001883716543
2480 2097.974430910594
2481 2098.000036008623
2482 2097.959230264819
2483 2098.001175463289
2484 2097.963127394284
2485 2098.002246774303
2486 2097.966269004326
2487 2098.006889399211
2488 2097.969845970834
2489 2098.005943197391
2490 2097.965553051016
2491 2098.0065056322
2492 2097.974316023226
2493 2098.004205174311
2494 2097.973424022894
2495 2098.010412513253
2496 2097.975871131695
2497 2098.00920444717
2498 2097.980228523233
2499 2098.015541322907
2500 2097.981844291127
2501 2098.0184331531
2502 2097.976852462688
2503 2098.017616156265
2504 2097.982970274326
2505 2098.012365724973
2506 2097.973526227747
2507 2098.005598971542
2508 2097.979647342094
2509 2098.010821884889
2510 2097.979541353373
2511 2098.013226771187
2512 2097.976268055366
2513 2098.014795710134
2514 2097.972819275899
2515 2098.015508912184
2516 2097.981853343256
2517 2098.014708157159
2518 2097.975268617732
2519 2098.017723363605
2520 2097.981418039697
2521 2098.009710237945
2522 2097.982269009313
2523 2098.015068164436
2524 2097.987618696774
2525 2098.01413880071
2526 2097.97869465962
2527 2098.010394414446
2528 2097.976832300473
2529 2098.011738867876
2530 2097.973206469359
2531 2098.014961626258
2532 2097.976366749579
2533 2098.013104619967
2534 2097.971887011694
2535 2098.009138798358
2536 2097.975896611596
2537 2098.009635343643
2538 2097.969748017165
2539 2098.003535251495
2540 2097.975556730633
2541 2098.008290111401
2542 2097.974388223307
2543 2098.002449423254
2544 2097.974825451877
2545 2098.002795731764
2546 2097.964080107026
2547 2098.00792536104
2548 2097.970349286734
2549 2098.008767573601
2550 2097.969755640663
2551 2098.010509564799
2552 2097.973037257691
2553 2098.009180587015
2554 2097.971298203898
2555 2098.008408256105
2556 2097.973874624512
2557 2098.004218509057
2558 2097.970825454358
2559 2098.00504870795
2560 2097.974625031925
2561 2098.003339319148
2562 2097.973105186295
2563 2098.010652143168
2564 2097.977209518514
2565 2098.013526939611
2566 2097.97438147569
2567 2098.012353456545
2568 2097.977505681372
2569 2098.014273410515
2570 2097.974134558292
2571 2098.012670062395
2572 2097.978306727938
2573 2098.001504138874
2574 2097.969149866173
2575 2098.007650598117
2576 2097.983733874604
2577 2098.006761516237
2578 2097.976675070855
2579 2098.002378730439
2580 2097.969801474319
2581 2098.008644687199
2582 2097.970670148453
2583 2098.012492512002
2584 2097.976093578884
2585 2098.011470975969
2586 2097.969157588668
2587 2098.012372247211
2588 2097.977263160419
2589 2098.00757294472
2590 2097.970837450817
2591 2098.001821397197
2592 2097.976110931763
2593 2098.00980056867
2594 2097.977962888929
2595 2098.011396545912
2596 2097.983381093221
2597 2098.00963358109
2598 2097.968545337802
2599 2098.014315483629
2600 2097.975067078377
2601 2098.011842282757
2602 2097.973536449574
2603 2098.013088276116
2604 2097.975669221067
2605 2098.011512634978
2606 2097.972542742414
2607 2098.014242882784
2608 2097.980321283144
2609 2098.008890463127
2610 2097.97318604518
2611 2098.009603299527
2612 2097.978792219729
2613 2098.009854940195
2614 2097.980823349321
2615 2098.017498521379
2616 2097.980451480864
2617 2098.016358122991
2618 2097.979193521388
2619 2098.017670880165
2620 2097.98169126431
2621 2098.013423061206
2622 2097.969818663851
2623 2098.012867869012
2624 2097.976936815828
2625 2098.004900719567
2626 2097.976166140932
2627 2098.01100797952
2628 2097.983910227157
2629 2098.011177959131
2630 2097.982488321318
2631 2098.012272070748
2632 2097.977105669814
2633 2098.011406513719
2634 2097.970192384641
2635 2098.009033069489
2636 2097.974562286484
2637 2098.00978162916
2638 2097.973464394959
2639 2098.010316275885
2640 2097.972118261395
2641 2098.005729222021
2642 2097.970097830314
2643 2097.998220069421
2644 2097.974524552991
2645 2098.001880280427
2646 2097.967736006295
2647 2098.003773037118
2648 2097.973992470874
2649 2098.002524517139
2650 2097.966793443596
2651 2098.005673424254
2652 2097.968533200846
2653 2098.004825194208
2654 2097.968169218595
2655 2098.009041668916
2656 2097.975483577571
2657 2098.004528238152
2658 2097.965539858435
2659 2098.008732979363
2660 2097.974388212064
2661 2097.999219277612
2662 2097.970632713358
2663 2098.006561062473
2664 2097.972410795891
2665 2098.006667647576
2666 2097.972496000165
2667 2098.011028560474
2668 2097.977126657978
2669 2098.009710572639
2670 2097.96958971239
2671 2098.011855440463
2672 2097.977674603422
2673 2098.013787194597
2674 2097.977091486321
2675 2098.01533517303
2676 2097.97680043222
2677 2098.007939101512
2678 2097.97809184294
2679 2098.011879736004
2680 2097.98590304683
2681 2098.010473674713
2682 2097.977997911315
2683 2098.012769088537
2684 2097.980302775858
2685 2098.013611429939
2686 2097.976708111588
2687 2098.01898918904
2688 2097.978808431137
2689 2098.014334285565
2690 2097.977530785558
2691 2098.015695359086
2692 2097.978101120601
2693 2098.011157989981
2694 2097.975657732755
2695 2098.006804562839
2696 2097.980629721712
2697 2098.005917640789
2698 2097.977820461806
2699 2098.010418901179
2700 2097.982319356784
2701 2098.011538697354
2702 2097.973933062252
2703 2098.015706119942
2704 2097.976781512687
2705 2098.015475590121
2706 2097.974396186237
2707 2098.018139412111
2708 2097.983399130758
2709 2098.020372307625
2710 2097.985313986434
2711 2098.024023167687
2712 2097.984555160961
2713 2098.01356212564
2714 2097.987283628757
2715 2098.019490246439
2716 2097.989871875663
2717 2098.021144664326
2718 2097.987286134196
2719 2098.027460700102
2720 2097.993363551112
2721 2098.027611935685
2722 2097.990777793369
2723 2098.032224381922
2724 2097.993618893787
2725 2098.028949691198
2726 2097.990334994714
2727 2098.029985350327
2728 2097.996381772715
2729 2098.020253406586
2730 2097.993078176237
2731 2098.026455707275
2732 2098.000503144339
2733 2098.026468977276
2734 2097.99408987936
2735 2098.024479132213
2736 2097.986746467148
2737 2098.027770865024
2738 2097.983033039757
2739 2098.023749619868
2740 2097.986694118141
2741 2098.023274793956
2742 2097.981558284492
2743 2098.022276858382
2744 2097.983642917857
2745 2098.021191570262
2746 2097.981045298888
2747 2098.011205721561
2748 2097.989408636296
2749 2098.017740511676
2750 2097.980834059037
2751 2098.014278329205
2752 2097.984535161094
2753 2098.010547522354
2754 2097.968621845374
2755 2098.009725426292
2756 2097.970798619622
2757 2098.008391775945
2758 2097.96426013239
2759 2098.009278839263
2760 2097.973484300772
2761 2098.007217038817
2762 2097.968340011404
2763 2098.006484743278
2764 2097.971310106999
2765 2097.999110531716
2766 2097.967193558447
2767 2098.000958283716
2768 2097.969241635015
2769 2097.999323101577
2770 2097.964398671648
2771 2098.008257758526
2772 2097.971237585046
2773 2098.004758433255
2774 2097.968143876027
2775 2098.010972849668
2776 2097.974450512735
2777 2098.00915707172
2778 2097.968184730808
2779 2098.010849705072
2780 2097.97202015434
2781 2098.00197686526
2782 2097.970932992266
2783 2098.009515419711
2784 2097.979648817402
2785 2098.00861467279
2786 2097.974517551368
2787 2098.007553118781
2788 2097.972605988755
2789 2098.010617078795
2790 2097.964520249207
2791 2098.007914464386
2792 2097.975359200873
2793 2098.009818890035
2794 2097.972139276333
2795 2098.016469156683
2796 2097.974442409841
2797 2098.009332598378
2798 2097.97258446927
2799 2098.002433982407
2800 2097.976946912062
2801 2098.007140187195
2802 2097.974445209097
2803 2098.003905764816
2804 2097.97868737701
2805 2098.005287579696
2806 2097.969863399817
2807 2098.011137836451
2808 2097.970998776436
2809 2098.006843367237
2810 2097.967271393022
2811 2098.005437051045
2812 2097.97185602626
2813 2098.005969082445
2814 2097.963616519587
2815 2098.01092957975
2816 2097.975617504075
2817 2098.001302501204
2818 2097.971310873696
2819 2098.006915728127
2820 2097.975230058033
2821 2098.005540129032
2822 2097.976736947729
2823 2098.013923185335
2824 2097.983352852243
2825 2098.01563141704
2826 2097.977205531123
2827 2098.017557276575
2828 2097.984751405367
2829 2098.015283435022
2830 2097.981583001091
2831 2098.020249109908
2832 2097.984593019968
2833 2098.011756413451
2834 2097.9851415021
2835 2098.016141337926
2836 2097.991875841719
2837 2098.017149695258
2838 2097.980976552552
2839 2098.014109157554
2840 2097.980179086776
2841 2098.012697262852
2842 2097.976247279837
2843 2098.014550727738
2844 2097.976950930297
2845 2098.017171059556
2846 2097.973316038344
2847 2098.016359743084
2848 2097.9806402416
2849 2098.013887697868
2850 2097.968850706868
2851 2098.001326376727
2852 2097.977080615808
2853 2098.006784770682
2854 2097.975006225678
2855 2098.007586997163
2856 2097.977146887159
2857 2098.003551485053
2858 2097.965464716805
2859 2098.005701915222
2860 2097.973664439595
2861 2098.004612331801
2862 2097.961345163686
2863 2098.004637648625
2864 2097.970980312302
2865 2098.00724198924
2866 2097.965568685989
2867 2098.005318942691
2868 2097.964772651685
2869 2097.993650639214
2870 2097.967890771195
2871 2098.003550004793
2872 2097.971578767142
2873 2098.000432038331
2874 2097.968620773894
2875 2098.006403609599
2876 2097.971999322812
2877 2098.008898095074
2878 2097.969198575625
2879 2098.010131305627
2880 2097.97321051411
2881 2098.014209978563
2882 2097.97003831979
2883 2098.010413430993
2884 2097.973787205035
2885 2098.002400562379
2886 2097.971643269665
2887 2098.005847692876
2888 2097.982618000173
2889 2098.006833164795
2890 2097.974013556596
2891 2098.005141694494
2892 2097.972336057015
2893 2098.006360307264
2894 2097.970980961956
2895 2098.013750122967
2896 2097.976572705645
2897 2098.012577957348
2898 2097.972759837498
2899 2098.015525280378
2900 2097.982147741037
2901 2098.01742376793
2902 2097.977194488937
2903 2098.012181288387
2904 2097.985239297263
2905 2098.016636267039
2906 2097.987987103455
2907 2098.018321536586
2908 2097.988208242031
2909 2098.017739061206
2910 2097.978020161252
2911 2098.021600915949
2912 2097.984765032058
2913 2098.018620831681
2914 2097.980134363715
