"mx-rfile"
"Iteration" "mx"
("Iteration" "mx")
1 0.6621839139302528
2 0.6831782547407904
3 1.354010338788781
4 0.7313305068541888
5 0.3891141997369816
6 0.2647685565308693
7 -0.1989821994244992
8 0.03593616625131808
9 0.3560994834518612
10 0.8739793083874082
11 1.300036774120942
12 1.475153714223201
13 1.509225478125046
14 1.583492872712899
15 1.671358200433779
16 1.630926459344486
17 1.430182995695083
18 1.162062771076231
19 0.822765188504034
20 0.5291035902287848
21 0.1765502366859655
22 -0.1663678501112721
23 -0.5242213338862692
24 -0.7789568715275904
25 -0.9517753187911723
26 -1.084232146711162
27 -1.126707437713799
28 -1.109904462027948
29 -1.048045679038063
30 -0.9368841229061976
31 -0.7914295373381592
32 -0.6214600038718924
33 -0.4671686225877204
34 -0.3138155764607404
35 -0.1776339381895158
36 -0.07172185159067485
37 0.03134484921543032
38 0.1049889900429721
39 0.1543183229663544
40 0.1980908452911122
41 0.2266190341075323
42 0.2470107957869948
43 0.2540291710678618
44 0.2481477074860177
45 0.2319246686637602
46 0.2062332128992124
47 0.1794504585357232
48 0.1473674504981639
49 0.1096818494966447
50 0.07347968076195835
51 0.03612478139816349
52 0.004773285284264985
53 -0.01928332110549378
54 -0.04136852390490194
55 -0.05598371724746649
56 -0.06680129237011294
57 -0.07445649100606921
58 -0.07949957824841355
59 -0.08190800852260764
60 -0.08270670940830807
61 -0.08100120038617012
62 -0.0804045049821407
63 -0.07611735813903232
64 -0.07057718055117043
65 -0.06589987348986383
66 -0.06086813039783966
67 -0.05399262054636441
68 -0.04659119268550628
69 -0.04054239073228465
70 -0.03431803765567958
71 -0.02748511666658437
72 -0.02053316943119994
73 -0.01647390431252966
74 -0.01241026251338609
75 -0.00879580918856054
76 -0.004865483416254555
77 -0.002412563185375016
78 0.0002386684538164569
79 0.003294809732767621
80 0.005600591951344632
81 0.008268419398095066
82 0.01152294418943009
83 0.01505602534964202
84 0.01891904898854318
85 0.02278994491262756
86 0.02639056827890997
87 0.03038473039946968
88 0.03460096642171007
89 0.03811393096689723
90 0.04209765403106792
91 0.04536277414620735
92 0.04969010705706173
93 0.05460755120448149
94 0.05759429214570519
95 0.06030830888217863
96 0.06253258382276117
97 0.06521947212650306
98 0.06656120178329254
99 0.06740247734682293
100 0.06822992726385026
101 0.06909037069405216
102 0.07004002600575437
103 0.07033680660652697
104 0.07070763863322278
105 0.07017575279401737
106 0.06958790742645933
107 0.06919337799157228
108 0.0681114229551104
109 0.06722968511892205
110 0.06603505043921144
111 0.06477000850162376
112 0.06243465318608486
113 0.06097056175534513
114 0.05904030474117127
115 0.05628387285874355
116 0.05405600006640802
117 0.05053099579282706
118 0.04772739492909883
119 0.04308302432854665
120 0.03983039492751901
121 0.03482169360289671
122 0.03143035644054424
123 0.0258132649014574
124 0.02040161225991005
125 0.01534970679610051
126 0.01191111719076811
127 0.006815948341853204
128 0.003557491493990528
129 -0.001249701575317536
130 -0.004432484002855917
131 -0.009341651729551649
132 -0.01262073895066336
133 -0.01753430643962534
134 -0.02089655613102597
135 -0.02522401025718102
136 -0.02802503473051127
137 -0.03094413182782783
138 -0.03477270154172711
139 -0.03708431083299872
140 -0.0402670394077642
141 -0.04240916110801178
142 -0.04530815105951184
143 -0.0472650004364991
144 -0.0495830050831336
145 -0.05098489327131411
146 -0.05280159074259066
147 -0.05419751778927526
148 -0.05542035059831205
149 -0.05607684037149193
150 -0.05708843788089648
151 -0.05760020440091387
152 -0.05753950862207187
153 -0.05686250461773164
154 -0.05686248390026257
155 -0.05656359321676725
156 -0.05599159813183153
157 -0.05512653766563608
158 -0.0549057772213524
159 -0.05448686954306302
160 -0.05381396293093398
161 -0.05296352073193677
162 -0.05209292485551667
163 -0.05119593438690025
164 -0.05005691338506597
165 -0.04798679050240729
166 -0.04676425318703635
167 -0.04505774868094892
168 -0.04390491682520246
169 -0.04178717381616533
170 -0.0401290611530281
171 -0.03824001293237327
172 -0.0357668105660632
173 -0.03402346388028201
174 -0.03239830429337001
175 -0.02956512499321051
176 -0.02776576140945979
177 -0.02574711234027583
178 -0.02288381274053517
179 -0.020956463718739
180 -0.01786692568654759
181 -0.0157557923859365
182 -0.0139291792845098
183 -0.01050351709828835
184 -0.00852496222799087
185 -0.005420660624762335
186 -0.003419706261114608
187 -0.0003019932924133018
188 0.001377105419096833
189 0.003977379973553712
190 0.005733058586055604
191 0.008480634234134515
192 0.01032348534086391
193 0.01240415489844594
194 0.01367674090075412
195 0.01497230931288929
196 0.01601718136837185
197 0.01715665728702201
198 0.01807559542461046
199 0.01887347103952028
200 0.01938868267071412
201 0.02009543339661532
202 0.02078892428253568
203 0.02177208592927794
204 0.02231497421257539
205 0.02315681240729442
206 0.02371682989259752
207 0.02433350255526837
208 0.02453556874552327
209 0.02468521699276038
210 0.0246447985730581
211 0.02428756709535615
212 0.02409469744443094
213 0.02369961402007425
214 0.0238226273395972
215 0.02359652919931463
216 0.02345588330306097
217 0.02315285971037758
218 0.0230312444759015
219 0.02276830933887319
220 0.02251015690785225
221 0.02223362233345223
222 0.02206417075293018
223 0.02182127842193948
224 0.02171221617674652
225 0.02142568461503583
226 0.02127976732614101
227 0.02112012158983862
228 0.0209298549145428
229 0.02086332642516174
230 0.02077991501607664
231 0.02033962791550457
232 0.02003977857686984
233 0.01941576994771715
234 0.01898856420248604
235 0.01836367029735077
236 0.01798335492043092
237 0.01738734724021627
238 0.01701623360990663
239 0.0165318042309191
240 0.01621857516789701
241 0.0156915839589947
242 0.0153139802868628
243 0.01459922800380064
244 0.01413557736150416
245 0.01344676540291497
246 0.01300051545491558
247 0.01236943549331749
248 0.01195186162544563
249 0.01134465889907273
250 0.01085748039725567
251 0.01023094154625515
252 0.009784161053770214
253 0.008974629620538847
254 0.008528790166964281
255 0.007738192770940445
256 0.007407863334239147
257 0.007088489168125808
258 0.006614722429561063
259 0.006323368639127989
260 0.00585972475974493
261 0.005600971800097537
262 0.005414922127744393
263 0.005118434470277806
264 0.004892084820383073
265 0.00459647796347286
266 0.004131933069578541
267 0.003775389863128764
268 0.003443215839724844
269 0.002863475563292495
270 0.002495610040440864
271 0.002136224411437264
272 0.001584753704433931
273 0.001284457489345234
274 0.001035197329558623
275 0.0006400358635597154
276 0.0003605357618493598
277 0.0001432544683879935
278 -6.130827080344124e-06
279 -0.0001872115343497312
280 -0.0003099712909130595
281 -0.0004349026721964448
282 -0.0004807861713130022
283 -0.0005044219556859782
284 -0.0005023679554613284
285 -0.0004132058562985024
286 -0.000399581563337241
287 -0.0004131272783389429
288 -0.0004268065248268875
289 -0.000427673572181512
290 -0.0004317908170683559
291 -0.0004501570044042121
292 -0.0005110008403793912
293 -0.0005426616778586039
294 -0.0005166290025215041
295 -0.0005219334725274822
296 -0.0004976356608066797
297 -0.0004707137554362494
298 -0.0004181028771097068
299 -0.0004576135302602092
300 -0.0004741983107470688
301 -0.0004692615954848415
302 -0.0004094811526004262
303 -0.0003922754983372023
304 -0.0003436334215206327
305 -0.000279039152134841
306 -0.0001923360202572254
307 -0.0001008644850017482
308 1.589675770378995e-05
309 0.0001293869896052649
310 0.0003332754425764187
311 0.0005114904282029443
312 0.0007178034633227557
313 0.0009399886984158736
314 0.001149957023302867
315 0.001331278258784202
316 0.001559970253962094
317 0.001751589923587507
318 0.002004821665433984
319 0.002228117343300414
320 0.002486809837647549
321 0.002689580754037405
322 0.002925978814376356
323 0.003126956195018039
324 0.003351488979017134
325 0.003553965203811215
326 0.003787250898227199
327 0.00400262590988107
328 0.004264931744667235
329 0.004480363390013741
330 0.004722357991647625
331 0.004931115301200184
332 0.00515732476974078
333 0.005351855123236275
334 0.005583404601878028
335 0.005794704046973973
336 0.006036935632728571
337 0.006251998455096857
338 0.006483986163884973
339 0.006698581340644147
340 0.006940698926232175
341 0.007154748125382401
342 0.007422301920818431
343 0.007683767389181531
344 0.007955420994527351
345 0.00821929801018164
346 0.008472033236493069
347 0.008713138175140413
348 0.008968225879296805
349 0.009225181924663133
350 0.009488975794550309
351 0.009752160434599595
352 0.01002235936460299
353 0.01028275648216725
354 0.01057269656498802
355 0.01085493849164189
356 0.01113661973498462
357 0.01141065418846169
358 0.01169478910047044
359 0.0119619046930617
360 0.01223920273203082
361 0.01249856998884503
362 0.01277013607105119
363 0.01302241684974213
364 0.01328683530856414
365 0.01353645086967186
366 0.01379615202997859
367 0.01404775582425429
368 0.01431026544982015
369 0.01454391906869966
370 0.01478491571021044
371 0.01502713134567518
372 0.01528355841477017
373 0.01551994978250893
374 0.01575768930542658
375 0.01599343302997343
376 0.0162374268761689
377 0.01647094649584013
378 0.0167185029213519
379 0.01696056939999666
380 0.01722138239892957
381 0.0174784576353276
382 0.01775604359936046
383 0.01802540222736706
384 0.01830727386404318
385 0.01858481470079786
386 0.01886970181036429
387 0.01914872864557984
388 0.01943678555362157
389 0.01971929614192356
390 0.02000915384223206
391 0.02029043223286146
392 0.0205747422992828
393 0.02085002507915569
394 0.02114110664937517
395 0.02141962983570938
396 0.02169982560873485
397 0.02197588835801931
398 0.02226282910090887
399 0.02254244243680468
400 0.02283194293837154
401 0.02311618263498128
402 0.02340871747506055
403 0.02369682484001976
404 0.02399021208678485
405 0.02426677917635695
406 0.02454367205017184
407 0.02482393982594241
408 0.02510524196124806
409 0.02537390774033677
410 0.02563469177153292
411 0.02589992761020525
412 0.02615994342508667
413 0.02642048695123113
414 0.02669735245426139
415 0.02697299311372885
416 0.0272619598543873
417 0.02755272712677915
418 0.02784928320917304
419 0.0281409792659876
420 0.02843664229501405
421 0.02872559256842509
422 0.02901678275490708
423 0.02930239106664496
424 0.02958859445149409
425 0.02986281639437925
426 0.03013819969495907
427 0.03040343257814662
428 0.03066529798148982
429 0.03091772738423042
430 0.03116769965969076
431 0.0314095019121023
432 0.03165124747592368
433 0.03188291311325706
434 0.03211790268488005
435 0.03234199973772788
436 0.03257200413293627
437 0.03279706721019476
438 0.03302658796659909
439 0.03324941963176155
440 0.033475910195081
441 0.03368007676801685
442 0.0338883020746969
443 0.03409056847193034
444 0.03430380705901025
445 0.03450330167259123
446 0.034695835537448
447 0.03488687064343961
448 0.03507731956653119
449 0.0352620984508414
450 0.03545742475467389
451 0.03565067491658298
452 0.03586231094168935
453 0.0360740909013782
454 0.03629689368428839
455 0.03651399128435347
456 0.03674312328463973
457 0.03697296235842321
458 0.03720402801195266
459 0.03743072433598977
460 0.0376631308569348
461 0.0378826206521742
462 0.03810770944240724
463 0.03831632200370234
464 0.03852713925831545
465 0.03872763295922907
466 0.03893291874625373
467 0.03912002893878643
468 0.03931075897642954
469 0.03948571628884477
470 0.03965622438682993
471 0.03981359260322089
472 0.03997549237839847
473 0.04012478536459456
474 0.04028024960936089
475 0.04042343067290701
476 0.04056364460886024
477 0.04069253079499228
478 0.04083020997119077
479 0.04097132982397885
480 0.04112184348990389
481 0.04125147156806902
482 0.04139317328204378
483 0.04153657324304916
484 0.04168556302097584
485 0.0418370254561287
486 0.04199662792071148
487 0.04215710137179103
488 0.04233756933796869
489 0.04251746549252299
490 0.04270080466844096
491 0.0428749049102975
492 0.04305593387092642
493 0.04322887666433864
494 0.04340699291631425
495 0.04357722330957865
496 0.04375194749443936
497 0.04391034270672163
498 0.04406939878491826
499 0.04420346598462808
500 0.04434474592246914
501 0.04446733092028433
502 0.04459216524818223
503 0.04470097550142511
504 0.04481223972615663
505 0.04491113054591788
506 0.04500956192173831
507 0.04509390463767304
508 0.04518441316516454
509 0.04526371697906507
510 0.04534856723854164
511 0.04542236059328782
512 0.04550132307940671
513 0.04556598264660391
514 0.04565005065147901
515 0.04572654328024491
516 0.04581863845288633
517 0.04590438195217218
518 0.04600086552110647
519 0.04609154146823947
520 0.04619027051533381
521 0.04628335408364335
522 0.04639357956895292
523 0.04650070191197963
524 0.04662938485891245
525 0.04675467551788794
526 0.04688739317853294
527 0.04701175466451323
528 0.04714940692948857
529 0.04727725657000475
530 0.04741147025765544
531 0.04753956927855376
532 0.04767922835798873
533 0.04780022159975549
534 0.04792541338608801
535 0.04803522365308515
536 0.04815125880161971
537 0.04825765898594539
538 0.04837170687380572
539 0.04847433807527003
540 0.04858676912917403
541 0.04868567003303199
542 0.04879126069706014
543 0.04888216458302014
544 0.04898550420296503
545 0.0490772554519068
546 0.04917577088263135
547 0.04926799396392038
548 0.04934929818559504
549 0.04941721815824472
550 0.04950350383759551
551 0.04957392988607456
552 0.04965332295312831
553 0.0497073091712233
554 0.04978353235223392
555 0.04985095298057516
556 0.0499249769278436
557 0.04999169747957324
558 0.05007400708655273
559 0.05014951907277995
560 0.05024941698299974
561 0.05033538928214112
562 0.05047671487672171
563 0.05055141395541318
564 0.05063817258822408
565 0.05071639896701626
566 0.0508058567680604
567 0.05088585513148755
568 0.05097529030780389
569 0.05104719147303656
570 0.0511241425505363
571 0.05118217493977339
572 0.05124097939629139
573 0.05128940718977677
574 0.05135117587269963
575 0.05139711295483176
576 0.0514518167169068
577 0.05149487339172103
578 0.05154676593077714
579 0.05159302482269518
580 0.05165007594725241
581 0.05169841359315287
582 0.05175734645565946
583 0.05180792630357182
584 0.05185804289308639
585 0.05189583910390117
586 0.05195487317362475
587 0.05200148133510714
588 0.05205618872606394
589 0.05208742697887905
590 0.05213636036147256
591 0.05217279873301798
592 0.05221536392642175
593 0.05225413192078818
594 0.05230046687842645
595 0.0523470412673448
596 0.05241513049688415
597 0.05247725555036734
598 0.05255352594647875
599 0.05262422872862078
600 0.05270899318932207
601 0.05282786546605233
602 0.05291459492016726
603 0.05299639225169819
604 0.05308754685568155
605 0.05316825181577834
606 0.05325653490811529
607 0.05332768333800508
608 0.05341057494610663
609 0.05348792622528482
610 0.05356729485509132
611 0.05362955898765084
612 0.05369664844069259
613 0.05374889152243201
614 0.05380680348222359
615 0.05385569487357313
616 0.0539126784479423
617 0.05395999632609428
618 0.05401456791521506
619 0.05405758264125256
620 0.05409250992243674
621 0.05412856260247372
622 0.05416715007369419
623 0.0541897556378001
624 0.05421543242462189
625 0.05421720004775764
626 0.05423554811639985
627 0.05424214256758669
628 0.05425964064185231
629 0.05426832237600751
630 0.05429272570518304
631 0.05432210141908998
632 0.05436726305812024
633 0.05440084353628905
634 0.05446391008366029
635 0.05450011949248035
636 0.05454699335097273
637 0.05458871994477875
638 0.05464368362431416
639 0.05469248332419564
640 0.05475158871151683
641 0.05480135178372022
642 0.05485773062181286
643 0.05490058346196139
644 0.0549485788378615
645 0.05498737736462356
646 0.05502833467230994
647 0.05505823708896494
648 0.05509623189212506
649 0.05511563050638101
650 0.05513704116852287
651 0.05514777705006833
652 0.05516642025709546
653 0.05517623354761864
654 0.05519515600251169
655 0.05519510078326919
656 0.05520331903336099
657 0.05520251546946683
658 0.05522390343442813
659 0.05523680549358282
660 0.05525018962139486
661 0.05525988166834336
662 0.05529000671914436
663 0.05530900752805532
664 0.05534788263866511
665 0.05539022704531121
666 0.05544804953881762
667 0.05550664385992586
668 0.05558287642008073
669 0.05565081115739848
670 0.0557607992636353
671 0.05582405621159022
672 0.05589449298572978
673 0.05595457653894068
674 0.05602129894420202
675 0.05607349846504789
676 0.05613113897371065
677 0.0561756447114572
678 0.05622269564790573
679 0.05625570707712746
680 0.0562972447105746
681 0.05632464783732494
682 0.05635487295343292
683 0.05637076419838384
684 0.056390271056507
685 0.05640056570514618
686 0.05640983068318501
687 0.05641286384390817
688 0.05642310801168605
689 0.05642439040108207
690 0.05643156022395319
691 0.0564176223001616
692 0.05641157900590586
693 0.0564070676384375
694 0.05640930479214951
695 0.05640115801810845
696 0.0563916868415946
697 0.05638468274454627
698 0.05638611589787616
699 0.05637975770988897
700 0.05638448149752122
701 0.05639045426798295
702 0.05641314941279997
703 0.05644233445506591
704 0.05649147918835903
705 0.05652798203677599
706 0.05659369289714241
707 0.05663219065077554
708 0.05668080527593022
709 0.05671920830742173
710 0.05676538790183841
711 0.05679669112970722
712 0.05683382815999261
713 0.05685060905885832
714 0.05688281039387863
715 0.0568977534473732
716 0.05692381232329036
717 0.05693618961340027
718 0.05695500702021382
719 0.05696051820511901
720 0.05697446964751279
721 0.05697541425847638
722 0.05698268772906257
723 0.05698366109916669
724 0.05699705971702992
725 0.05700303044780063
726 0.05702329761122877
727 0.05702305369915226
728 0.057029032402152
729 0.05703961619077624
730 0.05706136490093352
731 0.05707528595945788
732 0.0570894187804793
733 0.05710339880676644
734 0.0571267033814221
735 0.05713990642581888
736 0.05716888011664413
737 0.05719542228276937
738 0.05723870376359001
739 0.0572872371349859
740 0.05734692896696893
741 0.05739831204457395
742 0.05746177032427936
743 0.05751449371425434
744 0.05756950927613703
745 0.05762038472326138
746 0.05767178366944458
747 0.05770872123992642
748 0.05774967133281214
749 0.05777282578298951
750 0.05779773856189396
751 0.05780679325884385
752 0.05782208008282901
753 0.05782067921267564
754 0.05782466693444525
755 0.05781306639464667
756 0.05780762827814455
757 0.05778633367946683
758 0.05777780707342488
759 0.05775658921139164
760 0.05774119719501701
761 0.05771797798516239
762 0.05770770252331192
763 0.05767906149960696
764 0.05766192795149318
765 0.05764760542719378
766 0.05764236830047959
767 0.05762644634920908
768 0.05761066122423498
769 0.05759393704662108
770 0.0575800753606468
771 0.05755948982143026
772 0.05755185904226526
773 0.05753894124748165
774 0.05753912603112096
775 0.05753983956733176
776 0.0575519016810029
777 0.0575520454061385
778 0.05758015812774343
779 0.0575950650621237
780 0.05762407466129028
781 0.0576493363924145
782 0.05768768695805011
783 0.05771473462704126
784 0.05775138986917384
785 0.05777719090860143
786 0.05780833073439611
787 0.05782839943112861
788 0.05785882764112057
789 0.05787916530647583
790 0.05790799476336408
791 0.05792912789947903
792 0.05794926734592587
793 0.05796006755599617
794 0.05798006815585081
795 0.0579889127111566
796 0.05800981319502926
797 0.05801942777249635
798 0.05803802877125189
799 0.0580349433112461
800 0.05803994376260992
801 0.05804771150900057
802 0.05806357917143155
803 0.05806393805343029
804 0.05805848127091652
805 0.05805500749061795
806 0.05805783326677069
807 0.05804946598827534
808 0.05805501487575178
809 0.05805433751005892
810 0.05807770648217307
811 0.05809669113876589
812 0.0581229128349404
813 0.0581399918066401
814 0.05817144759310118
815 0.05819455977010558
816 0.05823022383273235
817 0.05825925505958751
818 0.05829722824694181
819 0.05832187267602583
820 0.05835541078704697
821 0.05838073409711295
822 0.05840905215307736
823 0.05841619852411428
824 0.05843519290032868
825 0.05844308870531799
826 0.05845871540241621
827 0.05846126452144015
828 0.05846964034101575
829 0.05846456133992048
830 0.05846775224994757
831 0.0584586237572624
832 0.05845648047512674
833 0.05844296346622123
834 0.05842540396176341
835 0.05839533606295663
836 0.05837283109475972
837 0.05835197020953919
838 0.05833848474454206
839 0.05830046256326413
840 0.05828683055921352
841 0.05826946946940242
842 0.05825907802071178
843 0.05824201868486537
844 0.05824430597232549
845 0.05824157275710347
846 0.05825932512877399
847 0.05827525936609462
848 0.05830197768434385
849 0.05832228995057526
850 0.05836783876277098
851 0.05839574565820428
852 0.05843801716525607
853 0.05847694848969832
854 0.05852136811816323
855 0.05854758597849356
856 0.05858523430072109
857 0.05860913941664482
858 0.05864076430451848
859 0.05866196024640275
860 0.05868963172563632
861 0.05870394248788637
862 0.05872412948794208
863 0.058734633859123
864 0.05875055992643034
865 0.05875341989156327
866 0.05876577207399281
867 0.05876926266133509
868 0.05878218241654919
869 0.05878285545163407
870 0.05877754048044692
871 0.05875925295230017
872 0.05875624644248516
873 0.05874748268011417
874 0.05873578195997484
875 0.05870188352993243
876 0.05868704942472952
877 0.05866413862777355
878 0.05864553596981482
879 0.05862631482858872
880 0.05862447655553091
881 0.05862134157708927
882 0.05864315048071368
883 0.05866414196887791
884 0.05868276097243616
885 0.05869605952594713
886 0.05872714697333023
887 0.05875082294917064
888 0.05878795028066285
889 0.05881454906003568
890 0.05884889501387912
891 0.05886991169133345
892 0.0588972231641306
893 0.05890562858778137
894 0.05891639331708908
895 0.05891428461215174
896 0.05891587886479147
897 0.05889973317356015
898 0.05888824133004172
899 0.05886423758695919
900 0.0588489510011954
901 0.05882699046758136
902 0.0588126531595705
903 0.0587870348558159
904 0.05877446919621949
905 0.05875496429584266
906 0.05873536314878224
907 0.05870754142800374
908 0.0587011858938148
909 0.05868361943139806
910 0.05867658272871774
911 0.0586502478749512
912 0.05864432921841859
913 0.05863126441446783
914 0.05862782018452847
915 0.05862210209318108
916 0.05863545067728702
917 0.05864597461164238
918 0.05867584452706016
919 0.05870170448307908
920 0.05874717027555858
921 0.05878578476076834
922 0.05883698443593698
923 0.05888229626076845
924 0.05893993213512205
925 0.05898462632862751
926 0.05903441233191951
927 0.05907000685689105
928 0.05911170793288454
929 0.05913419930027169
930 0.05916023388714047
931 0.05917275878208042
932 0.05918874665867593
933 0.05918762944830808
934 0.0591923780452247
935 0.05918232887496815
936 0.05917922855887115
937 0.05916799658221988
938 0.05916029102454569
939 0.05914690434834624
940 0.05914446164860564
941 0.05913358963573096
942 0.05912084523826279
943 0.05909756354623283
944 0.05909545617467985
945 0.05907948556152567
946 0.05906844792966517
947 0.05903349962648483
948 0.05901724565920732
949 0.05898490548411384
950 0.05896838840892682
951 0.05894288485942679
952 0.05894134231091245
953 0.05893973682291672
954 0.05895608152243152
955 0.0589598173356282
956 0.05897339655334709
957 0.05897703331600346
958 0.05899127977430953
959 0.05899674397146674
960 0.05901412314242866
961 0.0590226451842281
962 0.05904045564010627
963 0.05904764468436092
964 0.05906482658612133
965 0.05906818170843368
966 0.0590787028055985
967 0.05908157366697317
968 0.05909138441506618
969 0.05908895843508026
970 0.05909495209719535
971 0.05909134173049368
972 0.05909162271524286
973 0.05907907833161583
974 0.0590770184056602
975 0.0590697212234364
976 0.0590739427955693
977 0.05907317347653707
978 0.05907057493470019
979 0.05906027935248233
980 0.05907174861634246
981 0.05907398582407984
982 0.05908426396318003
983 0.05907510636559563
984 0.05908207128999957
985 0.05907540134742408
986 0.05908087635685763
987 0.05908227827821179
988 0.05910037337392748
989 0.05912139395769291
990 0.05915633975252713
991 0.05918213109644385
992 0.05921976952206208
993 0.05924344299549086
994 0.05928611284844398
995 0.05930730513939238
996 0.05933530018836008
997 0.05935333938440803
998 0.05937869500662804
999 0.05939159745551395
1000 0.05941195227834955
1001 0.05942254560606148
1002 0.05944349208147567
1003 0.05945131315095178
1004 0.05946658558871243
1005 0.05946757434859053
1006 0.05947532710942033
1007 0.05946834586351989
1008 0.05947218497032485
1009 0.05946614114936905
1010 0.05946539892477948
1011 0.05945398264971617
1012 0.05945245522113535
1013 0.05943076078138016
1014 0.05941459165515878
1015 0.05939916885323277
1016 0.05939030899992102
1017 0.059367111957794
1018 0.05934861468685149
1019 0.05930625707356318
1020 0.0592810517373242
1021 0.0592434979772446
1022 0.05922019485429091
1023 0.05919315568018658
1024 0.05918361887297171
1025 0.05917492842173921
1026 0.05918224812514071
1027 0.0591768940482932
1028 0.05918346348312063
1029 0.05918837674242251
1030 0.05920217281468636
1031 0.05920885407141514
1032 0.05922891003344779
1033 0.05923790035097935
1034 0.05925653413199829
1035 0.05926519843450413
1036 0.0592847916674322
1037 0.05929485422932226
1038 0.05931895567582102
1039 0.05933401461769904
1040 0.05935973328629152
1041 0.05937511178156393
1042 0.05940002745102622
1043 0.05941098793089009
1044 0.05943039932545369
1045 0.05943661039389457
1046 0.05944892564942845
1047 0.05945145149854383
1048 0.0594616713335938
1049 0.05944621237206142
1050 0.0594363717618551
1051 0.05942875693777928
1052 0.0594292515557648
1053 0.05941389949053888
1054 0.05939464687642652
1055 0.05937398052463973
1056 0.05936214058750884
1057 0.05933580034207971
1058 0.05932435054607572
1059 0.05931056026310934
1060 0.05931562200505272
1061 0.05932869122182079
1062 0.05936087784964918
1063 0.05938174207509163
1064 0.05941667083170019
1065 0.05944696384082886
1066 0.05950410297951272
1067 0.05954006444914758
1068 0.05958474975247344
1069 0.05961475871837037
1070 0.05964802888496852
1071 0.05966826405342446
1072 0.05969016977212339
1073 0.05969555121679599
1074 0.05970711272460028
1075 0.05970356715802775
1076 0.05970525316652255
1077 0.05968991404582907
1078 0.05967959960543535
1079 0.05965246234517126
1080 0.05963266701668404
1081 0.0596026905343723
1082 0.05958038752136355
1083 0.05955034622927979
1084 0.05952874586282406
1085 0.05948670134538254
1086 0.05945236385446761
1087 0.05942558257090397
1088 0.05940823012064277
1089 0.05937912384348003
1090 0.05934778521790387
1091 0.05932207490457009
1092 0.05930740589165677
1093 0.05928004503507075
1094 0.05926960167499924
1095 0.05925583730318301
1096 0.05926096028451979
1097 0.05926713799205139
1098 0.05928709791347984
1099 0.05930219377871561
1100 0.05933128115819834
1101 0.05935586596564227
1102 0.0593941676505778
1103 0.05942774752433042
1104 0.05947155239222957
1105 0.05950323982409709
1106 0.05954110097904718
1107 0.05956805944562603
1108 0.05960010424877819
1109 0.05961567423816387
1110 0.05963788524213393
1111 0.05964583045774673
1112 0.05965966873306482
1113 0.05966043071827107
1114 0.05966640617875522
1115 0.0596597517900152
1116 0.0596605156250028
1117 0.05965359622025354
1118 0.05965310500879706
1119 0.05964485898756006
1120 0.05964513624072505
1121 0.05962564463402213
1122 0.05961522873927406
1123 0.05961046972268675
1124 0.05961604297747511
1125 0.05961260516836543
1126 0.05960987226791262
1127 0.0596061490683406
1128 0.05960755685320909
1129 0.05960365770324228
1130 0.05961148042916455
1131 0.05961251398412996
1132 0.05963584793621279
1133 0.05965483302168512
1134 0.0596758573956753
1135 0.05968513004634768
1136 0.059705421115099
1137 0.05972691460742011
1138 0.0597483707746333
1139 0.05975956146792754
1140 0.0597773145031801
1141 0.05978336040424595
1142 0.05979714971205281
1143 0.05979259257939797
1144 0.05979325547889106
1145 0.05978260921479334
1146 0.05977369108306245
1147 0.05975106171702947
1148 0.05973493958504469
1149 0.0597088126002826
1150 0.05968958637325258
1151 0.05965746094841021
1152 0.05963821073418338
1153 0.05961158269642244
1154 0.05959349614390681
1155 0.05956507964708697
1156 0.05953744006520416
1157 0.05950014275478221
1158 0.05948308669452416
1159 0.05945552095732067
1160 0.05943925306559286
1161 0.05941697852750886
1162 0.05939794627622185
1163 0.05938116259987263
1164 0.05937661615867792
1165 0.05937271967858392
1166 0.05938480228196081
1167 0.05939303030005087
1168 0.05942379306256887
1169 0.05945396373749647
1170 0.05949169965580253
1171 0.05951922045991222
1172 0.05955622819298308
1173 0.05958588786530392
1174 0.05962524974609151
1175 0.05965550173959444
1176 0.05969303116593341
1177 0.05971748901255832
1178 0.0597483605173884
1179 0.05976386043516739
1180 0.05978426277811656
1181 0.05979405148665944
1182 0.05981158319777936
1183 0.05981350063279829
1184 0.05982808457952489
1185 0.05983369708528605
1186 0.05984395921770592
1187 0.05984383654008364
1188 0.059855303946564
1189 0.05986128889205716
1190 0.05987462518312921
1191 0.05987772613049769
1192 0.05987586461726162
1193 0.05985969698584419
1194 0.0598482467716703
1195 0.05983474596450615
1196 0.05982457363393835
1197 0.05978761486757646
1198 0.05975825298702261
1199 0.05972348644986648
1200 0.05969363080223528
1201 0.05966041629604578
1202 0.05964263115335012
1203 0.05962041056759233
1204 0.05962214798539871
1205 0.05962247579092735
1206 0.05962561840278786
1207 0.059620693144365
1208 0.05962686577144927
1209 0.05962751696971582
1210 0.05963830692783098
1211 0.05964231305672423
1212 0.05965568506380427
1213 0.05965889316915469
1214 0.05967014017003841
1215 0.05966949748814507
1216 0.05967390848663037
1217 0.05966408254561141
1218 0.05966908267445465
1219 0.05965686700264401
1220 0.0596533761188576
1221 0.05964050258382407
1222 0.05963792548199855
1223 0.05962440340035505
1224 0.05962500324841791
1225 0.05961891581321492
1226 0.05962406648247225
1227 0.05962018575500911
1228 0.05961392874523525
1229 0.05959401444199143
1230 0.05957433169848636
1231 0.05954781317257107
1232 0.05952715138696078
1233 0.05949662401296282
1234 0.05948426132327119
1235 0.05946233352387318
1236 0.05944950634179522
1237 0.05943270320531056
1238 0.05943327068262881
1239 0.0594338241679447
1240 0.05945757644285209
1241 0.05948137806675298
1242 0.05951443178641717
1243 0.05954665208323075
1244 0.05958991201015292
1245 0.05962124733109696
1246 0.05966975918051823
1247 0.0597095918696278
1248 0.05975842088766365
1249 0.05979734000036444
1250 0.05984273957028646
1251 0.05987364484901559
1252 0.05990822040966294
1253 0.05992886412699501
1254 0.05995092854662461
1255 0.05995696470494222
1256 0.05996299620539101
1257 0.05995226006419208
1258 0.05994219607070084
1259 0.05991992961105436
1260 0.05990319066438508
1261 0.0598721302000346
1262 0.05985560351495446
1263 0.05983504931260471
1264 0.05980922643852379
1265 0.05977134050909134
1266 0.05975417446269294
1267 0.05972706280589651
1268 0.05970613567919661
1269 0.05966459068810598
1270 0.05964152688898006
1271 0.05960424288576097
1272 0.05958071264269801
1273 0.0595533554802414
1274 0.05954434607583271
1275 0.05953330285621566
1276 0.05954568394935418
1277 0.05954945565881543
1278 0.05956861210999202
1279 0.05958416568246813
1280 0.05959754001224164
1281 0.05960423749437702
1282 0.0596220192939213
1283 0.05963447596691871
1284 0.05965536135521844
1285 0.05966746106463516
1286 0.05968779375408937
1287 0.05969482558066944
1288 0.05970927845813819
1289 0.05971241457664207
1290 0.05972104805137475
1291 0.05971516831601374
1292 0.05971648524482634
1293 0.05970168725290313
1294 0.05969319035625016
1295 0.05967041082936146
1296 0.05966053013657731
1297 0.05964462418516767
1298 0.05963499779855148
1299 0.0596165173419048
1300 0.05959868612101328
1301 0.05957166333068265
1302 0.05956778237797781
1303 0.05955496685872855
1304 0.05955227820408838
1305 0.05953095111686254
1306 0.0595316770829464
1307 0.0595183333646746
1308 0.05952103878534863
1309 0.05952211394786039
1310 0.05954103291502877
1311 0.05956217149929583
1312 0.05960239156409403
1313 0.05963424331040205
1314 0.05967910515970275
1315 0.05973134626846009
1316 0.05976875390576836
1317 0.05979640270747205
1318 0.05982809049469466
1319 0.0598468121008045
1320 0.0598708260187158
1321 0.05987974020393397
1322 0.05989106018755224
1323 0.05988702977314855
1324 0.05989126195510011
1325 0.05988039218549822
1326 0.05987435433721967
1327 0.0598540375391298
1328 0.05983943456142429
1329 0.05981012909950808
1330 0.05978633139205208
1331 0.05975163888808002
1332 0.05972740510287215
1333 0.05969427300367649
1334 0.05967303748442319
1335 0.05963533063626727
1336 0.05960632362508062
1337 0.05957936030032189
1338 0.0595594859167315
1339 0.05952768133629401
1340 0.05950481639481937
1341 0.05946325367915498
1342 0.05944154759864066
1343 0.0594070360490455
1344 0.0593889893377557
1345 0.05937017571473491
1346 0.0593682462602487
1347 0.05937049780682969
1348 0.05939126314992308
1349 0.05940405667696902
1350 0.05942989175743088
1351 0.05945063022279209
1352 0.0594932470179501
1353 0.05951983298173745
1354 0.05955419576324492
1355 0.05957308889818806
1356 0.05959563965862444
1357 0.05960739361789535
1358 0.05961933419855268
1359 0.05961644032949108
1360 0.05962449916892224
1361 0.05962201031344844
1362 0.05962669106135394
1363 0.0596228016244645
1364 0.05962919397958279
1365 0.05962654858853061
1366 0.05963239722753247
1367 0.05963254623285103
1368 0.05964260779469788
1369 0.05964728603516892
1370 0.05966093885061096
1371 0.05965567064503131
1372 0.05966020721841889
1373 0.05966795336558184
1374 0.05968468930352312
1375 0.05968873224209587
1376 0.05968898418574028
1377 0.05968572531722603
1378 0.05968715447103631
1379 0.05967010663356476
1380 0.05966401725380435
1381 0.05965105597068234
1382 0.05965131783521805
1383 0.05965520161493838
1384 0.05967747383003325
1385 0.05968251425597023
1386 0.05969997580421508
1387 0.05971247589496458
1388 0.0597346171811417
1389 0.05975113840481342
1390 0.05977512952607527
1391 0.05978554452644897
1392 0.05980272771779181
1393 0.05980678543522289
1394 0.05981460804393308
1395 0.05980794234780122
1396 0.05981074071618735
1397 0.05980033648124278
1398 0.05979375845384326
1399 0.0597751039716389
1400 0.05976206518074041
1401 0.0597349142125257
1402 0.05971616150976862
1403 0.05968952275790022
1404 0.05967326763903446
1405 0.05964942116252825
1406 0.05963552547206277
1407 0.05960376565368446
1408 0.05958040400597437
1409 0.05956045795116392
1410 0.05954887267598463
1411 0.05952519572774758
1412 0.05950006688083142
1413 0.05947527845248905
1414 0.05946037313967999
1415 0.0594327521369788
1416 0.05942031370760532
1417 0.05940244148788247
1418 0.0594030239329237
1419 0.05940449990858086
1420 0.0594252184665806
1421 0.05943212735575975
1422 0.05946116496514093
1423 0.05947889884129041
1424 0.05951147463871458
1425 0.05953722302905575
1426 0.05957749914886912
1427 0.05960733561791392
1428 0.05964701970575759
1429 0.05967146659740002
1430 0.05970123920714168
1431 0.05971548053573748
1432 0.05973787388469499
1433 0.05974501591765585
1434 0.05976198992434396
1435 0.05976750659599773
1436 0.0597842333424692
1437 0.05978636799009777
1438 0.0597991048267563
1439 0.05980047117723931
1440 0.05980786782802703
1441 0.05980314761339771
1442 0.059804592572995
1443 0.05978331837321626
1444 0.05976890557885817
1445 0.0597560328050208
1446 0.0597512384148806
1447 0.05973550529991681
1448 0.05971687329052252
1449 0.05969710255442182
1450 0.05968109529758613
1451 0.05966027994536932
1452 0.05965173166388119
1453 0.0596361229902542
1454 0.05963481772055128
1455 0.05964054700214701
1456 0.0596536715553412
1457 0.05965538954064038
1458 0.05966825297330171
1459 0.05967529403821072
1460 0.05969236574430756
1461 0.05970378540025111
1462 0.05972578271191738
1463 0.05973742742164002
1464 0.05975631262448014
1465 0.05976675845383062
1466 0.05977838709924294
1467 0.05977743101953412
1468 0.05978552849501234
1469 0.05977949135369884
1470 0.05978017058435537
1471 0.05976903018385706
1472 0.05976260404910332
1473 0.05974071900367651
1474 0.05972727470286097
1475 0.0597053394065673
1476 0.05969295342161011
1477 0.05966861015495935
1478 0.05965148713987239
1479 0.05961004702383646
1480 0.05957630773291078
1481 0.05954159573674889
1482 0.05951496733229671
1483 0.0594792157467189
1484 0.05944696802757191
1485 0.05942030258742149
1486 0.05940356135595107
1487 0.05938680761985238
1488 0.05939176857903779
1489 0.05939627055477634
1490 0.05942353899047623
1491 0.05945232331756921
1492 0.05949523745384515
1493 0.05954493951594956
1494 0.05958620834558428
1495 0.05962466462787425
1496 0.05967318090779919
1497 0.05971421764855035
1498 0.05976010493897516
1499 0.05979080603274659
1500 0.05982584090332997
1501 0.05984626155150938
1502 0.0598662238127727
1503 0.05987421326266626
1504 0.05988765235610945
1505 0.0598875629273031
1506 0.05989270768284852
1507 0.05988696623337056
1508 0.05988638831398045
1509 0.05987202736718049
1510 0.0598677947510213
1511 0.0598550919368542
1512 0.05985205860300599
1513 0.05983852718568347
1514 0.05981925261508967
1515 0.05978998857809552
1516 0.05977100714937599
1517 0.05975274592620546
1518 0.05973971008427578
1519 0.05970267166089669
1520 0.05967864826228685
1521 0.05965474388421459
1522 0.0596372628914818
1523 0.0596155381687516
1524 0.05961333232152498
1525 0.05961221810932602
1526 0.05963241946349059
1527 0.05965008313030443
1528 0.05967412761373444
1529 0.05968855460181142
1530 0.05971062817828792
1531 0.05972316479820867
1532 0.05974389086647909
1533 0.05976143509967375
1534 0.05977624996521913
1535 0.05977916153916762
1536 0.0597909513337789
1537 0.05978694721613811
1538 0.05978619889841891
1539 0.05977477588906479
1540 0.05976751589002013
1541 0.05974688369038802
1542 0.05973085683589106
1543 0.05970463886621819
1544 0.05968599022930528
1545 0.05965830382976882
1546 0.05964563162995337
1547 0.05962909232618815
1548 0.05962758754210851
1549 0.05962138815034328
1550 0.05961267245559826
1551 0.05959520067371753
1552 0.05960060518146139
1553 0.05959356934818806
1554 0.05959368797430011
1555 0.05957504303466606
1556 0.05957792586563306
1557 0.05957134541052081
1558 0.05957249111543552
1559 0.05956870472484659
1560 0.05958386057775725
1561 0.05959554507719264
1562 0.05963049050495647
1563 0.05966222477621682
1564 0.05970168444980033
1565 0.05973231408669128
1566 0.05977246896851747
1567 0.05980505771796652
1568 0.0598497883342012
1569 0.05988210181186004
1570 0.05991952498185404
1571 0.05994465029660522
1572 0.05997395154119905
1573 0.05998722012521235
1574 0.06000421714510085
1575 0.06000918728921613
1576 0.06002065017806024
1577 0.0600158409688764
1578 0.06001509148405366
1579 0.05999826445728897
1580 0.05998481083967785
1581 0.05995653415087707
1582 0.05993714878097248
1583 0.05990628925640781
1584 0.05988579266735349
1585 0.05985647376472241
1586 0.05982547447988523
1587 0.05978453494766473
1588 0.0597683374516828
1589 0.05974147791403766
1590 0.05972195883388121
1591 0.05968438171167514
1592 0.0596655548338836
1593 0.0596357489723892
1594 0.05961048910841256
1595 0.05958280449042303
1596 0.05957094403453728
1597 0.05955673038389546
1598 0.05956271700232958
1599 0.05956056579084516
1600 0.05956875377120584
1601 0.05956704312238389
1602 0.0595761551623469
1603 0.05957835242683596
1604 0.05959130915931999
1605 0.05959428453325727
1606 0.05960648185859592
1607 0.05960965751106557
1608 0.05962300783681241
1609 0.05962630669859859
1610 0.05963919723241923
1611 0.0596469164398086
1612 0.05966505335699722
1613 0.05967000454898169
1614 0.05968406116233415
1615 0.0596899622819306
1616 0.05970257910679246
1617 0.05970589891125383
1618 0.05971925466661664
1619 0.05972447881314088
1620 0.05973908074227229
1621 0.05974451853395549
1622 0.05974972278583345
1623 0.05974334536839854
1624 0.0597564385839973
1625 0.05975591756158267
1626 0.05976081277796048
1627 0.05974481786162354
1628 0.0597427425026967
1629 0.05972348232988006
1630 0.05971548235818056
1631 0.05970171223951592
1632 0.05970202531599078
1633 0.05970307615571246
1634 0.05972177400331719
1635 0.05973210777001749
1636 0.059753180627558
1637 0.05976657037036748
1638 0.05979094127306143
1639 0.05981824514339251
1640 0.05984073267365994
1641 0.05985306820214938
1642 0.05987278442365321
1643 0.0598808397543809
1644 0.05989274484131372
1645 0.05989424468199554
1646 0.05990559681937024
1647 0.0599114488239092
1648 0.0599258702985655
1649 0.05992899828622959
1650 0.05993814874840559
1651 0.05993375545070011
1652 0.0599326203654131
1653 0.05991830232771121
1654 0.05991051311828328
1655 0.05989331130697215
1656 0.05988276749657095
1657 0.05985927422047676
1658 0.05983095381656191
1659 0.05979932712802602
1660 0.0597746739596049
1661 0.05973495862481323
1662 0.05970421196812765
1663 0.05965384847441466
1664 0.05962118204183419
1665 0.05957576790064858
1666 0.05954656735670813
1667 0.05951486352343993
1668 0.05950130557779233
1669 0.05949331975203198
1670 0.05950450186619673
1671 0.05950825914566553
1672 0.05952792548084176
1673 0.05955064060217043
1674 0.05957613796360619
1675 0.05960103144389263
1676 0.05963829240399843
1677 0.05966533878966836
1678 0.05970076936907954
1679 0.05972125138608424
1680 0.05974524725266367
1681 0.05975474496532594
1682 0.05977325410870973
1683 0.05977649394445566
1684 0.05978669502880662
1685 0.05978367282045594
1686 0.05978911160330217
1687 0.05978148165119948
1688 0.05978123693809322
1689 0.0597741305601723
1690 0.05977715873902829
1691 0.05977043737019597
1692 0.05977585423979723
1693 0.05975929557684916
1694 0.05974927711420204
1695 0.05974388902093416
1696 0.05974943015158792
1697 0.05974390309095177
1698 0.05974552675783067
1699 0.05972602037971401
1700 0.05972491443859836
1701 0.0597103429716301
1702 0.05970814444225734
1703 0.05969970304009849
1704 0.05970799275346662
1705 0.05972047559532399
1706 0.05974839660573305
1707 0.0597593903012192
1708 0.05978444915149796
1709 0.05980491942462685
1710 0.05984566563339801
1711 0.05986605211214668
1712 0.05989568208663859
1713 0.05990913725251099
1714 0.05992419686208769
1715 0.05992503243175598
1716 0.05992734409693872
1717 0.05991273794328861
1718 0.05990315447736497
1719 0.05987612770081937
1720 0.05985546244377579
1721 0.05981945006160549
1722 0.05979037483788818
1723 0.05974840298726675
1724 0.05971620270858465
1725 0.05967643387601086
1726 0.05964649300206187
1727 0.05960760845623909
1728 0.05958220907982988
1729 0.05953960286775948
1730 0.05950758500220969
1731 0.05947912752599793
1732 0.05946589068553415
1733 0.05944404833428447
1734 0.05942425797402743
1735 0.05941051271257754
1736 0.05941003686910069
1737 0.05940140261794365
1738 0.05940884764589172
1739 0.05941405034622756
1740 0.05943654444890403
1741 0.05946172716078563
1742 0.0595010229108409
1743 0.05952954885271534
1744 0.05956977758640084
1745 0.0596229050458763
1746 0.05966490792791109
1747 0.05970120868185599
1748 0.05974734565956188
1749 0.05978278497911372
1750 0.05982295517260311
1751 0.05984766259316756
1752 0.05987498701010521
1753 0.05988549189716538
1754 0.05989967372707745
1755 0.05990004045065065
1756 0.05990492325145736
1757 0.05989678537539379
1758 0.05989567885382164
1759 0.05988200006373958
1760 0.05987823700812871
1761 0.05986507246380852
1762 0.05986090634760936
1763 0.05984797194337577
1764 0.05984343379082499
1765 0.05981534264853264
1766 0.05979521615688901
1767 0.05977739389386579
1768 0.05976786440282789
1769 0.05974640335713655
1770 0.0597249027795632
1771 0.05970552278180317
1772 0.05969113560895766
1773 0.05966952266553147
1774 0.05966255025601427
1775 0.05965274972460261
1776 0.05965754852564448
1777 0.05966550396581962
1778 0.0596796090727891
1779 0.05968076164098539
1780 0.05969202501033568
1781 0.05969308533642005
1782 0.05970352758940509
1783 0.05970650841176996
1784 0.05971722573482919
1785 0.05971491749325449
1786 0.05972061998289547
1787 0.05971600241370319
1788 0.05971435196423351
1789 0.05970204523231437
1790 0.05970206970718707
1791 0.05969106295414731
1792 0.05968708905875511
1793 0.05966907780718547
1794 0.05966030071963305
1795 0.05964326688649696
1796 0.05963665870772198
1797 0.0596232339535914
1798 0.05962238207412613
1799 0.05961290746179883
1800 0.05961232189788167
1801 0.05958979156626049
1802 0.05957628144565798
1803 0.05956114846048265
1804 0.0595532132901785
1805 0.05953343024464532
1806 0.05951417005948728
1807 0.05949518537199996
1808 0.05948051725638716
1809 0.05946309507963862
1810 0.05946355747176627
1811 0.05946184665609888
1812 0.05948072475497578
1813 0.05949440644191015
1814 0.05951911914736324
1815 0.05955047482314476
1816 0.05957759886101748
1817 0.05959985783600275
1818 0.05963586254730795
1819 0.05966732313678701
1820 0.05970957631828218
1821 0.05974084253275339
1822 0.05978302581846777
1823 0.05981185826941812
1824 0.05984563482821284
1825 0.05986764588349147
1826 0.05989416859909819
1827 0.05990644176753668
1828 0.05992401832139833
1829 0.05992977132784713
1830 0.05993889784336056
1831 0.05993413474964965
1832 0.05993623131144657
1833 0.05992639886950563
1834 0.05992315207536442
1835 0.05990971438466409
1836 0.05988890710412986
1837 0.05985403289360727
1838 0.05982327203491784
1839 0.05979391563461871
1840 0.05976828940154864
1841 0.05971699653631052
1842 0.05967426321380335
1843 0.05963161206964167
1844 0.05959246928328692
1845 0.05955070635819016
1846 0.05952688121678035
1847 0.05950248874453146
1848 0.05950389280654236
1849 0.05950555768686907
1850 0.05951625146940567
1851 0.05952104610142959
1852 0.05954058106816359
1853 0.05955932559580764
1854 0.05957868747432373
1855 0.05959197262309563
1856 0.05961343313457269
1857 0.05962405308163293
1858 0.05964462305320135
1859 0.05965215636882774
1860 0.05966992551340736
1861 0.05967845664333732
1862 0.05969352413035153
1863 0.05969449953004027
1864 0.05970277043832291
1865 0.0596967323269263
1866 0.05969631029582526
1867 0.05968366448970674
1868 0.05968221317482944
1869 0.05967265400072241
1870 0.05967160429344703
1871 0.05966264161075044
1872 0.05965198741401889
1873 0.05963010505000065
1874 0.05962656810186158
1875 0.05961432432168435
1876 0.05961018840835634
1877 0.05958452547482645
1878 0.05957616556961354
1879 0.05955841912266224
1880 0.05954910140300665
1881 0.05953568512957735
1882 0.05953760664196448
1883 0.05953775903033941
1884 0.05956092719549691
1885 0.05958369124663526
1886 0.05961251658160416
1887 0.0596351118525442
1888 0.05967212904962031
1889 0.05970369211734474
1890 0.05974855248708132
1891 0.059782731690677
1892 0.05982529542008214
1893 0.05985242307968003
1894 0.059885858595005
1895 0.05990451572375368
1896 0.05992900778385366
1897 0.0599413099439581
1898 0.05995610413600205
1899 0.0599539603318251
1900 0.05995540922871131
1901 0.05993998994575643
1902 0.05992591221772897
1903 0.05989739014758237
1904 0.05987614807132364
1905 0.05984375399825319
1906 0.05981894664814572
1907 0.05978455305468003
1908 0.05975107078514436
1909 0.05971035899237484
1910 0.05969120514287503
1911 0.05966221057024053
1912 0.05964562979535936
1913 0.05960443121752048
1914 0.05958163913147991
1915 0.0595539980922876
1916 0.05953495650194755
1917 0.0595130474753835
1918 0.05950934065190539
1919 0.05950340343972256
1920 0.05952261156495774
1921 0.05954010066937567
1922 0.05956348078429403
1923 0.05957770453262449
1924 0.05960448076446785
1925 0.059621583759318
1926 0.05965029474169011
1927 0.05966605006683137
1928 0.0596887738651161
1929 0.05969959976795346
1930 0.05971697154436593
1931 0.0597195142643193
1932 0.05973085966311178
1933 0.05973059244904635
1934 0.05973609569108721
1935 0.0597318562940803
1936 0.05973583228790563
1937 0.05972886922581051
1938 0.05972836924154282
1939 0.05971956536077719
1940 0.05972021441625057
1941 0.05971264770769483
1942 0.05971438247427006
1943 0.05970826516900105
1944 0.05970160485751668
1945 0.05968799445621651
1946 0.05969718903945725
1947 0.05969854531368022
1948 0.05970952146660642
1949 0.05970035240650336
1950 0.05970975346091655
1951 0.05970475728471303
1952 0.05971400509198175
1953 0.05971475174433801
1954 0.05972952032558364
1955 0.05974171259509622
1956 0.05977656150260736
1957 0.05979813117969889
1958 0.05982816150739993
1959 0.05984821610742252
1960 0.05987764316875246
1961 0.05989372720925448
1962 0.05991898293638184
1963 0.05992860620277111
1964 0.05994127352950692
1965 0.05993742248008972
1966 0.05993867009372836
1967 0.05992225846796944
1968 0.05991145339239119
1969 0.05989316241678456
1970 0.05988271179965574
1971 0.05986128373776743
1972 0.05984914040953404
1973 0.0598227854213188
1974 0.0598031466524846
1975 0.0597778013019747
1976 0.05976075909469192
1977 0.05973393138538999
1978 0.05971676734636409
1979 0.05968984951629731
1980 0.05965787976431369
1981 0.05961657878031008
1982 0.0595974833533837
1983 0.05956700095864878
1984 0.05954459239846527
1985 0.05950224563472407
1986 0.05948071948397914
1987 0.0594463625341425
1988 0.05942884573159846
1989 0.05941177267344476
1990 0.05941450031419217
1991 0.05942108580875099
1992 0.05944714176824414
1993 0.05946497148823517
1994 0.05949588922192847
1995 0.05952435020864594
1996 0.05958212219146757
1997 0.05961767261573763
1998 0.05966405790815535
1999 0.05970033312825299
2000 0.05974285537561709
2001 0.05977077778977573
2002 0.05980194805443996
2003 0.0598167189164819
2004 0.05983923504003633
2005 0.05984721792629284
2006 0.05986136978101304
2007 0.05986244007796597
2008 0.05987256706161117
2009 0.05987010485618558
2010 0.05987600293432337
2011 0.05987499674098099
2012 0.0598829284741648
2013 0.05987956948426967
2014 0.059882589374046
2015 0.05986357526513279
2016 0.05985197456741163
2017 0.05984230963026901
2018 0.05983916447453003
2019 0.05982337034991261
2020 0.05981586806176754
2021 0.05978499210071128
2022 0.05977303984690617
2023 0.05974576874163796
2024 0.05973062332487254
2025 0.05971138819582494
2026 0.05970574225333192
2027 0.05970304917964259
2028 0.05971788754447784
2029 0.05971919743094573
2030 0.05973268769130798
2031 0.05974444504083357
2032 0.05976977973196363
2033 0.05979612009868659
2034 0.05981919655632063
2035 0.05983539160053297
2036 0.05985784766240566
2037 0.05986787726659305
2038 0.05988044805738035
2039 0.05987797759103851
2040 0.05988442717572787
2041 0.05987656924817011
2042 0.05987285594794568
2043 0.05985654381849217
2044 0.05984991002678101
2045 0.05982962974115834
2046 0.05981945509707905
2047 0.05980150099221694
2048 0.0597932566289468
2049 0.05977531604265107
2050 0.05976540942881623
2051 0.05973475971455119
2052 0.05971292919489612
2053 0.05968948996600033
2054 0.05966681242106151
2055 0.05963694524395257
2056 0.05960665218110138
2057 0.05957676484123921
2058 0.05955487425691484
2059 0.05952276695813303
2060 0.05950761516006296
2061 0.05948750344824316
2062 0.05948385040950248
2063 0.05948052193881378
2064 0.05949757044258238
2065 0.05950188782672861
2066 0.05951981620621012
2067 0.05953304332926466
2068 0.05956384514548045
2069 0.05959137094998501
2070 0.05963287420199694
2071 0.05966696535992076
2072 0.05971524155028476
2073 0.05975276801117668
2074 0.05979550803548065
2075 0.05982925100698334
2076 0.0598731229909225
2077 0.05990377866989034
2078 0.05993706822242551
2079 0.05995579786751814
2080 0.05998138956060319
2081 0.05998904147100848
2082 0.05999685953776002
2083 0.05999346620743983
2084 0.05999425958484948
2085 0.05998187570590188
2086 0.05997335052731535
2087 0.05993850799839967
2088 0.05991069746583644
2089 0.05988296839285815
2090 0.05985970850350854
2091 0.0598251756842001
2092 0.059788353461408
2093 0.05975161900875309
2094 0.05972438876332439
2095 0.05968898137587789
2096 0.05967164839179806
2097 0.05965236928350656
2098 0.05964860962867187
2099 0.05964730682300102
2100 0.0596618325653867
2101 0.05966219570461508
2102 0.05967156897444
2103 0.05967408321472424
2104 0.05968911422846295
2105 0.05969702287497809
2106 0.0597131182111347
2107 0.05971874311757959
2108 0.05973336534983745
2109 0.05973682176665831
2110 0.05974585159256269
2111 0.05974308826956693
2112 0.05974973178949453
2113 0.05974254379857993
2114 0.05973866344184265
2115 0.05972575797675631
2116 0.05972083311800161
2117 0.05970362671468685
2118 0.05969554645663068
2119 0.05968146177140309
2120 0.05967796433891001
2121 0.05966743918080225
2122 0.05966467695533406
2123 0.05964310152743056
2124 0.05962954120809148
2125 0.05961734476452166
2126 0.05961189048605273
2127 0.05959637341366957
2128 0.05958235425034088
2129 0.05957030729026041
2130 0.05957054266729499
2131 0.05956385750884595
2132 0.05957532519582457
2133 0.05958440602013887
2134 0.05960989988648898
2135 0.05963731277926952
2136 0.05967605735184909
2137 0.05970596327939954
2138 0.05974680468712881
2139 0.05977758547432151
2140 0.05981763872753625
2141 0.05984742527148591
2142 0.05988359882699928
2143 0.05990430753770797
2144 0.05993127071150111
2145 0.05994425548795523
2146 0.05996137488434313
2147 0.05996264690354416
2148 0.05997075260934407
2149 0.05996373654474912
2150 0.05996311155864072
2151 0.05994769621584008
2152 0.05993827678051841
2153 0.05991165892119522
2154 0.05989361102804674
2155 0.05986750556571534
2156 0.05985140983313329
2157 0.05982805602659924
2158 0.05981568094944923
2159 0.0597811101778209
2160 0.05975644508797687
2161 0.05973443892673712
2162 0.05971877238760549
2163 0.05969027642353954
2164 0.05966090482576118
2165 0.05962973435434583
2166 0.05960309159748436
2167 0.059570124572967
2168 0.05955329084564104
2169 0.05953448487696099
2170 0.05953951077882377
2171 0.05954395490367182
2172 0.05956079496858157
2173 0.05957197134816747
2174 0.05959113540109515
2175 0.05960253296972891
2176 0.0596230335809589
2177 0.05963701067357066
2178 0.0596578905617265
2179 0.05966646602359382
2180 0.05968112447267084
2181 0.05968418653290494
2182 0.05969167454033415
2183 0.05968912164978134
2184 0.05969276281598934
2185 0.05968332795309339
2186 0.05968113392463982
2187 0.0596665941710141
2188 0.05965910345023535
2189 0.05963909924584845
2190 0.05963249496349229
2191 0.05961991580197525
2192 0.05962121141873955
2193 0.05961714500811904
2194 0.05961647637976834
2195 0.05961025765375463
2196 0.05961583684181773
2197 0.0596268390169178
2198 0.05964554547931484
2199 0.05964158599338061
2200 0.0596492521887047
2201 0.0596534331628862
2202 0.05966050472325261
2203 0.05965870480871613
2204 0.05967010600645827
2205 0.0596747921720864
2206 0.05970164926249808
2207 0.05972410364166641
2208 0.05974710954999831
2209 0.05976159024606226
2210 0.05978597619250464
2211 0.05980261174365766
2212 0.05982900720166999
2213 0.05984491810889234
2214 0.05986790642318381
2215 0.05988021014894335
2216 0.05990056159086851
2217 0.05990979949817329
2218 0.05992254121553472
2219 0.05992520132500745
2220 0.05993306074456863
2221 0.0599281162344626
2222 0.05992676638074755
2223 0.05991187510297168
2224 0.05990033500302372
2225 0.05987288901751747
2226 0.05985268687944181
2227 0.05982269725706631
2228 0.05980082618953042
2229 0.05976994997733567
2230 0.05973845825581964
2231 0.05969795271934668
2232 0.05966863171497094
2233 0.05962672714861589
2234 0.05959455194448275
2235 0.05955532529801041
2236 0.05953436375501655
2237 0.05950250219090078
2238 0.05947496188562749
2239 0.05944256543934504
2240 0.05942564307127966
2241 0.05940513757733928
2242 0.05940730935814047
2243 0.05940883279452473
2244 0.05942163337164647
2245 0.05942880066302975
2246 0.05945027335587968
2247 0.05946609175428492
2248 0.05949941142525141
2249 0.05952302062424051
2250 0.05955677026620068
2251 0.05958131946075767
2252 0.05961835792494621
2253 0.05963917764837483
2254 0.05966972318277858
2255 0.05969233001354365
2256 0.05972465697473827
2257 0.05974452829606811
2258 0.05977343060519817
2259 0.05979015434742362
2260 0.05981422040721901
2261 0.05982109854376374
2262 0.05983471835254062
2263 0.05983671321436314
2264 0.05984389180777101
2265 0.05983561623473778
2266 0.05982060853111145
2267 0.05979095025885694
2268 0.05978064341808181
2269 0.05975707863820369
2270 0.05973996850654981
2271 0.05970240345166634
2272 0.05968893434231795
2273 0.05966377008263368
2274 0.05964501196297484
2275 0.05962543005989516
2276 0.05962105653102465
2277 0.05961427230973437
2278 0.05963115160645779
2279 0.05964653570407859
2280 0.05966769502409086
2281 0.05968328008678192
2282 0.05971071847684747
2283 0.05973135357889295
2284 0.05976741840249117
2285 0.05978931859071083
2286 0.05981732846884943
2287 0.05983171685711582
2288 0.05985260445466561
2289 0.0598563566819249
2290 0.05986551963366877
2291 0.05986471099421643
2292 0.05987237192400642
2293 0.0598653748349245
2294 0.05986497848905453
2295 0.0598534492198119
2296 0.05984636663386991
2297 0.05982478305665997
2298 0.05981006066730967
2299 0.05978409765411608
2300 0.05976570432280377
2301 0.05973536842596475
2302 0.05970395887138916
2303 0.05966010317419302
2304 0.05963782196730778
2305 0.05960315137801263
2306 0.0595769308377079
2307 0.05952885543074696
2308 0.05950241980443711
2309 0.05946865553265607
2310 0.0594428587941117
2311 0.05941570570646625
2312 0.05940777658598853
2313 0.05939897558452329
2314 0.05941543937532481
2315 0.05942996151128449
2316 0.059459590089284
2317 0.05948643857872408
2318 0.05954371512368332
2319 0.05957814476521341
2320 0.05962546340682567
2321 0.05966430625158341
2322 0.05971107008013931
2323 0.05974698236631509
2324 0.05978729796352612
2325 0.05981081925593828
2326 0.05983762494833021
2327 0.05985000567105785
2328 0.05986533089881569
2329 0.05986685432670932
2330 0.05987389643856964
2331 0.05986984312732067
2332 0.059873171495094
2333 0.05986577463068495
2334 0.05986814351809652
2335 0.05986314582703831
2336 0.05986501215323396
2337 0.05985667018391124
2338 0.05984384428132435
2339 0.05981726151625187
2340 0.05981192209126542
2341 0.05979507414094831
2342 0.05978733452612175
2343 0.05975801000417916
2344 0.05975033357305369
2345 0.05972675024460036
2346 0.05971742742891178
2347 0.05970102316988084
2348 0.05969810108104717
2349 0.05969868953663972
2350 0.05971456767711546
2351 0.05971305502874446
2352 0.05972053739722046
2353 0.05971957302047304
2354 0.05972495051919575
2355 0.05972479833403743
2356 0.05973455731392503
2357 0.0597334486615729
2358 0.05974036294998027
2359 0.05973485030550235
2360 0.05973339076198268
2361 0.05971764465981708
2362 0.0597078115872204
2363 0.05968946457136412
2364 0.05967673895115338
2365 0.05965343916004155
2366 0.05963967806384842
2367 0.05961503372713537
2368 0.05959938556722418
2369 0.05958037323610437
2370 0.05957425333147408
2371 0.05956383501753796
2372 0.05956674174724531
2373 0.05955185517145953
2374 0.05954861486705295
2375 0.05955103439208333
2376 0.05956340525669995
2377 0.05956612089226145
2378 0.05957777383380405
2379 0.0595707835746495
2380 0.0595822574587803
2381 0.0595809901691948
2382 0.05959229834854814
2383 0.05959894184942691
2384 0.05961998586945658
2385 0.05963946854294164
2386 0.05967359047086322
2387 0.05969367454095201
2388 0.05973111460001403
2389 0.05974684642929077
2390 0.05977065041736469
2391 0.05978550970025615
2392 0.05981427531058364
2393 0.05983060400509286
2394 0.05985504778060907
2395 0.05987188510707073
2396 0.05989350254018386
2397 0.05990157453098792
2398 0.05991825892797174
2399 0.05992168047158609
2400 0.0599317211793144
2401 0.05992971181141889
2402 0.05993555196162804
2403 0.05992897269032885
2404 0.05992981787778223
2405 0.059920475160538
2406 0.05992021657671458
2407 0.05990790930217527
2408 0.05990320729816497
2409 0.05987346893954817
2410 0.05985037156764694
2411 0.05982862417173729
2412 0.05981372150218837
2413 0.05978358732818551
2414 0.05974890345227488
2415 0.05971733409599658
2416 0.05969613693592957
2417 0.05966072579104083
2418 0.05964061835316594
2419 0.05961818554436848
2420 0.0596139774811961
2421 0.05960948524997237
2422 0.05962245803923428
2423 0.05962355315084056
2424 0.05963694158073374
2425 0.0596428367598033
2426 0.05965900910388339
2427 0.05966740753143389
2428 0.05968874597844145
2429 0.05969919840063828
2430 0.05971738710704338
2431 0.05972658874423658
2432 0.05974307788964135
2433 0.05974441678439683
2434 0.05975566061549484
2435 0.05975613872685481
2436 0.05976381852554825
2437 0.05975593097340163
2438 0.05975447918642117
2439 0.05973837744902552
2440 0.05973238964612576
2441 0.05971610288693843
2442 0.05971012120450987
2443 0.05969740105845541
2444 0.05969825196539881
2445 0.05967724139090622
2446 0.05966497026855997
2447 0.05965253450098901
2448 0.05964869345795272
2449 0.05962931672395573
2450 0.05960595201994464
2451 0.0595830008834594
2452 0.05957156856744762
2453 0.059547483164378
2454 0.05954044336595433
2455 0.05953610659183949
2456 0.05955145765724418
2457 0.05957162662188072
2458 0.05960873565427416
2459 0.05963509510493775
2460 0.05967330307744066
2461 0.05970561989109485
2462 0.05974709091222689
2463 0.05978532073298689
2464 0.05983205962797099
2465 0.05986605098130332
2466 0.05990452385976855
2467 0.05993108864692901
2468 0.05995860504050959
2469 0.0599716296915445
2470 0.05999106469336629
2471 0.0599956879199119
2472 0.06000624877118421
2473 0.06000057407320968
2474 0.05999928935514736
2475 0.05998560317537745
2476 0.05997702469971092
2477 0.05995820728206411
2478 0.05994411570735463
2479 0.05992103692873206
2480 0.05990402886077562
2481 0.05986396237361945
2482 0.05983053069111772
2483 0.05979624382383038
2484 0.05976895236437368
2485 0.05972736564193405
2486 0.05968230168627124
2487 0.05963414459875579
2488 0.05959594046502662
2489 0.05954420449332289
2490 0.05950806176928796
2491 0.05947203897198903
2492 0.0594581447705049
2493 0.05944904716889797
2494 0.0594568328797162
2495 0.05946278722865594
2496 0.05948566336071709
2497 0.05950629399348668
2498 0.05953974982610071
2499 0.05956912327413399
2500 0.05961078477535282
2501 0.05964232102479722
2502 0.05968249073051912
2503 0.05971118462126308
2504 0.05974578233621661
2505 0.059767753998901
2506 0.05979837552814317
2507 0.05981272979396201
2508 0.05983101896743535
2509 0.05983336354088429
2510 0.05984065330045009
2511 0.05983063005774079
2512 0.05982977284463361
2513 0.05981823206806337
2514 0.05981460630134183
2515 0.05980426213204238
2516 0.05980269936317297
2517 0.05978269647873456
2518 0.05977047600684618
2519 0.05975916831168972
2520 0.05975674093031993
2521 0.05974470054272162
2522 0.0597300189406327
2523 0.05971453924372977
2524 0.05970415518894465
2525 0.05968744407465935
2526 0.05968670362890613
2527 0.05967959876434101
2528 0.059690926684527
2529 0.05970744895137824
2530 0.05973435310980097
2531 0.05975167143863794
2532 0.05978149138756598
2533 0.05981378949400892
2534 0.05984211155234748
2535 0.05986238557500512
2536 0.05988863064341664
2537 0.05990158476790475
2538 0.05991654121425172
2539 0.05991492207979882
2540 0.05991776262661293
2541 0.05990758968380658
2542 0.05990755550859068
2543 0.05989358126863653
2544 0.05988748054284104
2545 0.05986951029174915
2546 0.05985830491974631
2547 0.05983028429963552
2548 0.05981381234212175
2549 0.05978838740644204
2550 0.05977171797801809
2551 0.05974688787684894
2552 0.05973178303811298
2553 0.05969684044392055
2554 0.05967287552336516
2555 0.0596530997445372
2556 0.05964232375103841
2557 0.05962393381155552
2558 0.05960582956499043
2559 0.05958715106315025
2560 0.05957414199548233
2561 0.05955589430510886
2562 0.05955068730059997
2563 0.0595422417315067
2564 0.05955241917687359
2565 0.05956077121367782
2566 0.05957715578148956
2567 0.05958258527081166
2568 0.0595995120717959
2569 0.05960980889320855
2570 0.05963114405121193
2571 0.0596443432209008
2572 0.0596684616327588
2573 0.0596772970338481
2574 0.05969576124886809
2575 0.05970461162493693
2576 0.05971976459457639
2577 0.0597279752517765
2578 0.05974577308832965
2579 0.05975459975317087
2580 0.0597725630601424
2581 0.05978139136394723
2582 0.05979643684104516
2583 0.05979926369555735
2584 0.05981241722504082
2585 0.05981632686414622
2586 0.05982851691970986
2587 0.0598305719732202
2588 0.05982977693614264
2589 0.05981483731902065
2590 0.05980850193649655
2591 0.05980392047893777
2592 0.05980829044476545
2593 0.05978660828594572
2594 0.05977735862901498
2595 0.05977063698995625
2596 0.05976763225987744
2597 0.05975776919129908
2598 0.05976120766310628
2599 0.05975862674038034
2600 0.05977749075994872
2601 0.05979138578451021
2602 0.05980374780417718
2603 0.05980727947368695
2604 0.05982048527245778
2605 0.05982560173349939
2606 0.05983777223802391
2607 0.0598414796570961
2608 0.05985022725302518
2609 0.05984250111828811
2610 0.0598395633921257
2611 0.05982364853977632
2612 0.05981114355558869
2613 0.05978630966074698
2614 0.05977054991853629
2615 0.05974687986229973
2616 0.05973277286478219
2617 0.05970998411833073
2618 0.05969586744796958
2619 0.05967118408360861
2620 0.05965995368569981
2621 0.05963992980717529
2622 0.05962934804520138
2623 0.05961234795062115
2624 0.05959479853366548
2625 0.05956563648847102
2626 0.05954730839271458
2627 0.0595183665106006
2628 0.05950351988614348
2629 0.05948003607344797
2630 0.05947582492127076
2631 0.05946437934560758
2632 0.05946288933176
2633 0.05945327836271488
2634 0.05945970316325026
2635 0.05946643342367833
2636 0.05949390826332206
2637 0.05951791391923663
2638 0.05955025710578483
2639 0.05957397483020963
2640 0.05961058554920014
2641 0.05964089433624904
2642 0.05968358081730299
2643 0.05971833068981446
2644 0.05976165656014083
2645 0.05979168865570335
2646 0.05982846977103481
2647 0.05984961171163729
2648 0.05987560693474128
2649 0.05988778561919343
2650 0.05990240829493217
2651 0.05990183403401303
2652 0.0599082542102021
2653 0.05990092390736981
2654 0.05989959290212228
2655 0.05989018231154045
2656 0.05989246912963762
2657 0.0598862029990207
2658 0.05988764422571261
2659 0.05987710157600626
2660 0.05986068126515978
2661 0.05983068814715484
2662 0.05981921904029522
2663 0.05979391401619982
2664 0.05977585714443991
2665 0.05973510448443084
2666 0.05971493149627538
2667 0.05968610189237368
2668 0.05966417085068564
2669 0.05963706702387129
2670 0.05962529901949276
2671 0.05961069432255064
2672 0.05961841333303206
2673 0.05962304534348031
2674 0.05963480481483719
2675 0.05964101840040881
2676 0.05966157148088261
2677 0.05967909219149263
2678 0.05971271950689475
2679 0.0597346265640578
2680 0.05976679406092079
2681 0.05978705234592088
2682 0.05981303838357625
2683 0.059821997102292
2684 0.0598356164830612
2685 0.05983726445187063
2686 0.059842903623801
2687 0.05983094215205098
2688 0.05982279328644084
2689 0.05979936405709034
2690 0.05978007594579722
2691 0.05974826825649957
2692 0.05972794705675969
2693 0.05969508626716679
2694 0.05967210830897247
2695 0.05963987173647604
2696 0.05960808772195469
2697 0.05956754637327993
2698 0.05955100707686953
2699 0.05952466203522358
2700 0.05950857484791089
2701 0.05947658391803298
2702 0.05946612518438308
2703 0.05944317328770486
2704 0.05943871387024559
2705 0.05943373696693011
2706 0.05944806295904612
2707 0.05946107290793989
2708 0.05949718403875498
2709 0.05952658720160923
2710 0.05956860579258644
2711 0.05960147764666318
2712 0.05964741068431174
2713 0.05968577598275251
2714 0.05973718941180896
2715 0.05977953917529691
2716 0.05983035405871043
2717 0.05987065082310754
2718 0.05991587901303036
2719 0.05994304960632254
2720 0.05997305375897508
2721 0.05998974920740494
2722 0.06000884528015405
2723 0.06000897694687075
2724 0.06001107519274208
2725 0.05999906489578368
2726 0.05998964865209601
2727 0.05996747544453473
2728 0.05995307865637749
2729 0.05992741833816793
2730 0.05990824392475225
2731 0.05987754981950995
2732 0.05984242271297713
2733 0.05979208484377326
2734 0.05976341575927518
2735 0.0597224949029923
2736 0.05969010177170525
2737 0.05963892059387027
2738 0.05960696992443052
2739 0.05956237253540862
2740 0.05953418670097173
2741 0.05950578384166851
2742 0.05949583973045471
2743 0.05949123827030323
2744 0.05950559973502535
2745 0.05951246264617428
2746 0.05953028166163096
2747 0.05954037977606349
2748 0.05956143376033635
2749 0.05957448907138399
2750 0.05959785099069188
2751 0.05961012559179003
2752 0.05963023156429242
2753 0.05963687405916232
2754 0.05965065062466873
2755 0.05965408043973573
2756 0.05966389529324
2757 0.0596675673070446
2758 0.05967763514072459
2759 0.05967595260313425
2760 0.05968111274901888
2761 0.05967459600425767
2762 0.0596742278749947
2763 0.05966748307520942
2764 0.0596731041931
2765 0.05967159218113906
2766 0.0596819800534986
2767 0.05967464541541562
2768 0.05967698571962617
2769 0.05966925414343045
2770 0.05968312942899096
2771 0.05968530985290879
2772 0.05968458672212584
2773 0.05967328329522196
2774 0.05968017400866203
2775 0.05967404972528972
2776 0.05968415293933391
2777 0.0596897670236339
2778 0.05971365508113163
2779 0.05974109956810011
2780 0.0597842570950024
2781 0.05980967621947898
2782 0.05984308017575728
2783 0.05987527989613431
2784 0.05990030463539679
2785 0.05991386933067869
2786 0.05993344494600761
2787 0.0599373450773719
2788 0.05994808036453338
2789 0.05994303284240981
2790 0.05994081413164824
2791 0.05992480506335177
2792 0.05991738900727933
2793 0.05989250477849636
2794 0.05987634320072042
2795 0.05985125080659463
2796 0.05983677897151608
2797 0.05981278261725608
2798 0.05979823101543813
2799 0.05978085301500728
2800 0.05977505512790005
2801 0.05976201271392408
2802 0.05975783934725913
2803 0.05973675919425667
2804 0.05972363286835455
2805 0.05971262752936921
2806 0.05970935903746935
2807 0.05969352605272611
2808 0.05967301950030571
2809 0.05964977512227176
2810 0.0596321534359438
2811 0.05959893069150515
2812 0.05957849349595171
2813 0.05954986558798046
2814 0.0595369556823119
2815 0.05952929655677604
2816 0.0595392028471458
2817 0.05953750637818241
2818 0.05954995161214796
2819 0.05955699649492805
2820 0.05957747862895169
2821 0.05959045084280078
2822 0.0596106609954408
2823 0.05962067511909351
2824 0.05963947454992213
2825 0.05964686396603906
2826 0.05966201107313383
2827 0.05966800870699095
2828 0.05968735277643881
2829 0.05969547213434475
2830 0.05971249722187877
2831 0.05971964669994953
2832 0.05973509231758063
2833 0.059736550453681
2834 0.05974662184824541
2835 0.05975101982802731
2836 0.05976538785089327
2837 0.05977102947709253
2838 0.05978587759437221
2839 0.05978248673267972
2840 0.0597868589336548
2841 0.05979228158247585
2842 0.05980389948797789
2843 0.05980229027745639
2844 0.05979380503821841
2845 0.0597827141447145
2846 0.05977672349954075
2847 0.05975644424186419
2848 0.05974992011004693
2849 0.0597374997829778
2850 0.05973906390924513
2851 0.05974447749608412
2852 0.05976013230986009
2853 0.05977250830952171
2854 0.05979136601976977
2855 0.05980426793116563
2856 0.05982832481878208
2857 0.05984517866561156
2858 0.0598706409937769
2859 0.05988303090305867
2860 0.0599040790443047
2861 0.0599094031337687
2862 0.05991738891676062
2863 0.05991042081567052
2864 0.05991117129990486
2865 0.05989885854777696
2866 0.05989264532711038
2867 0.05987339845427243
2868 0.05986173911056375
2869 0.05983580237373815
2870 0.05981700977670681
2871 0.05978702550608131
2872 0.05976707152092516
2873 0.05973246422820893
2874 0.05970693241339373
2875 0.05966257465580228
2876 0.05962861676163381
2877 0.05958809503942746
2878 0.05955921227945273
2879 0.05952203151899779
2880 0.05949935972041828
2881 0.05947499012466102
2882 0.05945657706670783
2883 0.05943465817110503
2884 0.05943127092632423
2885 0.05942725953842494
2886 0.05944664199613683
2887 0.05946426443932847
2888 0.05949526654351615
2889 0.05951848826454237
2890 0.05955416833056425
2891 0.05958281665665991
2892 0.05962406970265863
2893 0.05965962123786894
2894 0.0597037015707465
2895 0.05973832490613808
2896 0.05978215076313199
2897 0.05981627760627901
2898 0.05985292429543095
2899 0.05987552271823414
2900 0.05990665822478027
2901 0.05992384130324654
2902 0.05994404819943667
2903 0.05995133953366251
2904 0.0599626221218932
2905 0.05995984819547345
2906 0.05996125390642166
2907 0.0599497928070876
2908 0.05994547833963398
2909 0.05992801487401863
2910 0.05991488314955123
2911 0.05987426585345057
2912 0.05984219397182648
2913 0.05980979156320633
2914 0.05978635965002304
2915 0.05975357804028612
2916 0.05972051451692539
2917 0.0596919838695638
2918 0.05966929262028019
2919 0.05964340512122076
2920 0.05963558012603158
2921 0.05962474452418148
2922 0.05963919558307349
2923 0.05965185731601687
2924 0.05967181473301457
2925 0.05968456908017583
2926 0.05972168475968431
2927 0.0597415774299955
2928 0.05977492033340077
2929 0.05979996502983373
2930 0.05983201629901106
2931 0.05984837487239725
2932 0.05987070919850671
2933 0.0598714146053553
2934 0.05987495504946267
2935 0.05986692791412799
2936 0.05986118064645405
2937 0.05984186748298522
2938 0.05982817121164604
2939 0.05980510213511177
2940 0.05978679074391597
2941 0.05975849045337529
2942 0.05973984513458212
2943 0.05971410420605065
2944 0.05969707256690483
2945 0.05967175405849237
2946 0.05964551484706203
2947 0.05961097794618483
2948 0.05959848543540881
2949 0.0595756058507988
2950 0.05956295234747704
2951 0.05954233220243385
2952 0.05952491992484109
2953 0.05950942582073495
2954 0.05950142344939788
2955 0.05949622426919401
2956 0.0595098410677957
2957 0.05952209657622965
2958 0.05955669245829284
2959 0.05959224672591974
2960 0.05963559540775736
2961 0.05967103004118358
2962 0.0597163128518063
2963 0.05975485881221339
2964 0.05980062636060047
2965 0.05983832969311879
2966 0.05988051550974873
2967 0.05990901179238146
2968 0.0599428147728101
2969 0.05995930643664679
2970 0.05997556799674485
2971 0.05997885710223991
2972 0.05998563935848361
2973 0.05997352519693742
2974 0.05996820536015989
2975 0.05995238972576743
2976 0.05994384687031404
2977 0.05992363380471072
2978 0.05991666683096451
2979 0.059904447389158
2980 0.05990367720200784
2981 0.05989419752804567
2982 0.0598808079611151
2983 0.05985723771437098
2984 0.05984142174021299
2985 0.05981299458742947
2986 0.05979235131791973
2987 0.05976186477897857
2988 0.05974879826265345
2989 0.05972425476489184
2990 0.05970294337208842
2991 0.05967621880464424
2992 0.05966294239546015
2993 0.05964034443311995
2994 0.05963625530009597
2995 0.05963148600006475
2996 0.05963073186139178
2997 0.05962038184303936
2998 0.05962456065850569
2999 0.05962300839723161
3000 0.05963682895747831
3001 0.05964020881762684
3002 0.05965340703781511
3003 0.05965747487427535
3004 0.05967162019917837
3005 0.05967271591504774
3006 0.05968108274268806
3007 0.05968086795809616
3008 0.05968835218255216
3009 0.05968287559154478
3010 0.05968457906045193
3011 0.05967460286952475
3012 0.05967400884396774
3013 0.05966186658663131
3014 0.05966229009368271
3015 0.0596587042306712
3016 0.05966771343173281
3017 0.05967036915346315
3018 0.05967296363106595
3019 0.05966563152929807
3020 0.05967855524121027
3021 0.05967847158403013
3022 0.05968372883348749
3023 0.05966723160512327
3024 0.05966887960855269
3025 0.05966138873238486
3026 0.05966031835675575
3027 0.05965420365518902
3028 0.05966496674427359
3029 0.05966945008612604
3030 0.05969413358173636
3031 0.05970642006739732
3032 0.05972833196444253
3033 0.0597386550772469
3034 0.05975839700922111
3035 0.05977063214510549
3036 0.05979513007231682
3037 0.05981073492309329
3038 0.05983474739229497
3039 0.05985100370409683
3040 0.05987664029145703
3041 0.05988979540798377
3042 0.05990925297119207
3043 0.0599180888460133
3044 0.05993266578853707
3045 0.05993450462483037
3046 0.05994168293281368
3047 0.05993697381927374
3048 0.05993545872454704
3049 0.05992448193340269
3050 0.0599188019440048
3051 0.05990328956013398
3052 0.05989586935133252
3053 0.05987558879845684
3054 0.05985188661265879
3055 0.05981653344780657
3056 0.05979976571452177
3057 0.05976955424909666
3058 0.05974652318716871
3059 0.059702432907815
3060 0.05967613514903855
3061 0.05963631624324116
3062 0.05961068679474102
3063 0.0595812977483379
3064 0.05957019008144149
3065 0.05956374332935428
3066 0.05957433885307376
3067 0.05957691225827488
3068 0.05959358471744053
3069 0.05960173917447226
3070 0.0596205243250521
3071 0.05962927877092815
3072 0.05965095384672583
3073 0.05965705370107809
3074 0.05966968948722854
3075 0.05967156272852529
3076 0.05968162648918757
3077 0.05968058680697483
3078 0.0596915757858008
3079 0.05969382477248706
3080 0.05970503375706419
3081 0.05970755500448576
3082 0.05971816080839577
3083 0.05971412404313068
3084 0.05971699689255008
3085 0.05971375807961261
3086 0.05971826744113649
3087 0.05971373200055682
3088 0.0597185071280078
3089 0.05970411933984919
3090 0.05969598329050964
3091 0.05967678544275536
3092 0.0596760788283122
3093 0.05966178610950548
3094 0.05964217011392604
3095 0.05961621585783864
3096 0.05960970466607451
3097 0.05959341522662768
3098 0.05959444512023843
3099 0.05959612617259826
3100 0.05961820221906918
3101 0.05964760097050285
3102 0.05969667123452075
3103 0.05973331662725679
3104 0.05978111378999492
3105 0.05982039200620887
3106 0.05986826270706
3107 0.05990409491977301
3108 0.05994671611819815
3109 0.0599739257910209
3110 0.06000212296048403
3111 0.06001292120676149
3112 0.0600271899169758
3113 0.0600199154274003
3114 0.06001853347929213
3115 0.0600022152064249
3116 0.05998953704724914
3117 0.05996056575651568
3118 0.05993634118134247
3119 0.05989594208687944
3120 0.05986020855062982
3121 0.05981503432716482
3122 0.05977956581700623
3123 0.05973533054074769
3124 0.05970221726081915
3125 0.05965178249746289
3126 0.05961230458355455
3127 0.05956577133381079
3128 0.0595432195211952
3129 0.0595115347711883
3130 0.05948153959698623
3131 0.05944733786211975
3132 0.05943366251861133
3133 0.05940660947168754
3134 0.05939632774369673
3135 0.05938568271958196
3136 0.05939418508282605
3137 0.05940628191408475
3138 0.05943982110817274
3139 0.05946485269180193
3140 0.05950334353616338
3141 0.05953851203027519
3142 0.05958603685241441
3143 0.05962413324586881
3144 0.05967276817729811
3145 0.05970713534246772
3146 0.05974592380473288
3147 0.05977173261053956
3148 0.05980101106526672
3149 0.05981412306968588
3150 0.05983586674154166
3151 0.05984426766870987
3152 0.05985802159110538
3153 0.05985574331884576
3154 0.0598612711985087
3155 0.05985517896776271
3156 0.05985577581589493
3157 0.05984560400227594
3158 0.05984461697019005
3159 0.0598348971842604
3160 0.05983568498374865
3161 0.05981345633302111
3162 0.05979972479937173
3163 0.05977953765983582
3164 0.0597661639066927
3165 0.05974317115209981
3166 0.05973339702754143
3167 0.05972436230531039
3168 0.0597244525592634
3169 0.05971026950545979
3170 0.05971081233390416
3171 0.05970503396264784
3172 0.05971503821838265
3173 0.05972410835165599
3174 0.05974870296219285
3175 0.05975504837429298
3176 0.05976996631427384
3177 0.0597756453743469
3178 0.05979093385804449
3179 0.05980037865523348
3180 0.05981679782248318
3181 0.05982053917030293
3182 0.05983210315789471
3183 0.05983240222306294
3184 0.05983603052466975
3185 0.05982572841106866
3186 0.0598251344354498
3187 0.05981214944741062
3188 0.05980658560289998
3189 0.05978937357659458
3190 0.05978130422824871
3191 0.05976039234500444
3192 0.05974794936556874
3193 0.05972378406860371
3194 0.05970738912503309
3195 0.05968352763789159
3196 0.0596685239600063
3197 0.05963243163107614
3198 0.05960702123973511
3199 0.05958570468114315
3200 0.05957467177535051
3201 0.05955538467493532
3202 0.05953797786753715
3203 0.05952328931990542
3204 0.05951227148460468
3205 0.05949764343952336
3206 0.05949674419663613
3207 0.05949228812414051
3208 0.05950335799244378
3209 0.05951473105060228
3210 0.05953709053889077
3211 0.05955112242537165
3212 0.05957915136470576
3213 0.05961021517489554
3214 0.05963949994009531
3215 0.05966350855902181
3216 0.0596985772712562
3217 0.05972290562212516
3218 0.05975415625044536
3219 0.05977531255171396
3220 0.05980190089075581
3221 0.0598166463280289
3222 0.05983973470366087
3223 0.05985138723780571
3224 0.05987085552650176
3225 0.05988147261723188
3226 0.05990092828079568
3227 0.0599084286874959
3228 0.05992630505178726
3229 0.05993604868064215
3230 0.05995193362939509
3231 0.05995664308064173
3232 0.0599665393397604
3233 0.05994815406530751
3234 0.05993089180766302
3235 0.059913709399951
3236 0.05989933569863706
3237 0.05987166767300225
3238 0.05983942544996687
3239 0.05980612489937289
3240 0.05977785350121037
3241 0.05974561309661015
3242 0.05972535839912187
3243 0.05970015148782757
3244 0.05969635699654229
3245 0.05968904951292532
3246 0.05968953108109914
3247 0.05968020141104656
3248 0.05968348744175044
3249 0.05968056082439453
3250 0.0596896743903176
3251 0.05969370164568936
3252 0.05970917589511343
3253 0.05971256081893325
3254 0.05972528445335356
3255 0.0597260709561873
3256 0.05973206888858248
3257 0.05972264659500742
3258 0.05972380883165582
3259 0.0597113091516738
3260 0.05970735034322927
3261 0.05969340787939592
3262 0.05968828468659345
3263 0.05967127042554672
3264 0.05966642254854052
3265 0.05965621713546266
3266 0.0596563142484058
3267 0.05964700778358078
3268 0.05963957294246355
3269 0.05962021063926293
3270 0.05960913441002669
3271 0.05959810759381105
3272 0.05959598619319599
3273 0.05957153323046727
3274 0.05955757385326098
3275 0.05954388485847671
3276 0.05953564622374052
3277 0.05952462887364198
3278 0.05952868700793541
3279 0.05953005859360474
3280 0.05955725418252181
3281 0.05958542065993894
3282 0.05962475112661456
3283 0.05965588150845995
3284 0.05969985502064081
3285 0.05973606040284034
3286 0.05978161351707805
3287 0.05981928855319364
3288 0.05986537451708303
3289 0.05989957941513286
3290 0.05993730913021517
3291 0.05996081381843176
3292 0.05998653032981041
3293 0.0599954437108491
3294 0.06000606795205841
3295 0.06000001685627222
3296 0.05999754441783964
3297 0.05998011417606366
3298 0.05996799346345923
3299 0.0599407687988305
3300 0.05992529580154967
3301 0.05990364171632497
3302 0.0598916146237527
3303 0.05987204544324319
3304 0.05984998672370313
3305 0.05981596181804399
3306 0.05978938673914234
3307 0.05976575485827419
3308 0.0597488618720291
3309 0.05970869084808531
3310 0.05968730464153389
3311 0.0596572671899722
3312 0.0596346830905549
3313 0.05960550958656195
3314 0.05959224937153579
3315 0.05957860868802555
3316 0.05958736446650511
3317 0.05959286649054425
3318 0.05960442780441244
3319 0.05960918511990203
3320 0.05962506662748824
3321 0.05963453589229717
3322 0.05965754621383586
3323 0.05967361998249041
3324 0.05969886258364838
3325 0.05971361298067
3326 0.05973719256045717
3327 0.05974806874925422
3328 0.05976455504256577
3329 0.05977068089328482
3330 0.05978055714119656
3331 0.05977892428000982
3332 0.05978145476088391
3333 0.05977040177408742
3334 0.05976537484027755
3335 0.0597490282079627
3336 0.05974290319184608
3337 0.05972941584749206
3338 0.05972543632742575
3339 0.05971575577092784
3340 0.05970549399769932
3341 0.05968608744219715
3342 0.05967527792156981
3343 0.05965748780669186
3344 0.05964835422568075
3345 0.05963065372916781
3346 0.05963165532901363
3347 0.05962552574316853
3348 0.05962552001769176
3349 0.05962338534480177
3350 0.05963807756041353
3351 0.059652403535962
3352 0.05969181713045944
3353 0.05972747687111164
3354 0.05976622036853088
3355 0.0597985073904533
3356 0.05985551907663399
3357 0.05988290345000628
3358 0.05991788382417913
3359 0.0599403945553934
3360 0.05996813829695095
3361 0.05998214864464617
3362 0.06000058307112303
3363 0.06000229979079536
3364 0.06000871574577368
3365 0.05999986099436543
3366 0.05999562464121444
3367 0.05997796002963028
3368 0.05996454259425326
3369 0.05993600124851194
3370 0.05991299800900692
3371 0.05987721016401468
3372 0.05985126442378427
3373 0.05981238965570989
3374 0.05978266266587907
3375 0.05974608186649071
3376 0.05970873688489487
3377 0.05966124184046139
3378 0.05963672908188815
3379 0.05960484685522716
3380 0.05958184535944293
3381 0.05954251417390617
3382 0.05952525721609941
3383 0.05949626646391162
3384 0.05948364764553686
3385 0.0594692314663605
3386 0.05947312989909875
3387 0.05947555367292557
3388 0.05950088296277907
3389 0.0595190294351858
3390 0.05954729691200687
3391 0.0595683967785615
3392 0.05959985612934691
3393 0.05961943863326184
3394 0.05965020844138542
3395 0.05966793271670087
3396 0.05969303018684471
3397 0.0597041010804429
3398 0.05972363417666426
3399 0.0597280057487471
3400 0.05974260306749218
3401 0.05975045829853741
3402 0.05976755650230665
3403 0.05977378054872974
3404 0.05978881024272473
3405 0.05979346567951345
3406 0.05980374113934045
3407 0.05980417962654261
3408 0.05981431284756567
3409 0.05981540297800923
3410 0.05982558182211124
3411 0.05982730464926214
3412 0.05982989900714208
3413 0.05981855489364458
3414 0.05982875832448387
3415 0.05982538323863734
3416 0.05982762923464699
3417 0.05980500470481116
3418 0.05979746763630126
3419 0.059771299906644
3420 0.05975842217585337
3421 0.05974133657222706
3422 0.05973617213607783
3423 0.05973543647673626
3424 0.05975411594525534
3425 0.05975941644102019
3426 0.05977375382479985
3427 0.05978111997881055
3428 0.05979919150340308
3429 0.05980922421655672
3430 0.05982858289230035
3431 0.05983428921010381
3432 0.05985050351492546
3433 0.05985348479982502
3434 0.05986133292464259
3435 0.05985664742857123
3436 0.05986023440262062
3437 0.05985577503050032
3438 0.05985861224199206
3439 0.05985025079954671
3440 0.05985144277288686
3441 0.05983963415260801
3442 0.0598337990951593
3443 0.05981876603876796
3444 0.05981361723087664
3445 0.05980095786392525
3446 0.05979345078646787
3447 0.05976462172294267
3448 0.05974400194385146
3449 0.05971257803956059
3450 0.05969901212273659
3451 0.0596748633518729
3452 0.05964896512982225
3453 0.0596131656958316
3454 0.05959452947871701
3455 0.05956021459967166
3456 0.05954082559818337
3457 0.05951711730545873
3458 0.05950778675625376
3459 0.05949994175722731
3460 0.05951181298422578
3461 0.05951273715301856
3462 0.05952774188603198
3463 0.05953874075112463
3464 0.05956511158406091
3465 0.05958794138885044
3466 0.05962356620730197
3467 0.05965063735764368
3468 0.05968736879939809
3469 0.05971511714032657
3470 0.05974797290457715
3471 0.05976655224196649
3472 0.05979579049974554
3473 0.05981148826665077
3474 0.05983349470726581
3475 0.05984543222091305
3476 0.05986657228209587
3477 0.0598731975174342
3478 0.0598839892492156
3479 0.05988552296328873
3480 0.0598944116845322
3481 0.05989332642243927
3482 0.05989761999876695
3483 0.05987816735098534
3484 0.05986600454689007
3485 0.05984185345431094
3486 0.05982477872950951
3487 0.0597970897726872
3488 0.05978005701868033
3489 0.05976349373715532
3490 0.05975340175156328
3491 0.0597276447503555
3492 0.05971618330784285
3493 0.05969779403283865
3494 0.0596939138754476
3495 0.05969416500073983
3496 0.05971262147900768
3497 0.05971218739001004
3498 0.05972333259417656
3499 0.05973020202980658
3500 0.05975066358973032
3501 0.05976494653277048
3502 0.0597919930258088
3503 0.05980567179735806
3504 0.05982694418375839
3505 0.05983599282939023
3506 0.05984848195766957
3507 0.05984523145484507
3508 0.05985053298674733
3509 0.05984131232029483
3510 0.05983983929885858
3511 0.0598257549495743
3512 0.05981786809811078
3513 0.0597933904986413
3514 0.05977423015623563
3515 0.05974716990052679
3516 0.05972471506155413
3517 0.05969180934943204
3518 0.05966565378205538
3519 0.05962213059028906
3520 0.05958899296253679
3521 0.05955692096778989
3522 0.05953565159159634
3523 0.05950771896209064
3524 0.05948145952964825
3525 0.05946063664401345
3526 0.05945342551825317
3527 0.0594402531976377
3528 0.05944412157864073
3529 0.05944859243017642
3530 0.05947034895964178
3531 0.05949699737368426
3532 0.05954181822459222
3533 0.05959035608669518
3534 0.05963235677782397
3535 0.05966972790105199
3536 0.05971902887845568
3537 0.05975856110508555
3538 0.05980894505374278
3539 0.05984430169252462
3540 0.05988604580274261
3541 0.05991093027990838
3542 0.05993701592073307
3543 0.05994688461693357
3544 0.05996178175794646
3545 0.0599601738791741
3546 0.05996274425962522
3547 0.05995040352818473
3548 0.05994409989352905
3549 0.05992297544070295
3550 0.05991110518859466
3551 0.0598908882430295
3552 0.05988077969026025
3553 0.05985974146898949
3554 0.05984781855779205
3555 0.05981392497965581
3556 0.0597887501925688
3557 0.05974881322166391
3558 0.05971766447685329
3559 0.05967842717611483
3560 0.05965249326670531
3561 0.05962689114075922
3562 0.05961088557459208
3563 0.05959339412734236
3564 0.05959250464011617
3565 0.05959104673066867
3566 0.05960705398865252
3567 0.05962425690183019
3568 0.05965133901733317
3569 0.05966651161158625
3570 0.05969107437978189
3571 0.05970636334897698
3572 0.05973022262157957
3573 0.0597509766635777
3574 0.0597690766512101
3575 0.05977437541881989
3576 0.05978545493250486
3577 0.05978001814160325
3578 0.05977897611700636
3579 0.0597640600132579
3580 0.05975906430252945
3581 0.05974136177486966
3582 0.05973070287724713
3583 0.05970978913078553
3584 0.0596984015131524
3585 0.05967852072536416
3586 0.05967300319039842
3587 0.05966233742473808
3588 0.05966550282403715
3589 0.05966180998891735
3590 0.05966655371957452
3591 0.05965080692476915
3592 0.05965527633666528
3593 0.05964700284432146
3594 0.05964596669798392
3595 0.05963417074290391
3596 0.05962331920743369
3597 0.05961084871218784
3598 0.059604012060487
3599 0.05959143703518938
3600 0.05959677631147994
3601 0.05959897195483924
3602 0.05962167376612749
3603 0.05964057995000095
3604 0.0596707804930044
3605 0.05969254353169492
3606 0.05972419736960943
3607 0.05974784393479595
3608 0.05978378093590016
3609 0.05981392066261137
3610 0.0598503290525013
3611 0.0598727162876718
3612 0.05990260916981681
3613 0.05991814338593218
3614 0.05993530584141878
3615 0.05993971242759327
3616 0.05995287373542889
3617 0.05995100247611147
3618 0.05995290921125592
3619 0.05994230838233023
3620 0.05993668957431018
3621 0.05991821527855459
3622 0.05990888702143602
3623 0.05989239592592627
3624 0.05988757482866262
3625 0.05987586130710788
3626 0.05986111832505409
3627 0.05983498283796292
3628 0.05981708506625895
3629 0.05979920134327316
3630 0.05978309929106462
3631 0.05974248567547242
3632 0.05971082708815308
3633 0.05967209352325652
3634 0.05963628561478207
3635 0.05959708851665566
3636 0.0595731619135686
3637 0.05954592338853059
3638 0.05953924937373279
3639 0.05952973050748919
3640 0.05953280172355489
3641 0.05952389709418708
3642 0.05952677236805133
3643 0.05952501286254706
3644 0.05953642592366781
3645 0.05954429122566428
3646 0.05956221692774716
3647 0.05957050928911422
3648 0.05959172337590172
3649 0.05960179064244218
3650 0.05962243165348447
3651 0.05963546172006171
3652 0.05966022221197689
3653 0.05967199331885388
3654 0.05969133933320958
3655 0.0596998964713363
3656 0.05971614765542682
3657 0.0597178234181099
3658 0.05972980518879967
3659 0.05973161369437543
3660 0.05974325707400182
3661 0.05974546782389395
3662 0.05974495530540275
3663 0.05973211602997337
3664 0.05973991557662975
3665 0.05973488227993658
3666 0.05973502550491473
3667 0.05971247841894987
3668 0.05970708761181015
3669 0.05969067546077083
3670 0.05967819491211965
3671 0.05966026966973867
3672 0.05965815681319905
3673 0.05965242832277924
3674 0.0596714584214616
3675 0.05969246355040809
3676 0.05971422879958103
3677 0.05973007540216614
3678 0.0597556680954992
3679 0.05977432829665951
3680 0.05980631214651257
3681 0.0598276319686426
3682 0.05985707146100859
3683 0.05987527559426362
3684 0.05990161693077157
3685 0.05991589741112068
3686 0.05993756397916787
3687 0.05995024807785367
3688 0.05996858493714931
3689 0.05997138480005187
3690 0.05997761951548843
3691 0.05996856735645997
3692 0.05996113196317805
3693 0.05993642234471767
3694 0.05991853103155034
3695 0.0598894643559111
3696 0.05986647192700072
3697 0.05983071140432066
3698 0.05979215475423163
3699 0.05974131452041201
3700 0.05971028612522079
3701 0.05966768076369778
3702 0.05963479902170481
3703 0.05958257005244422
3704 0.0595511367916261
3705 0.0595142149617995
3706 0.05948821256543692
3707 0.05946128427462577
3708 0.05945306731111291
3709 0.05944719185473785
3710 0.05946721194769775
3711 0.0594815139249915
3712 0.05951190878796995
3713 0.05953409041292394
3714 0.05956945195534409
3715 0.05960019832281203
3716 0.05964216493119363
3717 0.05967224104254566
3718 0.05970910981372742
3719 0.05973225976845251
3720 0.05976251217176384
3721 0.05977654175179879
3722 0.05979715032100393
3723 0.0598078466757965
3724 0.05982516757632834
3725 0.05982871990737329
3726 0.05984002853594759
3727 0.05984040219803886
3728 0.05984424678998641
3729 0.05983841264644842
3730 0.05984017613341049
3731 0.05983139704896977
3732 0.0598305429355112
3733 0.05981906635870048
3734 0.05980656199177639
3735 0.05978576431049785
3736 0.05978904896409278
3737 0.05978114216287893
3738 0.0597826873970401
3739 0.05976211053299985
3740 0.0597617983215014
3741 0.05974244586841172
3742 0.05973754078121444
3743 0.05972479115833643
3744 0.05972706762903119
3745 0.05972511078326091
3746 0.0597465161614547
3747 0.05975663826596322
3748 0.05977955462313257
3749 0.05979366421480149
3750 0.05981824763503066
3751 0.05983377766481617
3752 0.05985936401678644
3753 0.05987102345098927
3754 0.05988537789313636
3755 0.05988801102193916
3756 0.05989484941227678
3757 0.05988276175734619
3758 0.05987456786720535
3759 0.05985494416245898
3760 0.05984088495082403
3761 0.05981313212865734
3762 0.05979299315132371
3763 0.05976087303855085
3764 0.05973567617722197
3765 0.05970394603758484
3766 0.05968292278208773
3767 0.05965566668102443
3768 0.05963985621931265
3769 0.05961627495508252
3770 0.05959200691803296
3771 0.05956027736514283
3772 0.0595526908659725
3773 0.05953356782110781
3774 0.05952537869478431
3775 0.05950257146052069
3776 0.05950062061392047
3777 0.05948399640647779
3778 0.05948214663024557
3779 0.05947596773816412
3780 0.05948850240237322
3781 0.05950190943560758
3782 0.05953206121151548
3783 0.05955422605937669
3784 0.05958890143682409
3785 0.05963266142610169
3786 0.05966978832047503
3787 0.05970400010084468
3788 0.05974880871047955
3789 0.05978105203792373
3790 0.05981874148965515
3791 0.05984317849742189
3792 0.05987130440338462
3793 0.05988327647827713
3794 0.05990137100841733
3795 0.05990710595658532
3796 0.05991931883841414
3797 0.05991717109843261
3798 0.0599202670160454
3799 0.05990965293206642
3800 0.05990575232317098
3801 0.05989180273022756
3802 0.05988578791617535
3803 0.05987111040199372
3804 0.05986625390586352
3805 0.05984209660062987
3806 0.05982611360571047
3807 0.05981692738054316
3808 0.05981793454977241
3809 0.05980822642884055
3810 0.05980560357433672
3811 0.0597822941139291
3812 0.05977719488297828
3813 0.05975485807438072
3814 0.05974374400456691
3815 0.05972823969721377
3816 0.05972639851936533
3817 0.05972497335107166
3818 0.05973642890604331
3819 0.0597289402513989
3820 0.05973195747477498
3821 0.05972672785432424
3822 0.05973301924671103
3823 0.05973210520128834
3824 0.05974584979507038
3825 0.05974953632482242
3826 0.05976090454151412
3827 0.05976113828238388
3828 0.05977063794427648
3829 0.05976434676005499
