"x-rfile"
"Iteration" "x"
("Iteration" "x")
1 1394.984860182842
2 1233.615535645459
3 854.9201981867076
4 657.2460213075722
5 477.5343941268985
6 366.8710972176811
7 271.372838392389
8 201.5392853495241
9 145.9549047033798
10 99.05107922103603
11 64.99084021305083
12 38.86053292384379
13 23.02199081725892
14 12.29922830618609
15 6.924616826126433
16 4.67174673057068
17 4.439839739044706
18 5.495161370592499
19 7.094292002000758
20 9.121509227608774
21 11.34887706447994
22 13.5076876779201
23 15.55239373346117
24 17.37157494353798
25 18.97139089308797
26 20.48203815328573
27 21.65683497089077
28 22.5764771246108
29 23.37051146343864
30 23.86566577713315
31 24.21988846646165
32 24.46079481094444
33 24.60843047480296
34 24.65020460465995
35 24.63441295866075
36 24.58059539332665
37 24.48655804302536
38 24.37944985152928
39 24.26974165180529
40 24.13902691790111
41 23.99376707108674
42 23.84055784968428
43 23.65308222861624
44 23.47799497261822
45 23.28621616422066
46 23.09496503887593
47 22.93324165806339
48 22.79896840233995
49 22.68371038583473
50 22.58096046883718
51 22.49563078552973
52 22.41925750650759
53 22.3619200407712
54 22.29871240925243
55 22.25822734944197
56 22.21694597131836
57 22.18354827177422
58 22.1486724128457
59 22.1202298157665
60 22.08834031021797
61 22.06378428509179
62 22.02205975359229
63 21.97865294459091
64 21.93281654834714
65 21.87252607768501
66 21.81408827898444
67 21.75838085402634
68 21.69597702061061
69 21.64837849569986
70 21.59526523483927
71 21.55360835447812
72 21.50614981383179
73 21.46709824177838
74 21.42733933903718
75 21.38685930521504
76 21.34530650229733
77 21.30734541263572
78 21.26643101030356
79 21.22257771019975
80 21.18270557830012
81 21.13896141183482
82 21.09195688919531
83 21.0416656686866
84 20.98847030087874
85 20.93311335741062
86 20.87574810396953
87 20.81661473833003
88 20.75581909667296
89 20.69383777753592
90 20.63112676370336
91 20.56773549623616
92 20.5041881041241
93 20.4307000888257
94 20.36952175540495
95 20.29870197328352
96 20.23937852475764
97 20.17188533690618
98 20.11456867248571
99 20.05754266370583
100 20.00082136716728
101 19.94442432355524
102 19.88841028932877
103 19.83306036041741
104 19.77819353149244
105 19.7241194785172
106 19.67091120587668
107 19.62553201132959
108 19.57274615348155
109 19.52820219052468
110 19.47688433779502
111 19.43337442520852
112 19.38375852755158
113 19.34179857982944
114 19.30029790801624
115 19.25363217404896
116 19.21434655570348
117 19.17042379643698
118 19.13304462665888
119 19.09181647993481
120 19.05642905842982
121 19.01790379559299
122 18.98473868616669
123 18.94894520239897
124 18.91491923874616
125 18.88236895974985
126 18.8533595777976
127 18.82270478303701
128 18.79547290709041
129 18.76717975773256
130 18.74188690305127
131 18.71599481737421
132 18.69242431597983
133 18.66840724263521
134 18.64638868179342
135 18.62430393955113
136 18.60378010337286
137 18.58372247099724
138 18.56390761818516
139 18.54528092363313
140 18.52690505056763
141 18.50943314371656
142 18.4923902603333
143 18.4760741634801
144 18.46036405239552
145 18.44527129676875
146 18.43075222352207
147 18.41709492503325
148 18.40384260594507
149 18.39107924216424
150 18.37860680632056
151 18.36633966890404
152 18.35433046478561
153 18.34280748761586
154 18.33106201161361
155 18.31996110039673
156 18.30946985332355
157 18.29953279035655
158 18.28946768285658
159 18.28049390521771
160 18.27138603467622
161 18.26367901032687
162 18.25563228541512
163 18.24918481988414
164 18.24226215934034
165 18.23752714920734
166 18.23187110111476
167 18.22858347125484
168 18.22393046520016
169 18.22198979316892
170 18.21840236427092
171 18.21519790322034
172 18.21510293416555
173 18.21283533932997
174 18.21092143856708
175 18.21264849144185
176 18.21158082652304
177 18.21094979220565
178 18.21430220368361
179 18.21436291101991
180 18.21815177563737
181 18.21852916221279
182 18.21915150367459
183 18.22380413018395
184 18.22480127715814
185 18.22959853255491
186 18.23080825644699
187 18.23562802373819
188 18.2369053271819
189 18.24160129389654
190 18.24276645103768
191 18.24725493766584
192 18.24839129039051
193 18.25247666657233
194 18.25351285312679
195 18.25715176245046
196 18.25792134236848
197 18.26121953929556
198 18.26181795304995
199 18.26456813343451
200 18.26475143413294
201 18.26696793027198
202 18.26698720877174
203 18.26869379813844
204 18.26839965923926
205 18.26959089727855
206 18.26901854683299
207 18.26968218444414
208 18.26884303448052
209 18.26892213420694
210 18.26775429591794
211 18.26730305336853
212 18.26584812780888
213 18.2649088092994
214 18.26324850501504
215 18.26188802670644
216 18.26009506558892
217 18.25860432271278
218 18.25672845598521
219 18.25509132672381
220 18.25322747551932
221 18.25155623849612
222 18.24969030981211
223 18.24791357888664
224 18.24597149152888
225 18.24406920705859
226 18.24215435868473
227 18.24028841559946
228 18.23841871565016
229 18.23650740268649
230 18.23460310221033
231 18.23262990540065
232 18.23078025622854
233 18.22885682283622
234 18.22710807640384
235 18.22528579392607
236 18.22352492988714
237 18.22164417542261
238 18.21996079233218
239 18.21813843195199
240 18.21654419522137
241 18.21486550414879
242 18.21334173281582
243 18.21163917167475
244 18.21014156364349
245 18.2084824601185
246 18.20698025053737
247 18.20529074550949
248 18.20384161286687
249 18.2021673640574
250 18.20066685817444
251 18.19896265828925
252 18.19751818809295
253 18.1959240269312
254 18.19458295467739
255 18.19313144684545
256 18.19194620930082
257 18.19076712245518
258 18.18950071928065
259 18.18845692461176
260 18.18728808635039
261 18.18630319677915
262 18.18531584834254
263 18.18421886427543
264 18.1832741656218
265 18.18228689196634
266 18.18110595858527
267 18.18017499152253
268 18.17920964029927
269 18.17809814707233
270 18.1772673524246
271 18.1764368721564
272 18.17551369261055
273 18.174763126747
274 18.17399500305185
275 18.17315643810051
276 18.17248249350797
277 18.17181279796248
278 18.17109337143825
279 18.17039015732141
280 18.1695899990861
281 18.16860672265452
282 18.16781108441086
283 18.16694752016082
284 18.16600460058606
285 18.16506560155075
286 18.16408977238552
287 18.16308961590252
288 18.1620693336735
289 18.16106935113224
290 18.16007890089957
291 18.1591435469727
292 18.15821735585297
293 18.15734044024992
294 18.1565235615993
295 18.15577986630127
296 18.15507561978447
297 18.1545127658133
298 18.15395769063024
299 18.15346693195482
300 18.15299220368923
301 18.15256589450508
302 18.15212198503996
303 18.15172044668194
304 18.15130833342549
305 18.15096435428919
306 18.15064663436994
307 18.15040395837709
308 18.1501652891123
309 18.14993095855466
310 18.14973056743488
311 18.14972413645204
312 18.14959624312987
313 18.14950309865171
314 18.14937762158413
315 18.14928488839756
316 18.1491074835986
317 18.14891640218432
318 18.14865710417219
319 18.14837074122318
320 18.14797581126471
321 18.14759892816261
322 18.14718809902104
323 18.14676122272213
324 18.14627672305662
325 18.14581907605526
326 18.14532421637917
327 18.14486856611066
328 18.14438388239673
329 18.14396529774496
330 18.14357465595984
331 18.14326793565845
332 18.14298754596211
333 18.14285502973943
334 18.14275599659399
335 18.14268205191793
336 18.14260792060296
337 18.14256774610522
338 18.14248938526266
339 18.14239565104946
340 18.14226352107913
341 18.14217960156698
342 18.1421109743471
343 18.1420996753995
344 18.14206322453769
345 18.14203529390291
346 18.14206118964837
347 18.14223386706121
348 18.14227734175141
349 18.14236573311591
350 18.14240315553275
351 18.14243817311287
352 18.14238599328875
353 18.1423118943237
354 18.14215641519644
355 18.14197182694121
356 18.14169789076753
357 18.14146162690495
358 18.14118311736016
359 18.14089749719755
360 18.14057197029886
361 18.14027418080405
362 18.13994754720817
363 18.13965357567702
364 18.13932425109637
365 18.13904859773555
366 18.13879657227616
367 18.13863364859866
368 18.13850368590429
369 18.13852723195978
370 18.13856768324396
371 18.13862677277127
372 18.13867390235853
373 18.13877046419139
374 18.13885423904378
375 18.13895066634434
376 18.13903346565806
377 18.13916596066703
378 18.13928770718192
379 18.13944839814965
380 18.13958759487496
381 18.13973442443034
382 18.13990830295267
383 18.14020388718493
384 18.14037495163547
385 18.14058713714776
386 18.14072856520934
387 18.14087665609762
388 18.14094233881234
389 18.14097328634587
390 18.14090402641346
391 18.14079645413004
392 18.14060135937121
393 18.1404260251207
394 18.14019699110453
395 18.13997093368382
396 18.13970636239059
397 18.13946556057077
398 18.13918758769333
399 18.13895266897185
400 18.13870743258133
401 18.13852761720751
402 18.13836284398208
403 18.13826710174326
404 18.13818710540914
405 18.13822742862256
406 18.13826802381084
407 18.13832674464918
408 18.1383871671101
409 18.13850089118037
410 18.13858666895763
411 18.13868722919811
412 18.13879585474871
413 18.13894526496237
414 18.1390690082881
415 18.13923712195911
416 18.13932115084712
417 18.1394787542333
418 18.13967944614479
419 18.13992820299554
420 18.1402046202745
421 18.1405329000103
422 18.14079800441241
423 18.14105119004874
424 18.14119044454367
425 18.14126930152463
426 18.14123439827922
427 18.14115261426844
428 18.14096122191486
429 18.14076153092364
430 18.14049998544888
431 18.14023712560927
432 18.13995137710326
433 18.13971551210291
434 18.13947825090846
435 18.13929482578225
436 18.13910433288383
437 18.13897465808867
438 18.13885492368786
439 18.13880659316989
440 18.13875252965366
441 18.13880378636873
442 18.1388542428256
443 18.1389249279946
444 18.13900885475456
445 18.13914908441465
446 18.13928600330533
447 18.13945754258492
448 18.13960031761097
449 18.13974849932849
450 18.13987679995626
451 18.14002966204347
452 18.14007010623657
453 18.14018643042035
454 18.14037135891431
455 18.14060510641321
456 18.1408566595981
457 18.14116494350186
458 18.14142448614985
459 18.14167580314565
460 18.14180693928634
461 18.14187154318694
462 18.1418336001014
463 18.14174453570938
464 18.14152983727772
465 18.14132666497166
466 18.14104078101145
467 18.14072732844986
468 18.14038261353969
469 18.14009755371974
470 18.13978109307116
471 18.13953583361901
472 18.13930991068012
473 18.13916131757346
474 18.13905561538247
475 18.13902322431604
476 18.13901595122504
477 18.13909330669067
478 18.13917212910702
479 18.13926492373546
480 18.1393576624817
481 18.13952212493899
482 18.1396544355208
483 18.13982287785723
484 18.1399830602462
485 18.1401504151721
486 18.14029387398913
487 18.1404549917421
488 18.14050588643215
489 18.14064532508275
490 18.14085269470135
491 18.14108214556091
492 18.1413224007818
493 18.14161781754517
494 18.14185365616925
495 18.14208365002701
496 18.14221600774885
497 18.14230554824216
498 18.14231190686599
499 18.14226669149773
500 18.14209146270658
501 18.14192106727965
502 18.14166871153111
503 18.14138556803894
504 18.14105208001545
505 18.14076967520213
506 18.14045525667125
507 18.14020333021131
508 18.1399553518215
509 18.13978750836857
510 18.13965300612061
511 18.13958370453771
512 18.13952209483959
513 18.13953901073839
514 18.13954507984614
515 18.13958858267033
516 18.1396392614388
517 18.1397597312005
518 18.13985522536108
519 18.14000548973447
520 18.1401482792211
521 18.14033323398689
522 18.1405115097259
523 18.14071923906146
524 18.14082326257408
525 18.14101190987756
526 18.14132563894468
527 18.14153070087211
528 18.14171461812398
529 18.1419243095832
530 18.14206228411484
531 18.14220270444252
532 18.14226573018261
533 18.14229686368703
534 18.14226930186545
535 18.14221180176655
536 18.14205651833343
537 18.14191107961982
538 18.1416798507518
539 18.14140003514781
540 18.14108267737631
541 18.14084469854309
542 18.14057839917072
543 18.14036919549653
544 18.14017874592785
545 18.1400619117032
546 18.13996328695359
547 18.13991578591998
548 18.13988517912203
549 18.13993569881323
550 18.1399475322326
551 18.13997824047588
552 18.14000356822079
553 18.14010201401223
554 18.14013905183702
555 18.14024276983882
556 18.14035731012523
557 18.14051531921372
558 18.14066704487049
559 18.14086457530368
560 18.14097967711508
561 18.14119185367255
562 18.1416422177309
563 18.14183340994573
564 18.14197857410473
565 18.14212691252477
566 18.14220183757977
567 18.14227771855564
568 18.14228867776265
569 18.14228678943438
570 18.14221627708065
571 18.14212759679148
572 18.14195481102217
573 18.14179760293647
574 18.14155728971837
575 18.14128963275533
576 18.14099630020666
577 18.14076961487751
578 18.14050046615449
579 18.14029980180232
580 18.1401314235218
581 18.14003670040907
582 18.13996311920068
583 18.13995793580753
584 18.1399672571731
585 18.14004157675598
586 18.14008229568794
587 18.14015995728719
588 18.14023324887519
589 18.14036516174682
590 18.14041826264458
591 18.1405135011993
592 18.14060375671481
593 18.14073397856981
594 18.14087462375046
595 18.1410835281569
596 18.141212531746
597 18.141464455433
598 18.14179950753681
599 18.14203119134598
600 18.14221188965845
601 18.142457755221
602 18.14254692935521
603 18.1426070457103
604 18.14258111443258
605 18.14253252103647
606 18.14243140441081
607 18.14231888264593
608 18.14211799827024
609 18.14190944227515
610 18.14161760629219
611 18.1413054783426
612 18.14096791091881
613 18.14069582684647
614 18.14040123112997
615 18.14019007806465
616 18.1400006541349
617 18.13988151047011
618 18.1398047836095
619 18.1398265192727
620 18.13987176374123
621 18.13997046876336
622 18.14006582922076
623 18.14018921677834
624 18.14028797895912
625 18.14042326329105
626 18.14048352629057
627 18.14060364982506
628 18.14070345981326
629 18.14083965509404
630 18.14099568363701
631 18.14115520408522
632 18.14131200891128
633 18.14159710445121
634 18.14195700431635
635 18.14219999311859
636 18.14239168682488
637 18.14256867366293
638 18.14267012282944
639 18.14276059751478
640 18.14275929020236
641 18.14272511706324
642 18.142622348953
643 18.14249866357562
644 18.14227429204296
645 18.14204983734306
646 18.14176368126299
647 18.14146501208608
648 18.14113305149837
649 18.14084338383811
650 18.1405352663762
651 18.14029323859373
652 18.14005140720317
653 18.13988571897761
654 18.13977720772231
655 18.13977184980892
656 18.13977344580798
657 18.13988084843989
658 18.1399760857325
659 18.14010511253847
660 18.14023237824323
661 18.14037129274493
662 18.14044508653114
663 18.14056875626872
664 18.1406641437778
665 18.14080703322604
666 18.14095732531608
667 18.14109371576233
668 18.14121984486683
669 18.1414827005895
670 18.14182787049922
671 18.14206633078647
672 18.1422574525542
673 18.14244801454948
674 18.14257231217865
675 18.14269198999679
676 18.1427177568895
677 18.14271002318335
678 18.14261229976184
679 18.14247591185768
680 18.14223964214746
681 18.14202293650283
682 18.14176517241189
683 18.14150612388822
684 18.14124449421082
685 18.14103348089781
686 18.14079920648139
687 18.14061602703911
688 18.14041204931555
689 18.14027098558521
690 18.14015566090125
691 18.14012596942149
692 18.14009476910446
693 18.14014257239491
694 18.14018338838869
695 18.14024930118294
696 18.14033456997644
697 18.14043291733621
698 18.14048699412289
699 18.14058315489171
700 18.14065095575174
701 18.1407637961498
702 18.14090208606543
703 18.14103127242795
704 18.14115035299206
705 18.14149897583923
706 18.14181800491135
707 18.14201749086605
708 18.14217898329716
709 18.14235182930665
710 18.14243824642604
711 18.14250925174199
712 18.1424873397094
713 18.14242735391083
714 18.14229094418575
715 18.14213130248009
716 18.14190525234341
717 18.14172541732793
718 18.1415029302521
719 18.14129531500514
720 18.1411024279784
721 18.14096372171478
722 18.14078536312671
723 18.14064967207443
724 18.14050273169778
725 18.14038660227097
726 18.14027357086806
727 18.14025635901878
728 18.14025187884139
729 18.1403163085348
730 18.14038182544186
731 18.14048355753118
732 18.14058750724208
733 18.14069689402198
734 18.14076202422496
735 18.14087938612913
736 18.14096447804328
737 18.14107331492382
738 18.14119154496563
739 18.14129279008995
740 18.14141580749663
741 18.14171771474808
742 18.14189879471852
743 18.14209356469554
744 18.14226876706073
745 18.14245156543852
746 18.1425291044458
747 18.14258739803075
748 18.1425490853192
749 18.1424654685168
750 18.14228873444425
751 18.14208943560847
752 18.14180639692695
753 18.14155112508023
754 18.14126062825939
755 18.14099851251147
756 18.14076235439611
757 18.14057511948828
758 18.14035100136442
759 18.14021363628574
760 18.14008108764719
761 18.14001166925022
762 18.13997627952637
763 18.14004659492432
764 18.14011046596281
765 18.1402192893355
766 18.14031102784612
767 18.14042062919304
768 18.14053494283393
769 18.14066663972385
770 18.14076774558725
771 18.14091733403082
772 18.14104596098737
773 18.14121390391815
774 18.14138999717736
775 18.14154281139766
776 18.14170844506153
777 18.14192241287978
778 18.14221773271209
779 18.14242895875078
780 18.14261957889791
781 18.14280919535864
782 18.14290923060131
783 18.14299157991482
784 18.1429681678801
785 18.1428770685519
786 18.14269884830918
787 18.1425003155817
788 18.14219623360795
789 18.1419043479026
790 18.14156865122396
791 18.14126379596109
792 18.14095187611584
793 18.14069532836672
794 18.14042440019944
795 18.14023532945356
796 18.14006264121814
797 18.13996535659291
798 18.13989962902315
799 18.1399412568634
800 18.13998636647608
801 18.14006974305461
802 18.14013515179339
803 18.14023271925949
804 18.14033208239238
805 18.14045069720564
806 18.14056313973956
807 18.14074392101637
808 18.14089962991518
809 18.14109105824966
810 18.14121435981627
811 18.14139494546617
812 18.14158288865714
813 18.14180813655838
814 18.14203065008498
815 18.14228134178549
816 18.14249488607798
817 18.14272350042606
818 18.14287793859336
819 18.14301222354261
820 18.14301520979986
821 18.14296061932568
822 18.14281667769569
823 18.14262067611234
824 18.14231323392576
825 18.14202165741238
826 18.14168489500931
827 18.14137430696202
828 18.14105064469517
829 18.1407976103321
830 18.14053603749977
831 18.14037113178185
832 18.1402314506311
833 18.14015941290155
834 18.14013662545877
835 18.14017489800875
836 18.14018361279871
837 18.1402305782241
838 18.14027334171001
839 18.14037065179602
840 18.14043644594312
841 18.14053184388183
842 18.14062705144226
843 18.14080163081236
844 18.14094847993512
845 18.1411223878872
846 18.14123416098884
847 18.14139026911105
848 18.14155043905376
849 18.1417679061559
850 18.14207001512955
851 18.14225158371163
852 18.14238978716257
853 18.14252120823812
854 18.14257858378254
855 18.14260825907557
856 18.14253931153354
857 18.14245980211774
858 18.14231253989576
859 18.14213784020909
860 18.14186542507552
861 18.14162378345075
862 18.14132432480343
863 18.14104584225674
864 18.14076106762007
865 18.14053538550147
866 18.14029630877841
867 18.1401569813059
868 18.14005490207974
869 18.14003728539948
870 18.14007883865039
871 18.1401728420646
872 18.14020747006942
873 18.14029881192998
874 18.14036933287073
875 18.14047169901861
876 18.14053332436091
877 18.14066267029332
878 18.14079048352489
879 18.14097323704699
880 18.14113535753936
881 18.14134280722169
882 18.1414837160438
883 18.14166723326822
884 18.14196932205327
885 18.14221546497728
886 18.14241069317518
887 18.14258428027161
888 18.1427153267075
889 18.14284294113043
890 18.14286107151034
891 18.1428516932706
892 18.14274080769074
893 18.14259782282436
894 18.1423994044109
895 18.14219759150655
896 18.14192103538072
897 18.14167534686208
898 18.1413661107732
899 18.14107973953817
900 18.14078879461809
901 18.14055824835276
902 18.14034060607395
903 18.1402304463283
904 18.14014392833
905 18.14013607189449
906 18.14018765397849
907 18.14028056716553
908 18.14030835074588
909 18.14039919958786
910 18.14046054159311
911 18.14054798796008
912 18.14058988008121
913 18.14068121914584
914 18.14075340159361
915 18.1408869573451
916 18.14101424380581
917 18.14119274100031
918 18.14130942833036
919 18.14151963162965
920 18.14180548057998
921 18.14204746131561
922 18.14224406048122
923 18.14242125767905
924 18.14255368582018
925 18.14266997000962
926 18.14267158808495
927 18.14265807800419
928 18.14256728935486
929 18.14245875298766
930 18.14229230144904
931 18.14212500985597
932 18.14186782752448
933 18.14161948604364
934 18.14131512069884
935 18.14104324698992
936 18.14076603047047
937 18.14054230630912
938 18.1403106619224
939 18.14016902402247
940 18.14005492820207
941 18.14001843512833
942 18.14005299282163
943 18.14015681472165
944 18.14020663935183
945 18.14032402481069
946 18.14041945742623
947 18.1405436794337
948 18.14062628747774
949 18.14074933328358
950 18.14082347704458
951 18.1409492488581
952 18.1410470863362
953 18.14118768382832
954 18.14128950629395
955 18.14150616278882
956 18.14169600207761
957 18.14198212200122
958 18.14225617636664
959 18.14252518696556
960 18.1427260702087
961 18.14290089941614
962 18.14296029925866
963 18.14297325286456
964 18.14287265261224
965 18.14273965095547
966 18.14254376681736
967 18.14234415574887
968 18.14205278064496
969 18.14177301457186
970 18.14144878565282
971 18.14112886760879
972 18.14080411671682
973 18.1405361743981
974 18.14026222121455
975 18.14008414469138
976 18.13992087267901
977 18.13982597234726
978 18.13980623484193
979 18.13986765374657
980 18.13989993025768
981 18.14001748453804
982 18.1401503426513
983 18.14034239103477
984 18.14048129894026
985 18.14065862197048
986 18.14080299972963
987 18.14098020628007
988 18.14111134544131
989 18.14121907018471
990 18.14135284495287
991 18.1416000778372
992 18.14182176530432
993 18.1421321357814
994 18.14252697606173
995 18.14274346643253
996 18.14285660842651
997 18.14292352027833
998 18.14288606107088
999 18.14282175926295
1000 18.14266863521116
1001 18.14249355810918
1002 18.14228522435319
1003 18.14207684903589
1004 18.141792787496
1005 18.14154566380237
1006 18.14128250926266
1007 18.14103027404088
1008 18.14076716928072
1009 18.14057264206506
1010 18.14038086019944
1011 18.14027049541382
1012 18.14015635336338
1013 18.14013356896729
1014 18.14013998266926
1015 18.14018356979866
1016 18.14020821243777
1017 18.14031441416447
1018 18.14043009252164
1019 18.14058846035473
1020 18.14068755482102
1021 18.14083102500663
1022 18.14094016659788
1023 18.14107966158621
1024 18.14119199430188
1025 18.14130689272923
1026 18.14144907985514
1027 18.14178639183087
1028 18.14206194394268
1029 18.14229041483626
1030 18.14246788901938
1031 18.1426226593548
1032 18.14269016874677
1033 18.1427399128805
1034 18.14268491784688
1035 18.14260279905459
1036 18.14242474431047
1037 18.14224522057883
1038 18.14201162909462
1039 18.1417579230026
1040 18.1414355050572
1041 18.14116090559127
1042 18.14088219966929
1043 18.1406417630382
1044 18.14041477121372
1045 18.14028519347724
1046 18.14016548212956
1047 18.14010894118173
1048 18.14004270748129
1049 18.14006207221652
1050 18.14009379372812
1051 18.14014041123578
1052 18.14017329174772
1053 18.14028002592682
1054 18.14038805782474
1055 18.14050440160065
1056 18.14062126346347
1057 18.14080272274657
1058 18.14095184532078
1059 18.14113911469347
1060 18.14129877058227
1061 18.14143849863522
1062 18.14159409486972
1063 18.14193023632897
1064 18.14211603409337
1065 18.14235044643124
1066 18.14260770432418
1067 18.1427551015457
1068 18.14282884140801
1069 18.14289046069393
1070 18.14286568816635
1071 18.14281204643284
1072 18.14265565274586
1073 18.14246843005029
1074 18.14219724257232
1075 18.14189959924142
1076 18.14153656147312
1077 18.14123144861451
1078 18.1409246392661
1079 18.14065555786237
1080 18.14041606532361
1081 18.14028364553568
1082 18.14014338003387
1083 18.14006812209742
1084 18.13999510574591
1085 18.13999401423872
1086 18.14000214600588
1087 18.14004237980225
1088 18.14007305531801
1089 18.14018354807557
1090 18.14030284126121
1091 18.14042634280584
1092 18.1405468082822
1093 18.14071733296664
1094 18.14084657434002
1095 18.14102122099976
1096 18.14117809710034
1097 18.14131774806723
1098 18.1415042201047
1099 18.14183512776069
1100 18.14201378493221
1101 18.14224600018721
1102 18.14244898033537
1103 18.14264386053192
1104 18.14278298987372
1105 18.14291726333635
1106 18.14293808878241
1107 18.14292886647172
1108 18.14282382382703
1109 18.14268403123868
1110 18.14244031953839
1111 18.14216940725577
1112 18.14183069904423
1113 18.14152315305147
1114 18.14121975694317
1115 18.14097493715044
1116 18.14074822286126
1117 18.14059780176425
1118 18.1404294787012
1119 18.140329834255
1120 18.14022691432151
1121 18.14019979998925
1122 18.14017856578902
1123 18.14020635752797
1124 18.14021442957581
1125 18.14027648103754
1126 18.14035136942342
1127 18.14043861147256
1128 18.14051970391432
1129 18.14066419214685
1130 18.1407756777326
1131 18.14093642575172
1132 18.14102506959741
1133 18.14117261417208
1134 18.14138625295473
1135 18.14163491076539
1136 18.14185213887259
1137 18.14221600932718
1138 18.1424008154398
1139 18.14255638071643
1140 18.14265298686923
1141 18.14273484810799
1142 18.14271427977023
1143 18.14268119335657
1144 18.14255933246952
1145 18.14240864597272
1146 18.1421748523431
1147 18.14192779389704
1148 18.14160026364522
1149 18.14132021762929
1150 18.14102175290823
1151 18.14077129671794
1152 18.14052842835502
1153 18.14035817849883
1154 18.14020895787711
1155 18.14015562647473
1156 18.14013175276549
1157 18.14015982641232
1158 18.14019145356949
1159 18.14028485409536
1160 18.14033599719493
1161 18.14044472610284
1162 18.14054653013223
1163 18.1406224896091
1164 18.14069625874389
1165 18.14083500377352
1166 18.14096186297379
1167 18.14116147318993
1168 18.14128445304667
1169 18.14147231921928
1170 18.14172220881035
1171 18.14199390227627
1172 18.14222311779627
1173 18.14247493917564
1174 18.14266652575906
1175 18.14282981811298
1176 18.14289613314673
1177 18.14293896258678
1178 18.14288033245749
1179 18.14279869040786
1180 18.14262265167446
1181 18.14242656481265
1182 18.14216066088299
1183 18.14188743371512
1184 18.14153697744155
1185 18.14124865940849
1186 18.14095840971518
1187 18.14069664716154
1188 18.14042211366918
1189 18.14023585186771
1190 18.14006607097542
1191 18.14000294490018
1192 18.13998640670851
1193 18.14003961356099
1194 18.14011601001861
1195 18.14020936129469
1196 18.1402527978564
1197 18.14037065562371
1198 18.14043864459544
1199 18.14048976196012
1200 18.14054014346189
1201 18.14066396150591
1202 18.14079075539229
1203 18.14098899916126
1204 18.14112569895342
1205 18.14133177036555
1206 18.14168201270444
1207 18.14193891280117
1208 18.1421283381438
1209 18.14234433725215
1210 18.14249754423853
1211 18.14262337866881
1212 18.14268080465019
1213 18.14273140958409
1214 18.14268172829306
1215 18.14260709495401
1216 18.1424535205567
1217 18.14229686914067
1218 18.1420731601659
1219 18.14183605573739
1220 18.14152435469596
1221 18.14127775395653
1222 18.14100752988833
1223 18.14076651697922
1224 18.14054215615961
1225 18.14039190772116
1226 18.14024259710729
1227 18.14018796423103
1228 18.14018466346029
1229 18.14025108067313
1230 18.14032906515133
1231 18.1404473861094
1232 18.1405270189263
1233 18.14062856206124
1234 18.14066429050209
1235 18.14071296303002
1236 18.1407612521962
1237 18.1408804594631
1238 18.14098168423537
1239 18.1411487803795
1240 18.14124664740706
1241 18.14141256492154
1242 18.14173419722274
1243 18.14197504081816
1244 18.14216623388405
1245 18.14238962668769
1246 18.1425356459541
1247 18.14263434338241
1248 18.14266036932062
1249 18.14266309618757
1250 18.14254366094296
1251 18.14240237517372
1252 18.1421969815964
1253 18.14199097834807
1254 18.14173487847872
1255 18.14149017570941
1256 18.1412065563706
1257 18.14099223500785
1258 18.14074559093465
1259 18.14052932328273
1260 18.140327682158
1261 18.14019812824058
1262 18.1400766529857
1263 18.14005459614702
1264 18.14009120723731
1265 18.14019629604798
1266 18.14028576337327
1267 18.14042279105334
1268 18.14052271919498
1269 18.1406890339644
1270 18.14078593189615
1271 18.14089927922569
1272 18.14099064500466
1273 18.14111920760237
1274 18.14122012561692
1275 18.14137487727881
1276 18.14144891527907
1277 18.14162618504114
1278 18.14179234656747
1279 18.14211281321953
1280 18.14229691069895
1281 18.14249991214441
1282 18.14263619177313
1283 18.14275031673149
1284 18.14278869050341
1285 18.14278390160251
1286 18.14265516139319
1287 18.14250852085706
1288 18.14229554950723
1289 18.14208445671244
1290 18.14183153124841
1291 18.14158960470391
1292 18.14130471699762
1293 18.14106044458903
1294 18.14079717390093
1295 18.14056501786402
1296 18.1403486914496
1297 18.14019971711572
1298 18.14005029207569
1299 18.14000855312104
1300 18.14001374614435
1301 18.14009090424368
1302 18.14017107058231
1303 18.14029450370261
1304 18.14037689592866
1305 18.14052875260786
1306 18.14061661993186
1307 18.14074196234601
1308 18.14085772499777
1309 18.1410205943153
1310 18.14114203359394
1311 18.14125158923295
1312 18.14135642665527
1313 18.14155125781575
1314 18.1417490290526
1315 18.1421213755565
1316 18.14232150891735
1317 18.1425304214541
1318 18.14267600997093
1319 18.14277603863332
1320 18.1427801150299
1321 18.14274712258001
1322 18.14260238356787
1323 18.14244575317431
1324 18.14222298369356
1325 18.14196745757034
1326 18.14168426667831
1327 18.14143717821796
1328 18.14115343873694
1329 18.14092631580024
1330 18.14069718933737
1331 18.14050020957976
1332 18.14031352811625
1333 18.14019674987797
1334 18.14007688165599
1335 18.14006531869133
1336 18.14005201950125
1337 18.14006432064342
1338 18.14009248435223
1339 18.14018116601776
1340 18.14025239901661
1341 18.14041014012579
1342 18.14054804231636
1343 18.14072539815034
1344 18.14088493367996
1345 18.14108261335383
1346 18.14124433626811
1347 18.14138493005336
1348 18.14151510271937
1349 18.14182983007049
1350 18.14203648867418
1351 18.14228104622544
1352 18.14257107313578
1353 18.14277899738416
1354 18.14291581750574
1355 18.14299590512702
1356 18.14297724667688
1357 18.14292772408531
1358 18.14277391840388
1359 18.14259970787217
1360 18.14234859044015
1361 18.14208656977596
1362 18.141788739356
1363 18.14150427970388
1364 18.14120883918124
1365 18.14098009016387
1366 18.14074184864329
1367 18.14055535817469
1368 18.14037773447271
1369 18.1402669531707
1370 18.14015148439029
1371 18.14012128369007
1372 18.14007667589904
1373 18.14005610394332
1374 18.14003119634762
1375 18.14005030350548
1376 18.14006405061254
1377 18.14012854211628
1378 18.14020423053769
1379 18.140340131513
1380 18.14046773143795
1381 18.14064224125481
1382 18.14080873429761
1383 18.14096117826071
1384 18.14111153030679
1385 18.14147884404007
1386 18.1417378093534
1387 18.14202223264667
1388 18.14227730569289
1389 18.14256472267819
1390 18.14276247028023
1391 18.14290020956262
1392 18.1429373716897
1393 18.1429361617921
1394 18.14282488298098
1395 18.14267455869782
1396 18.1424512732031
1397 18.14222308638423
1398 18.14194369094801
1399 18.14166371852006
1400 18.14135773377651
1401 18.14110522782538
1402 18.14083922813033
1403 18.1406361545562
1404 18.14046485357254
1405 18.14037673793003
1406 18.14028952148691
1407 18.14029027600854
1408 18.14028435627954
1409 18.14030105227448
1410 18.14032434189436
1411 18.14038477815236
1412 18.1404374300734
1413 18.14052771059045
1414 18.14060985920919
1415 18.14073683057618
1416 18.14085847536104
1417 18.14103244871215
1418 18.14117855566629
1419 18.14128940152197
1420 18.14139431062815
1421 18.1417021256755
1422 18.14196734806836
1423 18.14214971473645
1424 18.14228361082452
1425 18.14244118921443
1426 18.14252782972697
1427 18.14257951107235
1428 18.14256634569394
1429 18.14254661702175
1430 18.14244043321237
1431 18.14232580903347
1432 18.14213887579624
1433 18.14192788549668
1434 18.14164374585052
1435 18.1413514773939
1436 18.14104273726382
1437 18.14079402513195
1438 18.14053230898112
1439 18.14034402606393
1440 18.14020426557755
1441 18.14015852894476
1442 18.1401241356105
1443 18.14019363217784
1444 18.14025641089898
1445 18.14033882673217
1446 18.14039459156146
1447 18.14046822744855
1448 18.14052366935899
1449 18.14061010040728
1450 18.14068953441037
1451 18.1408125253332
1452 18.14093841790161
1453 18.14110757638968
1454 18.14125345147619
1455 18.14140365399576
1456 18.14159929584693
1457 18.14182174325831
1458 18.1420437604028
1459 18.14228178498639
1460 18.14244984863328
1461 18.14263278801595
1462 18.14273161624198
1463 18.14280246611424
1464 18.14280801871173
1465 18.14278684297834
1466 18.14267671989002
1467 18.14255811400934
1468 18.14235661410573
1469 18.14212553751998
1470 18.14182601983853
1471 18.14153560793641
1472 18.14119680665783
1473 18.14090710298252
1474 18.1406181821494
1475 18.14041057270819
1476 18.1402449554967
1477 18.14017179056352
1478 18.14010545634355
1479 18.14013395112813
1480 18.1401463792094
1481 18.14017164651362
1482 18.14020042762286
1483 18.14027392176003
1484 18.14032818554772
1485 18.1404223438127
1486 18.14052284148466
1487 18.14067384718597
1488 18.14081639806001
1489 18.1410079964193
1490 18.14111990057017
1491 18.1413093507851
1492 18.14152595540523
1493 18.14186592082606
1494 18.14209555647301
1495 18.14230035596838
1496 18.14245174630188
1497 18.14260509253615
1498 18.14267758961349
1499 18.14271458827918
1500 18.14267289174525
1501 18.14261330845202
1502 18.14248043226532
1503 18.14235309733583
1504 18.14213673660928
1505 18.14188583959268
1506 18.14158002430976
1507 18.14131206484538
1508 18.14101446103616
1509 18.14078093461105
1510 18.14055352667297
1511 18.140398101409
1512 18.14026430594893
1513 18.14021180347538
1514 18.14020305759745
1515 18.14026399359949
1516 18.14028752336906
1517 18.14032499605343
1518 18.14036529558596
1519 18.14045397619182
1520 18.14048451725949
1521 18.14055907814301
1522 18.14063077019482
1523 18.1407328235317
1524 18.14082173987154
1525 18.14097346301615
1526 18.14106957228562
1527 18.14125072206413
1528 18.141571085806
1529 18.141843370805
1530 18.1421055888323
1531 18.14235778313897
1532 18.14252933543421
1533 18.14275598001831
1534 18.14281485608673
1535 18.14280370921643
1536 18.14271859150026
1537 18.14261038533561
1538 18.14243731826805
1539 18.14228222439677
1540 18.14204661623548
1541 18.14179686645966
1542 18.14150882620813
1543 18.14125703916015
1544 18.1409710398471
1545 18.14075249219896
1546 18.14054322272974
1547 18.1403859063299
1548 18.14024310687289
1549 18.14018079652718
1550 18.14016724659641
1551 18.14022595330781
1552 18.14025245024847
1553 18.14033839992247
1554 18.14042654209734
1555 18.14055976990369
1556 18.14060987633182
1557 18.14071453089329
1558 18.14079733751942
1559 18.14089297323601
1560 18.14097546765749
1561 18.141130361933
1562 18.14121026923216
1563 18.14137068207853
1564 18.1416901121797
1565 18.14195446798124
1566 18.1421907866301
1567 18.14241689027548
1568 18.14256906348868
1569 18.14271516156021
1570 18.14276659616742
1571 18.14276829846636
1572 18.14268779145911
1573 18.14258207355845
1574 18.14238441482418
1575 18.14218083333329
1576 18.14190571236663
1577 18.14164514536587
1578 18.14135891065526
1579 18.14111643722302
1580 18.14083745360815
1581 18.14061724015315
1582 18.14039723783038
1583 18.14022988604076
1584 18.14008260717694
1585 18.14003235748353
1586 18.14001542791357
1587 18.1400680202325
1588 18.14010724630597
1589 18.14021037967344
1590 18.14031159362421
1591 18.14046923050105
1592 18.14055946839027
1593 18.14068954231031
1594 18.1407819613177
1595 18.14089514854238
1596 18.1410102602716
1597 18.14118492981327
1598 18.14128478415406
1599 18.14150347116587
1600 18.1418050449624
1601 18.14204426691951
1602 18.14226460681643
1603 18.14248350058164
1604 18.14263378682496
1605 18.1427875761596
1606 18.14284511375264
1607 18.14285387521301
1608 18.14278361048829
1609 18.14268458752133
1610 18.14249471760267
1611 18.14228970432939
1612 18.14202197976345
1613 18.14176080716533
1614 18.14145212087147
1615 18.14118897975623
1616 18.14091640804138
1617 18.1407042229867
1618 18.14048240078313
1619 18.14031177165308
1620 18.1401519284186
1621 18.14004884946774
1622 18.13997891477831
1623 18.14000906947164
1624 18.14003311248735
1625 18.14012289629713
1626 18.14022067935055
1627 18.14037802406821
1628 18.14047735657877
1629 18.14062857675524
1630 18.14075278836033
1631 18.14090575863151
1632 18.14103753022867
1633 18.14114700339949
1634 18.14126469942817
1635 18.1415055068812
1636 18.14173059008786
1637 18.14202554134143
1638 18.14230566379216
1639 18.14270701801298
1640 18.14288161831816
1641 18.14301883733112
1642 18.14305957152995
1643 18.14304817692137
1644 18.14293010244037
1645 18.14276995845376
1646 18.14250180446287
1647 18.14222758420744
1648 18.14189936803473
1649 18.1415887788745
1650 18.14128882903016
1651 18.14104318043073
1652 18.14078179856655
1653 18.14058145587848
1654 18.14039437200077
1655 18.14026861778002
1656 18.14014577483517
1657 18.14008374523873
1658 18.14005736136967
1659 18.14008909478076
1660 18.14010380710707
1661 18.14016500989866
1662 18.14023590216943
1663 18.14036856902001
1664 18.14044574393497
1665 18.14059399072519
1666 18.14072612406051
1667 18.14088854447622
1668 18.14103646681167
1669 18.14118175177059
1670 18.14132085134561
1671 18.14157417846576
1672 18.1417942181973
1673 18.14215321715613
1674 18.14237004491721
1675 18.14258068132941
1676 18.14271892032907
1677 18.14284256901494
1678 18.14288416199201
1679 18.14287231507176
1680 18.14276778415483
1681 18.14263289745895
1682 18.14240849680952
1683 18.14217935526113
1684 18.14188739433676
1685 18.14160561719626
1686 18.14133433801561
1687 18.14111289800923
1688 18.14086341324159
1689 18.14067932067084
1690 18.14050345959179
1691 18.14038321020818
1692 18.14027092387358
1693 18.140256485747
1694 18.14025018194802
1695 18.14028273075959
1696 18.14028772020673
1697 18.14032697980816
1698 18.14035308782142
1699 18.14042823334584
1700 18.14043901336636
1701 18.14052801904297
1702 18.14062231376833
1703 18.14074587428303
1704 18.1408619054904
1705 18.14098247072625
1706 18.14110272379843
1707 18.14141418891949
1708 18.14157879370861
1709 18.14176919979647
1710 18.1420231973551
1711 18.14220558542947
1712 18.14232136071265
1713 18.14244870808036
1714 18.14250607473782
1715 18.1425094019051
1716 18.14242132083525
1717 18.14232698258847
1718 18.14213987270676
1719 18.14193562327172
1720 18.14167316430738
1721 18.14142421241107
1722 18.14117742041424
1723 18.14097350706803
1724 18.14074697819884
1725 18.14061910730818
1726 18.14051620305849
1727 18.14046932901654
1728 18.14043418324579
1729 18.14050005619796
1730 18.14053713031407
1731 18.14060320543565
1732 18.14063702670546
1733 18.1406914624471
1734 18.14074154856085
1735 18.14078482247862
1736 18.140795852131
1737 18.1409054898413
1738 18.14102038827917
1739 18.14117911077526
1740 18.14133501392585
1741 18.14147989451039
1742 18.14161309531368
1743 18.14192075606375
1744 18.14207719322811
1745 18.1423389931178
1746 18.14248023915628
1747 18.14259183391215
1748 18.14264767856279
1749 18.14272121950087
1750 18.14271827795772
1751 18.14266268490196
1752 18.14253755773079
1753 18.14240029445446
1754 18.14215696349257
1755 18.14189371208708
1756 18.14157506647131
1757 18.14127634039818
1758 18.14097825434281
1759 18.14071864870236
1760 18.1404446225901
1761 18.14025692148145
1762 18.14009080712868
1763 18.14000597608847
1764 18.13995958687444
1765 18.14000950445855
1766 18.14005805177019
1767 18.14014051669107
1768 18.14019348889105
1769 18.1402802694377
1770 18.14037181334115
1771 18.14046606030285
1772 18.14055060750824
1773 18.14069941226569
1774 18.14083348847157
1775 18.14099459987741
1776 18.14115128575864
1777 18.14130315574774
1778 18.14148082106803
1779 18.14168559978242
1780 18.1418881018711
1781 18.14214121454202
1782 18.14236318052661
1783 18.14259066573451
1784 18.14274929407079
1785 18.14289355484133
1786 18.14292302397365
1787 18.1428951431229
1788 18.14278727250454
1789 18.14265752163234
1790 18.14243840506509
1791 18.14221867016758
1792 18.14194913797521
1793 18.14167867724587
1794 18.14139024960227
1795 18.14112219061119
1796 18.14082118732063
1797 18.1405998699832
1798 18.14039653524554
1799 18.1402663635141
1800 18.14017084961339
1801 18.14019037760642
1802 18.14020443756049
1803 18.14025176648073
1804 18.14028295597603
1805 18.14034875934741
1806 18.14040378446928
1807 18.14046147152521
1808 18.14050667606153
1809 18.14062839047519
1810 18.14074449100774
1811 18.14089857604008
1812 18.14099902146515
1813 18.141167722431
1814 18.14137180098171
1815 18.14172033578669
1816 18.14194443242926
1817 18.14216776822268
1818 18.14234238077401
1819 18.1425004660884
1820 18.14256979208083
1821 18.14260403320519
1822 18.14253568391508
1823 18.14244465741683
1824 18.14229654416546
1825 18.1421610174537
1826 18.14196312845527
1827 18.14178097222333
1828 18.14155006810981
1829 18.14134370060633
1830 18.14110478500453
1831 18.14089018681106
1832 18.14064819161036
1833 18.14048117193593
1834 18.14033778553832
1835 18.14027398793555
1836 18.14026916332191
1837 18.14034549545953
1838 18.14040691689383
1839 18.14049351500895
1840 18.14054987446692
1841 18.14065173892118
1842 18.1407156513793
1843 18.14077967736057
1844 18.1408246688762
1845 18.14093047498721
1846 18.14101927785152
1847 18.14115834567164
1848 18.14123870130176
1849 18.14140257318866
1850 18.14170930291784
1851 18.14195747255338
1852 18.14217159392574
1853 18.1424828082787
1854 18.14262822586384
1855 18.14271757346739
1856 18.142713627393
1857 18.14268273935613
1858 18.14255992831908
1859 18.14240539960165
1860 18.14219280509329
1861 18.14201312167633
1862 18.14178173970667
1863 18.14156836550823
1864 18.1413036846959
1865 18.14107905345909
1866 18.14083820329807
1867 18.1406381303897
1868 18.14042903473057
1869 18.14031205449509
1870 18.14021247834634
1871 18.1401808848925
1872 18.14019725098079
1873 18.14028803853999
1874 18.14033701506302
1875 18.14042993125972
1876 18.14048647146049
1877 18.14058742797187
1878 18.14063669020519
1879 18.14071566796543
1880 18.14076800017559
1881 18.14088037473953
1882 18.14098127298594
1883 18.14111076342564
1884 18.14116268558084
1885 18.14130161750739
1886 18.14159266865133
1887 18.1418254186328
1888 18.14203375266068
1889 18.14226977294282
1890 18.14246425648268
1891 18.14262986854985
1892 18.14268616544137
1893 18.14273335480207
1894 18.14268275484813
1895 18.14257817252749
1896 18.14239972699052
1897 18.1422292466131
1898 18.14198554958756
1899 18.14174690148189
1900 18.14145734884056
1901 18.14120853221531
1902 18.14093808895525
1903 18.14070949981758
1904 18.1404789734641
1905 18.14034147860245
1906 18.14021911974592
1907 18.14016210597827
1908 18.14015084270351
1909 18.14021037985423
1910 18.14022917592127
1911 18.14030383898636
1912 18.14037173214646
1913 18.14052366152718
1914 18.14064012891482
1915 18.14078027314739
1916 18.14088188802423
1917 18.14103570183846
1918 18.1411577459359
1919 18.14129007459585
1920 18.14134581370569
1921 18.14148203916544
1922 18.14174212397199
1923 18.14194493056298
1924 18.14214390714766
1925 18.14237899126621
1926 18.14256387032155
1927 18.14271541996505
1928 18.14276183040947
1929 18.14278465314162
1930 18.14270218638055
1931 18.14256372191558
1932 18.1423574639568
1933 18.14216093002029
1934 18.14188279559833
1935 18.14160981209482
1936 18.14130338786528
1937 18.14105474058604
1938 18.140808075391
1939 18.14061620112869
1940 18.14041723288232
1941 18.14030332079292
1942 18.14019782131342
1943 18.14013478032305
1944 18.14010596961382
1945 18.14015300487808
1946 18.1401552754174
1947 18.1402159418404
1948 18.14028330294445
1949 18.14042290375412
1950 18.14053365730813
1951 18.14069512103649
1952 18.14081758162504
1953 18.14098965253934
1954 18.14112014231696
1955 18.14126524257013
1956 18.14134085624584
1957 18.14153472615859
1958 18.14168590928494
1959 18.14190638346158
1960 18.14212966299542
1961 18.14237968131664
1962 18.14255667681246
1963 18.14271988615265
1964 18.14278457403335
1965 18.14281812233704
1966 18.1427537115189
1967 18.14264307792373
1968 18.14245121340029
1969 18.14225283023535
1970 18.1419777457266
1971 18.14171394084326
1972 18.14141170975734
1973 18.141165167294
1974 18.1408999925519
1975 18.14069542581629
1976 18.14050824110701
1977 18.1404055130322
1978 18.14030500890238
1979 18.14025811678277
1980 18.14023838664396
1981 18.14028074008614
1982 18.14028159286152
1983 18.14034471414319
1984 18.14039047788856
1985 18.14050310499979
1986 18.14058460074399
1987 18.1407205373483
1988 18.14082870105495
1989 18.14098237462255
1990 18.14111826404955
1991 18.14123823943646
1992 18.14135328193595
1993 18.14158134547701
1994 18.14177980752218
1995 18.14204605994192
1996 18.14237874411052
1997 18.14259076074778
1998 18.1427296554503
1999 18.14282703689179
2000 18.14281651894544
2001 18.14278250427334
2002 18.1426510955992
2003 18.14248378423102
2004 18.14224697725721
2005 18.14198732289461
2006 18.14165091289522
2007 18.14134021296261
2008 18.14102726695204
2009 18.14075903267702
2010 18.14050469045879
2011 18.14034099335619
2012 18.14019512246387
2013 18.14012939908952
2014 18.14008111794353
2015 18.14011822557075
2016 18.14014486742017
2017 18.14019810536644
2018 18.14024488910036
2019 18.14034595582966
2020 18.14041519507411
2021 18.1405414992173
2022 18.14064241236817
2023 18.14080227726071
2024 18.14092045814043
2025 18.14108918832673
2026 18.14125870063668
2027 18.141396947753
2028 18.14153503326544
2029 18.1418871230051
2030 18.14209511787695
2031 18.14231991742589
2032 18.14248835870977
2033 18.14272831376083
2034 18.14283685674484
2035 18.14289944017369
2036 18.14288185294731
2037 18.14285523669148
2038 18.14274770237327
2039 18.14260129040755
2040 18.14237090561242
2041 18.14212306225992
2042 18.14179871911221
2043 18.14148322589008
2044 18.14114705849603
2045 18.14084918819155
2046 18.14055622069841
2047 18.1403522433777
2048 18.1401590760099
2049 18.14005091641506
2050 18.13996769447349
2051 18.13996580413073
2052 18.13996104946895
2053 18.14001963634534
2054 18.14007228070144
2055 18.14016362815534
2056 18.14024739406863
2057 18.1403369039897
2058 18.14041086626212
2059 18.14052773770895
2060 18.14061868519044
2061 18.14079211292479
2062 18.14096408666742
2063 18.14111322854737
2064 18.14128665348612
2065 18.14167857405199
2066 18.14192037366775
2067 18.14217428118108
2068 18.14237852807548
2069 18.14257900049827
2070 18.14271002355018
2071 18.14280886734213
2072 18.14281472026961
2073 18.14281472430515
2074 18.14273606470892
2075 18.14261849358095
2076 18.14242820988677
2077 18.14221920242371
2078 18.14193354327693
2079 18.14165586380439
2080 18.14135215977319
2081 18.14107799715709
2082 18.14080273954628
2083 18.14059039114362
2084 18.14037076093106
2085 18.1402579741118
2086 18.14018099672609
2087 18.14018212409556
2088 18.14020173049768
2089 18.14028276367073
2090 18.14033638464267
2091 18.14042890636867
2092 18.14050657845249
2093 18.14057762842867
2094 18.14062102550101
2095 18.14071272512562
2096 18.14077616832891
2097 18.14091735801282
2098 18.14107767037159
2099 18.14122284212775
2100 18.14138650665713
2101 18.14175309825715
2102 18.14194996267451
2103 18.14215192581878
2104 18.14230572875042
2105 18.14245786941802
2106 18.14254322479893
2107 18.14261651051147
2108 18.14259570696635
2109 18.14257568346019
2110 18.14249627963834
2111 18.14239683197065
2112 18.14224002598264
2113 18.14207920196784
2114 18.14183104827061
2115 18.14157754718002
2116 18.14131440988225
2117 18.1410786314705
2118 18.14082286666815
2119 18.14062579734124
2120 18.14041809169503
2121 18.1402883185176
2122 18.14019146687807
2123 18.14019825662838
2124 18.140225115403
2125 18.14030676334623
2126 18.14036124920984
2127 18.14044741160393
2128 18.14052010919278
2129 18.14057243669598
2130 18.14058985964874
2131 18.14067415582794
2132 18.14075328100749
2133 18.14090697883367
2134 18.14106725219922
2135 18.14121417712924
2136 18.14141810127069
2137 18.141776302148
2138 18.14197729494295
2139 18.14219245692333
2140 18.14235540107271
2141 18.1425091518388
2142 18.14258827562444
2143 18.14265793625167
2144 18.14263221382615
2145 18.14258943798123
2146 18.14245856387688
2147 18.14230325016433
2148 18.14208906796031
2149 18.14188298781428
2150 18.14161239774602
2151 18.1413769484253
2152 18.14114551189835
2153 18.14094054379688
2154 18.14071565823762
2155 18.14055802004203
2156 18.14039019463538
2157 18.14029934382951
2158 18.14023142002904
2159 18.14025153867384
2160 18.14027429876066
2161 18.14033631653082
2162 18.1403789530339
2163 18.14047804007724
2164 18.14056389819516
2165 18.14064321896669
2166 18.14071106457996
2167 18.14082189309784
2168 18.14090467828923
2169 18.14105610670748
2170 18.14114298407248
2171 18.14128622876331
2172 18.14148886182839
2173 18.14183674637023
2174 18.14204301861147
2175 18.14227217341564
2176 18.14246510638553
2177 18.14264568213896
2178 18.14274873246126
2179 18.14282770459189
2180 18.14278643787912
2181 18.14270299252983
2182 18.14252642051387
2183 18.14232822377375
2184 18.14205555077433
2185 18.14179458049917
2186 18.14148380728365
2187 18.14123104366645
2188 18.14097267364304
2189 18.14076019060009
2190 18.14054949549534
2191 18.1404071612353
2192 18.14024179166737
2193 18.14014089328169
2194 18.14010129633611
2195 18.14013229736535
2196 18.1401720146991
2197 18.14026312554794
2198 18.1403469205115
2199 18.14049437357152
2200 18.14058838470198
2201 18.14068323002278
2202 18.14076156832956
2203 18.14088500737497
2204 18.14097850376706
2205 18.14112461282316
2206 18.14120342207323
2207 18.14133764619017
2208 18.14161797683155
2209 18.14185375872493
2210 18.14207018382579
2211 18.14232315859207
2212 18.14252591830063
2213 18.14271292783494
2214 18.14281909797255
2215 18.14289447851041
2216 18.14283569539059
2217 18.14272635337699
2218 18.14253091593714
2219 18.14230886221608
2220 18.14201445475133
2221 18.14174878070766
2222 18.14144774969377
2223 18.14120823345047
2224 18.14094327172682
2225 18.14072468921514
2226 18.14051294964683
2227 18.14035213281254
2228 18.14016797944786
2229 18.14007502438334
2230 18.14003515791308
2231 18.14006195416756
2232 18.14009478609249
2233 18.14019681898558
2234 18.14027971536722
2235 18.14040111901156
2236 18.14047847531914
2237 18.14059823730987
2238 18.14071670571157
2239 18.14087293514426
2240 18.14099176285843
2241 18.14117219585047
2242 18.14127083893625
2243 18.14140538259327
2244 18.14166877499677
2245 18.1418827178007
2246 18.14207595325245
2247 18.14229897259332
2248 18.14246874524547
2249 18.14263905080276
2250 18.14273380004543
2251 18.14278615816977
2252 18.14271846058632
2253 18.14263420853902
2254 18.14246510503555
2255 18.14225644996573
2256 18.14198432648033
2257 18.14173300743219
2258 18.1414297735714
2259 18.1411757089231
2260 18.14090668623593
2261 18.14069399171683
2262 18.14047692447259
2263 18.14032264705037
2264 18.14017257998419
2265 18.14012019504516
2266 18.14012304690911
2267 18.14018711113487
2268 18.14023028765508
2269 18.14033208966213
2270 18.14039816508195
2271 18.14052236968089
2272 18.14060432054413
2273 18.14074861161006
2274 18.14089082006488
2275 18.14106752887139
2276 18.14121649517217
2277 18.14142112685852
2278 18.14153865471966
2279 18.14167963531616
2280 18.14194545762994
2281 18.14213789959573
2282 18.14228351288228
2283 18.14244910918426
2284 18.14257522735796
2285 18.14269689988929
2286 18.14273276779707
2287 18.14273358418678
2288 18.14262414921879
2289 18.14249824265099
2290 18.14228253025778
2291 18.14205254110154
2292 18.1417787533549
2293 18.1415312570997
2294 18.14122442895467
2295 18.14097276832183
2296 18.14071316562128
2297 18.14050622687709
2298 18.14032741688283
2299 18.14022770400221
2300 18.14012246180236
2301 18.14009660188054
2302 18.14010396949291
2303 18.14015725985534
2304 18.14017864209501
2305 18.1402495797961
2306 18.1402901067718
2307 18.1403969304954
2308 18.14046249453581
2309 18.14058330297135
2310 18.14072617928791
2311 18.14093141642455
2312 18.14111515538214
2313 18.14136196731484
2314 18.14151527774161
2315 18.14171935069793
2316 18.14200191301843
2317 18.14221915041314
2318 18.14245866282616
2319 18.14261802299246
2320 18.14273099832984
2321 18.14281840877302
2322 18.14281847305129
2323 18.14280440646632
2324 18.14269482283386
2325 18.14256998703481
2326 18.14236564496573
2327 18.14213433187311
2328 18.14183684028793
2329 18.14154833775546
2330 18.14120641081901
2331 18.14094350140766
2332 18.14065906595766
2333 18.14042595435003
2334 18.14022506523791
2335 18.14011798607943
2336 18.14001450676803
2337 18.14000115437229
2338 18.14003224354142
2339 18.14009519082962
2340 18.14010471887911
2341 18.14016919712491
2342 18.14019666074439
2343 18.14028394492589
2344 18.14034187762462
2345 18.1404668692414
2346 18.14059149841228
2347 18.14077560769175
2348 18.1409292560266
2349 18.14108165662536
2350 18.14125490833841
2351 18.14153644075583
2352 18.14179731623588
2353 18.14224349893461
2354 18.14248954245441
2355 18.14272920013567
2356 18.14289397405809
2357 18.14301555037894
2358 18.14304476770468
2359 18.14304893693873
2360 18.14295447806278
2361 18.14283404134692
2362 18.14264731146582
2363 18.14243723407299
2364 18.14214306713552
2365 18.1418494546589
2366 18.14151663996174
2367 18.14120240295408
2368 18.14086230143883
2369 18.14058406953032
2370 18.14034587078209
2371 18.14021775271314
2372 18.14010228284206
2373 18.14010164017546
2374 18.14012487024137
2375 18.14017284449001
2376 18.14020006810536
2377 18.14028038524879
2378 18.14033120075832
2379 18.14042822368314
2380 18.14047419856117
2381 18.14057982797836
2382 18.14068358667346
2383 18.14083293492756
2384 18.14095330107679
2385 18.14107454350623
2386 18.14121487150764
2387 18.14145398590419
2388 18.14177936390083
2389 18.14204037857934
2390 18.14224613299247
2391 18.14245045265564
2392 18.14258732148132
2393 18.14269860816841
2394 18.14273114502239
2395 18.14273352226505
2396 18.14264088828992
2397 18.14254599450774
2398 18.14238466045558
2399 18.14218215161618
2400 18.14189671803947
2401 18.14161976105699
2402 18.14129715081079
2403 18.14100245787317
2404 18.14068149635053
2405 18.14042032173876
2406 18.14021154952965
2407 18.14009810711116
2408 18.13999746517529
2409 18.14002762242157
2410 18.14007462598731
2411 18.14013681692797
2412 18.14018806779231
2413 18.14029940954796
2414 18.14040374525326
2415 18.14051128607733
2416 18.14059367654398
2417 18.14073990179805
2418 18.14089377729642
2419 18.14107983255591
2420 18.14123458808071
2421 18.14140366883658
2422 18.1415808077274
2423 18.14192888990813
2424 18.14214671481253
2425 18.14239957385263
2426 18.14258236582037
2427 18.14275534764962
2428 18.14283945530142
2429 18.14288068643182
2430 18.14283052476391
2431 18.14274407375369
2432 18.14256791479563
2433 18.14241391078073
2434 18.14221355276839
2435 18.14198609294395
2436 18.14170387593424
2437 18.14143871533205
2438 18.14115212787263
2439 18.14091143508539
2440 18.14065851816577
2441 18.14046108131709
2442 18.14027792786073
2443 18.14016214889259
2444 18.14003100364206
2445 18.14002155500574
2446 18.14003310293316
2447 18.14006339753829
2448 18.14009967506496
2449 18.14021866230657
2450 18.14032875259061
2451 18.14044507679113
2452 18.14054505539463
2453 18.14070192614754
2454 18.14083628115823
2455 18.14098502787126
2456 18.14110034634544
2457 18.14123132151633
2458 18.14139112897104
2459 18.1417459013648
2460 18.14199403030956
2461 18.14227503287756
2462 18.14247196297088
2463 18.14265867633912
2464 18.14276203514544
2465 18.14282665599528
2466 18.14280242054916
2467 18.14274348192517
2468 18.14258721009216
2469 18.14244365734984
2470 18.14223420916806
2471 18.14200377417205
2472 18.14172687692873
2473 18.14147888285537
2474 18.14121217568007
2475 18.14098759619256
2476 18.14074629930433
2477 18.14056187512832
2478 18.14040654412587
2479 18.14031369868206
2480 18.14020952830371
2481 18.14021683532461
2482 18.14022552087252
2483 18.14025329002447
2484 18.14029965041058
2485 18.14041779733978
2486 18.14050765350887
2487 18.14060851437204
2488 18.14068131815423
2489 18.14076930534116
2490 18.14083592130408
2491 18.14095772724428
2492 18.14106805908041
2493 18.14119659746621
2494 18.14138386038651
2495 18.14172813096306
2496 18.14196741765046
2497 18.14223686407333
2498 18.14243603512467
2499 18.14263563285035
2500 18.14274508374052
2501 18.14279856354248
2502 18.14275920300784
2503 18.14269029274633
2504 18.14252256351559
2505 18.14235964914013
2506 18.14213832771607
2507 18.14189018244488
2508 18.14159147373856
2509 18.14132805517053
2510 18.14104979816259
2511 18.14083327442127
2512 18.14060826183265
2513 18.14043658403399
2514 18.14027114973831
2515 18.14017204657981
2516 18.14006796406249
2517 18.1400830709101
2518 18.14011802587336
2519 18.1401792779554
2520 18.14024870047174
2521 18.14038234583739
2522 18.14050613440452
2523 18.14064396607754
2524 18.14074552630787
2525 18.14086506565758
2526 18.14096618434158
2527 18.14110893360801
2528 18.14121922985616
2529 18.14132637241924
2530 18.14149374265402
2531 18.14169656271132
2532 18.14190518064667
2533 18.14224877590102
2534 18.14241798446164
2535 18.14258318469698
2536 18.14267980439412
2537 18.14274648708058
2538 18.1427344635127
2539 18.14269707528185
2540 18.14254518157665
2541 18.14238116234849
2542 18.14213535957573
2543 18.14187282533277
2544 18.14156554123295
2545 18.14130722903177
2546 18.14102797655802
2547 18.14082122995263
2548 18.14060939876257
2549 18.14045080263153
2550 18.14031475733386
2551 18.14024958491846
2552 18.14016248183086
2553 18.14017731906602
2554 18.14020854104397
2555 18.14024923141326
2556 18.14028212247314
2557 18.14039275019273
2558 18.14049990724101
2559 18.14061936168586
2560 18.14071892072106
2561 18.14086187770855
2562 18.14099624756774
2563 18.14117267037936
2564 18.14124069250886
2565 18.14139201494243
2566 18.14160274540326
2567 18.14182233395303
2568 18.14204499505425
2569 18.14232212651573
2570 18.14253512389651
2571 18.14274962689064
2572 18.14288492692241
2573 18.14299273230688
2574 18.14301255061674
2575 18.14298192137528
2576 18.14281111768435
2577 18.14261150414123
2578 18.14232073173244
2579 18.14199614079074
2580 18.1416159806297
2581 18.14131318199815
2582 18.14099912368352
2583 18.14075670759476
2584 18.14051325070426
2585 18.14033546775426
2586 18.14017076994999
2587 18.14007084777858
2588 18.13998033395502
2589 18.13997847954715
2590 18.13998864315849
2591 18.14001731353235
2592 18.14004896322671
2593 18.14018023666471
2594 18.14028452662411
2595 18.14041649967391
2596 18.14054760101907
2597 18.14072996678858
2598 18.14089599962947
2599 18.14110737083815
2600 18.14123690324756
2601 18.14144207078537
2602 18.14176554437471
2603 18.14199345528182
2604 18.14219427074781
2605 18.14242191209633
2606 18.1425861158463
2607 18.14275722671298
2608 18.14285663767302
2609 18.14292828523136
2610 18.14290010347542
2611 18.14282557057977
2612 18.14262493515043
2613 18.14241479328804
2614 18.14213198902084
2615 18.14182692793695
2616 18.14148703987228
2617 18.14121697205785
2618 18.14092578589759
2619 18.1407079772629
2620 18.14050159870504
2621 18.14036822069988
2622 18.14023837588299
2623 18.14015660559706
2624 18.14009232569067
2625 18.14011904175895
2626 18.14014040811908
2627 18.14019373087313
2628 18.14023263773741
2629 18.14030890772914
2630 18.14032856422012
2631 18.14040662775608
2632 18.14049060164174
2633 18.14064112277101
2634 18.14079523436914
2635 18.14100138542609
2636 18.14113010914404
2637 18.14134602696733
2638 18.14168891766066
2639 18.14192845585554
2640 18.14214141394665
2641 18.1423797420814
2642 18.14252741853675
2643 18.1426726054341
2644 18.14274680328097
2645 18.14279753523566
2646 18.14276622123382
2647 18.14270439203201
2648 18.14253698412452
2649 18.14237150985286
2650 18.14211408881699
2651 18.14184451929589
2652 18.1415489015624
2653 18.14130147784176
2654 18.14101030679622
2655 18.14077741605719
2656 18.14054963381083
2657 18.14038928825265
2658 18.14025805560638
2659 18.140216577883
2660 18.14021674050023
2661 18.14029912225539
2662 18.14034532376653
2663 18.14043238521736
2664 18.14049393154525
2665 18.14060189508653
2666 18.14063575940698
2667 18.14071880240144
2668 18.14079396336959
2669 18.14090817667719
2670 18.1410163495528
2671 18.14119666009395
2672 18.14129709118727
2673 18.14147867854399
2674 18.14177417816483
2675 18.14195926052919
2676 18.14211291954112
2677 18.14229206892201
2678 18.14239925333947
2679 18.14251658855506
2680 18.14255740520704
2681 18.14255673342281
2682 18.14248044055863
2683 18.14238639899964
2684 18.14219796527061
2685 18.14201022097492
2686 18.14175661191481
2687 18.1415011510018
2688 18.14121522434074
2689 18.14097671799103
2690 18.14070601998741
2691 18.14050858675409
2692 18.14032261125073
2693 18.14020327510974
2694 18.14012048214918
2695 18.14013130074966
2696 18.14016482711039
2697 18.14028799167503
2698 18.14039205852637
2699 18.14051391758436
2700 18.14060199766105
2701 18.14073294913117
2702 18.14077422934348
2703 18.14087766010431
2704 18.14096493487531
2705 18.14108802003574
2706 18.14122566788883
2707 18.14142764624535
2708 18.14153462007579
2709 18.14175291718273
2710 18.14204812695653
2711 18.14223864899888
2712 18.14239046069547
2713 18.1425534878105
2714 18.14264005865865
2715 18.14272939221285
2716 18.14273607298847
2717 18.14269871923215
2718 18.14259657295727
2719 18.14248918286929
2720 18.1422894022884
2721 18.14210011649172
2722 18.14185517987486
2723 18.14160105053148
2724 18.14130124842237
2725 18.14105460864924
2726 18.1407546638038
2727 18.14049088166703
2728 18.1402298530599
2729 18.14004612940707
2730 18.13990957559206
2731 18.13986683832306
2732 18.1398565109649
2733 18.13994956397649
2734 18.14002558643596
2735 18.14013423158065
2736 18.14022473110553
2737 18.14036681077106
2738 18.14044198709598
2739 18.14056378424116
2740 18.14066986568523
2741 18.14081746386476
2742 18.14096061263325
2743 18.14110785395397
2744 18.1412615614129
2745 18.14154202943511
2746 18.14181783657142
2747 18.14213605464844
2748 18.14242217355313
2749 18.1427249474284
2750 18.14294012287514
2751 18.14311244004539
2752 18.14316385009757
2753 18.14315299186607
2754 18.14305811960854
2755 18.14293121647842
2756 18.1427101683671
2757 18.14250330689947
2758 18.14224345541582
2759 18.14196589539235
2760 18.14165833934742
2761 18.14138676113131
2762 18.14106766798419
2763 18.14078946672667
2764 18.14050710581006
2765 18.14030979094893
2766 18.14014961956856
2767 18.14008683072598
2768 18.14002793693026
2769 18.14005948804846
2770 18.14006818406431
2771 18.14010947623562
2772 18.14015554478371
2773 18.14024801509817
2774 18.14029542130129
2775 18.14040723166951
2776 18.14051599069179
2777 18.14067955055462
2778 18.1408380304002
2779 18.14098059840537
2780 18.141126002762
2781 18.1414279183604
2782 18.1417175048307
2783 18.14216343899341
2784 18.14241571063055
2785 18.14265519348365
2786 18.14280761532337
2787 18.14291569148018
2788 18.14291152297127
2789 18.14285797716567
2790 18.14271564009711
2791 18.14254794444949
2792 18.14231581158303
2793 18.14210473229795
2794 18.1418449867858
2795 18.14158511447103
2796 18.14130828310168
2797 18.14105907028622
2798 18.14077524031932
2799 18.14054268216583
2800 18.14032607009454
2801 18.14018942614547
2802 18.14007455052361
2803 18.14006287292372
2804 18.14004535928933
2805 18.14008215111848
2806 18.14012369547617
2807 18.14019824666195
2808 18.14028231961669
2809 18.1403881758936
2810 18.14046470387553
2811 18.14059707737225
2812 18.14072136296416
2813 18.14089736633041
2814 18.14106170292371
2815 18.14119659548927
2816 18.14132874617075
2817 18.14168256530985
2818 18.14190405921179
2819 18.14215893930042
2820 18.14240254225348
2821 18.14265860476969
2822 18.14282157667148
2823 18.14295370702486
2824 18.14297462557992
2825 18.14293597255548
2826 18.14278920896468
2827 18.14261892435621
2828 18.14237121039362
2829 18.14211266195759
2830 18.14178810483736
2831 18.1414817007039
2832 18.14118151950662
2833 18.14094196274301
2834 18.14068977198245
2835 18.14052230759005
2836 18.14035392551533
2837 18.14024772258632
2838 18.14016574043282
2839 18.14016866138997
2840 18.14014757339564
2841 18.14017283910216
2842 18.14018294011687
2843 18.14023882778609
2844 18.14032434663682
2845 18.14044620534217
2846 18.14054743481916
2847 18.14071155186047
2848 18.14084345727706
2849 18.1409921894809
2850 18.14110429281259
2851 18.14119251834658
2852 18.14132307742437
2853 18.14172858971927
2854 18.14188160207354
2855 18.14205517073721
2856 18.1422192305062
2857 18.14240020902595
2858 18.14251347075591
2859 18.14261415428819
2860 18.14261482252852
2861 18.1425790132842
2862 18.14245799450333
2863 18.14232929937307
2864 18.14211958020907
2865 18.14191071595112
2866 18.14165088115061
2867 18.14139263646912
2868 18.14113265319256
2869 18.14091874394081
2870 18.14070211873917
2871 18.14057437411293
2872 18.14044348288454
2873 18.14036640417644
2874 18.14030047189515
2875 18.14031621636643
2876 18.14030855606188
2877 18.14035905991795
2878 18.14040249249686
2879 18.14049197529436
2880 18.14056876794152
2881 18.14068374160932
2882 18.14078495032854
2883 18.14093367774707
2884 18.14104270656831
2885 18.14117626322968
2886 18.14124119009962
2887 18.14136914662411
2888 18.14151925033502
2889 18.14173006636243
2890 18.14196967812402
2891 18.14225128585341
2892 18.14248892390458
2893 18.14272476058601
2894 18.14286227618011
2895 18.14295543884334
2896 18.14293431125748
2897 18.14287137955734
2898 18.14272870093367
2899 18.14255631458492
2900 18.14229942516382
2901 18.14204918926076
2902 18.14173969862136
2903 18.14144848600274
2904 18.14112459534771
2905 18.14085851319836
2906 18.14059388943224
2907 18.14040905414393
2908 18.14024080199533
2909 18.14014233346274
2910 18.14006344584978
2911 18.14007925145787
2912 18.14006262217705
2913 18.14007790862952
2914 18.14009208691824
2915 18.14015461957815
2916 18.14022619698398
2917 18.14033724821493
2918 18.14044932614655
2919 18.14061796281602
2920 18.14075447821238
2921 18.14094098629511
2922 18.14107165007576
2923 18.14126388346811
2924 18.14147876873098
2925 18.14174948863085
2926 18.14212780159603
2927 18.14236309691134
2928 18.14253827645634
2929 18.14269589130404
2930 18.14276144218359
2931 18.14280385280055
2932 18.14276239605073
2933 18.14270388986888
2934 18.14257421065629
2935 18.14243691480226
2936 18.14219760514735
2937 18.14195442782747
2938 18.14165596453312
2939 18.14136920410925
2940 18.1410574518697
2941 18.14081907264081
2942 18.14058508945164
2943 18.14045282998011
2944 18.14034875557865
2945 18.14030917909697
2946 18.1403101882988
2947 18.1403699749648
2948 18.14036754094349
2949 18.14042193788106
2950 18.14045264631367
2951 18.14048946832635
2952 18.14052259245797
2953 18.14059192673976
2954 18.14064172289251
2955 18.14074294429019
2956 18.14084707174985
2957 18.14101341488392
2958 18.14111794877915
2959 18.14129186971344
2960 18.14159642379214
2961 18.14184174974678
2962 18.1420571740677
2963 18.14225904469195
2964 18.14239629271784
2965 18.14253919323972
2966 18.14258189203934
2967 18.14260993714541
2968 18.14258212668159
2969 18.1425254235639
2970 18.14239176303085
2971 18.14224372522582
2972 18.14198562052232
2973 18.14173203298689
2974 18.1414324404675
2975 18.14114831876555
2976 18.14084630423173
2977 18.14062257111781
2978 18.14040925333752
2979 18.14028222008843
2980 18.14018357689253
2981 18.14017123875364
2982 18.14019141455756
2983 18.14025897351271
2984 18.1403067871931
2985 18.14040716190033
2986 18.14047537840952
2987 18.14055578686257
2988 18.14059632279897
2989 18.14070070260167
2990 18.14077708054592
2991 18.14089185519651
2992 18.14101404005011
2993 18.14120749075764
2994 18.14133116832363
2995 18.1415349488463
2996 18.14187014994027
2997 18.14212551366857
2998 18.14233272552228
2999 18.14254096715508
3000 18.14269063196756
3001 18.14282247622707
3002 18.14285683911551
3003 18.14287543655781
3004 18.1428204577794
3005 18.14274133664208
3006 18.14258576361006
3007 18.14241655728207
3008 18.1421483483045
3009 18.14186469157494
3010 18.14151140474046
3011 18.14118609620617
3012 18.14084291055166
3013 18.14057340771722
3014 18.14031596675949
3015 18.14014294228787
3016 18.13998984506673
3017 18.13991161088523
3018 18.13988648268983
3019 18.13995357436928
3020 18.13999644118772
3021 18.14010186337773
3022 18.1402025449129
3023 18.14034277919932
3024 18.14042221390596
3025 18.14054534226585
3026 18.14064414412491
3027 18.14078757633224
3028 18.14092111442556
3029 18.14110226237828
3030 18.14123050102669
3031 18.14148773039124
3032 18.14182917976184
3033 18.14210510175501
3034 18.14234191095937
3035 18.14256763338512
3036 18.1427179058639
3037 18.14284686872927
3038 18.14287895834408
3039 18.14287893455514
3040 18.14278696025137
3041 18.14267077351327
3042 18.14248390121871
3043 18.14229368071164
3044 18.14202688156351
3045 18.1417737629634
3046 18.14148817987927
3047 18.14124504310359
3048 18.14097456457041
3049 18.14075024651073
3050 18.14051477308089
3051 18.14035647770775
3052 18.14020005076771
3053 18.14010576304705
3054 18.14006697062573
3055 18.1401148030341
3056 18.14012871925783
3057 18.14021410082243
3058 18.14029757146424
3059 18.140420037374
3060 18.14047539616481
3061 18.14057027519549
3062 18.14063617201625
3063 18.1407483317838
3064 18.1408393443446
3065 18.140934145992
3066 18.14106982166831
3067 18.14132857950718
3068 18.1416621714945
3069 18.14192307333263
3070 18.14214947112944
3071 18.14237573679899
3072 18.14254280061048
3073 18.14269921368866
3074 18.14275571164135
3075 18.14277401508506
3076 18.1426994774869
3077 18.14259446060049
3078 18.14243536968932
3079 18.14225118132759
3080 18.14198166662232
3081 18.14173452903554
3082 18.14147659830856
3083 18.14124855315789
3084 18.14099991334944
3085 18.14080334223618
3086 18.14060497810118
3087 18.14046157188677
3088 18.1403073683979
3089 18.14024975017961
3090 18.1402245590328
3091 18.14026049758893
3092 18.14024996062757
3093 18.14032775065001
3094 18.14042988547325
3095 18.1405239985959
3096 18.14056377869014
3097 18.14067440777285
3098 18.14075362084015
3099 18.14087157685268
3100 18.14098860001124
3101 18.14110075078715
3102 18.14123221623466
3103 18.14148541942162
3104 18.14170235682962
3105 18.1419937850339
3106 18.14226726786502
3107 18.14251812608543
3108 18.14270605360522
3109 18.14288047296259
3110 18.14293209903328
3111 18.1429323337834
3112 18.14281911566089
3113 18.14265595575842
3114 18.14241870264639
3115 18.14215984742027
3116 18.14183048767667
3117 18.14154792728663
3118 18.14128334386249
3119 18.14105338441266
3120 18.14081777227454
3121 18.1406531854801
3122 18.14047683126132
3123 18.14034707957908
3124 18.14021739812258
3125 18.14017908695975
3126 18.14014872902935
3127 18.14017879383422
3128 18.14018045545172
3129 18.14026835492227
3130 18.14037516863018
3131 18.14047753744724
3132 18.14053781797242
3133 18.14066271521732
3134 18.14075188827042
3135 18.14088976509453
3136 18.14102191113477
3137 18.14113330121731
3138 18.14125443049511
3139 18.14157732780603
3140 18.14176435635668
3141 18.14201742765019
3142 18.14224426444683
3143 18.14246960035295
3144 18.14263254222423
3145 18.14278666854415
3146 18.14283881745391
3147 18.1428458064982
3148 18.14275114232318
3149 18.14261886539859
3150 18.1423990976566
3151 18.1421628373173
3152 18.14185331994016
3153 18.14157490486376
3154 18.141300190143
3155 18.14105776891989
3156 18.14080424319344
3157 18.14062295775066
3158 18.14042505648136
3159 18.14029220650528
3160 18.14018401974591
3161 18.14017446736255
3162 18.14017581227362
3163 18.1402311826979
3164 18.14025653622447
3165 18.14033079442017
3166 18.14038307061113
3167 18.14043804316315
3168 18.14049154795949
3169 18.14061957768583
3170 18.14072946240915
3171 18.1408910103703
3172 18.14104371285291
3173 18.14117630691642
3174 18.14131397966511
3175 18.14163906011179
3176 18.14182255241224
3177 18.14205772842833
3178 18.14225584530003
3179 18.14245666898821
3180 18.14260398053178
3181 18.14274749007355
3182 18.14276735164909
3183 18.14273924574951
3184 18.14261849063647
3185 18.14245350899764
3186 18.14221601023977
3187 18.14198791545958
3188 18.14169201889474
3189 18.14141301094399
3190 18.14112901375347
3191 18.14088357092323
3192 18.14063299477743
3193 18.14046868089962
3194 18.140313945439
3195 18.14023441035679
3196 18.1401669368082
3197 18.14019905243114
3198 18.14024875030808
3199 18.14033059665092
3200 18.14037419977397
3201 18.14046167861573
3202 18.14054724904776
3203 18.14063253193437
3204 18.1407143469058
3205 18.14086805612466
3206 18.14100729022047
3207 18.14120191895136
3208 18.1413889093919
3209 18.14153698167472
3210 18.1416867675669
3211 18.14186385287549
3212 18.14202699618378
3213 18.14231263012503
3214 18.14246083493592
3215 18.14259469331205
3216 18.14267866626521
3217 18.14275193523535
3218 18.14273514483883
3219 18.14269986133033
3220 18.14256329952646
3221 18.14238285572938
3222 18.14213266358473
3223 18.14187866609826
3224 18.14154411442037
3225 18.14124296065857
3226 18.14094857185049
3227 18.14068763527309
3228 18.14042517036414
3229 18.14024603043013
3230 18.1400914633112
3231 18.14002557379163
3232 18.13997100531851
3233 18.14002049090672
3234 18.14009221955428
3235 18.14016444975516
3236 18.14018241050503
3237 18.14026038604512
3238 18.14034218220761
3239 18.14042682829966
3240 18.1405296971503
3241 18.14070749399628
3242 18.14086791244533
3243 18.14108899427031
3244 18.14123609709487
3245 18.14142838115241
3246 18.14166764854514
3247 18.14193052523785
3248 18.14216165566803
3249 18.14243580753346
3250 18.14266003573656
3251 18.14286710052571
3252 18.14298028521728
3253 18.14305095831326
3254 18.1430095639667
3255 18.14294143717887
3256 18.14277057511188
3257 18.1425688118735
3258 18.14231160778839
3259 18.14204972650166
3260 18.14170385966903
3261 18.14140953351567
3262 18.14109326067853
3263 18.14080599149857
3264 18.14052641559536
3265 18.14034794931281
3266 18.1401860294506
3267 18.14011024303703
3268 18.14007946773995
3269 18.14011646966796
3270 18.14015938640374
3271 18.1402141083062
3272 18.1402189585729
3273 18.14031004902398
3274 18.14038090709292
3275 18.14046364939805
3276 18.14055574041899
3277 18.14072270407914
3278 18.14087135494086
3279 18.14106802533028
3280 18.14118394248655
3281 18.14137085236676
3282 18.14161282969433
3283 18.1418812378493
3284 18.14213009677242
3285 18.14243180787228
3286 18.14267845020267
3287 18.1428746017218
3288 18.14295590961322
3289 18.14300380082473
3290 18.14292986108835
3291 18.14281742880475
3292 18.1426111832352
3293 18.14240811937938
3294 18.14214366511195
3295 18.14187263591603
3296 18.1415336604019
3297 18.14126359580098
3298 18.14095205308431
3299 18.14064975746107
3300 18.14035886961715
3301 18.14016818081746
3302 18.13999571514834
3303 18.13993130148948
3304 18.13993141406235
3305 18.14000584249738
3306 18.14009625839556
3307 18.14019218906844
3308 18.14025024240073
3309 18.14038814854903
3310 18.14046192833195
3311 18.1405457873761
3312 18.14063295346569
3313 18.14077704720022
3314 18.14089305086823
3315 18.14106365406332
3316 18.14116941516603
3317 18.14135624691051
3318 18.14169610369475
3319 18.14196950153417
3320 18.14220740781028
3321 18.14249627653497
3322 18.142716163245
3323 18.14287543388882
3324 18.14293775205756
3325 18.14297185993132
3326 18.14288404258296
3327 18.14277921489666
3328 18.1426211889584
3329 18.14246140479813
3330 18.14224162751469
3331 18.14202144645255
3332 18.14172134043953
3333 18.14147238977452
3334 18.14118164040073
3335 18.14090096058617
3336 18.14061572397446
3337 18.14041214929028
3338 18.14022339488822
3339 18.14012764522346
3340 18.14008804926533
3341 18.14013374756093
3342 18.14019275217113
3343 18.14029153662532
3344 18.14034268122077
3345 18.14043412890373
3346 18.14047720798337
3347 18.14053450599332
3348 18.14060073612674
3349 18.14073199888375
3350 18.14080854103921
3351 18.14093405371133
3352 18.14100001001969
3353 18.14114457466361
3354 18.14144517871485
3355 18.14169857554747
3356 18.14200141832909
3357 18.1422033714668
3358 18.14232896020188
3359 18.1424300198724
3360 18.14246009086175
3361 18.1424708229132
3362 18.14237933930693
3363 18.14229383907805
3364 18.14213988464812
3365 18.14198097892305
3366 18.14177567973136
3367 18.14159196936249
3368 18.14134040725399
3369 18.14113751993335
3370 18.14091141917464
3371 18.14071864562303
3372 18.1405300775792
3373 18.14042651151441
3374 18.14033928347393
3375 18.14031927239632
3376 18.14032110371974
3377 18.14037550745332
3378 18.14041087930743
3379 18.14050315190245
3380 18.14057193643961
3381 18.14070979231196
3382 18.14079290334416
3383 18.14091542019218
3384 18.14101702321181
3385 18.14115231690546
3386 18.14125853454338
3387 18.14141868922753
3388 18.141499470607
3389 18.14167915277125
3390 18.141849785663
3391 18.14209700385687
3392 18.14231406762287
3393 18.14254780105336
3394 18.14271811439679
3395 18.14284769242265
3396 18.14286368805989
3397 18.14283671987912
3398 18.14271402953644
3399 18.14256826934033
3400 18.14234882870322
3401 18.14212689628569
3402 18.14184635366984
3403 18.14157102205515
3404 18.14123528154873
3405 18.14097032373946
3406 18.14070871626165
3407 18.14048844809598
3408 18.14026661204827
3409 18.14012068358525
3410 18.13998082495464
3411 18.13991789995688
3412 18.13987865657032
3413 18.1399052494304
3414 18.13992233450428
3415 18.1400001679067
3416 18.1400706711777
3417 18.14023328478135
3418 18.14037580842085
3419 18.1405673414479
3420 18.14073483796108
3421 18.1409380568914
3422 18.1411091308853
3423 18.14125163584342
3424 18.14138558593857
3425 18.14163720574037
3426 18.14189823839712
3427 18.1422267792537
3428 18.14250838540398
3429 18.14280327632215
3430 18.14302464116762
3431 18.14319745031283
3432 18.14325395499699
3433 18.14326033710833
3434 18.14314430206201
3435 18.14298222829907
3436 18.14272246804057
3437 18.1424404314539
3438 18.14209572058419
3439 18.14175253336313
3440 18.14138334084024
3441 18.14108810448467
3442 18.14079848057072
3443 18.14056796729862
3444 18.14035011019722
3445 18.14022016616871
3446 18.14011523169549
3447 18.14009918048622
3448 18.14006519651853
3449 18.14009768745225
3450 18.14010586286763
3451 18.14015935335801
3452 18.14021153705103
3453 18.14033292339716
3454 18.14042593065201
3455 18.14054535357742
3456 18.14065146622868
3457 18.14081801238304
3458 18.14095883553998
3459 18.1410848625058
3460 18.14120486832563
3461 18.14153614207557
3462 18.14175323792727
3463 18.14199357091714
3464 18.14218845640271
3465 18.14241420712235
3466 18.14256765959316
3467 18.14268354826145
3468 18.14272114168389
3469 18.14272672895819
3470 18.14262213542177
3471 18.14249892861422
3472 18.14228338969752
3473 18.14204313615521
3474 18.14174453564735
3475 18.14145026251105
3476 18.14112988472038
3477 18.14088911068016
3478 18.14066408437202
3479 18.14049374637429
3480 18.14033639831035
3481 18.14026735862294
3482 18.1402063493968
3483 18.14023433450172
3484 18.1402491597044
3485 18.14031399718436
3486 18.14037412572351
3487 18.14046319688266
3488 18.14052435926413
3489 18.14063870885457
3490 18.14073176438786
3491 18.14085404289661
3492 18.14096757979066
3493 18.14113383567659
3494 18.14126124600115
3495 18.14136939994721
3496 18.1414761893892
3497 18.14176808419868
3498 18.14192473158175
3499 18.1421139255661
3500 18.14225066616516
3501 18.1424188774836
3502 18.14253707284076
3503 18.142649780441
3504 18.14270019973505
3505 18.14272812650984
3506 18.14264984191776
3507 18.14254324768408
3508 18.14234435620533
3509 18.14211368567051
3510 18.14181257962241
3511 18.14151838213338
3512 18.14119540345065
3513 18.14094312450186
3514 18.14070869064718
3515 18.14054042698755
3516 18.14039241149263
3517 18.14032771336718
3518 18.14024542496371
3519 18.14025026074094
3520 18.14026044059061
3521 18.14029846231526
3522 18.14031538488598
3523 18.14037545315336
3524 18.1404344196489
3525 18.14050994655036
3526 18.14055594512166
3527 18.14065220832804
3528 18.14075431551201
3529 18.14091805218057
3530 18.14105733765884
3531 18.14119161084353
3532 18.14133305408684
3533 18.14176918517084
3534 18.14192493416722
3535 18.14208625086353
3536 18.14219233514092
3537 18.14230520187121
3538 18.1423563594366
3539 18.14240743342094
3540 18.14240614783982
3541 18.14241148847069
3542 18.14233000416669
3543 18.14223660553699
3544 18.1420567223932
3545 18.14185958555454
3546 18.14161507417773
3547 18.14138550579435
3548 18.14113619742967
3549 18.14094508230167
3550 18.14073984185262
3551 18.14058728906786
3552 18.14044604912735
3553 18.14037690315089
3554 18.1403137232433
3555 18.14035392350136
3556 18.14039418016953
3557 18.14047474790128
3558 18.14053898962304
3559 18.14063981009407
3560 18.14069052366821
3561 18.14075479750875
3562 18.14080467719558
3563 18.14089234789601
3564 18.14096134751674
3565 18.141089589126
3566 18.14122513113308
3567 18.14136751312259
3568 18.14155384577479
3569 18.14177190340753
3570 18.1419815389585
3571 18.14222086459007
3572 18.14239593066884
3573 18.14264066425399
3574 18.14271943816763
3575 18.14275248811239
3576 18.14270091072714
3577 18.14262286560155
3578 18.1424694670037
3579 18.14231119501132
3580 18.14206979102852
3581 18.14183443248788
3582 18.14155631818385
3583 18.14128916119991
3584 18.14098740970338
3585 18.14073487327742
3586 18.14048747826292
3587 18.14030500845865
3588 18.14012513424173
3589 18.14004063555451
3590 18.13998648590215
3591 18.14004461041437
3592 18.14008576162194
3593 18.14019483384932
3594 18.14030061336082
3595 18.14042014998313
3596 18.14049513720182
3597 18.14058218407519
3598 18.14066022483312
3599 18.14077323552191
3600 18.14087323154098
3601 18.14105885749663
3602 18.14118991425271
3603 18.14140659199711
3604 18.14166776859581
3605 18.14196119022691
3606 18.1422322297016
3607 18.14250933365716
3608 18.14269838707186
3609 18.1428787992433
3610 18.14296530029285
3611 18.14301192837699
3612 18.14294630207418
3613 18.14286463654839
3614 18.14269515956191
3615 18.14250886918326
3616 18.14223752099561
3617 18.14197145216311
3618 18.14166321617319
3619 18.14138835960203
3620 18.14107169843627
3621 18.14082318049977
3622 18.14056217508499
3623 18.14036070804804
3624 18.14018484623022
3625 18.14010904638001
3626 18.1400871017009
3627 18.14015147777413
3628 18.14021997766351
3629 18.14033663459848
3630 18.14043508474153
3631 18.14056091678821
3632 18.14061401783943
3633 18.14069207804476
3634 18.14074159313883
3635 18.14081738067682
3636 18.14089394885043
3637 18.14103978615382
3638 18.14111528427886
3639 18.14127010218315
3640 18.14147878831794
3641 18.1418153402275
3642 18.14201778151107
3643 18.14221723049655
3644 18.14236829074519
3645 18.14252395065455
3646 18.1425953063843
3647 18.14262222500673
3648 18.14255791713958
3649 18.14247839431539
3650 18.14230353030879
3651 18.1421130883652
3652 18.1418514587161
3653 18.14160412016268
3654 18.14132375440657
3655 18.14109142372449
3656 18.14084393567407
3657 18.14065804841416
3658 18.1404589867809
3659 18.1403112876924
3660 18.14018513557713
3661 18.14015503134913
3662 18.14016339137344
3663 18.14024398606962
3664 18.14031071817779
3665 18.14043479410146
3666 18.14054456733
3667 18.14069478050296
3668 18.1407790288398
3669 18.14091491421479
3670 18.14103218741641
3671 18.14118040533564
3672 18.14130325609651
3673 18.14147056859239
3674 18.14155238400294
3675 18.14169511732262
3676 18.14196734835574
3677 18.14216936113154
3678 18.14234405243577
3679 18.14253003171623
3680 18.14265720310883
3681 18.14280264352292
3682 18.14285636717447
3683 18.14284660610828
3684 18.1427291909603
3685 18.14257720043086
3686 18.14232039718491
3687 18.14206053794193
3688 18.14174472111141
3689 18.1414565437493
3690 18.14114632180399
3691 18.14089529694061
3692 18.14061381625815
3693 18.14038565119821
3694 18.14014785748112
3695 18.13996965836237
3696 18.13982686266318
3697 18.13976755378874
3698 18.13973513642997
3699 18.13979484540771
3700 18.13984677380035
3701 18.13998116300807
3702 18.14012500315565
3703 18.14033099224671
3704 18.1404742874165
3705 18.14066105511615
3706 18.14082891583606
3707 18.14102497222338
3708 18.1411998992945
3709 18.14141313375009
3710 18.14151890761175
3711 18.14171516757295
3712 18.14199318053336
3713 18.14220726906979
3714 18.14240817266278
3715 18.14263315486529
3716 18.1427988700804
3717 18.14296110291771
3718 18.1430151637275
3719 18.14300708378414
3720 18.14289195786091
3721 18.14274231029658
3722 18.14249743379045
3723 18.14226924140349
3724 18.1419851723425
3725 18.14170358334856
3726 18.14141284135011
3727 18.14120414152835
3728 18.14095887517582
3729 18.14075938660093
3730 18.1405543850344
3731 18.14039654777507
3732 18.14023980164513
3733 18.14015895124841
3734 18.14011391201358
3735 18.14013559281697
3736 18.14011777392738
3737 18.14014643295947
3738 18.14017140123834
3739 18.14026899721911
3740 18.1403130380129
3741 18.14044216523921
3742 18.14057573952126
3743 18.14075754374113
3744 18.14091995018478
3745 18.14112561306653
3746 18.14122857127636
3747 18.14144094980599
3748 18.14163374822141
3749 18.1418786838118
3750 18.14210443793291
3751 18.14236751772926
3752 18.14256628440046
3753 18.14275130396777
3754 18.14284929951022
3755 18.14289154953483
3756 18.14281054822075
3757 18.142689292818
3758 18.14248271209614
3759 18.14227562305569
3760 18.14199069587596
3761 18.14171392669369
3762 18.14143240205659
3763 18.14119022279396
3764 18.1409127001817
3765 18.14070418476982
3766 18.14052340378053
3767 18.14040902861873
3768 18.14029950696564
3769 18.14027268338961
3770 18.14027349518545
3771 18.14032197851051
3772 18.14032364105093
3773 18.14037882760569
3774 18.14043298493011
3775 18.14053175504355
3776 18.14058231209165
3777 18.14070895458423
3778 18.14083363562002
3779 18.14099092235547
3780 18.14111815284019
3781 18.1412340211587
3782 18.14134646408453
3783 18.14155902171578
3784 18.14174301838438
3785 18.14210396534056
3786 18.14232842907388
3787 18.14254036158207
3788 18.14268989002105
3789 18.1428393505303
3790 18.14289505807406
3791 18.14289058974338
3792 18.14276693978323
3793 18.14261879047766
3794 18.14239882728464
3795 18.14215476682205
3796 18.14182968688171
3797 18.14152246534491
3798 18.14120129864759
3799 18.1409171738132
3800 18.14062237828047
3801 18.14042223555427
3802 18.14025677615036
3803 18.14016796683678
3804 18.14010552514804
3805 18.14015956138013
3806 18.14020072065141
3807 18.1402549010874
3808 18.14026372108565
3809 18.14031573507398
3810 18.14035893140451
3811 18.14045186199477
3812 18.14049144604933
3813 18.14061466340068
3814 18.14073771348155
3815 18.14089809714429
3816 18.14103501051622
3817 18.14117215107872
3818 18.14130022734827
3819 18.14160783668226
3820 18.14177566136032
3821 18.14198821161373
3822 18.14217159301854
3823 18.1423594452899
3824 18.14247750207962
3825 18.14260662979655
3826 18.14264615417976
3827 18.14265113611989
3828 18.14257078512066
3829 18.14248616055843
