"y-rfile"
"Iteration" "y"
("Iteration" "y")
1 8.644558368956341
2 4.839925578476287
3 -1.411896142554558
4 -8.787987432828029
5 -10.54664196049919
6 -10.96558459162073
7 -10.79021152707655
8 -7.558397078349069
9 -3.778154034979917
10 1.361352318046418
11 6.012796289574529
12 10.01283285857265
13 12.20362345959492
14 14.00098633872904
15 15.15012844505581
16 15.32751658802957
17 14.4048830631431
18 12.81501126657454
19 10.4643706599674
20 8.086404815794396
21 5.262345479504312
22 2.551565902521062
23 -0.1552602578511682
24 -2.300888346920375
25 -3.916402272397199
26 -5.277166487824851
27 -6.093222655814109
28 -6.455310950205203
29 -6.505151432278329
30 -6.160534928802309
31 -5.572951278246427
32 -4.807268118993617
33 -4.028142165512516
34 -3.241614924109112
35 -2.498385821792017
36 -1.871180720143675
37 -1.247809890867436
38 -0.7760651650602282
39 -0.4285860554838448
40 -0.1077900464930879
41 0.1500388882453456
42 0.3639826681633334
43 0.5403393660819105
44 0.6381519008037208
45 0.6893923163263298
46 0.6901603123717855
47 0.6546849937502882
48 0.5764620804641265
49 0.4558487379650974
50 0.3234444249267203
51 0.175229455690056
52 0.03961054566216519
53 -0.074107793875787
54 -0.1834582818480993
55 -0.2592575083245228
56 -0.3213625774579153
57 -0.3694972791446419
58 -0.4081070848801878
59 -0.4329615184765848
60 -0.452346059370777
61 -0.4586267381306959
62 -0.4700164429625323
63 -0.4678784098751911
64 -0.4595545051073341
65 -0.453308219022189
66 -0.4426409888978116
67 -0.4235146034605639
68 -0.4005315772374929
69 -0.3814518961832682
70 -0.3597560037178684
71 -0.3356410773014591
72 -0.3110072904815226
73 -0.2960960572771974
74 -0.2811768682150513
75 -0.2689595656218179
76 -0.2565004278408841
77 -0.2495917093270617
78 -0.2424681426362977
79 -0.2340699579972554
80 -0.2282138209637585
81 -0.2216634837797099
82 -0.2133186547518
83 -0.204492822094163
84 -0.1946554767179894
85 -0.184178159208462
86 -0.1739941327762587
87 -0.1619400045053938
88 -0.148908623418513
89 -0.1376226291609242
90 -0.1236539242601263
91 -0.1110003748780951
92 -0.09453383566152625
93 -0.07442594116611416
94 -0.0615335531855993
95 -0.04860080683932597
96 -0.03823072577848176
97 -0.02568059029332866
98 -0.01790758838052835
99 -0.01177225164039953
100 -0.005473279946501796
101 0.0002897197409429718
102 0.006869374493110293
103 0.01125258872628719
104 0.01589476198131337
105 0.01749742575175128
106 0.01927240223148888
107 0.02022423425741548
108 0.02060360630660496
109 0.0203171059665934
110 0.01998631302281648
111 0.01868200936053996
112 0.01576395195043795
113 0.01408298556015762
114 0.01109666117922618
115 0.007001296900780749
116 0.003174446921606173
117 -0.003341549720204455
118 -0.008828298917509449
119 -0.01877258778835266
120 -0.02565356616260643
121 -0.03667000471582488
122 -0.04408284780004181
123 -0.05667882148601143
124 -0.06873661697092065
125 -0.08022320755751811
126 -0.08821514547668211
127 -0.1002718694472024
128 -0.1078075894385729
129 -0.118970529788311
130 -0.1265085020288834
131 -0.13861833007104
132 -0.1466107498505319
133 -0.158986292457643
134 -0.1675401339363291
135 -0.1787027893521743
136 -0.1859302520701841
137 -0.1935585548670293
138 -0.2038568641666549
139 -0.2100942583294657
140 -0.2189167058681933
141 -0.225044094631466
142 -0.233607183156893
143 -0.2395620028088466
144 -0.2468848839716967
145 -0.2516201836942472
146 -0.2580135853656543
147 -0.2629822349137177
148 -0.2676824342976642
149 -0.2704222575981392
150 -0.2743455187352856
151 -0.2770953123932673
152 -0.278210381663838
153 -0.2775767802412794
154 -0.2785492547579375
155 -0.2794447067615515
156 -0.2795939436255506
157 -0.2786024192909318
158 -0.2790897319497497
159 -0.2796452397838991
160 -0.2787209469180149
161 -0.2781222204626168
162 -0.2768547774054346
163 -0.2761191969668482
164 -0.2737449154179731
165 -0.2692937829493253
166 -0.2668263746298477
167 -0.2635974047991922
168 -0.2612946544582991
169 -0.2566690214110582
170 -0.2528201974311454
171 -0.2484505853311261
172 -0.2430603584235816
173 -0.2390025727752837
174 -0.2352947433824129
175 -0.228616350605851
176 -0.2243253778751623
177 -0.2194311499687443
178 -0.212507934297744
179 -0.2077082569354365
180 -0.1998001775837062
181 -0.1942711977153207
182 -0.1895016818184051
183 -0.1800592839791929
184 -0.1744881636811713
185 -0.1654809319445274
186 -0.1596089779691563
187 -0.1501432150117287
188 -0.144791766375758
189 -0.1365456324357419
190 -0.1309357986970072
191 -0.1220724385630487
192 -0.1160092406770203
193 -0.1088299272386174
194 -0.1041627674959124
195 -0.09890884432186073
196 -0.09473591991716385
197 -0.08974781703255873
198 -0.08577090650787753
199 -0.08136724790775227
200 -0.07828197411492183
201 -0.07395619871328228
202 -0.07035819571452662
203 -0.06528647193414218
204 -0.06208006536845328
205 -0.05740721038800769
206 -0.05436441506574748
207 -0.05044530580189031
208 -0.0484732351296778
209 -0.04606278434665419
210 -0.04487166208726209
211 -0.04399830411891847
212 -0.04321720578762293
213 -0.04243578876670405
214 -0.04084599711923844
215 -0.039767872933273
216 -0.03894346582856226
217 -0.03813805197037287
218 -0.03739101530753999
219 -0.03661387680224854
220 -0.03621046548300452
221 -0.035349844759889
222 -0.0347620388700003
223 -0.03397638014030792
224 -0.03326465885405284
225 -0.03258414673373496
226 -0.03204074120043988
227 -0.03115670682948104
228 -0.03081867456585204
229 -0.02971459858222801
230 -0.02910087104624592
231 -0.02901526114291121
232 -0.02897159347466395
233 -0.02940602549104512
234 -0.02965885898251879
235 -0.02988322220757648
236 -0.02988003767336827
237 -0.02989076778023509
238 -0.02983991098512471
239 -0.02970790316402765
240 -0.02962056961397422
241 -0.02980855263031258
242 -0.03002232722024682
243 -0.03095343267268322
244 -0.03160743294344219
245 -0.03279824301468769
246 -0.03355783556562957
247 -0.03470892525547016
248 -0.03552760983749901
249 -0.03688326201044556
250 -0.0379856467366142
251 -0.03949391113799664
252 -0.04058949257403147
253 -0.04264521527706007
254 -0.04375381767165603
255 -0.04577135265248276
256 -0.04650085522765144
257 -0.04720405867427651
258 -0.04825768128176376
259 -0.04895436739588792
260 -0.04996291314942914
261 -0.05048810856254166
262 -0.05083244377746467
263 -0.05158737273742454
264 -0.0521988630661922
265 -0.05310313556053567
266 -0.05445588897731432
267 -0.05549422468488592
268 -0.05639510002620098
269 -0.0579814298272435
270 -0.05888827611213286
271 -0.0596955743633076
272 -0.06076202769032429
273 -0.06125443583831169
274 -0.0615328838965316
275 -0.06212713558889869
276 -0.06252301820712253
277 -0.06280307310442958
278 -0.06286136263885503
279 -0.06308141436299478
280 -0.06321569265533843
281 -0.06341990872455402
282 -0.06347856428654679
283 -0.0635600594566564
284 -0.06360706353462622
285 -0.06352375816189594
286 -0.06360827330173179
287 -0.06381529796570755
288 -0.06398333646966706
289 -0.06420570497147643
290 -0.0644039543809246
291 -0.0647205822137661
292 -0.06508119935709572
293 -0.06533768276448801
294 -0.06538156239038476
295 -0.06554934705261267
296 -0.065545666003479
297 -0.06561145062435733
298 -0.06550074429421998
299 -0.06574887145360542
300 -0.06589502288934404
301 -0.06603477778802169
302 -0.06595224780068226
303 -0.0660640519313368
304 -0.06597572177029576
305 -0.06586768606941854
306 -0.06557756841647842
307 -0.06520691121286665
308 -0.06458323689946553
309 -0.0638914986486077
310 -0.06282530092890447
311 -0.06187252050546423
312 -0.0608158649010835
313 -0.05975322916818367
314 -0.05869246023780924
315 -0.05778173261617393
316 -0.05676153983316296
317 -0.05593951884312501
318 -0.05493230015682252
319 -0.0541226848279061
320 -0.05323912499677558
321 -0.05262777565424435
322 -0.05191150291731651
323 -0.05138239375598253
324 -0.0507817074353164
325 -0.05030584356806342
326 -0.04971951574490412
327 -0.04921691996443207
328 -0.04850888077134617
329 -0.04794970848170722
330 -0.04725569408220014
331 -0.04666984219289169
332 -0.04596820623642007
333 -0.04537465850651269
334 -0.04462854125203346
335 -0.04389768250612273
336 -0.04303433372247746
337 -0.04230686801431133
338 -0.04154244834377142
339 -0.0407915735337755
340 -0.03987463563939951
341 -0.03904975866589239
342 -0.03795385932371499
343 -0.03682146325442901
344 -0.03552991273050739
345 -0.03418958830536085
346 -0.03279144511208552
347 -0.03145751911790565
348 -0.03004460742027138
349 -0.02869159866821121
350 -0.02731743741210082
351 -0.02602424179459497
352 -0.0247423743824836
353 -0.02358653948494473
354 -0.02235562680077034
355 -0.02125043148988198
356 -0.02014421815939595
357 -0.01915452514941473
358 -0.01811305725473652
359 -0.01718400926414614
360 -0.01618689274620451
361 -0.01530234861256606
362 -0.01437548455333114
363 -0.01357456576913656
364 -0.01269753823882187
365 -0.0119041857164936
366 -0.01104184254709624
367 -0.01022881317775573
368 -0.009315560741958433
369 -0.008543442822753818
370 -0.007711213292758282
371 -0.006852923138803125
372 -0.005921623362723466
373 -0.005094197231836482
374 -0.004260800334879897
375 -0.003379335108774544
376 -0.002399653123557459
377 -0.001433080903876932
378 -0.0002907159636416209
379 0.0009019943983944222
380 0.002302413516070932
381 0.003747683609693379
382 0.005313695973071774
383 0.006819950929198532
384 0.008362061007116228
385 0.009806773958587518
386 0.01125826584769871
387 0.01262038980444289
388 0.01397079242431965
389 0.0151756413179719
390 0.01636274770465846
391 0.01742862230619708
392 0.01846991985285908
393 0.01939588081138719
394 0.02038792235962225
395 0.02130640171789485
396 0.0222588301040575
397 0.02313896816971308
398 0.02407064846418337
399 0.02496806627874048
400 0.02593775816892673
401 0.02687358075171768
402 0.02788172326933177
403 0.02886908847935783
404 0.02990997650505462
405 0.03085729186852131
406 0.0318185003745291
407 0.03281388746079797
408 0.03382930087609614
409 0.03475502118724257
410 0.03564622221181125
411 0.03660068188160933
412 0.03758847753127216
413 0.03860468561375046
414 0.03979100730125421
415 0.04105625810512409
416 0.0425384440692355
417 0.04405483464779724
418 0.04565149997239341
419 0.04718250792199716
420 0.04875684586480625
421 0.05022434340658312
422 0.05168254199925452
423 0.05305930469751403
424 0.05437508975839662
425 0.05552888866338342
426 0.05666115207663742
427 0.05768727909484302
428 0.05866572352063237
429 0.05952035770562661
430 0.06040112064210693
431 0.0611970110644982
432 0.06200572314361532
433 0.06275043385640779
434 0.0635550872619368
435 0.06431275574518047
436 0.06513734687451914
437 0.06594597773908303
438 0.06681605802850198
439 0.06766136652967154
440 0.06855741475978325
441 0.0693302491984332
442 0.07010408770403477
443 0.07085734051050548
444 0.07164314101507663
445 0.07233442008111643
446 0.07299061155092047
447 0.07370025829509433
448 0.07447703676440331
449 0.07525460166822338
450 0.07618616594202396
451 0.07717022251299691
452 0.07836192180505736
453 0.07957889008173953
454 0.080917851293046
455 0.0821897445697581
456 0.08355564340465625
457 0.084865358570775
458 0.08619351935576688
459 0.08745233497438644
460 0.08868673899181201
461 0.08976006413605925
462 0.09081976689427258
463 0.09171645148506986
464 0.09256237526478829
465 0.09329172844347776
466 0.09401144987440004
467 0.09459641192828859
468 0.09521296616945681
469 0.0957228997428405
470 0.09625503531364336
471 0.09669603006324688
472 0.0971950821995252
473 0.09765554240960793
474 0.09819938512200323
475 0.09869096041662406
476 0.09921980711695222
477 0.09965619238168412
478 0.1001215133571892
479 0.1006299420338212
480 0.1011986862057776
481 0.1015926309067709
482 0.1020960329614918
483 0.1026523461347962
484 0.1032771936384576
485 0.1039402276674153
486 0.104759003069081
487 0.1056350997336562
488 0.106727852518105
489 0.1078428305472407
490 0.109031530157441
491 0.1101037999550641
492 0.1112187425918292
493 0.1122557046226393
494 0.1133183650793162
495 0.1143027319491549
496 0.1152823740003431
497 0.1161223771573101
498 0.1169352213342982
499 0.117558981941716
500 0.1181639950407996
501 0.1186422918980879
502 0.1191012106905021
503 0.1194438822013515
504 0.1198164299497024
505 0.1201010442610783
506 0.120407547130293
507 0.1206417590325754
508 0.1209229970690725
509 0.1211352117715794
510 0.121393317400382
511 0.1215892355941248
512 0.1218304050674736
513 0.121997338296147
514 0.1223080947308929
515 0.1225640871428007
516 0.1229213705925871
517 0.1232183790104251
518 0.1235788947019313
519 0.1239393942767116
520 0.1243834326602017
521 0.1248535923526622
522 0.1254888500238837
523 0.1261612514837738
524 0.1270369181682775
525 0.1279131311172267
526 0.1288439352967544
527 0.1297242400120041
528 0.1306620740689977
529 0.1314976155114098
530 0.1323411040868794
531 0.1330883507633703
532 0.1338358646098078
533 0.13444416452432
534 0.135040732536731
535 0.1354816395647448
536 0.135940989900383
537 0.1363127229669229
538 0.1366812226193056
539 0.1369626775050129
540 0.1372932295418291
541 0.1375080953228565
542 0.1377649395484707
543 0.1379399252604758
544 0.1381829906019327
545 0.1383622058877322
546 0.1386103746356148
547 0.1388093662145442
548 0.1390140701341086
549 0.139118538392837
550 0.1393388555965994
551 0.1394642115308747
552 0.1396601872033031
553 0.1397088995843994
554 0.1399457300477467
555 0.1402145020620599
556 0.1405974289995533
557 0.1410013057988812
558 0.1415803102934997
559 0.1422267019634185
560 0.1431198852307295
561 0.1439729278653766
562 0.1452662666456964
563 0.1459952990079345
564 0.1467650594231326
565 0.147398739366759
566 0.1480442293237654
567 0.1485798409840728
568 0.1491064167460825
569 0.1494640616251433
570 0.1498034093522457
571 0.1499732779476222
572 0.1501324071711957
573 0.1502070722939942
574 0.1503225260461269
575 0.1503438240136552
576 0.1504287569839991
577 0.1504403539058033
578 0.1505207743880252
579 0.1505786088330503
580 0.150722470079114
581 0.1508283963081692
582 0.1510095602629521
583 0.151157944191479
584 0.1513248425025953
585 0.151382570774341
586 0.1515526492953898
587 0.1516426809670632
588 0.1517917727150391
589 0.1517709829809801
590 0.151890831598762
591 0.151990056220651
592 0.1521640933702525
593 0.1523570621654615
594 0.1527109146723107
595 0.1531343976659408
596 0.1537698108791393
597 0.1544009086702032
598 0.1551224641658546
599 0.1557807055747471
600 0.156475643132686
601 0.1573467698350795
602 0.1579364782957095
603 0.1584282441220982
604 0.1589070260628543
605 0.1592466983983347
606 0.1595702756811729
607 0.15975356886311
608 0.1599686907999053
609 0.1601100223715789
610 0.1602610363282314
611 0.1603123688600104
612 0.1604082102594467
613 0.1604073132098296
614 0.1604725173776263
615 0.1605245216745693
616 0.1606623173598741
617 0.1607532212503639
618 0.1609126537866193
619 0.1610235942845346
620 0.1611350823459191
621 0.1612557161330424
622 0.1613839489971689
623 0.1614153459965116
624 0.1614684848229699
625 0.1613546864910783
626 0.1613942819247441
627 0.1613833796703294
628 0.1614803523712071
629 0.1615977692373571
630 0.1619120793742812
631 0.1623310338792284
632 0.1628806516961509
633 0.1634083342813812
634 0.1642096077932654
635 0.1646813408578861
636 0.1652140574062274
637 0.1656511594288468
638 0.16613554250721
639 0.1665162668361954
640 0.1669152850181065
641 0.1671989998172551
642 0.1674897912394128
643 0.1676288199488452
644 0.1677652610965938
645 0.1678053962932388
646 0.1678486172213108
647 0.1677936874175182
648 0.1677739013081137
649 0.1676406317099948
650 0.1675406071720597
651 0.1673811926816248
652 0.1672776826078243
653 0.1671299897544009
654 0.1670839390534867
655 0.1669659971296711
656 0.1669161444729148
657 0.1667967401071045
658 0.1668386161052873
659 0.166823596118149
660 0.1668033428353304
661 0.1667678024354507
662 0.1668914958617773
663 0.1669603224438619
664 0.1671711905351948
665 0.1674267979582765
666 0.1678381499199378
667 0.1683272371258341
668 0.1689554235469489
669 0.1695602886748758
670 0.1704205810776843
671 0.170905521837385
672 0.1714025121835042
673 0.1717955881573106
674 0.1722156595605792
675 0.1725063404525588
676 0.1728087981556367
677 0.1729974188744758
678 0.1731774851626089
679 0.1732453175085193
680 0.1733518824933021
681 0.1733567041141562
682 0.1733878942089144
683 0.1733292588254485
684 0.1732871374696781
685 0.1731615655572153
686 0.1730637149252438
687 0.1729309408896029
688 0.1728669167520425
689 0.1727674059940639
690 0.172708240771814
691 0.172541063937835
692 0.1724168674648758
693 0.1723003399665275
694 0.1721972080567689
695 0.172031250479371
696 0.1718535218952114
697 0.1717105739284748
698 0.1716681292784177
699 0.1716253153591688
700 0.1717495181373293
701 0.1719455521608634
702 0.1723296127684128
703 0.1728236854945003
704 0.1734770750188367
705 0.174039747308831
706 0.1748649668962361
707 0.1753376432971869
708 0.175836761399548
709 0.176222778522926
710 0.176614538755661
711 0.1768585134249179
712 0.1770796736401584
713 0.1771461669869357
714 0.177245236802607
715 0.1772010471779362
716 0.1772171308532761
717 0.177121118838763
718 0.177033399886973
719 0.1768591984697706
720 0.1767444574209954
721 0.1765469599715738
722 0.17639492366389
723 0.1762046536659559
724 0.176101754395264
725 0.1759451781317861
726 0.1758604548319641
727 0.1756730599717006
728 0.1755307431611651
729 0.1753943991037063
730 0.1753138404427258
731 0.1751885389203551
732 0.1750674665232483
733 0.1749644970755945
734 0.1749851266738505
735 0.1750020604519184
736 0.1751826791160248
737 0.1754011732519737
738 0.17581011150027
739 0.176344401164872
740 0.177017124513533
741 0.1776346111463007
742 0.1783103867206048
743 0.1788946684492956
744 0.1794851457122899
745 0.1799604184638869
746 0.1804130570453718
747 0.1807039985139972
748 0.1809632743373736
749 0.18105131053309
750 0.1811091182651269
751 0.1810144745236249
752 0.1809478392552758
753 0.180746502968948
754 0.1805776206026554
755 0.180326236895035
756 0.180138221780586
757 0.1798598299627601
758 0.1796697055589042
759 0.1794528976678473
760 0.1793100733272869
761 0.1791206052451249
762 0.1790213245718801
763 0.1788265119090675
764 0.1786845562725286
765 0.1785327845548939
766 0.17840607422827
767 0.1782069405962939
768 0.1779940357475812
769 0.1777753529110893
770 0.1776373610433037
771 0.1775202828714292
772 0.1775501573374343
773 0.1776158060852215
774 0.1778543294492626
775 0.1781749154502973
776 0.1786221597385042
777 0.1789488173743787
778 0.1795584396023463
779 0.1799195128621107
780 0.1803309467789729
781 0.1806650083131483
782 0.1810385773341563
783 0.1812871171865853
784 0.1815211138960414
785 0.1816058711304145
786 0.1816816222797665
787 0.1816386596717104
788 0.1816369163223188
789 0.1815236640162871
790 0.1814420243116063
791 0.1812884949225228
792 0.1811659170957618
793 0.1809516681593246
794 0.1808079018843448
795 0.1806289310768979
796 0.1805381251700787
797 0.1804025830245787
798 0.1803575108508341
799 0.1802101227223443
800 0.1801125237938085
801 0.1800546389323038
802 0.1800540025188317
803 0.1799735714389242
804 0.1798716361329151
805 0.1797737621758081
806 0.1797530680150156
807 0.1797383370679351
808 0.1798829126348134
809 0.1800584478101293
810 0.1804711366373118
811 0.180899988319463
812 0.1814056360626128
813 0.1817786064378568
814 0.1822449394991902
815 0.1826155003115372
816 0.1830170716289988
817 0.1833247360506213
818 0.1836522462406471
819 0.1838385301368483
820 0.1840303841114694
821 0.1841019162379205
822 0.1841720966244265
823 0.1840820613060219
824 0.1840447803285286
825 0.1838835908749965
826 0.1837546418599058
827 0.1835321789185852
828 0.1833685805030557
829 0.1831329776679953
830 0.182973057362163
831 0.1827604193265292
832 0.1826158497117152
833 0.1824326176203341
834 0.1822820296466739
835 0.1820466362015091
836 0.1818620618793862
837 0.1816904721842438
838 0.1815687667058932
839 0.1812976514689156
840 0.1811814004299722
841 0.1810734861675817
842 0.1810630391118862
843 0.1810755526027503
844 0.1812696382597346
845 0.1814797400102951
846 0.18189197924088
847 0.1823007410264382
848 0.1827893452610252
849 0.1831590969533635
850 0.1837671332863897
851 0.1840827040527584
852 0.1844461492998065
853 0.1847175213671378
854 0.185004348273146
855 0.185130158252516
856 0.185272482604227
857 0.1852832620291271
858 0.1853218800594263
859 0.1852626687787606
860 0.1852346115972231
861 0.1851126631328585
862 0.1850285121153691
863 0.1848795179295826
864 0.1847908033276095
865 0.1846057422741384
866 0.1844875322658915
867 0.1843261589545414
868 0.1842472138886257
869 0.1840913785856726
870 0.1839263651770087
871 0.1836720554386407
872 0.1835343832966994
873 0.1833099455675323
874 0.1831008178568787
875 0.1827510983078998
876 0.1825510151777263
877 0.1823279897191642
878 0.1821968323310327
879 0.1821335222221185
880 0.1822675863866163
881 0.1824750977994272
882 0.1829438810829736
883 0.1834342857656353
884 0.1839545168518581
885 0.1844011206874983
886 0.1849119026051951
887 0.1853354599228925
888 0.185821675954688
889 0.1861686735530144
890 0.1865037987260519
891 0.1866819809372097
892 0.1868464356470685
893 0.1868250105144592
894 0.1867846003249451
895 0.1866447934717255
896 0.1865262505478078
897 0.1862816893365826
898 0.1860681019958378
899 0.1857762556919688
900 0.1855639070156671
901 0.185308627937404
902 0.1851390592241092
903 0.1849125868175778
904 0.1847680806966644
905 0.1845627236783731
906 0.184371115186768
907 0.1841057291281726
908 0.1839845201706855
909 0.1837487150269716
910 0.1835706263536903
911 0.1832616199060538
912 0.1831023627696409
913 0.1829235325451488
914 0.1828508447368181
915 0.1828257886429089
916 0.1829968867321308
917 0.1832212197752817
918 0.1836585683131979
919 0.184104399213174
920 0.1846649841200273
921 0.1851514822306291
922 0.1856857140052017
923 0.1861576404995725
924 0.1866719528133318
925 0.1870193830269098
926 0.1873408825198878
927 0.1875191285887767
928 0.1876899522020424
929 0.1876808599838735
930 0.1876737323210289
931 0.1875610320546097
932 0.1874661783796759
933 0.1872560629506482
934 0.1870861782381038
935 0.1868235395350636
936 0.1866138651928932
937 0.1863483095552445
938 0.1861690953422341
939 0.1859588841340308
940 0.1858294947408219
941 0.1856593325534698
942 0.185521224021049
943 0.1853217004237264
944 0.1852843259735405
945 0.185140417021458
946 0.18500738742502
947 0.1847187488824512
948 0.1845762395744571
949 0.1843393909000108
950 0.1842433853909934
951 0.1841808070743797
952 0.1843162232105394
953 0.1845139518150753
954 0.1849289277383822
955 0.1853163774972486
956 0.1857320890907084
957 0.1860929983039101
958 0.1865128654719163
959 0.1868538077214149
960 0.1872311442723821
961 0.1874688757847931
962 0.1877180152461239
963 0.1878434957642046
964 0.1879524211980326
965 0.1879095413322555
966 0.1878737774792992
967 0.1877455508186156
968 0.1876321934332703
969 0.1874055629087765
970 0.1872121251643485
971 0.1869366911495634
972 0.1866974364609935
973 0.1863834617271305
974 0.1861566490519112
975 0.1859022035835535
976 0.1857319111464505
977 0.185528645115128
978 0.1853492563544314
979 0.1851053922660794
980 0.1850286461478915
981 0.1848970890424083
982 0.1848407630204797
983 0.1846756845743621
984 0.1846593140464469
985 0.1845888284635691
986 0.1846552865857875
987 0.1847678664702227
988 0.1850473197450929
989 0.1854175598009082
990 0.1859334101803179
991 0.1864052276571746
992 0.1868659674312158
993 0.1872394909001633
994 0.1878063996246222
995 0.1880861540001069
996 0.1883632575130598
997 0.1885081885794186
998 0.1886612993806419
999 0.1886875888799389
1000 0.1887085920955966
1001 0.1886409335408308
1002 0.1886319351543445
1003 0.188503884255818
1004 0.1884194003005027
1005 0.1882439698401236
1006 0.1881020891868501
1007 0.187871916822089
1008 0.1877179923936326
1009 0.1875021547712276
1010 0.1873620201299209
1011 0.1871730010858411
1012 0.1870457729224925
1013 0.186811068820749
1014 0.1866346882310301
1015 0.1864914973825787
1016 0.1863937752582628
1017 0.1862060895371837
1018 0.1860609888433511
1019 0.1857674006355235
1020 0.1856374934708123
1021 0.1854597546844718
1022 0.1854397284902808
1023 0.1854642364111027
1024 0.1856769348435169
1025 0.1859755308078028
1026 0.1864173313045015
1027 0.1867759851213335
1028 0.1873294419342388
1029 0.187633573713731
1030 0.1879793525543925
1031 0.1882233738659751
1032 0.1884861899199172
1033 0.1885964593007901
1034 0.1887051993458084
1035 0.1886952829169053
1036 0.1887078364448916
1037 0.1886146338216962
1038 0.188590679103477
1039 0.1884673561462328
1040 0.1884007381557224
1041 0.1882650909236177
1042 0.1881996396371546
1043 0.1880665510624518
1044 0.1880096971997811
1045 0.1878808588439593
1046 0.1878106627811517
1047 0.1876830605340656
1048 0.1876069275371223
1049 0.1873790460947878
1050 0.1871641451943716
1051 0.1869428763889195
1052 0.1867678999625076
1053 0.1864867293043776
1054 0.1861669885968984
1055 0.1858809467621156
1056 0.1857090778303369
1057 0.1854950805842653
1058 0.1854528207777097
1059 0.1854694596549292
1060 0.1856928346635895
1061 0.1860416185686914
1062 0.1865521411344971
1063 0.1870056428156174
1064 0.1875355266027286
1065 0.1879748203302847
1066 0.1886252286004584
1067 0.1890022814104348
1068 0.1893843973838878
1069 0.1896046261954872
1070 0.1898184655715464
1071 0.1898777911991439
1072 0.18990621776537
1073 0.1897983092803069
1074 0.1897073848643184
1075 0.189496011480467
1076 0.1893320092883708
1077 0.1890616021536928
1078 0.1888249208121658
1079 0.1885239799628318
1080 0.1883083574223098
1081 0.1880704092951911
1082 0.1879275565364475
1083 0.1877578994247942
1084 0.1876688264490482
1085 0.1874661696956217
1086 0.187288610927351
1087 0.1871410428661158
1088 0.1870531349453074
1089 0.186846721802215
1090 0.1865942651111134
1091 0.1863845744932688
1092 0.1862704899208331
1093 0.1860831236344373
1094 0.1860720507764938
1095 0.186111628194189
1096 0.1863190628945068
1097 0.1865791041392837
1098 0.1869664518655174
1099 0.1873142330801467
1100 0.1877231456800602
1101 0.1880498073339056
1102 0.1884412472162189
1103 0.1887781326388194
1104 0.1891426608378158
1105 0.1893565877265654
1106 0.1895813413266513
1107 0.1896773741572884
1108 0.1897633486526978
1109 0.1897095705743645
1110 0.1896853264993719
1111 0.1895241986476036
1112 0.189394809021688
1113 0.1891594096647719
1114 0.1889642519000756
1115 0.1887130404399896
1116 0.1885351396046768
1117 0.1883106745726052
1118 0.1881557922615704
1119 0.1879618756016506
1120 0.1878281217964063
1121 0.1875706549783475
1122 0.1873607080021904
1123 0.1872054920289941
1124 0.1871303608054457
1125 0.1869780141668341
1126 0.1868315187215635
1127 0.1867379394618008
1128 0.1867207547154367
1129 0.1866866176296919
1130 0.1868309385773311
1131 0.1870127315540344
1132 0.1874047047258413
1133 0.1877977907942033
1134 0.1882771743991664
1135 0.1886304337508506
1136 0.1890618503704023
1137 0.1895655782830492
1138 0.1899236984276843
1139 0.1901830198507361
1140 0.1904527941242616
1141 0.1905981243387042
1142 0.1907601455069969
1143 0.1907479062751983
1144 0.1907363628219941
1145 0.1906122455466069
1146 0.1904647084349999
1147 0.1901995328984511
1148 0.1899676187324715
1149 0.1896383645596361
1150 0.1893533686205219
1151 0.189008672485003
1152 0.1887483918320805
1153 0.1884256988548812
1154 0.1881734523259908
1155 0.1878727365000045
1156 0.1875966866193538
1157 0.1872431363203026
1158 0.1870404522488248
1159 0.1867596022120261
1160 0.1865604040248341
1161 0.1863295075812909
1162 0.1861425857890411
1163 0.1860213255442926
1164 0.186005703035478
1165 0.1860197706980366
1166 0.1862282114587412
1167 0.1864789524955377
1168 0.1869385394932341
1169 0.1874188634582137
1170 0.1879871081451758
1171 0.1884273474958874
1172 0.188921839043841
1173 0.1893206685080255
1174 0.1897374525140583
1175 0.1900373154299311
1176 0.1903242286510846
1177 0.1904424714778475
1178 0.1905398011694139
1179 0.1904863567026268
1180 0.1904234110583985
1181 0.1902726484990866
1182 0.190169400413208
1183 0.1899592081941641
1184 0.1898291737665778
1185 0.189632771239051
1186 0.1894852298524058
1187 0.1892797682583893
1188 0.1891600246158956
1189 0.1890087487560322
1190 0.1889175803247824
1191 0.1887732768768209
1192 0.1886318834329766
1193 0.188402149822709
1194 0.1882069389512707
1195 0.188026948217187
1196 0.1878923636875875
1197 0.1875886797289611
1198 0.1873815191839761
1199 0.187189945113237
1200 0.1870696233608855
1201 0.1869710338362092
1202 0.1870588313286919
1203 0.1872109732788455
1204 0.187607427848141
1205 0.1880220200177971
1206 0.1884772857663026
1207 0.1888610304013882
1208 0.189296980784136
1209 0.189650479022536
1210 0.1900030688612417
1211 0.1902455263447139
1212 0.1904718592345553
1213 0.1905406601489536
1214 0.1906142951787052
1215 0.1905529545528483
1216 0.1904673034836525
1217 0.1902742405733904
1218 0.1901291991370585
1219 0.1898602234799875
1220 0.1896359803276285
1221 0.1893328441708808
1222 0.1890928806425523
1223 0.1888012837165742
1224 0.1886260450365462
1225 0.1884151964566844
1226 0.1882919128489758
1227 0.1881345966132296
1228 0.1880227359589864
1229 0.1878165675426808
1230 0.1876242357401111
1231 0.1873574910049189
1232 0.1871480414986875
1233 0.1868570268752473
1234 0.1866956548683597
1235 0.1865187414739962
1236 0.1864409465112037
1237 0.1863703937715134
1238 0.1864808548354913
1239 0.186668529767033
1240 0.1870812025269916
1241 0.1875272681874672
1242 0.1880556566072105
1243 0.1885278657071967
1244 0.1890561620743293
1245 0.1894605028962337
1246 0.1898998655121747
1247 0.1902047523451443
1248 0.1905013093949571
1249 0.1906620758526421
1250 0.1908124361408214
1251 0.1908110955990736
1252 0.1908041204172037
1253 0.1906819303274847
1254 0.1905645736267399
1255 0.1903608309028043
1256 0.1901915257702744
1257 0.1899281469147439
1258 0.1896904331744875
1259 0.1894021109070517
1260 0.189201930593948
1261 0.1889380353665975
1262 0.188761452345281
1263 0.1885770303526493
1264 0.1884133823274128
1265 0.1881597422723424
1266 0.1880605948954283
1267 0.1878973791686049
1268 0.1877793175101659
1269 0.1875024686261096
1270 0.1873534754350427
1271 0.1871488946093547
1272 0.187058965768584
1273 0.1869710351724803
1274 0.187067933268472
1275 0.1872308682625922
1276 0.1876047998113162
1277 0.18794819254643
1278 0.1883255092050317
1279 0.1888201537761965
1280 0.1891777841330052
1281 0.1894429680123022
1282 0.189742962670785
1283 0.1899592787138582
1284 0.1901828207711547
1285 0.1903037831423119
1286 0.1904240839036652
1287 0.1904149422404867
1288 0.1904211013569501
1289 0.1903325214424108
1290 0.1902484336054369
1291 0.1900688633995778
1292 0.1899270407318952
1293 0.1896602291023542
1294 0.1894309492507505
1295 0.189142759137606
1296 0.1889392694240558
1297 0.188673541677706
1298 0.1884736807744843
1299 0.1882155664955478
1300 0.1879717792852641
1301 0.1876626867147318
1302 0.1875171262981
1303 0.187305627838087
1304 0.1871670211232003
1305 0.1868889503604332
1306 0.1867785207898705
1307 0.1866318713547728
1308 0.186623889011655
1309 0.1866544835962024
1310 0.1868796316605334
1311 0.1872234546894105
1312 0.1877273594021545
1313 0.1882140126406582
1314 0.1887280014139726
1315 0.1893868312287351
1316 0.1898399877750271
1317 0.1901843173725108
1318 0.1905142352738121
1319 0.1907224617966373
1320 0.1909001585599935
1321 0.190936967980525
1322 0.1909700816424935
1323 0.1908860195600918
1324 0.1908173696646531
1325 0.1906341323088285
1326 0.1904673166206032
1327 0.1902102265630107
1328 0.1899994867975018
1329 0.1897054010869407
1330 0.1894495316100027
1331 0.1891348947463616
1332 0.188894239389267
1333 0.1885876640622786
1334 0.1883499834108646
1335 0.188038487155878
1336 0.1877943844948185
1337 0.1875744395096016
1338 0.1874082926625809
1339 0.1871514217061165
1340 0.1869567628230523
1341 0.1866517307123579
1342 0.1865246699653185
1343 0.1863650175323711
1344 0.1863769088381924
1345 0.1864233590947288
1346 0.1866482291028529
1347 0.18697889259018
1348 0.1874427395410561
1349 0.1878629641972467
1350 0.188348278444406
1351 0.1887563521395807
1352 0.1893355053202726
1353 0.1896421152985191
1354 0.1899406251838595
1355 0.1901056658164944
1356 0.1902336644504306
1357 0.1902297335663468
1358 0.190192611187664
1359 0.1900174994238501
1360 0.1898727442834189
1361 0.1896480923163728
1362 0.1894568390010379
1363 0.1892080781621631
1364 0.1890366655036257
1365 0.188820520225585
1366 0.1886569125874496
1367 0.1884749965730047
1368 0.1883948523485327
1369 0.188278109593282
1370 0.1882335740979088
1371 0.1880933978377688
1372 0.1879883711445831
1373 0.1878830571747
1374 0.1878098879179286
1375 0.1876497135430166
1376 0.1874750610981785
1377 0.1873021186027776
1378 0.1872126555453249
1379 0.1870859548094914
1380 0.187092665597624
1381 0.1871299513699462
1382 0.1873644140740318
1383 0.1877087439685369
1384 0.1882102395717762
1385 0.188640674189723
1386 0.1891263937627711
1387 0.1895296087034852
1388 0.1899701618824318
1389 0.1903331783142038
1390 0.1906720804001349
1391 0.190855602765039
1392 0.191007944204683
1393 0.1910146184651319
1394 0.1909723104122816
1395 0.1907883649427906
1396 0.190639196458193
1397 0.1903771515720672
1398 0.1901309208816528
1399 0.189804420849962
1400 0.1895392433879536
1401 0.1892030155561279
1402 0.1889329910583681
1403 0.1886553650228118
1404 0.1884720583754397
1405 0.1882370736926966
1406 0.188088414363161
1407 0.1878519872208644
1408 0.1876681787858216
1409 0.1875059051541614
1410 0.1874038136042083
1411 0.1872228103213699
1412 0.1870350069536538
1413 0.1868496671539353
1414 0.186763436008935
1415 0.1866464518736922
1416 0.1866899686070896
1417 0.1867505047429594
1418 0.1869800289067872
1419 0.1872817758348649
1420 0.187720452941842
1421 0.1880864155596157
1422 0.1886826047813847
1423 0.1890053923064896
1424 0.1893950958910185
1425 0.189689827466016
1426 0.189998009067233
1427 0.1901896647569699
1428 0.1903984715165457
1429 0.1904477915989402
1430 0.1904736041280172
1431 0.1903638539909294
1432 0.1902764469109081
1433 0.1900454044271363
1434 0.1898451757876482
1435 0.1895905582719894
1436 0.1894297929570571
1437 0.1891860074104029
1438 0.1890313472048093
1439 0.188843352463792
1440 0.1887075950533922
1441 0.1885180189146891
1442 0.1884063606128647
1443 0.1881981244660972
1444 0.1880388112206623
1445 0.1879082324432974
1446 0.18782933236722
1447 0.1876931419723019
1448 0.1875443363515448
1449 0.1874039194680271
1450 0.1873128974301068
1451 0.1872329869995034
1452 0.1872879162026704
1453 0.1873410331605175
1454 0.187570939173817
1455 0.187904732427111
1456 0.1883241938148687
1457 0.1886319546253604
1458 0.1890241781355382
1459 0.1893489835987754
1460 0.18969918119236
1461 0.189953446333057
1462 0.1902107303748082
1463 0.1903812878706497
1464 0.1905485430760493
1465 0.1906102203783067
1466 0.1906505228051951
1467 0.1905872158234823
1468 0.1905596496737719
1469 0.1904308939071375
1470 0.1903282805120965
1471 0.1901235161717626
1472 0.1899484593300041
1473 0.1896690447964635
1474 0.1894340076170358
1475 0.1891604447431036
1476 0.1889545598775
1477 0.1886754029155148
1478 0.1884687733127514
1479 0.1881419827986466
1480 0.1878382420883003
1481 0.1875250670798385
1482 0.1872723407441623
1483 0.1869757016719021
1484 0.1867212575571963
1485 0.1865246890340518
1486 0.1864245251128941
1487 0.1863791464631767
1488 0.1865202559271954
1489 0.1866962242129435
1490 0.1871126031553986
1491 0.1875628706947952
1492 0.1881115379563653
1493 0.1887235931936772
1494 0.1891797861188768
1495 0.1895587222366961
1496 0.1899544158993385
1497 0.1902456331270343
1498 0.1905290375712716
1499 0.1906654235865587
1500 0.1907853769118968
1501 0.1907619486057632
1502 0.1907134407393988
1503 0.1905797465237078
1504 0.1904574209571193
1505 0.1902513468791822
1506 0.1900900518975342
1507 0.1898421758958871
1508 0.1896558545159832
1509 0.1894086840752031
1510 0.1892370464904886
1511 0.1890451922200321
1512 0.1889360559724189
1513 0.1887478486987853
1514 0.188568475797767
1515 0.1883156895597222
1516 0.1881128293128692
1517 0.187917081505417
1518 0.1877480033707217
1519 0.1874153863701052
1520 0.1871928780670051
1521 0.186990319899092
1522 0.1868845830063309
1523 0.1868164501189908
1524 0.1869377968306251
1525 0.1871429228835287
1526 0.1875968757675621
1527 0.188065743241448
1528 0.1885891950199531
1529 0.1890490527346152
1530 0.1895449030345686
1531 0.1899335276549614
1532 0.1903225908131383
1533 0.1906910590647051
1534 0.1908843204428293
1535 0.1909609676888044
1536 0.1910356720525328
1537 0.1909419773963267
1538 0.1908433083326488
1539 0.1906492367599284
1540 0.1904488258639354
1541 0.1901700534191583
1542 0.1899162007104757
1543 0.1895866398479744
1544 0.1893312029696929
1545 0.1890217031774483
1546 0.1888056078898483
1547 0.188580648654309
1548 0.1884487552079564
1549 0.1882724579234597
1550 0.1881210887205764
1551 0.1878931561796549
1552 0.1877913747593715
1553 0.1875904121406912
1554 0.1874300861722397
1555 0.1871285756204899
1556 0.1870040514770178
1557 0.1868629826830077
1558 0.1867914880786671
1559 0.18673763256516
1560 0.1868666126944662
1561 0.1870363693586823
1562 0.1874502399649974
1563 0.1879079145787792
1564 0.1884528534606206
1565 0.1889442694234698
1566 0.1894860366118679
1567 0.1899370188261578
1568 0.1904401791096656
1569 0.1908072273979249
1570 0.191143529543603
1571 0.1913470347827941
1572 0.1915212830123137
1573 0.1915111611734963
1574 0.1914731250998192
1575 0.1913310500857994
1576 0.1911890212108376
1577 0.1909341660940318
1578 0.1907146236617818
1579 0.1903939935396721
1580 0.1901186229781292
1581 0.1897737589669289
1582 0.1895053415453231
1583 0.1892039517565976
1584 0.1890081506309209
1585 0.1887552743279085
1586 0.188540857282586
1587 0.1882755403791985
1588 0.1881818299435044
1589 0.1880091941696646
1590 0.1878952733467928
1591 0.1876539642453726
1592 0.1875786348250834
1593 0.1874550614054009
1594 0.1873789880097001
1595 0.1873369690815297
1596 0.1874739544107838
1597 0.1876396512620061
1598 0.1880107640426395
1599 0.1883708137421495
1600 0.1887763008144951
1601 0.1890695705930431
1602 0.1893928229554969
1603 0.189635839427624
1604 0.1898989419869307
1605 0.1900278357320042
1606 0.1901511281343195
1607 0.1901718213921248
1608 0.1902206443050594
1609 0.1901404805109689
1610 0.1900928842699281
1611 0.1899816206082988
1612 0.1899015751340243
1613 0.189718975148043
1614 0.1895760382200629
1615 0.1893504806245347
1616 0.1891864991624755
1617 0.188957870177533
1618 0.1887905000265216
1619 0.1886013114259188
1620 0.188494992795622
1621 0.1883220272097141
1622 0.1881840346419227
1623 0.1879807079204217
1624 0.1879303628790462
1625 0.1877997542599438
1626 0.1877212623847087
1627 0.1875250936600869
1628 0.187479215112473
1629 0.1873523612116067
1630 0.1873469680896818
1631 0.187381589812481
1632 0.1875656959095261
1633 0.1878166310631771
1634 0.1882287789417805
1635 0.1886274641210431
1636 0.1890401832621866
1637 0.1893918672620439
1638 0.1897915296509062
1639 0.1902247273770207
1640 0.190509309140996
1641 0.1906608158372837
1642 0.190802999769289
1643 0.1908350245995449
1644 0.1908494373432771
1645 0.1907635154046727
1646 0.1907018803862373
1647 0.1905867408130504
1648 0.1905053771460251
1649 0.1903508916610739
1650 0.190230867086591
1651 0.1900373872593907
1652 0.1898994305132324
1653 0.1896758228452683
1654 0.1895144561161012
1655 0.1893205122666746
1656 0.1891857553773147
1657 0.1889714029052539
1658 0.188755479238069
1659 0.18852893760365
1660 0.1883241076036409
1661 0.1880161798089367
1662 0.1877804811613369
1663 0.1874392555795313
1664 0.1872674737856568
1665 0.1870588317029663
1666 0.1870252681166311
1667 0.1870582508903606
1668 0.1872562569484766
1669 0.1875523845429017
1670 0.1880145918837842
1671 0.1884432377530271
1672 0.1888864934642879
1673 0.1894416463022134
1674 0.1898092895736556
1675 0.1900955143557959
1676 0.1904023447164199
1677 0.1905747060561618
1678 0.1907354292733743
1679 0.1907568738594182
1680 0.190730448553943
1681 0.1905762000660414
1682 0.1904651192136645
1683 0.1902447799238216
1684 0.1900664114477717
1685 0.1898109181469461
1686 0.1896140688824105
1687 0.1893654203333724
1688 0.1891828381789776
1689 0.1889648062695273
1690 0.1888501765668065
1691 0.188699789267049
1692 0.1886395409888034
1693 0.188451392723959
1694 0.1882922565403783
1695 0.1881421619113438
1696 0.1880311361505524
1697 0.1878495721500051
1698 0.1877107910882539
1699 0.1874312434250391
1700 0.1873129318173031
1701 0.1871446186205359
1702 0.1871198130394931
1703 0.1871527371398932
1704 0.1873688160313516
1705 0.1876893840649315
1706 0.1881803229073666
1707 0.1886008941934936
1708 0.1890868675479219
1709 0.1895297855623434
1710 0.1901981363417163
1711 0.1905699152946722
1712 0.190967376979122
1713 0.1912154510415696
1714 0.1914157327952424
1715 0.1914824512111493
1716 0.1914838147369792
1717 0.1913284014759998
1718 0.1911797171976722
1719 0.1909009724806857
1720 0.1906351193353379
1721 0.1902734849984553
1722 0.189956484681933
1723 0.1895726269698563
1724 0.1892790413343187
1725 0.1889508106147034
1726 0.1886862534340698
1727 0.1883791283899147
1728 0.1881751138300169
1729 0.1878723491182752
1730 0.1876120939130106
1731 0.1873657331256626
1732 0.1871873405589801
1733 0.1869385776231697
1734 0.186679076620839
1735 0.1864663668060707
1736 0.1863791049466002
1737 0.1862663215419159
1738 0.1863146164732383
1739 0.1864245444790519
1740 0.1867128185331682
1741 0.1870847896633471
1742 0.1875928051355075
1743 0.188062429821536
1744 0.1885881070480247
1745 0.1892406384418019
1746 0.1896736114785474
1747 0.1900181090598387
1748 0.1903793626120968
1749 0.1906378153363421
1750 0.1908718450122056
1751 0.1909772526763272
1752 0.1910639652028889
1753 0.1910027905398813
1754 0.1909419564311188
1755 0.1907504242852694
1756 0.190566988684407
1757 0.190292225539399
1758 0.1900471497851494
1759 0.1897396072064186
1760 0.1895164847083397
1761 0.1892399023265914
1762 0.1890352056237745
1763 0.188814079600353
1764 0.1886792476417662
1765 0.188415555411371
1766 0.1882092852311642
1767 0.1880494574220732
1768 0.1879447823168365
1769 0.1877748719658623
1770 0.1876204490580456
1771 0.1875088897817997
1772 0.1874845655620537
1773 0.1874352860158774
1774 0.1875276799974678
1775 0.187668475173871
1776 0.1879646804186095
1777 0.1883209681007688
1778 0.1887615275957822
1779 0.1890701747619676
1780 0.1894411702513221
1781 0.1897350234636399
1782 0.1900435289103474
1783 0.1902680652200116
1784 0.1905035463343385
1785 0.1905948799548201
1786 0.1906586387663957
1787 0.1906178485019944
1788 0.1905468714164407
1789 0.1903674659200973
1790 0.1902477097748076
1791 0.1900434135947596
1792 0.1898800079216203
1793 0.1896122069950199
1794 0.1893887876358691
1795 0.189112104241813
1796 0.1889094126866249
1797 0.1886504113203124
1798 0.1884662627036688
1799 0.1882592928779753
1800 0.1881243641255424
1801 0.1878453646319818
1802 0.1876313119741785
1803 0.1874277029733855
1804 0.1872517602651731
1805 0.1870084715962799
1806 0.186793521738681
1807 0.1866147581112397
1808 0.1865162138616494
1809 0.18645352109573
1810 0.1865840193780744
1811 0.1867887893842424
1812 0.1872148946983767
1813 0.1876222332001033
1814 0.1881327090361418
1815 0.188730974830816
1816 0.1891556339231346
1817 0.18949036134585
1818 0.1898642743239496
1819 0.1901585686424633
1820 0.1904686036436126
1821 0.1906268342522786
1822 0.1907847403141268
1823 0.190817398185552
1824 0.1908288150122684
1825 0.1907177097818768
1826 0.1906146997173586
1827 0.1904295552895083
1828 0.1902701512691278
1829 0.1900430178219912
1830 0.1898670450387995
1831 0.1896286046259593
1832 0.1894746173302512
1833 0.1892541539621011
1834 0.1890983081914961
1835 0.1889005848254481
1836 0.1886906208138886
1837 0.1883880546810162
1838 0.1881488558272025
1839 0.1879424053053425
1840 0.1877785476482356
1841 0.1874547411469511
1842 0.187220298101903
1843 0.1870198223889202
1844 0.1868929350826866
1845 0.1867721116130193
1846 0.1868375071388016
1847 0.1869794226388296
1848 0.1873543387350986
1849 0.1877543564618329
1850 0.1882449277403124
1851 0.188676770495303
1852 0.1891764034563283
1853 0.1897324740144597
1854 0.1901010422307345
1855 0.1903359824380736
1856 0.1905420172306607
1857 0.1905936937906084
1858 0.1906357328391946
1859 0.1905382410270747
1860 0.1904468272330928
1861 0.1902644401032608
1862 0.1901307022208965
1863 0.1899092560977436
1864 0.189739747143076
1865 0.1894925584802158
1866 0.1892988690759883
1867 0.1890420551905672
1868 0.1888936019149077
1869 0.1887082431688034
1870 0.1886021976693982
1871 0.1884660601569678
1872 0.1883530590275415
1873 0.1881427152847896
1874 0.1880484677286102
1875 0.187859498623702
1876 0.1877079598600008
1877 0.1873918030081827
1878 0.1872051831948476
1879 0.1869834037274346
1880 0.1868510365299151
1881 0.1867320693778337
1882 0.1867875683613606
1883 0.1869199661956867
1884 0.1872727604726522
1885 0.1876627515335888
1886 0.1881367929727947
1887 0.1885414632938262
1888 0.1890016864329486
1889 0.1894115149181957
1890 0.1898777300497558
1891 0.1902217301195013
1892 0.1905728458482785
1893 0.1907780684397149
1894 0.1909644047421696
1895 0.1910122133802876
1896 0.1910572082882477
1897 0.1910022316162224
1898 0.1909349947085819
1899 0.1907459695849825
1900 0.1905740820419507
1901 0.1902962041688545
1902 0.1900243008989295
1903 0.1896875253762008
1904 0.1894385053728786
1905 0.1891294770351428
1906 0.1888879613854532
1907 0.1886195444242544
1908 0.1883825977546548
1909 0.1880757194805877
1910 0.1879391393805386
1911 0.1877304229266496
1912 0.1875807712555757
1913 0.1872749782278092
1914 0.1871118492331611
1915 0.1869442591360246
1916 0.1868844170477703
1917 0.1868301300972141
1918 0.1869549339248566
1919 0.1871461272703679
1920 0.1875528534073189
1921 0.1879683341118002
1922 0.1884424566202705
1923 0.1888237711569637
1924 0.1892507779296128
1925 0.1895989847991268
1926 0.1899751398342032
1927 0.1902106404465894
1928 0.1904538143657459
1929 0.1905650863854183
1930 0.1906624274681566
1931 0.1906332654077627
1932 0.1906271566982373
1933 0.1905049587307454
1934 0.1903843439691375
1935 0.1901739279908109
1936 0.1899981120790843
1937 0.1897360783864337
1938 0.1895159247096209
1939 0.1892385556985382
1940 0.1890622439311854
1941 0.1888167125935644
1942 0.1886273395402521
1943 0.1884142701269296
1944 0.1882062997117847
1945 0.187899010372775
1946 0.1877651480355171
1947 0.1875779161345032
1948 0.1874706072257362
1949 0.1872466759182909
1950 0.1871867423877142
1951 0.1871003904799002
1952 0.1871801872863616
1953 0.1872682033515574
1954 0.1875052455518856
1955 0.1877942171923045
1956 0.1882993361492868
1957 0.1887397224139804
1958 0.1891953161541941
1959 0.1896005779543284
1960 0.1900402274702269
1961 0.1903715582993445
1962 0.1907456424094733
1963 0.190981392166306
1964 0.1912006336385636
1965 0.1912610286000868
1966 0.1912953970031773
1967 0.1911985435925041
1968 0.1911050022709321
1969 0.1909240165785394
1970 0.1907702388535962
1971 0.1905442967640498
1972 0.1903621652780577
1973 0.1900774513268197
1974 0.1898376439266964
1975 0.1895534238861878
1976 0.1893453381030283
1977 0.1890674716579532
1978 0.1888492361576996
1979 0.188568369186536
1980 0.1882779594961201
1981 0.1878895785707235
1982 0.1876482895188318
1983 0.187342137001998
1984 0.1870977936784125
1985 0.1867126748990378
1986 0.1865156304322806
1987 0.1863008768329049
1988 0.1862623557045854
1989 0.1862915623557014
1990 0.1865223527800322
1991 0.1868677781829415
1992 0.187370900703507
1993 0.1878431438588024
1994 0.1883511621709359
1995 0.1888369402351979
1996 0.1895684503285889
1997 0.189967411868962
1998 0.1903896409511192
1999 0.190664258799965
2000 0.1909043247675606
2001 0.190967764796611
2002 0.1909873990301161
2003 0.1908749787505211
2004 0.1907830155199449
2005 0.1905605718444799
2006 0.190362942662646
2007 0.1900763707495268
2008 0.1898630663535881
2009 0.1896025401402374
2010 0.1894316740811197
2011 0.1892384460246959
2012 0.189146624776746
2013 0.1890006988619883
2014 0.1889188052113577
2015 0.1887225226384239
2016 0.1885487068196129
2017 0.1883756369251174
2018 0.1882553146989229
2019 0.1880614021872872
2020 0.1879169863118784
2021 0.1876225089975928
2022 0.1874973380153204
2023 0.1873274855161995
2024 0.1873004584354614
2025 0.1873111481434418
2026 0.1875024193579073
2027 0.1877909697241604
2028 0.1882126547269671
2029 0.1885776134855653
2030 0.1890221521518236
2031 0.1894036718434166
2032 0.1898407688917828
2033 0.1903295457643571
2034 0.190642718053772
2035 0.1908447240638547
2036 0.191033081195644
2037 0.1910848307393315
2038 0.1910998523392566
2039 0.1909942473875896
2040 0.1909157084079904
2041 0.1907130940633429
2042 0.1905179753609259
2043 0.1902345553160694
2044 0.1900100346017967
2045 0.1897109753481172
2046 0.1894906699291973
2047 0.1892556121905739
2048 0.1891237475380228
2049 0.1889478376119287
2050 0.1888682930374347
2051 0.188697759787834
2052 0.1885603749332744
2053 0.1884103949185933
2054 0.1882705718929609
2055 0.1880576867523104
2056 0.1878215149245701
2057 0.18760059167492
2058 0.1874600837314168
2059 0.187272590735674
2060 0.187225928595883
2061 0.1871908270887022
2062 0.1873210723370865
2063 0.1875210002769741
2064 0.1878674355997874
2065 0.1881637250491365
2066 0.1885285685017461
2067 0.1888181673967081
2068 0.1891859941396425
2069 0.1894916169466541
2070 0.1898294734682605
2071 0.190062970355433
2072 0.1903278721671704
2073 0.1904497910141757
2074 0.1905422001440664
2075 0.1905529095266344
2076 0.1906040709795914
2077 0.1905334611189287
2078 0.1904772573423929
2079 0.190317365963842
2080 0.1902013675616814
2081 0.189993188095066
2082 0.1897911315258083
2083 0.1895569341459275
2084 0.1893997342696496
2085 0.1891680657952602
2086 0.1889926730375209
2087 0.1887039780353802
2088 0.1884607742125648
2089 0.1882407739513599
2090 0.1880866608626245
2091 0.1878639606478605
2092 0.187632797329121
2093 0.187446543479779
2094 0.1873679872251658
2095 0.1872628387362172
2096 0.1873476402753013
2097 0.1874692019795801
2098 0.1877375500794368
2099 0.1880851483692274
2100 0.1885525450707482
2101 0.1889103038674345
2102 0.1892970383321331
2103 0.189596266009188
2104 0.1899428475693632
2105 0.1901965619136175
2106 0.1904376666900257
2107 0.1905460810255667
2108 0.19066683655542
2109 0.1906644693028696
2110 0.1906515591258164
2111 0.1905479518142608
2112 0.1904991267670702
2113 0.190338567948456
2114 0.1902072205239536
2115 0.1899852680497623
2116 0.1898066456521385
2117 0.1895443347984591
2118 0.1893404217097328
2119 0.1890908927219277
2120 0.1889159702720281
2121 0.1886711480547316
2122 0.1884832179494231
2123 0.1882195594333136
2124 0.18800794225268
2125 0.1877901445140829
2126 0.1876146829642831
2127 0.1873741691460637
2128 0.1871299768322313
2129 0.1869187463675359
2130 0.1868263507869931
2131 0.1867232305839544
2132 0.1868151882687576
2133 0.1869521899962371
2134 0.1872751127995266
2135 0.1877020062472348
2136 0.1882535782127764
2137 0.1887371907971623
2138 0.1892811606812882
2139 0.1897180084180835
2140 0.1901724696357482
2141 0.1905016122494226
2142 0.1908120817158205
2143 0.1909797802849328
2144 0.191150251379154
2145 0.191182913986208
2146 0.1912017094518249
2147 0.1911019458408702
2148 0.1910350905316451
2149 0.1908558747262131
2150 0.1907129652370437
2151 0.1904856017011904
2152 0.1902957456519094
2153 0.1900059559595794
2154 0.1897730700824965
2155 0.1895017128469381
2156 0.189313425215657
2157 0.189052910647056
2158 0.1888625281189931
2159 0.1885770222495432
2160 0.1883302742185166
2161 0.188080413232064
2162 0.1878808750460591
2163 0.1876072891487267
2164 0.1873270442114634
2165 0.1870640676215153
2166 0.1868939199039615
2167 0.1867455313205386
2168 0.1867793730840344
2169 0.1868716075760399
2170 0.1872290772728073
2171 0.1876456793159491
2172 0.1881782008341628
2173 0.1887698167047358
2174 0.1892340880287206
2175 0.1896220509713882
2176 0.1900321693030732
2177 0.1903356393011163
2178 0.1906040819705279
2179 0.1907137269046022
2180 0.1908167667431289
2181 0.1907574254774708
2182 0.1906517404134413
2183 0.1904640744573441
2184 0.1902827780698969
2185 0.1899792983526554
2186 0.1897223462819157
2187 0.1893840575122639
2188 0.1890975747063719
2189 0.1887547978864985
2190 0.1885227333017492
2191 0.188285200030449
2192 0.1881610586242088
2193 0.1880030543071177
2194 0.1879088383122672
2195 0.1877711735058689
2196 0.1876829763762021
2197 0.1876190640237183
2198 0.1876067398485152
2199 0.1874202361848503
2200 0.1873209342321755
2201 0.187217779541909
2202 0.1871740576602594
2203 0.1871260432821137
2204 0.1872448287462433
2205 0.1873938902895739
2206 0.187777276215781
2207 0.1881754710512069
2208 0.1886062522050594
2209 0.1889642235328503
2210 0.1893904845321968
2211 0.1897491613097146
2212 0.1901508421171753
2213 0.1904542778638016
2214 0.1907400997380935
2215 0.1908931680252643
2216 0.19105730485064
2217 0.1910894553989576
2218 0.1910952867948291
2219 0.1910026679678207
2220 0.1909003222683653
2221 0.1906969497307316
2222 0.1905229358320371
2223 0.1902693182761259
2224 0.1900611136689115
2225 0.1897700385523545
2226 0.1895445927808435
2227 0.1892711906638346
2228 0.1890670753701396
2229 0.1888041830985128
2230 0.1885708071876704
2231 0.188274248029329
2232 0.188061001449372
2233 0.1877779471003706
2234 0.187568659136318
2235 0.1873040647373768
2236 0.1871829754526491
2237 0.1870435563103296
2238 0.1869705812894606
2239 0.1868922128856493
2240 0.1869752623637451
2241 0.1870680020741304
2242 0.1873664117434977
2243 0.1876873471879981
2244 0.1880756889910099
2245 0.188382396363249
2246 0.1887569237547435
2247 0.1890459304540255
2248 0.1893906108523123
2249 0.1896386348376796
2250 0.1898950408245862
2251 0.1900371726974997
2252 0.1902260831907376
2253 0.1902500234981639
2254 0.1902810021362965
2255 0.1902195921533563
2256 0.1901806412370917
2257 0.1900357990699696
2258 0.189939302810019
2259 0.1897573412207423
2260 0.1896291544066152
2261 0.1894040753075785
2262 0.1892319952569627
2263 0.1890242164439422
2264 0.1889001250543755
2265 0.1886881187610439
2266 0.1884688726717561
2267 0.1881702537460697
2268 0.1880239023725805
2269 0.1877881030195663
2270 0.1876065731774287
2271 0.1872988054406718
2272 0.1871768916962606
2273 0.1870318890688869
2274 0.1869804097202173
2275 0.1869719985363009
2276 0.1871307695077022
2277 0.187319113218282
2278 0.1877358902531221
2279 0.1881594196185292
2280 0.1886216723402419
2281 0.1889936331856063
2282 0.1894006420636505
2283 0.1897208864702284
2284 0.1901156262124494
2285 0.1903756875913128
2286 0.1906022204485586
2287 0.1906985295564858
2288 0.1908002404342234
2289 0.1907407236864433
2290 0.1906844187517217
2291 0.1905747158744696
2292 0.1905132971685328
2293 0.1903665216119182
2294 0.1902812208716937
2295 0.1901130574242711
2296 0.1900010486124769
2297 0.1897883658208779
2298 0.189618698241413
2299 0.1893976239421309
2300 0.1892412864058747
2301 0.1889692501651074
2302 0.1887142280698988
2303 0.1883909275751381
2304 0.1882005760633993
2305 0.1878880340184236
2306 0.1876284979558906
2307 0.1872121196965795
2308 0.1869471106185036
2309 0.1866850664475915
2310 0.1865356957219966
2311 0.1864372617664404
2312 0.1865466534118307
2313 0.1867093058093935
2314 0.1870981304046102
2315 0.187511048729264
2316 0.1880113052374852
2317 0.1884312577011411
2318 0.1890834068307263
2319 0.1894341649855735
2320 0.189839508185363
2321 0.1901271843008432
2322 0.1904000974049516
2323 0.1905699526133106
2324 0.1907538329405708
2325 0.1907635231397548
2326 0.1907560352887787
2327 0.1906469720673267
2328 0.1905082608434643
2329 0.1902545728681245
2330 0.190063483052165
2331 0.189825123038189
2332 0.1896535333455082
2333 0.1894342369868947
2334 0.1893058088899715
2335 0.1891475891978142
2336 0.1890670415389378
2337 0.1889160924300381
2338 0.1887581012499011
2339 0.1885102496283274
2340 0.1883908017247461
2341 0.1881611821254245
2342 0.1879969205641932
2343 0.1876895620004012
2344 0.1875414980563149
2345 0.1873526723116448
2346 0.1873187306545544
2347 0.1873077902209748
2348 0.1874711207026472
2349 0.1877444839523153
2350 0.1881716480515689
2351 0.188570736534585
2352 0.188987494794519
2353 0.1894905823404534
2354 0.1898555145728155
2355 0.1901455812888483
2356 0.190446368217059
2357 0.1906174785295066
2358 0.1907717997393922
2359 0.1907937716559996
2360 0.1907792259979973
2361 0.1906108462824853
2362 0.1904332046787721
2363 0.190176865401598
2364 0.1899287432926947
2365 0.1895928335042976
2366 0.1893192252356556
2367 0.1889807927216007
2368 0.1887037205012716
2369 0.1884071351238452
2370 0.188218013917537
2371 0.1880183199790902
2372 0.1879292217652723
2373 0.1877568474290582
2374 0.1876607920837493
2375 0.1875861523094138
2376 0.1875416658262694
2377 0.1874252322543377
2378 0.187366324029005
2379 0.1871770616072835
2380 0.187137724534256
2381 0.1870387512453639
2382 0.1870650967039902
2383 0.1871333913061131
2384 0.187371983523471
2385 0.1876687232483749
2386 0.1881117792510711
2387 0.1885272500700265
2388 0.1890956223386803
2389 0.1894127806700232
2390 0.1897789048354302
2391 0.1900606573281212
2392 0.1904043808357978
2393 0.1906346119483472
2394 0.1908654981242457
2395 0.1909829694620145
2396 0.1910741355388153
2397 0.1910391908117101
2398 0.1910200273878581
2399 0.1908781884856038
2400 0.1907473517342593
2401 0.1905205150849571
2402 0.1903185623767086
2403 0.1900453869694762
2404 0.189832762948737
2405 0.1895669728459427
2406 0.1893763129800436
2407 0.1891305405696745
2408 0.1889645955016573
2409 0.1886761965451714
2410 0.1884404864748509
2411 0.1882456536321185
2412 0.1881039447683618
2413 0.1878751763491585
2414 0.1876261761201326
2415 0.1874141950001153
2416 0.1873131578180777
2417 0.1871798109371219
2418 0.1872065488837431
2419 0.1872773888365679
2420 0.1875417106953749
2421 0.1878654899472108
2422 0.188318019931137
2423 0.1887055856362833
2424 0.1891430345552366
2425 0.1894924396262664
2426 0.1898623221671391
2427 0.1901065891005067
2428 0.1903603841905643
2429 0.1904869393869163
2430 0.1905975386266564
2431 0.1906109936243457
2432 0.1906370446044748
2433 0.1905368797545709
2434 0.1904777690444875
2435 0.1903287872093273
2436 0.1902339212154459
2437 0.1900314882539905
2438 0.1898555080719516
2439 0.1895980843446011
2440 0.1894027428798106
2441 0.1891402804743256
2442 0.1889413037161409
2443 0.188704089949889
2444 0.1885714770438061
2445 0.1883350267278837
2446 0.1881502950594071
2447 0.1879702460522383
2448 0.1878310338506168
2449 0.1875964726762266
2450 0.1873486160604854
2451 0.1871258174950422
2452 0.1870348916573724
2453 0.1869076647316003
2454 0.1869347601630796
2455 0.1870241269892942
2456 0.1873096909805301
2457 0.1876746365274816
2458 0.1881731711031746
2459 0.1885969619180504
2460 0.1890646676922171
2461 0.1894382750289709
2462 0.189814650659077
2463 0.1901214922453182
2464 0.1904421796327844
2465 0.1906199457939006
2466 0.190778385408328
2467 0.1908256653349859
2468 0.190845718489203
2469 0.1907282242656273
2470 0.1906536438357752
2471 0.1905101013583222
2472 0.1904170318468281
2473 0.1902348483515253
2474 0.1901156288440459
2475 0.1899319757372894
2476 0.1898020431774566
2477 0.1896300537439085
2478 0.1895249559109962
2479 0.1893699069681404
2480 0.1892818655852862
2481 0.1890469194767755
2482 0.1888279364970331
2483 0.1886119883603892
2484 0.1884178010118462
2485 0.1880988599185666
2486 0.187761767795126
2487 0.1874358062885054
2488 0.1872140687770661
2489 0.1869435877690105
2490 0.1868290252247363
2491 0.1867926101116875
2492 0.1869816536173075
2493 0.1872668072122974
2494 0.1877003572140043
2495 0.1881123590430782
2496 0.1886022667803616
2497 0.1890229132244673
2498 0.1894969626510217
2499 0.1898804362895078
2500 0.1902568212223976
2501 0.1904831839713682
2502 0.1906980288587999
2503 0.1907769157614306
2504 0.1908335148581518
2505 0.1907461745431713
2506 0.1906977627295032
2507 0.1905359345127888
2508 0.1903879769030526
2509 0.1901242691942854
2510 0.1899092865495361
2511 0.1896206110233129
2512 0.1894188009165601
2513 0.1891794722485765
2514 0.1890218008814102
2515 0.1888258669435408
2516 0.1887077162710986
2517 0.1884825218633095
2518 0.188310447113952
2519 0.1881670560905384
2520 0.1880624573534417
2521 0.1878615208026199
2522 0.1876547729283524
2523 0.1874853846081077
2524 0.1873768058511156
2525 0.1872414194060046
2526 0.1872788843783285
2527 0.1873532617190923
2528 0.1876082519663872
2529 0.1879443070971931
2530 0.1884054533543096
2531 0.1887726644084803
2532 0.1892326554855977
2533 0.1897935363298105
2534 0.190198669387609
2535 0.1904982574319125
2536 0.1907961383604507
2537 0.1909661962970336
2538 0.1911198225349346
2539 0.1911160627658545
2540 0.1911151267593994
2541 0.190971463281008
2542 0.1908538277594869
2543 0.1906300809689034
2544 0.1904502975092769
2545 0.1901681726101588
2546 0.1899393733664347
2547 0.1896142402401066
2548 0.1893784715315852
2549 0.1890966511921824
2550 0.1888906152304181
2551 0.1886536248615203
2552 0.1884995253458623
2553 0.1882370210849925
2554 0.1880381603781733
2555 0.1878625723055796
2556 0.1877170308536888
2557 0.1875039926296318
2558 0.187321266056295
2559 0.1871813480215567
2560 0.1871085419823585
2561 0.187049242084103
2562 0.1871482250316439
2563 0.1872819999127396
2564 0.1876268042830097
2565 0.1879871691822634
2566 0.1884343417836646
2567 0.1887527899645176
2568 0.1891537549562049
2569 0.1894597156757788
2570 0.1898012244138578
2571 0.1900389956639638
2572 0.190300545317111
2573 0.1904190844890175
2574 0.1905554620995886
2575 0.190560534885129
2576 0.1905747755767191
2577 0.1904923135684774
2578 0.1904325286535478
2579 0.1902807405350888
2580 0.1901811901269054
2581 0.1899647987618405
2582 0.189778835732603
2583 0.1895193210392226
2584 0.1893244660722423
2585 0.1890817328243792
2586 0.1889223808593457
2587 0.1887081749519568
2588 0.1885125470650995
2589 0.1882231572946799
2590 0.1879967976400237
2591 0.1878041791999557
2592 0.1876934170498366
2593 0.187427414730706
2594 0.1872977659012105
2595 0.1872208359463579
2596 0.1872409701455549
2597 0.1872915923919936
2598 0.187526354769535
2599 0.1877942726651705
2600 0.1882929611588786
2601 0.1887817315195502
2602 0.1892687865546518
2603 0.1896430716185933
2604 0.1900576130866858
2605 0.1903774472269285
2606 0.1907044560255021
2607 0.1909296593371923
2608 0.1911361164262148
2609 0.1911677883354446
2610 0.1911748690013454
2611 0.1910477036117527
2612 0.1908922538333022
2613 0.1906120077254166
2614 0.1903625520382795
2615 0.1900449327139772
2616 0.1898030648334033
2617 0.1894963695452646
2618 0.1892793358660691
2619 0.1890170204594887
2620 0.1888706648224155
2621 0.1886759964856753
2622 0.1885454725892504
2623 0.1883748131047941
2624 0.1882158564989207
2625 0.1879495507772586
2626 0.1877287204238132
2627 0.1874291983790432
2628 0.1872198203756612
2629 0.1869549171103529
2630 0.1868339866854569
2631 0.1867133592368168
2632 0.186701682559078
2633 0.1866892361211123
2634 0.1868444576410226
2635 0.1870525000085006
2636 0.1874855690139455
2637 0.1879128400584075
2638 0.1884035497501378
2639 0.1888223491044549
2640 0.189283971088415
2641 0.1896345033578401
2642 0.1900119929143239
2643 0.1902896286253575
2644 0.1905681194791026
2645 0.1906947786395376
2646 0.1908094542277844
2647 0.1907831649833368
2648 0.1907641268116015
2649 0.1906145791176233
2650 0.1904593855206947
2651 0.1902164629348993
2652 0.1900262644791427
2653 0.1897595213165435
2654 0.189555387988068
2655 0.1893180920435028
2656 0.1891846064761437
2657 0.1890146409146524
2658 0.1889199786231738
2659 0.1887826556790891
2660 0.1886486293378688
2661 0.1883976481111363
2662 0.1882797010569869
2663 0.1880849755527898
2664 0.1879326835612093
2665 0.187613860247366
2666 0.1874559211684148
2667 0.1872778069063706
2668 0.1871754499431734
2669 0.1870826753241084
2670 0.1871523236624232
2671 0.187285942278594
2672 0.1876557051024206
2673 0.1880416773168365
2674 0.1885038078272677
2675 0.1889092388076868
2676 0.1893755692732229
2677 0.1897785288417316
2678 0.1902481762922692
2679 0.1905826535447474
2680 0.1909155877917713
2681 0.1910949967830596
2682 0.1912374126942235
2683 0.1912153710643937
2684 0.19118718641938
2685 0.1910329730227029
2686 0.1908873347072993
2687 0.1906414493492785
2688 0.1904168573480377
2689 0.1900685121871364
2690 0.1897774821585711
2691 0.1894350323531993
2692 0.1891762188761732
2693 0.1888530505116422
2694 0.1886284264670241
2695 0.1883591940673577
2696 0.1881236532848561
2697 0.1878072083612995
2698 0.18766532022239
2699 0.1874526800248904
2700 0.1872933831817757
2701 0.1869971276901408
2702 0.18686078877145
2703 0.1866484414257983
2704 0.1865720009162963
2705 0.1865439721951428
2706 0.1867094229125222
2707 0.1869128091369627
2708 0.187345317369343
2709 0.1877598210910104
2710 0.1882380179561478
2711 0.1886285959268471
2712 0.1890630284376698
2713 0.189392764080052
2714 0.1897846583503015
2715 0.1900721415246446
2716 0.1903740778045042
2717 0.1905646841533297
2718 0.1907617385752965
2719 0.1908187191209829
2720 0.190898813671192
2721 0.1908764847896436
2722 0.1908554711673335
2723 0.190727078025399
2724 0.1906125143369905
2725 0.1903897419445496
2726 0.1902145130303337
2727 0.1899627934910409
2728 0.1897615331157461
2729 0.1894944681980021
2730 0.1893052714082373
2731 0.1890507531472775
2732 0.1888063458611238
2733 0.1884726881961838
2734 0.1882986994245451
2735 0.1880342701790118
2736 0.1878199935967646
2737 0.1874791360074157
2738 0.1872963999603497
2739 0.1870661906931593
2740 0.1869834353445048
2741 0.1869552692737154
2742 0.1871084595848608
2743 0.1873712843393603
2744 0.1877975963121816
2745 0.1881951725584466
2746 0.1886103668200441
2747 0.188980190123234
2748 0.189392997204634
2749 0.1896837576790784
2750 0.1899914022701107
2751 0.1901785354608665
2752 0.1903528865713065
2753 0.1903941122514759
2754 0.1904276078959095
2755 0.1903136282983905
2756 0.1902131532819415
2757 0.1900510328124928
2758 0.1899131644996263
2759 0.1896876680420032
2760 0.1895103592453352
2761 0.1892614616625806
2762 0.1890567233652448
2763 0.1888059011817655
2764 0.1886406962855858
2765 0.188429696825207
2766 0.1882908743064435
2767 0.1880596092167987
2768 0.187896551228887
2769 0.1876470050468847
2770 0.18754415091236
2771 0.1873905372916238
2772 0.1872456699553756
2773 0.187065451303673
2774 0.1870352634592823
2775 0.1869534264802168
2776 0.1870398985144966
2777 0.1871853563209474
2778 0.1875361103600592
2779 0.1880041882213706
2780 0.1886254179113219
2781 0.189160177847796
2782 0.1896812967935483
2783 0.190293811549333
2784 0.1906868266274307
2785 0.1909609427869757
2786 0.1912226745524819
2787 0.1913234363021966
2788 0.1914212803402565
2789 0.191369125186385
2790 0.1912732492301219
2791 0.1910592590624947
2792 0.1909017366516533
2793 0.1906152361360816
2794 0.1903598472260036
2795 0.1900437993534807
2796 0.1898051226323302
2797 0.1894999708579718
2798 0.1892780180882708
2799 0.189049763717512
2800 0.1889270103553925
2801 0.1887577583927411
2802 0.1886517303491521
2803 0.1884617231038342
2804 0.1883348983448114
2805 0.1882079205806147
2806 0.1881093249844598
2807 0.1879323071226324
2808 0.1877226742559294
2809 0.1874995832305811
2810 0.187360763513231
2811 0.1871633572531322
2812 0.187103918594255
2813 0.1870764034236765
2814 0.187244120552911
2815 0.1875115736592602
2816 0.1879345235961987
2817 0.1882987143264066
2818 0.1887407201715953
2819 0.1891166245451455
2820 0.1895449806372321
2821 0.1898704837739126
2822 0.1901716274538803
2823 0.190338728312362
2824 0.1905015834645537
2825 0.1905218003696886
2826 0.1905126949427715
2827 0.1903847317608155
2828 0.1903154269392251
2829 0.1901168300161645
2830 0.1899298492564394
2831 0.1896895201334024
2832 0.1894909815553941
2833 0.1892089325932481
2834 0.1890253779239011
2835 0.1888346878720755
2836 0.18872359759367
2837 0.1885734448036414
2838 0.1885014639248271
2839 0.1883442089209887
2840 0.1882369632690308
2841 0.1881253086827267
2842 0.1880502114942331
2843 0.1879171212202306
2844 0.1877357891755884
2845 0.1875600963274668
2846 0.1874941399061455
2847 0.187381676549196
2848 0.1874161200591266
2849 0.1874986423067739
2850 0.1877469271754177
2851 0.1880873643004884
2852 0.1885536445756131
2853 0.189118750001897
2854 0.1894977868320649
2855 0.1898186111723305
2856 0.1901767568964464
2857 0.190441889235169
2858 0.1907362930346742
2859 0.1909113842240131
2860 0.1910928415129238
2861 0.1911271149178687
2862 0.1911248345078425
2863 0.1909922137940142
2864 0.1908939392477526
2865 0.1906658392679788
2866 0.1904723223607419
2867 0.1902062733658652
2868 0.1899775251076035
2869 0.1896537706124761
2870 0.1894278206931457
2871 0.1891619764211207
2872 0.1889768499853343
2873 0.1887230841001391
2874 0.1885586193444422
2875 0.1882909294893074
2876 0.1880837675985286
2877 0.1878143654490456
2878 0.1876182235627241
2879 0.187378480144967
2880 0.1872279699828656
2881 0.1870675587766002
2882 0.1869849095723634
2883 0.1868924148682645
2884 0.1869590681825676
2885 0.187065874979146
2886 0.1873993153085383
2887 0.1877271742480721
2888 0.1881638414422587
2889 0.1884733379571443
2890 0.1888584432367453
2891 0.1891799451088346
2892 0.1895499103350025
2893 0.1898353454034284
2894 0.1901403342522824
2895 0.1903283338469266
2896 0.1905286096267002
2897 0.1906202909251253
2898 0.1906935854059965
2899 0.1906469359214893
2900 0.1906564343217647
2901 0.1905570118116708
2902 0.1904735229703493
2903 0.1903125482906048
2904 0.1901899692442055
2905 0.189981511875741
2906 0.1898381547864869
2907 0.1896344135911393
2908 0.1894820357877306
2909 0.1892524298248435
2910 0.1890488923279582
2911 0.1886904701766526
2912 0.1883937101166059
2913 0.188106266087456
2914 0.1878940358681961
2915 0.1876307255873983
2916 0.1873592411440592
2917 0.1871540117635216
2918 0.1870640069937743
2919 0.1870008498976919
2920 0.1871163891530828
2921 0.1872974363712561
2922 0.1877106588141729
2923 0.1881367707978304
2924 0.1886514206900499
2925 0.1890451814027828
2926 0.1896948342267517
2927 0.1900442005436649
2928 0.1904457567524078
2929 0.1907216359567396
2930 0.1909827338605262
2931 0.1910838825921385
2932 0.1911855818912905
2933 0.1911274385193731
2934 0.1910491314949962
2935 0.1908718178346835
2936 0.190706261337157
2937 0.1904263365682537
2938 0.1901781782697964
2939 0.1898875121195654
2940 0.1896450486094179
2941 0.1893316325127802
2942 0.1891085634701057
2943 0.1888500525451453
2944 0.1886558544285452
2945 0.1884210174301234
2946 0.1882053338030832
2947 0.1879177724930475
2948 0.1877813190000047
2949 0.1875412158838525
2950 0.1873553386573102
2951 0.1871225167954335
2952 0.1868946440167086
2953 0.1867105973755582
2954 0.1866247877433219
2955 0.1865771280456763
2956 0.1867205156279523
2957 0.1869527068922222
2958 0.1874185649521763
2959 0.1879227403205845
2960 0.1885219866298148
2961 0.1890455957447799
2962 0.1895902041965494
2963 0.1900490115129091
2964 0.1905135854231477
2965 0.1908465603080395
2966 0.1911394940644264
2967 0.1912793061605709
2968 0.1913954432953229
2969 0.1913530972488163
2970 0.1912746188141247
2971 0.1911192033014019
2972 0.1909888440748136
2973 0.1907186865620092
2974 0.1904861125773683
2975 0.1902001078882677
2976 0.1899731213102114
2977 0.1896628611185034
2978 0.1894670292474323
2979 0.1892678037497627
2980 0.189175981092243
2981 0.1890328520622507
2982 0.1888981939872626
2983 0.1886806437895045
2984 0.1885108113578112
2985 0.1882466873681306
2986 0.1880377654701252
2987 0.1877623742554444
2988 0.187620208605028
2989 0.1874340339181926
2990 0.1873185647829823
2991 0.1872337976276826
2992 0.1873315431646315
2993 0.1874510603078911
2994 0.1877759619441397
2995 0.1881319197511437
2996 0.1885527602270651
2997 0.1888766356873402
2998 0.1892652260047602
2999 0.1895978797871174
3000 0.1899887295756039
3001 0.1902324561499477
3002 0.1904705248709268
3003 0.1905802103534225
3004 0.1906921903048439
3005 0.1906523196013989
3006 0.1906076421375653
3007 0.190475657676886
3008 0.1903506990540846
3009 0.1900903375408472
3010 0.1898567708485563
3011 0.1895480103775111
3012 0.1892878815576615
3013 0.1889535422586154
3014 0.1887325561159908
3015 0.1884943047657264
3016 0.1883545270291294
3017 0.1881965569646139
3018 0.1880722330857057
3019 0.1878905319445585
3020 0.187868809448622
3021 0.1877544183845224
3022 0.1876852909859706
3023 0.187483631577463
3024 0.187419893539813
3025 0.1873174807847549
3026 0.1873060466881375
3027 0.1873305761000176
3028 0.1875340262716976
3029 0.1877499457480477
3030 0.1881606357587053
3031 0.1885513120333011
3032 0.1890031852498786
3033 0.1893388304891732
3034 0.1896966059955037
3035 0.1899575921936234
3036 0.1902410580570607
3037 0.1904132698323956
3038 0.1905960636306791
3039 0.1906706518094302
3040 0.1907525314464059
3041 0.1907012751851346
3042 0.190658252209787
3043 0.1905516382069518
3044 0.1904689673851521
3045 0.1902904954668733
3046 0.1901576399682645
3047 0.1899639917114087
3048 0.1898079344427759
3049 0.1895904252592776
3050 0.1894379086874628
3051 0.1892432817727279
3052 0.1891215673275097
3053 0.1889237441671484
3054 0.1887439764526017
3055 0.1884843256946581
3056 0.1883666167415173
3057 0.1881557502418997
3058 0.1880199215973707
3059 0.1877628817217057
3060 0.1876419502475419
3061 0.1874696196324803
3062 0.1874410940431532
3063 0.1874367170889256
3064 0.1876014734653215
3065 0.1878620861662686
3066 0.1882620018318989
3067 0.1886315786390669
3068 0.189160773526745
3069 0.189438097743024
3070 0.1897700948039237
3071 0.1899975371519521
3072 0.1902574609431545
3073 0.1903637842588038
3074 0.1904710527860397
3075 0.1904452159932568
3076 0.1904341234845216
3077 0.1903068268985679
3078 0.1902272749548149
3079 0.1900738376730949
3080 0.1899762398972455
3081 0.1897783337129026
3082 0.1896236429295975
3083 0.1893987256597519
3084 0.1892157289940264
3085 0.1889964734109609
3086 0.1888565666718977
3087 0.1886484832056709
3088 0.1885117406305507
3089 0.1882787844822389
3090 0.1880787240945022
3091 0.1877979547601771
3092 0.1876619179400152
3093 0.1874263261625527
3094 0.1871697674446732
3095 0.1868954580564847
3096 0.1867649377376511
3097 0.1865998306384252
3098 0.1866196200053364
3099 0.1867108936501203
3100 0.18700700103071
3101 0.1874429434689927
3102 0.1880366669346533
3103 0.1885835411886468
3104 0.189164458956788
3105 0.1896829964430019
3106 0.1902166890263604
3107 0.1906482044128249
3108 0.1910849433526385
3109 0.1913448403880613
3110 0.1915493009605736
3111 0.1916011230698404
3112 0.1916272756948407
3113 0.1914899950625214
3114 0.1913647297855619
3115 0.1911275942460809
3116 0.190916308280251
3117 0.1906053828309831
3118 0.1903396237700276
3119 0.1900071313412186
3120 0.189735389032767
3121 0.1894141686412944
3122 0.1891804079572507
3123 0.1888936236105203
3124 0.1886811256707498
3125 0.188379328901529
3126 0.1881343570798935
3127 0.1878072139421392
3128 0.1876328291246524
3129 0.1873733958171428
3130 0.1870909306012291
3131 0.1868094372322943
3132 0.1866935906099452
3133 0.1865237132762078
3134 0.1865065612789014
3135 0.1865322842578985
3136 0.186741506075568
3137 0.1870494176789622
3138 0.187517194167776
3139 0.187941095777786
3140 0.1884497977162795
3141 0.1888876178567108
3142 0.1893739765633453
3143 0.1897613491144735
3144 0.1901672301195659
3145 0.1904270339043963
3146 0.1906795548003749
3147 0.190792175725347
3148 0.1908872531495461
3149 0.1908262284992309
3150 0.1907801519914057
3151 0.1906215870524628
3152 0.1904915896294349
3153 0.1902400734542372
3154 0.1900279433667761
3155 0.1897551258817547
3156 0.189539651535614
3157 0.1892793283533084
3158 0.1891131203849984
3159 0.1889135895015211
3160 0.1888057426514208
3161 0.1885799612007144
3162 0.1883893879469297
3163 0.1881341054170895
3164 0.1879417813879907
3165 0.1876715138318621
3166 0.187501379923539
3167 0.1873524989804091
3168 0.187304050387032
3169 0.1872017042154409
3170 0.1872611721541988
3171 0.1873538104584901
3172 0.1876363983539474
3173 0.1880039142320701
3174 0.1885042240098738
3175 0.1889021384876043
3176 0.18934504262127
3177 0.18968716570518
3178 0.1900744492199611
3179 0.1904026014539895
3180 0.1907263643250907
3181 0.1909052664541504
3182 0.1910923341737921
3183 0.1911400244841995
3184 0.1911528394917471
3185 0.191020244547033
3186 0.190908438607871
3187 0.1906720230951467
3188 0.1904785880120576
3189 0.1901734446029857
3190 0.1899125668310545
3191 0.1895942392703311
3192 0.1893436691885953
3193 0.1890235640081559
3194 0.1887904665278944
3195 0.1885154461208222
3196 0.1882961020273248
3197 0.187956861671853
3198 0.1876918417137739
3199 0.1874861741802742
3200 0.18734756218846
3201 0.1871479201627269
3202 0.186968806760472
3203 0.186844749622299
3204 0.1867874216450684
3205 0.1867408001535114
3206 0.1868579757111352
3207 0.1870006168437694
3208 0.1873040695585405
3209 0.1876668570626421
3210 0.1881351724059073
3211 0.188488211909775
3212 0.1889348130040848
3213 0.1894464811639434
3214 0.1897899518012859
3215 0.1900415998782018
3216 0.1902959953503855
3217 0.1904101194833235
3218 0.1905394352340217
3219 0.1905570431531019
3220 0.1905758922985256
3221 0.1904739391967557
3222 0.1904092362927213
3223 0.1902453793651385
3224 0.1901330520906123
3225 0.1899511398755493
3226 0.1898403672329383
3227 0.1896705522887002
3228 0.1895648786609291
3229 0.1894093249279858
3230 0.1893350140676101
3231 0.1892177811699791
3232 0.1891504165538548
3233 0.1889386904489508
3234 0.1887631037712026
3235 0.1885914069154698
3236 0.188446189162777
3237 0.1882132478822914
3238 0.1879636585752806
3239 0.1877583433016156
3240 0.187643704868092
3241 0.1875535101472316
3242 0.1876284414567769
3243 0.1877298168923468
3244 0.1880602838950182
3245 0.188413746484894
3246 0.1888602285680583
3247 0.1891749035865196
3248 0.1895674240756418
3249 0.1898476039909688
3250 0.1901515374760455
3251 0.1903638403416527
3252 0.1905815667691269
3253 0.1906451541740441
3254 0.1907385179608251
3255 0.1906971399237236
3256 0.1906481746262584
3257 0.1904563291248594
3258 0.1903234842788123
3259 0.1900732438594974
3260 0.1898775991647407
3261 0.1896022215558364
3262 0.1894065955018
3263 0.1891378192035148
3264 0.1889503510790423
3265 0.1887404398250834
3266 0.1886234209480099
3267 0.1884393933228446
3268 0.1882835459093596
3269 0.1880428937216757
3270 0.1878426864423118
3271 0.1876375434368121
3272 0.1874941095877355
3273 0.1872019740005417
3274 0.1870171222035613
3275 0.1868540361699239
3276 0.1867747330679146
3277 0.1867083925213898
3278 0.1868070401452775
3279 0.1869550006727262
3280 0.1873559365002006
3281 0.1877885912386901
3282 0.1883399873483848
3283 0.1887838980997573
3284 0.1892994767400387
3285 0.1897201272781635
3286 0.190167032017197
3287 0.1905079188688379
3288 0.1908428648120543
3289 0.1910166925589575
3290 0.19116666098154
3291 0.1911791003768749
3292 0.1911770963928602
3293 0.1910554742495248
3294 0.1909292166595132
3295 0.190677059770862
3296 0.1904744034167162
3297 0.1901810258664992
3298 0.1899478505006271
3299 0.1896637894230009
3300 0.1894786562382781
3301 0.1892698297966904
3302 0.189162748202156
3303 0.1890209066392572
3304 0.1888953291604916
3305 0.188681464191221
3306 0.1885014333600549
3307 0.1883425184297138
3308 0.1882211183774286
3309 0.1878970915147714
3310 0.1876968820397907
3311 0.1874749828799903
3312 0.1873397291467797
3313 0.1872052644867588
3314 0.1872355549215459
3315 0.1873122519135502
3316 0.1876128678014685
3317 0.1879338841590444
3318 0.1883355718300886
3319 0.1886835829496828
3320 0.1891085771884794
3321 0.1894509271170612
3322 0.1898280302442131
3323 0.1901107661703759
3324 0.1903930104675692
3325 0.190530969366652
3326 0.1906814617546589
3327 0.1906880687863759
3328 0.1907061274088832
3329 0.1906134259292414
3330 0.1905064324831133
3331 0.1903191088498546
3332 0.190181014284774
3333 0.1899288500555222
3334 0.1897218932421746
3335 0.189452849147965
3336 0.189245075257685
3337 0.1889659415369107
3338 0.1887574032537407
3339 0.188528655446781
3340 0.1883325027723452
3341 0.1880656102120152
3342 0.1878575629140307
3343 0.1876081128229176
3344 0.1874504179804802
3345 0.1872487903991762
3346 0.1871851949590082
3347 0.1870972881534535
3348 0.1870826152156622
3349 0.1870684179365252
3350 0.1872297486941479
3351 0.1874578442495023
3352 0.1879144058584702
3353 0.1883953761517927
3354 0.1889370218716532
3355 0.1894028584845022
3356 0.1901117246945621
3357 0.1904545635780336
3358 0.1908050318054745
3359 0.1910459420207803
3360 0.19129322728653
3361 0.1913967826966239
3362 0.1915057729345869
3363 0.1914706693854413
3364 0.191431163760619
3365 0.1912763664973564
3366 0.1911330444371312
3367 0.1908878015981338
3368 0.1906750504545011
3369 0.1903407381168939
3370 0.1900382989106198
3371 0.1896710241588855
3372 0.1893860934009923
3373 0.1890263054234191
3374 0.1887645287503229
3375 0.1884645993145281
3376 0.1881888203862539
3377 0.1878367651032176
3378 0.1876439717138128
3379 0.1873900907716871
3380 0.1872120450725618
3381 0.1869209003226738
3382 0.1868051547058692
3383 0.1866609719819123
3384 0.1866591810986105
3385 0.186692497888809
3386 0.186915061204894
3387 0.1871854243355286
3388 0.187663990297798
3389 0.1881203909651838
3390 0.1885847225204784
3391 0.1890001322556623
3392 0.1894583028378015
3393 0.1897833499378072
3394 0.1901248688016598
3395 0.190314205135734
3396 0.1904853730200103
3397 0.1904971181338107
3398 0.190536831794749
3399 0.1904446644525634
3400 0.19037406048913
3401 0.1902508831828583
3402 0.1901879030493757
3403 0.1900370774721506
3404 0.1899388960031681
3405 0.1897611091667393
3406 0.189640528710087
3407 0.1894613985058326
3408 0.189341288292049
3409 0.1891514470610225
3410 0.1890377160166762
3411 0.1888711902274403
3412 0.1887276533644346
3413 0.188491770733677
3414 0.1884015242038109
3415 0.1882089895624372
3416 0.1880651530321477
3417 0.1877596078259126
3418 0.187609498961834
3419 0.1874131713569912
3420 0.1873635670290072
3421 0.187357624626385
3422 0.1875363957991887
3423 0.1878272955763956
3424 0.1882747289912009
3425 0.1886893645064676
3426 0.1891298338932402
3427 0.1895231420724094
3428 0.1899618684998856
3429 0.1902932151819976
3430 0.1906348634078572
3431 0.190824811886437
3432 0.1910129869490088
3433 0.1910608241076944
3434 0.1911019043907312
3435 0.1909719944388236
3436 0.1908415270285155
3437 0.1906253089277199
3438 0.1904238635535676
3439 0.1901447443003334
3440 0.1899410806734032
3441 0.1896567518807999
3442 0.1894545292671703
3443 0.1892242867059324
3444 0.1890959205817737
3445 0.1889384946455384
3446 0.1888534098732635
3447 0.1886600325838525
3448 0.188513821062823
3449 0.1882684342266432
3450 0.1881347513496421
3451 0.1879104722491605
3452 0.187663751235863
3453 0.1873890677444814
3454 0.1872826240854676
3455 0.187119574807898
3456 0.1870947872496468
3457 0.1870857239059335
3458 0.1872530342159321
3459 0.1874986570546898
3460 0.1879033871060929
3461 0.1882586847615661
3462 0.1886784551458524
3463 0.1890283423813243
3464 0.1894556102443045
3465 0.1897776569833001
3466 0.1901188436352228
3467 0.1903406615181218
3468 0.1905635608232512
3469 0.1906468183693193
3470 0.1907033665615627
3471 0.1905959180010106
3472 0.1905397516117196
3473 0.1903701913079384
3474 0.1902305697083369
3475 0.19001991379911
3476 0.1898821432465793
3477 0.1896437645804544
3478 0.1894555856774352
3479 0.189253943219881
3480 0.1891403844437487
3481 0.1889720461219485
3482 0.188888323520982
3483 0.1886903988930028
3484 0.1885307998691133
3485 0.188308161353471
3486 0.1881445844233314
3487 0.1878988692349895
3488 0.187748599359709
3489 0.1876010764864791
3490 0.187523126924188
3491 0.1873874850662239
3492 0.187384049674789
3493 0.1874037910589248
3494 0.1875914026990176
3495 0.1878623769444239
3496 0.1882835072799484
3497 0.1886153584401776
3498 0.188980996576756
3499 0.189301111512203
3500 0.189720870782744
3501 0.1900505663176678
3502 0.1904165784814204
3503 0.1906599354866186
3504 0.1909005619478105
3505 0.1910019185213177
3506 0.1910896678757132
3507 0.1910418805405824
3508 0.1910099698701146
3509 0.1908338480043225
3510 0.190683832691065
3511 0.1904506396279027
3512 0.1902554622112494
3513 0.1899526167300115
3514 0.1896896861570454
3515 0.1893953436355217
3516 0.1891468476221588
3517 0.1888166259411742
3518 0.1885486885333169
3519 0.1882027751163111
3520 0.1879161339855174
3521 0.1876507360224982
3522 0.1874342193029719
3523 0.1871610178158289
3524 0.1868990510613232
3525 0.1866893508219897
3526 0.1866145834998439
3527 0.1865478037182759
3528 0.1866466378164449
3529 0.1867902135894135
3530 0.1871110226954871
3531 0.1875264004924283
3532 0.1880788269955621
3533 0.1887414073119524
3534 0.1891855744921431
3535 0.1895622571840995
3536 0.1899784559027339
3537 0.1902716974998409
3538 0.1905733915755352
3539 0.1907534086261619
3540 0.1909353006468646
3541 0.1909611858852182
3542 0.1909899170853959
3543 0.1908930854808863
3544 0.1908205976612753
3545 0.1906364638218848
3546 0.1904968099635503
3547 0.1902747036808324
3548 0.1901082740402334
3549 0.1898337464576161
3550 0.1896201878059046
3551 0.1893781341888674
3552 0.189209665401422
3553 0.188974296831334
3554 0.188832623996672
3555 0.1885573519372873
3556 0.1883191975074642
3557 0.1879782781616131
3558 0.1877070922801782
3559 0.1873932069811641
3560 0.1871932007604309
3561 0.1870105623808263
3562 0.186932698009793
3563 0.1868895284651551
3564 0.187005076431286
3565 0.1871510933143642
3566 0.1875013200469325
3567 0.1879304493939096
3568 0.1884652627317129
3569 0.1888764223280935
3570 0.1893582788887477
3571 0.1897398529788719
3572 0.1901594457573093
3573 0.1905702116175841
3574 0.1908209540015899
3575 0.1909182671842217
3576 0.1910036106787789
3577 0.1909113955244557
3578 0.1908230367532729
3579 0.1906090837701579
3580 0.1904510509739496
3581 0.1901921736621656
3582 0.1899837059681502
3583 0.1897012948222982
3584 0.1894804868889757
3585 0.1891922939109954
3586 0.1890030972752197
3587 0.1888045152922369
3588 0.1886970125588853
3589 0.1885293082954908
3590 0.1884217565212845
3591 0.1881931425255457
3592 0.1880827533333122
3593 0.1878771941072281
3594 0.187721087005167
3595 0.1874754954441149
3596 0.1872418297980712
3597 0.1870274984587502
3598 0.1868961202539186
3599 0.1867894792613869
3600 0.1868763207612383
3601 0.1870210588661866
3602 0.1874125479818161
3603 0.1878236151510893
3604 0.1883610155107519
3605 0.1888073989112394
3606 0.1893271794251173
3607 0.1897541502090578
3608 0.1902271745451865
3609 0.1906005067015437
3610 0.1909432515524826
3611 0.1911239874082341
3612 0.1912862247966351
3613 0.1912806951966177
3614 0.1912504066027557
3615 0.1910943699433173
3616 0.1909761566301927
3617 0.190737027745692
3618 0.1905287074965987
3619 0.1902378279192879
3620 0.1899957928145225
3621 0.1896700125565007
3622 0.1894197919470366
3623 0.1891487766884119
3624 0.188962260958598
3625 0.1887621097093541
3626 0.188628988989681
3627 0.188427831139742
3628 0.1882940662634222
3629 0.1882038237844884
3630 0.1881290904758632
3631 0.1878735300616727
3632 0.1877059862573726
3633 0.1875172463327513
3634 0.1873846139799427
3635 0.1872696425849843
3636 0.1873208697347735
3637 0.1874004310715478
3638 0.1876893868731297
3639 0.1880011754496693
3640 0.1884253638876092
3641 0.1888554355318999
3642 0.1891968464351091
3643 0.1894535555430185
3644 0.1897600499158479
3645 0.1899656112640809
3646 0.1901696735297307
3647 0.1902646334187118
3648 0.1903863219481054
3649 0.1903443031447235
3650 0.1903304723332092
3651 0.1902240295771715
3652 0.1901497573796127
3653 0.1899698418661027
3654 0.1898328563230205
3655 0.1895984332328078
3656 0.189432334904156
3657 0.1891735881806136
3658 0.188995530758719
3659 0.1887795420476761
3660 0.1886484400996389
3661 0.1884747413078203
3662 0.188328607547515
3663 0.1880938822310733
3664 0.188009599981107
3665 0.187831244021509
3666 0.187700346813652
3667 0.1874255018600693
3668 0.1873159282175806
3669 0.1871546078979404
3670 0.1870608020454785
3671 0.1869979280155784
3672 0.1871150639135001
3673 0.1872735090759267
3674 0.187669380408219
3675 0.1880990918509484
3676 0.1885564495598078
3677 0.1889315134194144
3678 0.1893309341322522
3679 0.189655977808629
3680 0.1900472139668046
3681 0.1903057053147968
3682 0.1905753350358193
3683 0.1907383561684777
3684 0.1909076278615517
3685 0.1909333904852857
3686 0.1909950939620945
3687 0.190982500842054
3688 0.1909909679689523
3689 0.1908717157107592
3690 0.1907590036927964
3691 0.190552949582539
3692 0.1903844844656693
3693 0.1901005414250698
3694 0.1898859595242587
3695 0.1896269420771778
3696 0.1894323448331407
3697 0.1891531675375667
3698 0.1888887924514264
3699 0.1885475421511764
3700 0.1883378319247142
3701 0.1880402169581821
3702 0.187801248833889
3703 0.1874394496399431
3704 0.187241640855356
3705 0.1870299606222524
3706 0.1869272411065453
3707 0.1868744932698988
3708 0.1870003178338594
3709 0.1871801077882129
3710 0.1875928403332422
3711 0.1879708324443155
3712 0.1884196254542897
3713 0.1887889455450429
3714 0.1892007599153237
3715 0.1895232513768267
3716 0.189900451731946
3717 0.1901242823757392
3718 0.1903305424163944
3719 0.1904241495437972
3720 0.1905117008220168
3721 0.1904182407749851
3722 0.1903625227862732
3723 0.1902341926415989
3724 0.1901336895117774
3725 0.1899470042932964
3726 0.1898297916549251
3727 0.18964324306977
3728 0.1895298736611344
3729 0.1893566145156584
3730 0.1892603937775988
3731 0.1891185983812854
3732 0.1890176359137258
3733 0.1888281930672176
3734 0.1886767547142988
3735 0.1884243984001626
3736 0.1883033887706686
3737 0.1880941985356764
3738 0.1879612440641663
3739 0.1876841208439028
3740 0.1875806451365679
3741 0.1874049711692926
3742 0.1873703226954475
3743 0.1873672970663185
3744 0.1875476363824852
3745 0.1877687457581638
3746 0.1882198641635259
3747 0.1886392189904452
3748 0.1890910884983799
3749 0.1895089340488487
3750 0.1899782491202815
3751 0.1903448174137072
3752 0.1907456885536145
3753 0.1909916923387588
3754 0.1912073005425354
3755 0.191288059893069
3756 0.1913539031305027
3757 0.1912231372093627
3758 0.1911005755318821
3759 0.1908866985367531
3760 0.1906761165432116
3761 0.1903623126129785
3762 0.1900971116925041
3763 0.1897405007684868
3764 0.1894329183230218
3765 0.1890918576828417
3766 0.1888554913594305
3767 0.1885904611002434
3768 0.1883914017363378
3769 0.1881417380494083
3770 0.1879199546016271
3771 0.1876161133327662
3772 0.1874626716673056
3773 0.1872345053207589
3774 0.1870814940841402
3775 0.1868146174624785
3776 0.1867258893648096
3777 0.1865766970732828
3778 0.1865535879917503
3779 0.1865836516093494
3780 0.1868160624539918
3781 0.1871365677597096
3782 0.1876135477293216
3783 0.188082858476877
3784 0.1885905174180733
3785 0.1892732827412556
3786 0.1897525062964316
3787 0.1901775665014927
3788 0.1906186999629287
3789 0.1909062566711142
3790 0.1911633438687611
3791 0.1912748177889294
3792 0.1913245233453745
3793 0.1912048224636543
3794 0.1911113751720147
3795 0.1908912912946202
3796 0.1906992427464426
3797 0.1904135869673683
3798 0.1901577237275707
3799 0.1898181061995649
3800 0.1895578090060205
3801 0.1892568444221772
3802 0.1890405628279386
3803 0.1888001019435423
3804 0.1886529906218177
3805 0.1884201807040806
3806 0.1882626611409456
3807 0.1881518161131391
3808 0.1880945638554384
3809 0.1879780432667094
3810 0.1879058673627648
3811 0.1876879635990528
3812 0.1876465896469258
3813 0.1875443974755383
3814 0.1875690233607951
3815 0.1876464320706963
3816 0.1878895638944579
3817 0.1882032667823653
3818 0.1886296253987309
3819 0.188950474245518
3820 0.1893212978112533
3821 0.1895974685160058
3822 0.1899315838024838
3823 0.1901722755638409
3824 0.1904695288260317
3825 0.1906250709138404
3826 0.1907780164805754
3827 0.1908152202680771
3828 0.1908844415979037
3829 0.1907884890444207
