"mz-rfile"
"Iteration" "mz"
("Iteration" "mz")
1 -7327.17497638979
2 -7294.050715490675
3 -6742.860543113147
4 -5983.745927291641
5 -5112.908943722503
6 -4390.372152891583
7 -3209.164964629948
8 -1955.978197973154
9 -1011.165838513592
10 -422.0536296608859
11 78.89022437411286
12 450.9922426599992
13 717.6740483483287
14 903.8710346655249
15 979.6081926647942
16 961.4069684463441
17 866.3327147821913
18 726.7566100417748
19 555.1079280282544
20 389.5443604984151
21 212.9819626170492
22 59.49153470162859
23 -118.2651232296669
24 -256.9775698143592
25 -407.0281884579694
26 -553.0074574250547
27 -649.5643700839086
28 -733.1309956742909
29 -779.1983096557968
30 -808.8564758474213
31 -819.8944929933117
32 -820.2028220169276
33 -809.7915360112139
34 -798.1646814278317
35 -784.4826201384574
36 -769.2896407765355
37 -745.9387854202598
38 -724.3637575986016
39 -698.4928632430028
40 -677.2723376747448
41 -658.7850361181598
42 -645.1676790463561
43 -634.5727824779201
44 -628.4219021512467
45 -625.0159738842851
46 -624.2752384587055
47 -624.5625723523455
48 -626.6225505103484
49 -629.0594669508827
50 -631.7303770839574
51 -635.835017879543
52 -640.8461525353745
53 -645.775858888628
54 -651.1151518276268
55 -656.1927892863308
56 -661.522355355703
57 -666.3460974930071
58 -670.978726184844
59 -674.9091570468245
60 -678.6205952939297
61 -681.6513271606136
62 -684.4331415766266
63 -686.5061968215797
64 -688.2433815708412
65 -688.9816169067414
66 -689.8868111003205
67 -690.0773631737329
68 -690.1557524796339
69 -689.8649292605866
70 -689.3205696293744
71 -688.6911314122416
72 -687.6420568743514
73 -686.6990916350012
74 -685.3137673588012
75 -684.1672270959917
76 -682.6305184927373
77 -681.4486705746388
78 -679.7150800381629
79 -678.4791340405804
80 -677.294439344854
81 -675.3633060387782
82 -674.2254871495192
83 -673.0202983313753
84 -671.8788168826284
85 -670.6805192218928
86 -669.0756937110489
87 -667.9421255080676
88 -666.9343999063852
89 -665.911435425377
90 -664.9307311853132
91 -663.5248729786764
92 -662.6269744741776
93 -661.6627165999485
94 -660.8061209795442
95 -659.8467329555128
96 -659.0418576097478
97 -657.7652578930738
98 -656.9767308903982
99 -656.134425202382
100 -655.3351219800684
101 -654.4603134627658
102 -653.6635155285878
103 -652.7933581252089
104 -651.6342306301417
105 -650.8274438775029
106 -650.144655298616
107 -649.3331220940826
108 -648.635532937725
109 -647.8374597910788
110 -647.133137830172
111 -646.0470076850371
112 -645.447139886793
113 -644.789764528504
114 -644.2078996756499
115 -643.5357830000562
116 -642.6577686453122
117 -642.0226413331653
118 -641.4456354279407
119 -640.6127294515562
120 -640.1120912265536
121 -639.5791317721348
122 -638.8754487871727
123 -638.3706190709995
124 -637.8924862082647
125 -637.1095460751663
126 -636.6407593802049
127 -636.0318469528344
128 -635.6133861535711
129 -634.9131658452151
130 -634.4910567217643
131 -633.8112292917061
132 -633.4708092839513
133 -632.8423660437604
134 -632.4463062505569
135 -631.841957056668
136 -631.4709806863149
137 -630.857996836309
138 -630.5108557777213
139 -629.9212567372822
140 -629.4519082339041
141 -629.0708879032793
142 -628.5600671666193
143 -628.0347676367728
144 -627.7624955073693
145 -627.275312638394
146 -626.9338419229264
147 -626.5097205537276
148 -626.3019727467872
149 -625.8961007305453
150 -625.6433669697143
151 -625.2825876539478
152 -625.0209737522518
153 -624.7153052492057
154 -624.5070575727871
155 -624.2455045534683
156 -624.0266302886631
157 -623.8104154823054
158 -623.6779748344771
159 -623.5255506714374
160 -623.4558960521551
161 -623.2984502337353
162 -623.2468737233121
163 -623.1554223111383
164 -623.1745034289968
165 -623.1844593221506
166 -623.2001459796659
167 -623.178513137194
168 -623.2827678701896
169 -623.3066892813762
170 -623.3745805332161
171 -623.457425594604
172 -623.5991464816418
173 -623.7101546538245
174 -623.8522979235629
175 -623.9891186155949
176 -624.1805186290645
177 -624.4126863721519
178 -624.6800312457356
179 -624.8795911734703
180 -625.2192625564248
181 -625.4575895589415
182 -625.7629307000049
183 -626.0380569933607
184 -626.366085227758
185 -626.6760673060862
186 -627.0447666756776
187 -627.3896406693307
188 -627.7559754252655
189 -628.0817839194908
190 -628.441545646199
191 -628.6861214338634
192 -629.0749051761895
193 -629.3268204440552
194 -629.682570673603
195 -629.9710444882805
196 -630.3036672013288
197 -630.6052853886969
198 -631.0104238689491
199 -631.3324462914726
200 -631.7346411711493
201 -632.0349881583463
202 -632.4020507061539
203 -632.7005144086806
204 -633.0453739662109
205 -633.3399034988627
206 -633.6844216180896
207 -633.9223888295963
208 -634.272984479703
209 -634.5514905729088
210 -634.8880356325772
211 -635.1572687376961
212 -635.5029327687218
213 -635.8092665648555
214 -636.1575097395535
215 -636.4347816452496
216 -636.7996503557985
217 -637.0686734141797
218 -637.4346630429225
219 -637.6641213054413
220 -637.9554373330938
221 -638.2010862657247
222 -638.4807247859844
223 -638.6945398923042
224 -638.9280200585823
225 -639.151858788537
226 -639.4484161660134
227 -639.6443203233483
228 -639.998892099492
229 -640.2449429395118
230 -640.6513434193116
231 -640.9486569666585
232 -641.3334290041122
233 -641.6317738564526
234 -642.0385165488549
235 -642.3387576815018
236 -642.7137142025387
237 -642.9990980679997
238 -643.4288987307564
239 -643.8209686836512
240 -644.2757078225518
241 -644.7350426878036
242 -645.2321293930589
243 -645.7337292634909
244 -646.3416510881146
245 -646.8510462947561
246 -647.4623923003651
247 -648.0706799515216
248 -648.7082567333053
249 -649.3247675243625
250 -650.0192846413839
251 -650.6520377196545
252 -651.3723889174374
253 -652.0433724506734
254 -652.782193008661
255 -653.5091936075744
256 -654.3187331686597
257 -655.0672215643448
258 -655.9327363352439
259 -656.7822055984852
260 -657.7035857118872
261 -658.6246064100685
262 -659.6532955893479
263 -660.6183847793918
264 -661.671681728388
265 -662.6618595482079
266 -663.7911291582357
267 -664.8868014283419
268 -666.0929224759676
269 -667.212409176661
270 -668.4451669422546
271 -669.7166037533411
272 -671.0645395131471
273 -672.3138979846815
274 -673.6631621886271
275 -674.9725736012905
276 -676.405283821376
277 -678.2499586162168
278 -679.6784965413152
279 -680.999389813509
280 -682.4307257484377
281 -683.8207143534853
282 -685.6933357334534
283 -687.058508829739
284 -688.5180900315827
285 -690.3963518181046
286 -691.9140262392623
287 -693.3393813127545
288 -695.3719312424263
289 -696.7876399998901
290 -698.3305559250069
291 -700.2482594630688
292 -701.8186399742589
293 -703.2943980982257
294 -705.3630661113165
295 -706.8646440671454
296 -708.9998442671865
297 -710.5375080857274
298 -712.2086355365308
299 -714.3628287320474
300 -716.0431482981954
301 -718.2056115240197
302 -719.8922297300513
303 -722.0784208758603
304 -723.7698685922326
305 -725.9236958705907
306 -727.5684218687176
307 -729.7304061355717
308 -731.3898653236041
309 -733.4960383370041
310 -735.1537122657541
311 -737.3147906436036
312 -738.9583747409225
313 -741.0617795937263
314 -742.740768455041
315 -744.9543396203391
316 -746.6384300327907
317 -748.7670838913513
318 -750.4752718663229
319 -752.7002083930355
320 -754.415222638758
321 -756.5867670357565
322 -758.2945103243819
323 -760.4279331606286
324 -762.104478572217
325 -764.255006767799
326 -765.8474628648059
327 -767.3989489208609
328 -769.5990467209065
329 -771.1056916524157
330 -773.2729540436167
331 -774.7789594098185
332 -776.4207029145545
333 -778.5323865039163
334 -780.0850430717549
335 -781.6826987354767
336 -783.8379774074377
337 -785.3901312272156
338 -787.0925977182771
339 -789.2215968848769
340 -790.8494099201225
341 -792.3779866342684
342 -794.4802786426793
343 -796.046462561067
344 -797.6847238648293
345 -799.2445653886691
346 -801.430760856732
347 -802.9079288686489
348 -804.5330805720979
349 -806.0453676018155
350 -807.6939371555483
351 -809.7291227737138
352 -811.256547851454
353 -812.6543328464537
354 -814.1969531433083
355 -815.6387470141239
356 -817.1688240499559
357 -818.5566944280075
358 -820.0381268298327
359 -821.5061830080331
360 -823.0125730413318
361 -824.4203185665124
362 -825.8940623885478
363 -827.2242687044042
364 -828.6066443331434
365 -829.9003375541464
366 -831.2300665035835
367 -832.4988014681522
368 -833.784063085923
369 -834.9578301240354
370 -836.1957303997755
371 -837.3876077274866
372 -838.6579954141783
373 -839.9018172454829
374 -841.1692341347868
375 -842.3373429494279
376 -843.6173327092222
377 -844.8045130021487
378 -846.0106530817304
379 -847.1255894418841
380 -848.3612436159738
381 -849.5235151774752
382 -850.7222010842123
383 -851.8942751267271
384 -853.1068536414741
385 -854.214933274752
386 -855.3731978121818
387 -856.4792754427597
388 -857.6965616924876
389 -858.8118396679162
390 -860.0509637131581
391 -861.1229570242731
392 -862.2656460702503
393 -863.4026705197207
394 -864.6270245754937
395 -865.7149175814743
396 -866.8630554897661
397 -867.9528785772263
398 -869.0854553368223
399 -870.1603723532889
400 -871.2280018680958
401 -872.2333671967721
402 -873.3020292504867
403 -874.3006393547065
404 -875.3289732474667
405 -876.2368585630778
406 -877.2147466211275
407 -878.0849479986738
408 -878.9833947007306
409 -879.7741170663219
410 -880.5656113227674
411 -881.2542819213069
412 -882.0527426772056
413 -882.6986872006638
414 -883.438533875401
415 -884.1152568187865
416 -884.82283009233
417 -885.3906163595251
418 -886.0205220573355
419 -886.5931436987894
420 -887.2454533654892
421 -887.7759021235412
422 -888.3387138171965
423 -888.8523787702608
424 -889.3822908470725
425 -889.843675892523
426 -890.3876969518835
427 -890.8236178342711
428 -891.26810143522
429 -891.6235163368011
430 -892.0261896029918
431 -892.3569800924132
432 -892.7039386472296
433 -892.9963672241555
434 -893.2952442014029
435 -893.4746414676966
436 -893.779217385213
437 -893.9838196241163
438 -894.3175122460894
439 -894.4988168422396
440 -894.7241681519633
441 -894.8522635660262
442 -895.0708092930022
443 -895.23552388137
444 -895.464877261658
445 -895.600795735008
446 -895.803567030243
447 -895.9219997416801
448 -896.1267639481057
449 -896.2216857340929
450 -896.38742423818
451 -896.5040962421396
452 -896.6344940469352
453 -896.6821718023252
454 -896.8033994564662
455 -896.9003331189047
456 -897.0223758446986
457 -897.0457886650852
458 -897.1367482253499
459 -897.2001017226107
460 -897.2401315988158
461 -897.1959463574979
462 -897.1988844646133
463 -897.1459896731443
464 -897.1605705975593
465 -897.0636349310317
466 -897.0918261691133
467 -896.9105478722279
468 -896.8319333663252
469 -896.5456502307395
470 -896.3762759926049
471 -896.104125060098
472 -895.8907247235711
473 -895.6166797407924
474 -895.4370745033096
475 -895.1568229032558
476 -894.9563476236946
477 -894.6894506403999
478 -894.4008542133508
479 -894.0115256760483
480 -893.691770825018
481 -893.2087462439116
482 -892.7701362859638
483 -892.2683908543598
484 -891.809716136727
485 -891.3224508969528
486 -890.8247870288307
487 -890.2325210665148
488 -889.6958324262365
489 -889.0519846794081
490 -888.4739204665332
491 -887.8158338729812
492 -887.1679107269582
493 -886.4922885657007
494 -885.8291266344813
495 -884.9987973211146
496 -884.2907993624295
497 -883.5025343029777
498 -882.7807507347275
499 -881.9299893836896
500 -881.1840235712406
501 -880.377323085204
502 -879.6214937463112
503 -878.785383655916
504 -878.0337704182979
505 -877.2253262474193
506 -876.4746608855335
507 -875.6886868151241
508 -874.9358331310002
509 -874.184571462308
510 -873.4512879601242
511 -872.7576799652489
512 -872.0730779311633
513 -871.3645891303825
514 -870.8527652580316
515 -870.2171082588171
516 -869.7119476025015
517 -869.1674382279319
518 -868.6960659791989
519 -868.1822146077801
520 -867.7941288930538
521 -867.4089381639261
522 -867.0329141335343
523 -866.6692219042686
524 -866.4088056756673
525 -866.0903464965002
526 -865.9100565820746
527 -865.6767791495907
528 -865.4537984390005
529 -865.2226678085184
530 -865.0633812537892
531 -864.8134872228799
532 -864.6760944854404
533 -864.5038417586197
534 -864.3772812327918
535 -864.2052261052822
536 -864.0799012034149
537 -863.9129643085425
538 -863.7839044523942
539 -863.5283231561262
540 -863.3942571881048
541 -863.1745667690628
542 -863.0627869979814
543 -862.8231064910344
544 -862.5630659979771
545 -862.2125336530002
546 -861.9842750428924
547 -861.6762860009654
548 -861.3879107626631
549 -861.0304031516025
550 -860.7046056300693
551 -860.2868375098263
552 -859.9045172686007
553 -859.4866495937318
554 -859.0070219537419
555 -858.5111042962509
556 -858.0395477588021
557 -857.4821417182825
558 -856.9980145271811
559 -856.4400981357589
560 -855.8734034094373
561 -855.2310108559038
562 -854.6450265753236
563 -854.0056274782844
564 -853.4206939035377
565 -852.7475934229296
566 -852.1310095357667
567 -851.4512708780812
568 -850.8807492670064
569 -850.1844652988156
570 -849.603118942407
571 -848.8512549463408
572 -848.175345405139
573 -847.3718815793465
574 -846.7292576284231
575 -845.9547883310568
576 -845.2433639277646
577 -844.4396455155889
578 -843.7738072135768
579 -842.9905333905145
580 -842.3409913899959
581 -841.5576304486356
582 -840.8485809535715
583 -840.0374513271205
584 -839.2913407160116
585 -838.467880228555
586 -837.7613404395722
587 -836.9822840254933
588 -836.3012696158735
589 -835.5053475314272
590 -834.813933038765
591 -834.0716988356713
592 -833.3775666233619
593 -832.635736449507
594 -832.0091239213293
595 -831.2762703157473
596 -830.623091499009
597 -829.8576339610122
598 -829.2269124634914
599 -828.5079211010907
600 -827.8890908513594
601 -827.2476351194518
602 -826.6680919866508
603 -826.0261571477693
604 -825.438172405009
605 -824.8248350913057
606 -824.2499104511712
607 -823.6806572536668
608 -823.1996338016534
609 -822.6593149378872
610 -822.1444500260621
611 -821.5813168604972
612 -821.1096745329797
613 -820.5899181981241
614 -820.1890795848553
615 -819.6440182817173
616 -819.2151858582619
617 -818.6756190403552
618 -818.1954058248664
619 -817.6856979788666
620 -817.2345051669101
621 -816.7342852783032
622 -816.2727579392897
623 -815.7537342247982
624 -815.2568354796693
625 -814.6755735373166
626 -814.1905955008556
627 -813.5982646243933
628 -813.0718776544273
629 -812.4936026385828
630 -811.9633023103758
631 -811.4247484295629
632 -810.8849486620537
633 -810.338048511844
634 -809.8836892446238
635 -809.3154966279473
636 -808.8846249490416
637 -808.3309003143058
638 -807.8570313957009
639 -807.3078752781797
640 -806.8033483833049
641 -806.221687698861
642 -805.7741798050256
643 -805.2052464773843
644 -804.7023545560678
645 -804.1651484604906
646 -803.6268746042206
647 -803.0029943773551
648 -802.3962862884533
649 -801.7111035712255
650 -801.0994275264767
651 -800.3740560098793
652 -799.6770533615942
653 -798.9053944261776
654 -798.1785177211945
655 -797.3607675859306
656 -796.5879288042963
657 -795.7059572682191
658 -794.8868383958586
659 -793.9808258895551
660 -793.1040585748101
661 -792.0967763509432
662 -791.1950849988341
663 -790.1613228595357
664 -789.18802972148
665 -788.180236338466
666 -787.149903721657
667 -786.0600843105449
668 -784.9810938579735
669 -783.931423431595
670 -782.8670575143663
671 -781.7622836975892
672 -780.6582444802956
673 -779.5419955499513
674 -778.4013111713463
675 -777.2059036802276
676 -776.0201602374009
677 -774.8122927729434
678 -773.723722761643
679 -772.5588102126931
680 -771.4931224789946
681 -770.3469980605956
682 -769.308225230462
683 -768.1759506289669
684 -767.1382575108418
685 -766.0079274831293
686 -764.9474095562462
687 -763.7997313862372
688 -762.7366339529783
689 -761.6557534710018
690 -760.6267443667297
691 -759.5760605403171
692 -758.5602960476392
693 -757.4950454192726
694 -756.5216069266681
695 -755.449761097374
696 -754.4777312043616
697 -753.4401709350221
698 -752.4569682380322
699 -751.4198514773566
700 -750.4410003761
701 -749.405799741833
702 -748.4534831225076
703 -747.4181036238908
704 -746.5020022240224
705 -745.3606772564744
706 -744.3324356279132
707 -743.233087132789
708 -742.1623002628955
709 -740.9999095567339
710 -739.9736373835041
711 -738.826203246885
712 -737.7269240514562
713 -736.6251660705578
714 -735.5764316398988
715 -734.4550470635462
716 -733.43009320747
717 -732.3785978797611
718 -731.3995178467445
719 -730.3270834047831
720 -729.3916992572097
721 -728.3684286656052
722 -727.4311976224393
723 -726.4924320084696
724 -725.6322787591307
725 -724.7520417199407
726 -723.9656059451016
727 -723.1608762500879
728 -722.4616830776306
729 -721.7330481716433
730 -721.1102584366046
731 -720.4631849413701
732 -719.9029559572543
733 -719.3161686777963
734 -718.8621718720716
735 -718.3664581379884
736 -717.948815929713
737 -717.4902011802394
738 -717.1037290466011
739 -716.6792055267457
740 -716.4110297128708
741 -716.0908523482715
742 -715.8462070267102
743 -715.6165004018317
744 -715.4817390959221
745 -715.3094140591049
746 -715.2179188637343
747 -715.0977003309254
748 -715.0634811970792
749 -714.9703094962255
750 -714.9287259787704
751 -714.8921664412518
752 -714.9466280079961
753 -714.9625288896873
754 -715.0423069432763
755 -715.0855716055713
756 -715.1423008707533
757 -715.1938930380205
758 -715.2643547171923
759 -715.297479678898
760 -715.4380397117968
761 -715.467225203201
762 -715.5303599683846
763 -715.4751332032582
764 -715.5211357956094
765 -715.4951704774676
766 -715.4321051229124
767 -715.3634086680249
768 -715.3601260749298
769 -715.2550906606122
770 -715.2194461328105
771 -715.1088223838342
772 -715.0562713731338
773 -714.8205239452818
774 -714.6030082168392
775 -714.322294717251
776 -714.1012521138045
777 -713.8858240629722
778 -713.6246791951449
779 -713.2515769711424
780 -712.894560272142
781 -712.5843205461265
782 -712.1505793320025
783 -711.6618480583662
784 -711.2171998850894
785 -710.8398615173799
786 -710.2917567602593
787 -709.721488907895
788 -709.1975072956031
789 -708.7592527477558
790 -708.1366910599933
791 -707.419884398125
792 -706.7329331183143
793 -706.2011891546832
794 -705.4814825763465
795 -704.6766480663032
796 -703.8069502952709
797 -702.9426295088468
798 -702.067040661609
799 -701.0797713168373
800 -700.1541619066462
801 -699.1629678477626
802 -698.2144499555061
803 -697.2076828673876
804 -696.2390485345272
805 -695.2005320518002
806 -694.2607724484052
807 -693.1239225362875
808 -692.0860642330632
809 -690.9156790209223
810 -689.8026794457911
811 -688.6561234593257
812 -687.5918243673613
813 -686.3894657318275
814 -685.2522007616493
815 -683.9960636945381
816 -682.8146533945076
817 -681.6160664218951
818 -680.4564156999189
819 -679.2153048842032
820 -678.0775964035056
821 -676.8192296596053
822 -675.6502094454262
823 -674.4318337358031
824 -673.2580311983322
825 -672.0801107619703
826 -671.0296525422067
827 -669.8997538268881
828 -668.8466430664332
829 -667.7000132620484
830 -666.7699778308647
831 -665.7587639856821
832 -664.9111104520358
833 -664.0046569831633
834 -663.2493204975742
835 -662.4036032109755
836 -661.6454065493703
837 -660.850281069849
838 -660.2160965277693
839 -659.5689452252038
840 -659.0746976222804
841 -658.544664317447
842 -658.1803229094861
843 -657.7950192970894
844 -657.5611378984634
845 -657.3037970422514
846 -657.2083879436003
847 -657.1031187624008
848 -657.1133044185681
849 -657.0964918796567
850 -657.2142709532518
851 -657.3569097230519
852 -657.6670952214041
853 -657.9280665105456
854 -658.3177283317387
855 -658.6728715793889
856 -659.1783857111342
857 -659.6810007102347
858 -660.3162085521508
859 -660.9524939410458
860 -661.7485329012316
861 -662.538001802659
862 -663.4367181143015
863 -664.3232648419674
864 -665.3363350812208
865 -666.2830991817059
866 -667.3773622156319
867 -668.4526876354524
868 -669.6459285238501
869 -670.792094001135
870 -672.075758587318
871 -673.3145095610412
872 -674.6693371792101
873 -675.9824876896705
874 -677.3786492813126
875 -678.7589234760762
876 -680.2443882291326
877 -681.6384245139627
878 -683.1418818094951
879 -684.6394516696215
880 -686.2198940592483
881 -687.7216550496147
882 -689.3905460992729
883 -691.0331805117432
884 -692.7064108512102
885 -694.3245627149771
886 -696.0223240262313
887 -697.5631482011604
888 -699.2041860245895
889 -700.7698302110999
890 -702.3897298181505
891 -703.9488469933559
892 -705.5832207185665
893 -707.2013340347193
894 -708.8534993252158
895 -710.3960194968319
896 -711.9899888018529
897 -713.4191558773008
898 -714.9340919964841
899 -716.3004429314841
900 -717.6833216730968
901 -718.9760777090166
902 -720.2846926700572
903 -721.4374840573362
904 -722.6614815553384
905 -723.7419535166734
906 -724.8790245064805
907 -725.825617872161
908 -726.8657300123834
909 -727.6737764642054
910 -728.526205963572
911 -729.3123473289558
912 -730.0938629292119
913 -730.7233091150066
914 -731.3702387129753
915 -731.8823566358582
916 -732.3960713127633
917 -732.7331891743728
918 -733.0472318861254
919 -733.2551016528822
920 -733.4897087364544
921 -733.558395384222
922 -733.6680523560328
923 -733.5920976475337
924 -733.5224983139896
925 -733.3080987982603
926 -733.0997098980758
927 -732.7665121752058
928 -732.4205569945015
929 -731.9810025550828
930 -731.4978807546772
931 -730.9034791436619
932 -730.3910402280852
933 -729.6589751555264
934 -729.0189753415585
935 -728.2268389284727
936 -727.4528627461726
937 -726.6147131883484
938 -725.8204042187099
939 -724.9184468387294
940 -724.0630721527752
941 -723.1577024783534
942 -722.2490352089865
943 -721.263638798048
944 -720.3214024119552
945 -719.3350676713424
946 -718.4309827409196
947 -717.3796450267662
948 -716.4301458727174
949 -715.4320392141076
950 -714.5438288350538
951 -713.5449507206097
952 -712.6449044712326
953 -711.6422556891764
954 -710.7081142930897
955 -709.6764317726216
956 -708.768650570206
957 -707.8055895542208
958 -706.9451753034823
959 -705.9988040757856
960 -705.18827520667
961 -704.3142343368614
962 -703.5270764485965
963 -702.6534773755392
964 -701.9389968133397
965 -701.0862786047047
966 -700.3423442980379
967 -699.5486606731041
968 -698.841164618379
969 -698.0606594385629
970 -697.3622823211991
971 -696.5969655728559
972 -695.9497569900872
973 -695.1838771245432
974 -694.4758263568826
975 -693.7150945474604
976 -693.0019887699935
977 -692.190185050502
978 -691.4355625109478
979 -690.5955741916155
980 -689.8060290342139
981 -688.9496571115167
982 -688.0901715811062
983 -687.1782690020286
984 -686.2725124449789
985 -685.2911944067678
986 -684.3374560309807
987 -683.3133538382566
988 -682.4075424424864
989 -681.3772337837153
990 -680.4527756337736
991 -679.4375333455472
992 -678.4534208416671
993 -677.4400214140782
994 -676.4720581373701
995 -675.4440266301135
996 -674.4514682801477
997 -673.4171338827377
998 -672.4878095916728
999 -671.4793894527064
1000 -670.5165914899355
1001 -669.4967078279085
1002 -668.58920842008
1003 -667.5856468133327
1004 -666.693107691716
1005 -665.7940134269149
1006 -664.9996921397413
1007 -664.1136634145425
1008 -663.3515855899335
1009 -662.5263624270523
1010 -661.7736135635276
1011 -661.0558371116953
1012 -660.3596628295508
1013 -659.6326396483981
1014 -659.0977547094037
1015 -658.4737631751623
1016 -658.0624515912989
1017 -657.613881007507
1018 -657.3184992483103
1019 -657.0114085996859
1020 -656.8271344401224
1021 -656.6296011041255
1022 -656.5275628875935
1023 -656.4267449819176
1024 -656.5137582836853
1025 -656.5235522680673
1026 -656.679727995134
1027 -656.8104113093248
1028 -657.0495428753349
1029 -657.2888187141451
1030 -657.7138655404684
1031 -658.0086182773973
1032 -658.4313404371576
1033 -658.8454906112742
1034 -659.3407647051833
1035 -659.7924335491311
1036 -660.3340362410107
1037 -660.7715541073285
1038 -661.3162406410262
1039 -661.7551248651517
1040 -662.2564434765337
1041 -662.717184077248
1042 -663.1895436082309
1043 -663.5969081477739
1044 -664.0052917456341
1045 -664.3439449282681
1046 -664.7209096031911
1047 -664.950939138103
1048 -665.2282169613949
1049 -665.3488097690152
1050 -665.5522047633148
1051 -665.6093467217934
1052 -665.7141742110567
1053 -665.7083571971259
1054 -665.712060224794
1055 -665.6024672063767
1056 -665.5127099263094
1057 -665.3306236448071
1058 -665.1686978336331
1059 -664.9234638053803
1060 -664.6908094187618
1061 -664.2945285740517
1062 -663.9625840071953
1063 -663.5510643883381
1064 -663.0848218078978
1065 -662.5579551647473
1066 -662.1191366903253
1067 -661.5813894733712
1068 -661.0909317958674
1069 -660.4981376852618
1070 -659.9817203387362
1071 -659.3768778039781
1072 -658.84151020582
1073 -658.2571734477996
1074 -657.7222290733787
1075 -657.0717980691062
1076 -656.5745853838654
1077 -655.9983555685493
1078 -655.5388549939536
1079 -655.0358953389641
1080 -654.6436732157256
1081 -654.1658196997909
1082 -653.8176554282654
1083 -653.3485648992366
1084 -653.0634667090071
1085 -652.6897840054354
1086 -652.4730613807153
1087 -652.2026271181177
1088 -652.0390973354669
1089 -651.8453049926882
1090 -651.7390980160131
1091 -651.5780241973572
1092 -651.5844065696426
1093 -651.5348845096983
1094 -651.6473848648225
1095 -651.6598914336886
1096 -651.8086037853831
1097 -651.9186871602807
1098 -652.1002835874392
1099 -652.2095207718003
1100 -652.4349363526569
1101 -652.5564774371134
1102 -652.7868754008217
1103 -652.8990427963432
1104 -653.1710685954793
1105 -653.3493515079765
1106 -653.6077957217618
1107 -653.7645765895744
1108 -653.9683607214508
1109 -654.0568792246291
1110 -654.3309952047433
1111 -654.4921157617482
1112 -654.6888372919176
1113 -654.7541310612394
1114 -654.8933402193718
1115 -654.9408943042213
1116 -655.0735573920086
1117 -655.1129589266656
1118 -655.1964754692445
1119 -655.154463517636
1120 -655.22492990981
1121 -655.1819756492586
1122 -655.1565149310335
1123 -655.0837168960101
1124 -655.0625014158371
1125 -654.9378492284304
1126 -654.8445153702746
1127 -654.6986171097705
1128 -654.580223464229
1129 -654.3264022195494
1130 -654.1956711254529
1131 -654.0239189645922
1132 -653.8728604330506
1133 -653.6769872405025
1134 -653.5610984789678
1135 -653.3525449542749
1136 -653.1607889118296
1137 -652.9827682640553
1138 -652.9139539496355
1139 -652.8237400748496
1140 -652.7780846982757
1141 -652.6789859100961
1142 -652.7304122699763
1143 -652.7791249125668
1144 -652.9653222536705
1145 -653.1454409288824
1146 -653.4058469043798
1147 -653.6612172491278
1148 -654.0723019601739
1149 -654.417954760883
1150 -654.9510309833321
1151 -655.4109184460345
1152 -656.0597742997112
1153 -656.656184614926
1154 -657.4065440944811
1155 -658.0709238251584
1156 -658.9649383550941
1157 -659.7368422151404
1158 -660.6581102684288
1159 -661.6270420862419
1160 -662.6579458586598
1161 -663.742735331198
1162 -664.9496863969016
1163 -666.1365324970305
1164 -667.4749180403825
1165 -668.7643849035351
1166 -670.2682676368499
1167 -671.7278538224122
1168 -673.1653433227293
1169 -674.6221916253307
1170 -676.2494483666982
1171 -677.8363506602243
1172 -679.4485275885934
1173 -681.0670257490922
1174 -682.8127786599809
1175 -684.4896803089254
1176 -686.2120942271067
1177 -687.904144033045
1178 -689.6943424016578
1179 -691.4111098310734
1180 -693.1633711007532
1181 -694.9168147917646
1182 -696.7130799896462
1183 -698.4332866347119
1184 -700.201843998119
1185 -701.8477965614518
1186 -703.5479533216272
1187 -705.133879435924
1188 -707.2599867106552
1189 -708.688248197485
1190 -710.0926290426362
1191 -711.4251878971726
1192 -712.7371096477491
1193 -713.8990494145522
1194 -715.1432588345923
1195 -716.2113055179101
1196 -717.3689687135094
1197 -718.4049358638861
1198 -719.4100085689996
1199 -720.3412980439953
1200 -721.1902570629053
1201 -721.9557731795184
1202 -722.6256434012597
1203 -723.2357407926448
1204 -723.8531174579176
1205 -724.280345895007
1206 -724.7159573611957
1207 -725.0562133841477
1208 -725.3596119375361
1209 -725.4857157696329
1210 -725.6251744242509
1211 -725.5600058065839
1212 -725.5311454606393
1213 -725.3353144557815
1214 -725.1236887227276
1215 -724.7298520494502
1216 -724.3792308230818
1217 -723.8653505972061
1218 -723.3316344663076
1219 -722.6469085615735
1220 -721.943167298206
1221 -721.1321837442727
1222 -720.3115792343165
1223 -719.3523825431407
1224 -718.4185106799033
1225 -717.3904685835462
1226 -716.3830269410056
1227 -715.2420837220128
1228 -714.1629774958491
1229 -713.0006365831819
1230 -711.9161856683228
1231 -710.7611036793015
1232 -709.6365528354295
1233 -708.4084217487597
1234 -707.227984335003
1235 -706.0659715205179
1236 -704.9219445577114
1237 -703.7144255587838
1238 -702.615945294702
1239 -701.4259956625467
1240 -700.3591988177654
1241 -699.2646641576301
1242 -698.3576790521311
1243 -697.4676540433022
1244 -696.6145954601354
1245 -695.789484698084
1246 -695.1342820554504
1247 -694.391515838214
1248 -693.7688680328852
1249 -693.1362782297041
1250 -692.6399230433145
1251 -692.0997498480286
1252 -691.7190321759841
1253 -691.2932103333191
1254 -690.9508763647983
1255 -690.5292030701908
1256 -690.2560034423707
1257 -689.889333827492
1258 -689.6811448563417
1259 -689.426014882167
1260 -689.2087228575917
1261 -688.9254269932154
1262 -688.7136606640903
1263 -688.4348757988541
1264 -688.1958906718202
1265 -687.8486709903218
1266 -687.5783697694297
1267 -687.1851518096956
1268 -686.8220976410807
1269 -686.3679563548252
1270 -686.0331438849352
1271 -685.5308697284569
1272 -685.0136083051838
1273 -684.4150843442563
1274 -683.9514129856555
1275 -683.3951661762497
1276 -682.8608250759135
1277 -682.2101889569116
1278 -681.6697140890046
1279 -680.9780658700311
1280 -680.3628499871738
1281 -679.6831540276611
1282 -679.0420115214639
1283 -678.3361170930438
1284 -677.7119467475061
1285 -677.0741919468049
1286 -676.4474843793857
1287 -675.7690194165763
1288 -675.1834855896026
1289 -674.6082791012949
1290 -674.1133235726904
1291 -673.5372556794849
1292 -673.1511445446391
1293 -672.6905246428653
1294 -672.3547415207599
1295 -672.0025534273149
1296 -671.7440380526317
1297 -671.447757736685
1298 -671.3111181374802
1299 -671.1119202271709
1300 -671.1054127226649
1301 -671.0638658905261
1302 -671.2047238015064
1303 -671.2701210449861
1304 -671.5565622883353
1305 -671.8134903368225
1306 -672.2078531904949
1307 -672.467797967363
1308 -673.0165573671144
1309 -673.58662757686
1310 -674.0596797916713
1311 -674.7266550880181
1312 -675.481780630971
1313 -675.9897433390022
1314 -676.850630064892
1315 -677.6921425295271
1316 -678.3503574555934
1317 -679.2888272842087
1318 -680.3446634648392
1319 -681.3122304138396
1320 -682.4006817627327
1321 -683.4542811016329
1322 -684.5471638528056
1323 -685.5575616979941
1324 -686.6571561265105
1325 -687.6384508717318
1326 -688.7336773767792
1327 -689.7139558672324
1328 -690.7766473511371
1329 -691.6783713797203
1330 -692.7152254624636
1331 -693.5859984002185
1332 -694.5569041826315
1333 -695.3822951898322
1334 -696.3330601731229
1335 -697.1510848589403
1336 -697.9953176010625
1337 -698.7306524243559
1338 -699.5224406939304
1339 -700.1608912972091
1340 -700.8786818412032
1341 -701.49872263158
1342 -702.1510089864306
1343 -702.6485517938584
1344 -703.2002393557407
1345 -703.6484577315233
1346 -704.1449577369934
1347 -704.5122607829301
1348 -704.9037263741274
1349 -705.1937085958917
1350 -705.5539988560872
1351 -705.7796994432236
1352 -706.1190474512325
1353 -706.3776042009026
1354 -706.6963072561214
1355 -706.9304583484915
1356 -707.2168001189664
1357 -707.4013246764511
1358 -707.6740373619409
1359 -707.8332325567711
1360 -708.0218286979778
1361 -708.1187739787774
1362 -708.2900087604171
1363 -708.3817063802785
1364 -708.5490028675206
1365 -708.6442898661128
1366 -708.7954354402714
1367 -708.8770075361186
1368 -709.0424451766795
1369 -709.1120954069756
1370 -709.2476671375439
1371 -709.3488555237187
1372 -709.5573896621974
1373 -709.6966788016192
1374 -709.8800240262303
1375 -710.0830936022422
1376 -710.3671902309428
1377 -710.5539496959824
1378 -710.8887142833235
1379 -711.1659279774993
1380 -711.5663854896262
1381 -711.8375376425006
1382 -712.1868469129104
1383 -712.5215975350247
1384 -712.9306752824151
1385 -713.2521948233582
1386 -713.6950429755335
1387 -714.0698361942891
1388 -714.4875244896562
1389 -714.9003857904239
1390 -715.3391311823087
1391 -715.6947531256881
1392 -716.1856617514023
1393 -716.5102220827694
1394 -716.9283117728702
1395 -717.3060617644496
1396 -717.817572929773
1397 -718.2581680395975
1398 -718.7248718222866
1399 -719.1264380215102
1400 -719.6200138822502
1401 -720.0437828507233
1402 -720.5378078265195
1403 -720.9535453040037
1404 -721.3511877880374
1405 -721.7031859732226
1406 -722.1627001094574
1407 -722.5492951064863
1408 -722.952425599423
1409 -723.2585049636938
1410 -723.6959870040571
1411 -724.0232633034117
1412 -724.4274193185804
1413 -724.7837428180217
1414 -725.1727464031958
1415 -725.451656530595
1416 -725.8351843442143
1417 -726.1466458184875
1418 -726.4838748323303
1419 -726.762205963217
1420 -727.1173957545734
1421 -727.3508804656345
1422 -727.6627945930883
1423 -727.890388840088
1424 -728.1965636325119
1425 -728.4161783063118
1426 -728.6750158251771
1427 -728.8498541999616
1428 -729.1313546964959
1429 -729.2618911785031
1430 -729.4824146769598
1431 -729.5073117792001
1432 -729.6214465589185
1433 -729.6292095647337
1434 -729.7014165397169
1435 -729.7142163176057
1436 -729.7590717795924
1437 -729.6274764028304
1438 -729.5958948472706
1439 -729.4756419385679
1440 -729.3959103740591
1441 -729.1888804646975
1442 -729.0575387776679
1443 -728.7828812112307
1444 -728.6292628159016
1445 -728.3608044666386
1446 -728.150187867432
1447 -727.7539764707329
1448 -727.3719219432263
1449 -727.0036031306701
1450 -726.5962918145327
1451 -726.0871290416881
1452 -725.6940590236146
1453 -725.2029055132391
1454 -724.6903362117637
1455 -724.0944230270952
1456 -723.5918387553737
1457 -722.9421714060611
1458 -722.2790872563778
1459 -721.5127157561914
1460 -720.6479391584314
1461 -719.7928413156593
1462 -718.9981891301586
1463 -718.0879477041759
1464 -717.1494698906919
1465 -716.092328612917
1466 -715.1666186239298
1467 -714.0608656897366
1468 -713.081489297913
1469 -711.9845141831478
1470 -711.0451679546721
1471 -709.9974226693641
1472 -709.0754295508899
1473 -708.0631486061141
1474 -707.1303918545931
1475 -706.2398247427863
1476 -705.3796665642059
1477 -704.5019076181652
1478 -703.8033823778837
1479 -703.0319650069659
1480 -702.4298182732124
1481 -701.796460975335
1482 -701.3424546260156
1483 -700.9606590924775
1484 -700.687679906971
1485 -700.3807624894191
1486 -700.1726590269878
1487 -699.976624583933
1488 -699.9613704686436
1489 -699.9338163682543
1490 -700.1221204662462
1491 -700.2651659800993
1492 -700.5258418651293
1493 -700.818531942842
1494 -701.2607943196833
1495 -701.7139000592221
1496 -702.2777061879749
1497 -702.8224502608938
1498 -703.4782912565481
1499 -704.1058918712484
1500 -704.8975500691326
1501 -705.7271703495877
1502 -706.6082042441259
1503 -707.4159344889609
1504 -708.3111491854181
1505 -709.1997776632694
1506 -710.1681951522902
1507 -711.1107228520009
1508 -712.1046141902746
1509 -713.0269843102946
1510 -713.9157767457261
1511 -714.6950143944329
1512 -715.5453505520392
1513 -716.3384211824268
1514 -717.1927713432425
1515 -717.9763204514434
1516 -718.7600521263965
1517 -719.4230494281779
1518 -720.0702675818891
1519 -720.6364915759821
1520 -721.2349393753977
1521 -721.6912183700728
1522 -722.2466342376534
1523 -722.6722274433646
1524 -723.1913482351777
1525 -723.5541998230204
1526 -724.0075776255464
1527 -724.4011061449847
1528 -724.8530133042376
1529 -725.2314624368088
1530 -725.7178124143114
1531 -726.1862786256888
1532 -726.7304779884241
1533 -727.1832542945489
1534 -727.7015194181869
1535 -728.1709578707073
1536 -728.6974814658435
1537 -729.1571913877291
1538 -729.729874722522
1539 -730.3115023599156
1540 -730.9890526473451
1541 -731.5865365002325
1542 -732.2753031942932
1543 -732.8679193558108
1544 -733.538205619749
1545 -734.1406645423568
1546 -734.9061888678733
1547 -735.6155320838175
1548 -736.3814034765785
1549 -737.0617350472792
1550 -737.8495851935863
1551 -738.6323947277709
1552 -739.4452569442
1553 -740.1692538838406
1554 -741.0064933080289
1555 -741.7519568757533
1556 -742.541628105149
1557 -743.2354042740474
1558 -744.0339200923918
1559 -744.7524883942051
1560 -745.5441558752008
1561 -746.2209538194757
1562 -747.0107133328848
1563 -747.6024554744807
1564 -748.2692835669154
1565 -748.9002292324465
1566 -749.5683021803986
1567 -750.1134634950091
1568 -750.7493373641159
1569 -751.1911262904988
1570 -751.7032544297817
1571 -752.066023845965
1572 -752.550678357826
1573 -752.8672866176115
1574 -753.2333350552606
1575 -753.5520393233502
1576 -753.7319965799456
1577 -753.866710330492
1578 -754.0234154269637
1579 -754.1089543753482
1580 -754.2101139389356
1581 -754.1608116001912
1582 -754.0660730067308
1583 -753.8956454814007
1584 -753.7051703256639
1585 -753.3194653846332
1586 -752.9846459671733
1587 -752.4939217142886
1588 -752.0733225688617
1589 -751.479164495777
1590 -751.03082389491
1591 -750.4300707369775
1592 -749.9044473258476
1593 -749.2116086644854
1594 -748.5895548629957
1595 -747.8727468308545
1596 -747.1386914102947
1597 -746.3046708593117
1598 -745.4682614553714
1599 -744.5575977012213
1600 -743.7587035752257
1601 -742.7955458441643
1602 -742.015981418135
1603 -741.0906079744721
1604 -740.2479766045964
1605 -739.2938080450502
1606 -738.3935406651218
1607 -737.4266566568887
1608 -736.5836513110609
1609 -735.6067064748378
1610 -734.747462097262
1611 -733.8420679273846
1612 -733.0746014245472
1613 -732.2563613251235
1614 -731.6383070249631
1615 -730.8877223710542
1616 -730.2285673761833
1617 -729.4345732880698
1618 -728.7943226126091
1619 -728.0877297658926
1620 -727.4918166408048
1621 -726.7971471100082
1622 -726.1264094164509
1623 -725.4647008838599
1624 -724.8776123553745
1625 -724.3076256265496
1626 -723.800487787435
1627 -723.168977882074
1628 -722.6223115247996
1629 -722.1340175312367
1630 -721.6463987164332
1631 -721.1900837714721
1632 -720.8369546773494
1633 -720.4474659027709
1634 -720.2117414367485
1635 -719.9039426998449
1636 -719.8263927689144
1637 -719.7062276266057
1638 -719.6469080291932
1639 -719.6136305589677
1640 -719.8248083677373
1641 -720.03421865519
1642 -720.4135705190038
1643 -720.8335460309312
1644 -721.3439654776162
1645 -721.903425408514
1646 -722.649362601431
1647 -723.4236222307617
1648 -724.4472732661486
1649 -725.4408334320126
1650 -726.585708797929
1651 -727.6659153104599
1652 -728.8631589983336
1653 -730.0221722892333
1654 -731.2420002663595
1655 -732.4601169790114
1656 -733.8790870796884
1657 -735.0854369900555
1658 -736.5434319461142
1659 -737.7304654313865
1660 -739.0606488371981
1661 -740.2616318281702
1662 -741.4722787111931
1663 -742.6346038122011
1664 -743.7722559271091
1665 -744.8443652195134
1666 -745.935187323203
1667 -746.9394587876851
1668 -747.8877447254089
1669 -748.6780017352538
1670 -749.5055055343057
1671 -750.084920950809
1672 -750.7068123472496
1673 -751.1534503490901
1674 -751.5943955679628
1675 -751.9020693045092
1676 -752.1646899091213
1677 -752.2290823716753
1678 -752.3133035940855
1679 -752.1271231243397
1680 -751.9342823954258
1681 -751.6008667185739
1682 -751.1962112077147
1683 -750.5034353679732
1684 -749.8727244459359
1685 -749.1842976407102
1686 -748.4801875718705
1687 -747.6522436888935
1688 -746.7627906477915
1689 -745.8175111390024
1690 -744.8559935273523
1691 -743.7711933700069
1692 -742.6296299299232
1693 -741.4717244906215
1694 -740.2965432254725
1695 -738.9173985440995
1696 -737.6228031166522
1697 -736.3116731609471
1698 -735.063244173433
1699 -733.7021794411017
1700 -732.3696549982578
1701 -730.9073804376668
1702 -729.5167489346853
1703 -728.0854539683484
1704 -726.8166693422136
1705 -725.3978645295896
1706 -724.0595367829384
1707 -722.778695609797
1708 -721.541331664618
1709 -720.2527644879855
1710 -719.2000674283031
1711 -717.9381169657161
1712 -716.8367895071449
1713 -715.6602909609666
1714 -714.6198098175222
1715 -713.6237287583918
1716 -712.6684844360134
1717 -711.7272469162783
1718 -710.8684929323696
1719 -710.0151561726826
1720 -709.2929731064628
1721 -708.5106475563427
1722 -707.9033886275186
1723 -707.3121208424658
1724 -706.9130070873346
1725 -706.5987618676047
1726 -706.4653051502399
1727 -706.2784305943472
1728 -706.2839405507093
1729 -706.3023998733129
1730 -706.4642722584153
1731 -706.6111593430088
1732 -706.9274740046799
1733 -707.2209509426073
1734 -707.6668803864942
1735 -708.0691166069882
1736 -708.7115505495735
1737 -709.3782644735584
1738 -710.1730393408424
1739 -710.8114086102605
1740 -711.6149033148871
1741 -712.4559932978507
1742 -713.3900825618438
1743 -714.2192337020527
1744 -715.1535049439502
1745 -716.0802582247028
1746 -717.0056212002346
1747 -717.8965188073347
1748 -718.9517702730113
1749 -719.8540380424324
1750 -720.8758644098308
1751 -721.6379548080761
1752 -722.5066285306117
1753 -723.3925814445191
1754 -724.3714146868706
1755 -725.2155496721327
1756 -726.1550693579824
1757 -727.0144071116517
1758 -727.9442120094578
1759 -728.764123087782
1760 -729.7906747338815
1761 -730.6535099590434
1762 -731.529469248533
1763 -732.3252956811821
1764 -733.2171656014755
1765 -734.0577594749635
1766 -734.8926028321075
1767 -735.652749889078
1768 -736.4053281615238
1769 -737.0921913930393
1770 -737.741931758515
1771 -738.3160197151793
1772 -738.9283860655736
1773 -739.3197131096896
1774 -739.8249682977648
1775 -740.0178279103627
1776 -740.2837824536033
1777 -740.4422696126611
1778 -740.6347022711259
1779 -740.6879476358135
1780 -740.6671031529548
1781 -740.3636885862123
1782 -740.2396360365361
1783 -739.9368226410705
1784 -739.5769628032891
1785 -739.0451431601493
1786 -738.4927184215355
1787 -737.8152989271949
1788 -737.0854519802479
1789 -736.1782069977412
1790 -735.2980153995675
1791 -734.3105700277391
1792 -733.2629237792073
1793 -732.1507823683305
1794 -731.0519283441607
1795 -729.7049461173584
1796 -728.4694406844901
1797 -727.1335382142274
1798 -725.7979252071117
1799 -724.4339816126144
1800 -723.1383582584691
1801 -721.7893471692903
1802 -720.544527896456
1803 -719.2764741832486
1804 -718.1629345516155
1805 -717.0202976616494
1806 -716.0341551959416
1807 -714.975930371148
1808 -714.2344777453376
1809 -713.3492345225076
1810 -712.6915401937472
1811 -712.0073413602022
1812 -711.6297879974146
1813 -711.2824435541221
1814 -711.181181138467
1815 -711.1084223389885
1816 -711.2569489455182
1817 -711.4243175367807
1818 -711.8201801195638
1819 -712.3008944084918
1820 -712.9869849508623
1821 -713.6943180989157
1822 -714.6820203798238
1823 -715.6379706482933
1824 -716.7598703628927
1825 -717.8932598817892
1826 -719.1685484295208
1827 -720.3994875963477
1828 -721.7351181250262
1829 -723.1095802762735
1830 -724.5092747548439
1831 -725.8346892689449
1832 -727.2703296639357
1833 -728.5783070337337
1834 -729.9772354274652
1835 -731.1601066171772
1836 -732.4594411714625
1837 -733.5836238639565
1838 -734.7514706989047
1839 -735.7295571087097
1840 -736.7908812050159
1841 -737.6691612340543
1842 -738.5323016848671
1843 -739.2449641660058
1844 -739.824694704537
1845 -740.3132098387
1846 -740.7823607277018
1847 -741.0609316171028
1848 -741.302518804777
1849 -741.4130106662903
1850 -741.5122727769564
1851 -741.5436308365781
1852 -741.5420488500799
1853 -741.3895507281184
1854 -741.2625865588462
1855 -740.9966738081824
1856 -740.7589657726953
1857 -740.4333037867465
1858 -740.1293483598192
1859 -739.6981292110645
1860 -739.3680837723335
1861 -738.9091460884258
1862 -738.5064208728603
1863 -738.0740634311348
1864 -737.7247856068858
1865 -737.2314983412342
1866 -736.8508273432699
1867 -736.4077208966597
1868 -736.042025436089
1869 -735.7274839459581
1870 -735.4777184506745
1871 -735.1899262492209
1872 -735.0373865167045
1873 -734.8511220180283
1874 -734.7246293127583
1875 -734.6299875597967
1876 -734.6767828519457
1877 -734.7134760974841
1878 -734.9011923911063
1879 -734.9757182444537
1880 -735.1269277309158
1881 -735.2641009583599
1882 -735.5375402980804
1883 -735.842943968491
1884 -736.1499448000974
1885 -736.4628512307686
1886 -736.7475356993681
1887 -737.1027386005467
1888 -737.4659203838133
1889 -737.7210148952922
1890 -738.1381046853651
1891 -738.4779290593819
1892 -738.930523521278
1893 -739.2561656872224
1894 -739.6693183293434
1895 -740.0495693979281
1896 -740.4387104703166
1897 -740.7682019104375
1898 -741.1843425935898
1899 -741.4923870962191
1900 -741.8474893154065
1901 -742.1293497820501
1902 -742.4450690622565
1903 -742.6877347420671
1904 -742.9490055421969
1905 -743.1017223539973
1906 -743.3186760461547
1907 -743.379813465589
1908 -743.4851183065387
1909 -743.5053178350614
1910 -743.530991234166
1911 -743.4930198791388
1912 -743.5632848027831
1913 -743.4543035831711
1914 -743.4122731553404
1915 -743.2398267903502
1916 -743.1993120369725
1917 -743.0370229347269
1918 -742.820403089905
1919 -742.541224649412
1920 -742.3197069939968
1921 -741.9464202223903
1922 -741.6650860227259
1923 -741.3547855798835
1924 -741.0658086405481
1925 -740.7410610930555
1926 -740.4296234998076
1927 -740.0745645454873
1928 -739.8171964894032
1929 -739.4463412673365
1930 -739.0998551536287
1931 -738.7416561982814
1932 -738.4258599012088
1933 -738.0155778291321
1934 -737.6365572294083
1935 -737.240690798258
1936 -736.8899227945429
1937 -736.4882536671146
1938 -736.185256753295
1939 -735.7297973696765
1940 -735.4019811775473
1941 -734.9629348899432
1942 -734.5866064600087
1943 -734.092776526565
1944 -733.6914244077524
1945 -733.327190845451
1946 -732.9852748247887
1947 -732.5771992660966
1948 -732.2031780604667
1949 -731.8109085980005
1950 -731.5098198578934
1951 -731.0994048471114
1952 -730.656170247042
1953 -730.1881923567103
1954 -729.7814521052074
1955 -729.3365874889506
1956 -728.9457484997358
1957 -728.439993080003
1958 -728.0752029885283
1959 -727.5624688610178
1960 -727.0985834848954
1961 -726.5815711017074
1962 -726.0190396844315
1963 -725.4125262052686
1964 -724.9858654679631
1965 -724.4084872570216
1966 -723.9071088247533
1967 -723.442607337489
1968 -722.990238487016
1969 -722.4793979481618
1970 -722.1101882829987
1971 -721.7215057063656
1972 -721.4141661515367
1973 -721.0421592582575
1974 -720.7679120811746
1975 -720.4901113335507
1976 -720.3836664461229
1977 -720.1803242981885
1978 -720.1469753767518
1979 -720.1607301937071
1980 -720.3620596911877
1981 -720.5031787952361
1982 -720.8280673885915
1983 -721.0479641229584
1984 -721.3861239162308
1985 -721.6956271994179
1986 -722.1223078493305
1987 -722.4853157997372
1988 -722.920536535354
1989 -723.3312825029851
1990 -723.8562014030687
1991 -724.3043357248519
1992 -724.8191828512389
1993 -725.2803019817779
1994 -725.7201874822191
1995 -726.119329445162
1996 -726.6245249485042
1997 -727.002930782827
1998 -727.4460473848853
1999 -727.787402109753
2000 -728.1260965076184
2001 -728.4520351525546
2002 -728.7248053072285
2003 -728.9221867958208
2004 -729.1752716309591
2005 -729.2807267877536
2006 -729.451462809391
2007 -729.5342509112392
2008 -729.643125449713
2009 -729.6677123745022
2010 -729.720625796979
2011 -729.6484650428559
2012 -729.6400742359718
2013 -729.6115155563496
2014 -729.6075415906297
2015 -729.551497344892
2016 -729.5676605495908
2017 -729.5026621736029
2018 -729.5828758445916
2019 -729.6047411529971
2020 -729.7068631821068
2021 -729.802515888288
2022 -730.0628938120141
2023 -730.2984331440791
2024 -730.6233819547144
2025 -730.9016938467447
2026 -731.3037287244773
2027 -731.6945536031794
2028 -732.1859245587073
2029 -732.6856197075047
2030 -733.3316567386986
2031 -733.9916340324128
2032 -734.7194682891948
2033 -735.4321690371698
2034 -736.3449372824867
2035 -737.120525383355
2036 -738.0030153033902
2037 -738.8629413170028
2038 -739.7693259833507
2039 -740.6534379048641
2040 -741.5882312086852
2041 -742.4430329265939
2042 -743.3961952421554
2043 -744.2410494559601
2044 -745.1128315228931
2045 -745.947479897887
2046 -746.8375437584662
2047 -747.6113152952015
2048 -748.4550674790203
2049 -749.1617686621156
2050 -749.8686091535853
2051 -750.4507284114309
2052 -751.0846704842078
2053 -751.553767155012
2054 -752.026403974114
2055 -752.4018266106899
2056 -752.7751116628842
2057 -753.0277832304145
2058 -753.2592712353115
2059 -753.3268352609607
2060 -753.4400662261605
2061 -753.4494058953106
2062 -753.4867115384891
2063 -753.4010191515911
2064 -753.347199907486
2065 -753.2125871700614
2066 -753.0833483898542
2067 -752.8644100116654
2068 -752.6074318240054
2069 -752.2917624644084
2070 -752.0419170813194
2071 -751.6993671356981
2072 -751.509706975392
2073 -751.2691487909237
2074 -751.1670454488755
2075 -750.9511465728593
2076 -750.8061500760948
2077 -750.6569183119885
2078 -750.6165238407466
2079 -750.5242205844633
2080 -750.5449313731543
2081 -750.503718971593
2082 -750.5881346610558
2083 -750.6650945491292
2084 -750.8765613367858
2085 -751.0449916128184
2086 -751.3849213375144
2087 -751.6167916122777
2088 -752.0462714120722
2089 -752.4535919701308
2090 -753.0026830106154
2091 -753.5521198285088
2092 -754.191489945007
2093 -754.8291134123256
2094 -755.6341933796944
2095 -756.3903284073594
2096 -757.2986060084939
2097 -758.1740693361571
2098 -759.1284755288335
2099 -760.0332720083867
2100 -761.0590263254518
2101 -762.0175942620002
2102 -763.0835657347737
2103 -764.0740291571675
2104 -765.1756650661963
2105 -766.1738153077172
2106 -767.2559963963838
2107 -768.2995199882147
2108 -769.3745668015906
2109 -770.4349604946982
2110 -771.5428753529497
2111 -772.5513282129723
2112 -773.6766423977851
2113 -774.7184911604353
2114 -775.7344235076046
2115 -776.6550318502783
2116 -777.6191908355163
2117 -778.5145779192781
2118 -779.3978208990907
2119 -780.2131330985521
2120 -781.0719744205435
2121 -781.7618257381927
2122 -782.5518062003924
2123 -783.2362215427657
2124 -783.9415431517996
2125 -784.5629323980645
2126 -785.234600218616
2127 -785.7196725423503
2128 -786.3191473642901
2129 -786.7228730578975
2130 -787.1493382808745
2131 -787.5136562293247
2132 -787.9006914817478
2133 -788.1953518776436
2134 -788.5339780411409
2135 -788.7510478832723
2136 -788.995549659203
2137 -789.1324897914565
2138 -789.3607683024518
2139 -789.4375970112625
2140 -789.5928457885743
2141 -789.5833255871265
2142 -789.5717267133783
2143 -789.4688747221669
2144 -789.4139510021387
2145 -789.2002515278338
2146 -788.9722350836322
2147 -788.6411256495498
2148 -788.390559624337
2149 -788.0065159908993
2150 -787.7658279807529
2151 -787.3661521126927
2152 -786.9828023293885
2153 -786.5127406860138
2154 -785.9579960968431
2155 -785.2734720247012
2156 -784.6275326431936
2157 -783.9284083834566
2158 -783.236641891343
2159 -782.4100532316804
2160 -781.653305134539
2161 -780.817608132569
2162 -780.0306821677341
2163 -779.0558603067439
2164 -778.1253194902094
2165 -777.0256182918758
2166 -775.9883137451787
2167 -774.8409612088481
2168 -773.6393413434565
2169 -772.3049912098121
2170 -771.0645582505923
2171 -769.5701581506438
2172 -768.1650507261837
2173 -766.7083515523896
2174 -765.2608265498772
2175 -763.7499961422329
2176 -762.2866257678851
2177 -760.6772562404773
2178 -759.137335885781
2179 -757.5244882117823
2180 -756.1054222341202
2181 -754.6563690959425
2182 -753.2450023428307
2183 -751.7883898779551
2184 -750.4482317176338
2185 -749.1775845847426
2186 -748.0193623879406
2187 -746.866045669378
2188 -745.8205329566188
2189 -744.7481485739896
2190 -743.8432281661125
2191 -743.00880514064
2192 -742.3252496308717
2193 -741.7041035671705
2194 -741.1948291183844
2195 -740.7884267383967
2196 -740.5472381135357
2197 -740.4214766935487
2198 -740.4444379013726
2199 -740.4734519702032
2200 -740.6892008956876
2201 -740.8509397380802
2202 -741.1709810703645
2203 -741.5801071046617
2204 -742.1463996936169
2205 -742.7513307606885
2206 -743.5133194457723
2207 -744.2435756198116
2208 -745.0782526104741
2209 -745.9255509092814
2210 -746.8597956913652
2211 -747.7443569721551
2212 -748.735598924863
2213 -749.7437204915429
2214 -750.6369630859957
2215 -751.5574017486499
2216 -752.5311950380992
2217 -753.3844053275724
2218 -754.3106545948554
2219 -755.087557060169
2220 -755.9799007576138
2221 -756.6998561949443
2222 -757.3740212560891
2223 -758.0053539918617
2224 -758.6232191815811
2225 -759.1515943038386
2226 -759.7169742343305
2227 -760.1032536255501
2228 -760.5726804384948
2229 -760.9545844466136
2230 -761.2649218593472
2231 -761.5343624948282
2232 -761.8328128046359
2233 -762.0039105352333
2234 -762.2250444781612
2235 -762.3208370214015
2236 -762.447544141467
2237 -762.4682125574394
2238 -762.6103215800791
2239 -762.6219405503946
2240 -762.695707348356
2241 -762.6951563538032
2242 -762.7742647646901
2243 -762.832328934334
2244 -762.9659617261376
2245 -762.9006287785783
2246 -762.9306773931568
2247 -762.8829291021157
2248 -762.9219371352738
2249 -762.8918883739916
2250 -762.8289276059735
2251 -762.6463747477073
2252 -762.5836516820266
2253 -762.4499215159605
2254 -762.3647986761715
2255 -762.1791512915777
2256 -762.1450896514559
2257 -761.9992831868338
2258 -761.9070475543637
2259 -761.6595903852398
2260 -761.4480868206439
2261 -761.2176430095125
2262 -760.9709964291427
2263 -760.6102880350426
2264 -760.2932662970554
2265 -759.8566283037737
2266 -759.522207313796
2267 -759.0241394972187
2268 -758.5947690919834
2269 -758.0515551866755
2270 -757.4998288594941
2271 -756.9282228687182
2272 -756.328208666985
2273 -755.6170784767273
2274 -754.9058779056162
2275 -754.1512733144614
2276 -753.3697504093496
2277 -752.5346657451438
2278 -751.7277204718985
2279 -750.8283562506817
2280 -749.9548438995042
2281 -749.0925966101997
2282 -748.2837564590578
2283 -747.3459564553698
2284 -746.5154254212293
2285 -745.5833042873981
2286 -744.6774002029633
2287 -743.7476297727819
2288 -742.865523038626
2289 -741.9258433021577
2290 -741.0458125129718
2291 -740.0962825193229
2292 -739.2585480261152
2293 -738.3655883924559
2294 -737.5648170824965
2295 -736.7570127537364
2296 -736.0040890067291
2297 -735.1483148076449
2298 -734.4620473047257
2299 -733.7440526259071
2300 -733.1401591334128
2301 -732.5748167372493
2302 -732.1736567540494
2303 -731.7415290035013
2304 -731.436800250925
2305 -731.097495237154
2306 -730.8610824341737
2307 -730.6704899413066
2308 -730.6127725232284
2309 -730.6401839341236
2310 -730.7933866460149
2311 -730.9554610076111
2312 -731.2318515739618
2313 -731.5053606501936
2314 -731.9535237529572
2315 -732.323280679532
2316 -732.7696034423021
2317 -733.1848243768218
2318 -733.7276614126354
2319 -734.2326070285334
2320 -734.8404698713458
2321 -735.3594315521552
2322 -736.0356217072105
2323 -736.6847155522682
2324 -737.4131774454396
2325 -738.0230907206432
2326 -738.7164997348727
2327 -739.3623968551537
2328 -740.0721942722652
2329 -740.7357618980604
2330 -741.3723098330905
2331 -741.9354490488363
2332 -742.6566665990096
2333 -743.2643667500222
2334 -743.8964368386995
2335 -744.4485966112244
2336 -745.0161434620082
2337 -745.4655272464297
2338 -746.0009707492
2339 -746.3587548579186
2340 -746.6670918204725
2341 -747.0335867571039
2342 -747.3222734606086
2343 -747.4561309850066
2344 -747.5671889261976
2345 -747.5241538983214
2346 -747.5203161075792
2347 -747.2880141536396
2348 -747.0756744473632
2349 -746.7035875025852
2350 -746.3593705282852
2351 -745.7610805321685
2352 -745.1822168827495
2353 -744.3751273013301
2354 -743.5704904289101
2355 -742.5106444817987
2356 -741.4360736458218
2357 -740.2422043803821
2358 -738.919731024649
2359 -737.4765415380973
2360 -736.0015667817818
2361 -734.3229251035077
2362 -732.6140893963117
2363 -730.7214403186474
2364 -728.8197327436955
2365 -726.8316295037977
2366 -724.8511563912575
2367 -722.710197499929
2368 -720.6717050092941
2369 -718.530158838955
2370 -716.5627676015769
2371 -714.4274593189904
2372 -712.5043064572992
2373 -710.3521448407147
2374 -708.4222127002944
2375 -706.5985590109026
2376 -704.1216391256596
2377 -702.3693723347722
2378 -700.8598680965373
2379 -699.3776740508048
2380 -698.0695378702693
2381 -696.8586131578633
2382 -695.8983354845592
2383 -694.9587706312442
2384 -694.2885667235557
2385 -693.6599693557005
2386 -693.2311893628583
2387 -692.8724976151414
2388 -692.7715650641795
2389 -692.7182553517792
2390 -692.8679486132405
2391 -693.127020236826
2392 -693.5604596350573
2393 -694.0623016738839
2394 -694.7814307182156
2395 -695.5731154519833
2396 -696.4931663539655
2397 -697.4984556329644
2398 -698.6565196867864
2399 -699.8347507553572
2400 -701.1330724135973
2401 -702.4116314594029
2402 -703.8019267704398
2403 -705.1374830906976
2404 -706.5256313313107
2405 -707.9134925596062
2406 -709.3049962487397
2407 -710.6232918414494
2408 -711.9883593259368
2409 -713.2297573987454
2410 -714.4880426011611
2411 -715.5779266397161
2412 -716.6820988400938
2413 -717.619355002744
2414 -718.5523714201819
2415 -719.3226146639967
2416 -720.0735981816911
2417 -720.6368785349709
2418 -721.2385350486659
2419 -721.6468358641328
2420 -722.0833090540316
2421 -722.3380827810142
2422 -722.5820048275767
2423 -722.6659776655262
2424 -722.8085511773551
2425 -722.8222425770686
2426 -722.8290286175749
2427 -722.7437438533017
2428 -722.6424824049573
2429 -722.4524272069928
2430 -722.2748968542753
2431 -722.0620640158094
2432 -721.9176435436707
2433 -721.6795606996166
2434 -721.4957694915964
2435 -721.2381657202749
2436 -721.13585374863
2437 -720.979033866803
2438 -720.9123719344715
2439 -720.7915384709111
2440 -720.8281273299505
2441 -720.7770820228047
2442 -720.8861146491879
2443 -720.9271777917733
2444 -721.1160643213167
2445 -721.2734671014731
2446 -721.5389256708326
2447 -721.7905012888901
2448 -722.0998312057715
2449 -722.3842512621628
2450 -722.7894957834436
2451 -723.1707458490666
2452 -723.6252375553364
2453 -724.0276178348323
2454 -724.5352731524782
2455 -725.0322406484599
2456 -725.57981316602
2457 -726.0949397254465
2458 -726.7080235369223
2459 -727.2617900276982
2460 -727.8730177760918
2461 -728.4435505781844
2462 -729.0193676706245
2463 -729.5044523916415
2464 -730.1130777629977
2465 -730.5617762527426
2466 -731.1329873339625
2467 -731.582806553187
2468 -732.0766404004443
2469 -732.4136576275662
2470 -732.8203432923418
2471 -733.0709378640742
2472 -733.4530289976548
2473 -733.6912099466658
2474 -733.9590626850412
2475 -734.1188117164747
2476 -734.3020359320111
2477 -734.3831638306763
2478 -734.5078484815252
2479 -734.5576205281701
2480 -734.6088130638078
2481 -734.5247074157664
2482 -734.5219302126796
2483 -734.3331862846601
2484 -734.1949997957281
2485 -733.9329022184814
2486 -733.6922885074816
2487 -733.3232089621655
2488 -732.946046563914
2489 -732.4801980922961
2490 -732.0461433837698
2491 -731.5026777828707
2492 -731.0438743666319
2493 -730.4887149910072
2494 -729.8706395602167
2495 -729.1877540335772
2496 -728.5295572958227
2497 -727.777064255587
2498 -727.0804214621038
2499 -726.3272616644653
2500 -725.6010820795278
2501 -724.7389690725812
2502 -723.8971877757219
2503 -722.9891797181161
2504 -722.1415336056657
2505 -721.1780256734451
2506 -720.3274644462759
2507 -719.3769839380288
2508 -718.5144341281216
2509 -717.5921189733232
2510 -716.7244752052975
2511 -715.8158458141929
2512 -714.9661072341396
2513 -713.9925646393717
2514 -713.1377773483315
2515 -712.2603206747661
2516 -711.3815463539202
2517 -710.4391185947065
2518 -709.6172443431155
2519 -708.7704936413813
2520 -707.9811647047278
2521 -707.1599735819899
2522 -706.4313145959345
2523 -705.7235612130739
2524 -705.0759766437411
2525 -704.4141448998014
2526 -703.8277518505602
2527 -703.2571844020136
2528 -702.7393901467293
2529 -702.1823515158112
2530 -701.688811907241
2531 -701.1899599821868
2532 -700.7478428964166
2533 -700.3357179188093
2534 -699.9722106340074
2535 -699.6117601964
2536 -699.3015004903179
2537 -698.9319354875017
2538 -698.6532070778213
2539 -698.424451451933
2540 -698.1984139315846
2541 -697.9028379043009
2542 -697.7355323348806
2543 -697.4809017763952
2544 -697.3227653367088
2545 -697.1515887692049
2546 -697.0463486593835
2547 -696.9111301055228
2548 -696.84053612251
2549 -696.6940320837246
2550 -696.6772750572513
2551 -696.6716441883112
2552 -696.7379841867444
