"y-rfile"
"Iteration" "y"
("Iteration" "y")
1 -18798.81563721176
2 -18321.25043987678
3 -16484.93374186225
4 -14617.27202923506
5 -12623.56240014802
6 -11047.25117428087
7 -8605.941733844649
8 -6123.564844044381
9 -4270.577137209805
10 -3119.090510178556
11 -2143.479684628342
12 -1419.491125033857
13 -893.3931977639236
14 -516.7598172922139
15 -344.8733615600709
16 -351.4429471722901
17 -497.0560392323882
18 -734.5986065758806
19 -1034.39153488009
20 -1330.260479501536
21 -1649.160014177934
22 -1930.637180781932
23 -2258.200553183544
24 -2518.373257348235
25 -2803.422681553522
26 -3084.143895554234
27 -3275.018637011588
28 -3449.167702403406
29 -3553.744829885643
30 -3632.045117616165
31 -3677.306014101322
32 -3701.194478900472
33 -3706.34380637267
34 -3706.295307543666
35 -3698.000653781624
36 -3688.88822143019
37 -3671.418503500219
38 -3656.393614982722
39 -3636.739176045709
40 -3622.193870263796
41 -3608.962337579289
42 -3601.885074872632
43 -3597.261129567192
44 -3598.648134406119
45 -3600.817317096483
46 -3607.45400733623
47 -3613.410408264906
48 -3622.847690851624
49 -3632.882202530104
50 -3641.917575834944
51 -3655.788856893848
52 -3671.751317560389
53 -3687.42695132984
54 -3703.974111989664
55 -3719.942231696664
56 -3736.51888286964
57 -3752.123440527946
58 -3767.311812289659
59 -3781.087336840317
60 -3794.347793782148
61 -3806.225468164959
62 -3817.645352143628
63 -3827.682881403839
64 -3836.98420607962
65 -3842.316333648789
66 -3850.112142686005
67 -3854.514163421727
68 -3860.910757600259
69 -3864.492097022095
70 -3869.732763290297
71 -3872.655155996898
72 -3876.967980744026
73 -3879.239150619001
74 -3882.790156886314
75 -3884.513075343152
76 -3887.697588935378
77 -3889.284111858046
78 -3891.69751889031
79 -3893.034034728445
80 -3894.324875488966
81 -3895.819903882419
82 -3897.050197370105
83 -3898.024359600643
84 -3899.07960637093
85 -3899.918211364256
86 -3901.615760289722
87 -3902.378008091311
88 -3903.435073570417
89 -3904.204301792341
90 -3905.050134950963
91 -3906.567189428991
92 -3907.428819469472
93 -3908.001143677169
94 -3908.815302046436
95 -3909.271218851817
96 -3910.006219736232
97 -3910.976202811133
98 -3911.709990591457
99 -3912.30952806345
100 -3912.831451922843
101 -3913.180420345082
102 -3913.668763060295
103 -3913.958551185189
104 -3914.722549667784
105 -3915.132748993511
106 -3915.732393517139
107 -3916.053365765204
108 -3916.578854339395
109 -3916.860779040478
110 -3917.214541354955
111 -3917.720226852071
112 -3918.310092202876
113 -3918.801183294649
114 -3919.382203813579
115 -3919.728658610736
116 -3920.49839633336
117 -3920.930844410487
118 -3921.411208056912
119 -3922.291556691629
120 -3922.930982881759
121 -3923.467523242745
122 -3924.392683351322
123 -3924.951043320048
124 -3925.498954490372
125 -3926.220941715568
126 -3926.715572841282
127 -3927.79800169494
128 -3928.436234845011
129 -3929.254670341122
130 -3929.8012792321
131 -3930.590738744835
132 -3931.26342134345
133 -3931.974721311585
134 -3932.456930225832
135 -3933.209943830315
136 -3933.772685920462
137 -3934.488652745381
138 -3935.047370382854
139 -3935.711940478907
140 -3936.544076081103
141 -3937.009281829254
142 -3937.661939815711
143 -3938.401081332054
144 -3938.990981305491
145 -3939.762613203134
146 -3940.744396495018
147 -3941.494831081193
148 -3942.063412108835
149 -3942.704030325107
150 -3943.577467354144
151 -3944.261614605855
152 -3945.055380209519
153 -3945.778724937198
154 -3946.568358419913
155 -3947.264009598574
156 -3947.975393161419
157 -3948.688793819676
158 -3949.518589799327
159 -3950.383212516129
160 -3951.397329401881
161 -3952.218444254677
162 -3953.171282707024
163 -3954.0550918799
164 -3955.033808014595
165 -3956.083859556762
166 -3957.000466673082
167 -3957.911634720243
168 -3959.052083647813
169 -3959.999113503459
170 -3960.944262663257
171 -3961.891073861358
172 -3962.857982113196
173 -3963.890915589525
174 -3964.867191050107
175 -3965.871542474262
176 -3966.916439399883
177 -3968.108041984808
178 -3969.190702129657
179 -3970.22903535694
180 -3971.514590378757
181 -3972.593050652029
182 -3973.707175854215
183 -3974.818912609299
184 -3975.987773368561
185 -3977.134917402179
186 -3978.386932754158
187 -3979.638535366837
188 -3980.859981345576
189 -3982.019236040668
190 -3983.204361602212
191 -3984.215799817364
192 -3985.48050961422
193 -3986.395982286097
194 -3987.526211303979
195 -3988.616813599283
196 -3989.730526220776
197 -3990.860954758892
198 -3992.116415438966
199 -3993.249253775485
200 -3994.544639043671
201 -3995.630236466468
202 -3996.857288138164
203 -3997.842981459429
204 -3998.962021748539
205 -4000.037804912507
206 -4001.128859552083
207 -4001.999604862478
208 -4003.183690125319
209 -4004.231693676142
210 -4005.315528713426
211 -4006.341396198332
212 -4007.42668754854
213 -4008.439549354329
214 -4009.478896911041
215 -4010.391624856652
216 -4011.488929948982
217 -4012.443947973806
218 -4013.540938797722
219 -4014.320451778072
220 -4015.154526348372
221 -4016.002614413117
222 -4016.826709697521
223 -4017.551458846489
224 -4018.31311480287
225 -4019.034059287384
226 -4019.910315437341
227 -4020.582744720502
228 -4021.551699554621
229 -4022.270440581812
230 -4023.382722716108
231 -4024.195572263013
232 -4025.170778539268
233 -4025.859741668309
234 -4026.804677572021
235 -4027.500242187523
236 -4028.38441965803
237 -4029.004586415067
238 -4029.970675169066
239 -4030.816594490088
240 -4031.740149291095
241 -4032.562556727722
242 -4033.535087297761
243 -4034.433107475813
244 -4035.536402110003
245 -4036.391379122476
246 -4037.527645057007
247 -4038.58186597615
248 -4039.664968862185
249 -4040.729213229234
250 -4041.964010673089
251 -4042.940921366028
252 -4044.108334664099
253 -4045.075702204856
254 -4046.224253616041
255 -4047.266262745331
256 -4048.477881419197
257 -4049.507049049874
258 -4050.770113440642
259 -4051.991343761372
260 -4053.270195705997
261 -4054.502757969153
262 -4055.924353507362
263 -4057.184991033024
264 -4058.559972781069
265 -4059.824428838484
266 -4061.442736552754
267 -4062.886548598175
268 -4064.533867969717
269 -4065.883537053911
270 -4067.518430741071
271 -4069.190939285489
272 -4071.005864239804
273 -4072.551229857596
274 -4074.36268709316
275 -4075.98178481852
276 -4077.869051986241
277 -4080.184363692571
278 -4082.066706315308
279 -4083.686446565358
280 -4085.592035276101
281 -4087.231819642678
282 -4089.544778061303
283 -4091.244628591109
284 -4093.144475673523
285 -4095.487153198134
286 -4097.570242990612
287 -4099.319384237221
288 -4102.093012619248
289 -4103.863498961903
290 -4105.965695381773
291 -4108.334950258205
292 -4110.486671172423
293 -4112.291923085621
294 -4115.029678785872
295 -4116.930419196705
296 -4119.87713914978
297 -4121.819194054536
298 -4124.093758896163
299 -4126.862468471211
300 -4129.200755645777
301 -4132.054269708573
302 -4134.372595641885
303 -4137.260765503548
304 -4139.602722520536
305 -4142.384353070587
306 -4144.575877834712
307 -4147.364266818479
308 -4149.600076260568
309 -4152.229432188837
310 -4154.450050688946
311 -4157.230120528387
312 -4159.44545940364
313 -4162.072524514565
314 -4164.359656437999
315 -4167.167398726136
316 -4169.346003692063
317 -4171.94938009311
318 -4174.213383025394
319 -4177.088045854394
320 -4179.392469206203
321 -4182.126148653334
322 -4184.37008004371
323 -4186.928002958469
324 -4189.107823813361
325 -4191.763070215727
326 -4193.740001019434
327 -4195.508011896256
328 -4198.269083740613
329 -4199.927555365611
330 -4202.664259971753
331 -4204.406286685664
332 -4206.471848379896
333 -4208.898907305882
334 -4210.754920894166
335 -4212.553854847331
336 -4215.038567100679
337 -4216.803132281182
338 -4218.844390287813
339 -4221.36084452326
340 -4223.415471259754
341 -4225.161206712044
342 -4227.604726432726
343 -4229.404056256733
344 -4231.504798457024
345 -4233.308733035295
346 -4235.986296562512
347 -4237.645422457221
348 -4239.666352536067
349 -4241.427045745806
350 -4243.574197712781
351 -4245.972945465463
352 -4247.866050524518
353 -4249.35784357843
354 -4251.290617420889
355 -4252.886678212893
356 -4254.758869125444
357 -4256.224361227407
358 -4258.052534533682
359 -4259.662049114056
360 -4261.510346137172
361 -4263.016724577814
362 -4264.714513986055
363 -4266.050094197857
364 -4267.603069322443
365 -4268.866511510322
366 -4270.318706562962
367 -4271.592784156698
368 -4272.99940887312
369 -4274.033879980654
370 -4275.320162569344
371 -4276.371515535865
372 -4277.65633128125
373 -4278.821403254321
374 -4280.119449551487
375 -4281.076862206561
376 -4282.305089416414
377 -4283.279429538451
378 -4284.383083144376
379 -4285.242320421114
380 -4286.318010083363
381 -4287.231509125212
382 -4288.268136035245
383 -4289.25098310644
384 -4290.286242372344
385 -4291.036171001058
386 -4291.952775840721
387 -4292.711058489956
388 -4293.674386182294
389 -4294.398303361744
390 -4295.384858982453
391 -4296.099242805941
392 -4296.949410736757
393 -4297.766848179556
394 -4298.783007443937
395 -4299.420428394777
396 -4300.292837110116
397 -4300.950361651624
398 -4301.686329934498
399 -4302.323257348633
400 -4302.907239534648
401 -4303.395711599399
402 -4304.026524436907
403 -4304.551217434714
404 -4305.09302812672
405 -4305.393060328898
406 -4305.891736316961
407 -4306.140845418588
408 -4306.531078677525
409 -4306.602382830117
410 -4306.790532668495
411 -4306.710761666102
412 -4306.931962190973
413 -4306.791809103311
414 -4306.870015032729
415 -4306.773407622982
416 -4306.848634094054
417 -4306.560494196146
418 -4306.46654556421
419 -4306.165144569955
420 -4306.063066180919
421 -4305.614537783674
422 -4305.358577331534
423 -4304.950202128318
424 -4304.636777995303
425 -4304.142625638539
426 -4303.839435733008
427 -4303.258163164746
428 -4302.693384650067
429 -4301.997427993162
430 -4301.428565877776
431 -4300.670264810496
432 -4300.063064005827
433 -4299.172898803296
434 -4298.467074941123
435 -4297.381309683075
436 -4296.690937997265
437 -4295.735822903576
438 -4295.056838811736
439 -4293.958788773727
440 -4293.000991472074
441 -4291.861515097776
442 -4290.957654454244
443 -4289.910841463518
444 -4289.018126322154
445 -4287.907453293706
446 -4286.959461514803
447 -4285.796258086084
448 -4284.877726114351
449 -4283.695162026141
450 -4282.701862719437
451 -4281.507736040417
452 -4280.399627148448
453 -4279.07449524363
454 -4277.945302231455
455 -4276.691469573801
456 -4275.637327714778
457 -4274.276191153714
458 -4273.00936421932
459 -4271.639977351406
460 -4270.369086461195
461 -4268.803816278242
462 -4267.392583814041
463 -4265.798503582242
464 -4264.476753557963
465 -4262.778808573832
466 -4261.493472201716
467 -4259.773655918166
468 -4258.227596728296
469 -4256.354634595386
470 -4254.764185831054
471 -4252.906885725387
472 -4251.264407670277
473 -4249.412226971604
474 -4247.770231779676
475 -4245.890267191397
476 -4244.152316340897
477 -4242.228128158301
478 -4240.419360408477
479 -4238.43290105838
480 -4236.583715450646
481 -4234.35733572064
482 -4232.2686152786
483 -4230.008861061039
484 -4227.909474783482
485 -4225.680886610994
486 -4223.469690628821
487 -4221.085703938132
488 -4218.877110634676
489 -4216.416941871205
490 -4214.123698689501
491 -4211.590580326703
492 -4209.140987143248
493 -4206.616017946646
494 -4204.180360014974
495 -4201.31535169426
496 -4198.783987932294
497 -4196.066546829409
498 -4193.486212262635
499 -4190.596886080777
500 -4187.964746555051
501 -4185.170227383828
502 -4182.536201845818
503 -4179.695955571939
504 -4177.061670579851
505 -4174.198119140498
506 -4171.529503352436
507 -4168.698405098326
508 -4165.992300608378
509 -4163.184358363586
510 -4160.358461707814
511 -4157.538565003743
512 -4154.813787542141
513 -4151.925695757718
514 -4149.531726247772
515 -4146.719918909796
516 -4144.164493486875
517 -4141.433703333204
518 -4138.948886756833
519 -4136.250394838972
520 -4133.89429775934
521 -4131.297913357517
522 -4128.830418828594
523 -4126.262302785954
524 -4123.980201797312
525 -4121.456678333067
526 -4119.418115113588
527 -4117.06960395477
528 -4114.817659864737
529 -4112.413801807629
530 -4110.277922001111
531 -4107.855019866135
532 -4105.774864797725
533 -4103.47468858071
534 -4101.427543308403
535 -4099.18517585128
536 -4097.131949514398
537 -4094.966076680102
538 -4093.006729390488
539 -4090.680692386743
540 -4088.678239665042
541 -4086.511279137068
542 -4084.637952569658
543 -4082.485081124355
544 -4080.3281329531
545 -4077.918198790303
546 -4075.900617196768
547 -4073.698018555653
548 -4071.620328249622
549 -4069.388693806717
550 -4067.311250567561
551 -4065.000834752941
552 -4062.818621462973
553 -4060.567461960378
554 -4058.178031878515
555 -4055.751043038065
556 -4053.422705636754
557 -4050.908488829537
558 -4048.557333523386
559 -4046.073966195142
560 -4043.613560404348
561 -4040.974912438442
562 -4038.443530121112
563 -4035.797402200289
564 -4033.288426123695
565 -4030.635182897583
566 -4028.171763740791
567 -4025.531874577607
568 -4023.138373505122
569 -4020.506389056233
570 -4018.100135102653
571 -4015.324563501506
572 -4012.742940782153
573 -4009.893109277039
574 -4007.421217737344
575 -4004.654847413237
576 -4002.072617407924
577 -3999.302948632177
578 -3996.805970606225
579 -3994.029869310123
580 -3991.597552933604
581 -3988.848823311691
582 -3986.206464945301
583 -3983.421279471585
584 -3980.748046159353
585 -3977.84233142756
586 -3975.24307154885
587 -3972.525881661601
588 -3969.973344329834
589 -3967.171769401154
590 -3964.604688354524
591 -3961.906354368936
592 -3959.278896510773
593 -3956.606260959991
594 -3954.099423264234
595 -3951.38610586455
596 -3948.878196131982
597 -3946.134094285766
598 -3943.714051580947
599 -3941.052830622461
600 -3938.547566052272
601 -3936.037336496083
602 -3933.65452721894
603 -3931.073918775121
604 -3928.627345200117
605 -3926.123569418224
606 -3923.718883144968
607 -3921.323343452464
608 -3919.122289882616
609 -3916.782916131612
610 -3914.505311757327
611 -3912.139006842599
612 -3909.897097941724
613 -3907.633185979922
614 -3905.585723519078
615 -3903.280379449693
616 -3901.184862777237
617 -3898.851710277225
618 -3896.683838079799
619 -3894.399584175701
620 -3892.230187629343
621 -3890.007949817377
622 -3887.873066109433
623 -3885.6450033029
624 -3883.418577760621
625 -3881.030325687583
626 -3878.870531921878
627 -3876.45180031063
628 -3874.199765281401
629 -3871.782076704368
630 -3869.550857587811
631 -3867.179487093686
632 -3864.851470116919
633 -3862.47679119006
634 -3860.326680701368
635 -3857.907333995798
636 -3855.836469803168
637 -3853.508497083777
638 -3851.358366848241
639 -3849.059840927627
640 -3846.861454471517
641 -3844.431346407659
642 -3842.408753865128
643 -3840.082340371383
644 -3837.980039327616
645 -3835.780553334612
646 -3833.609044928272
647 -3831.249254999027
648 -3829.028859038761
649 -3826.63143359645
650 -3824.421561603858
651 -3821.992535764947
652 -3819.664810994178
653 -3817.21847011162
654 -3814.948317111523
655 -3812.53155642747
656 -3810.215614138973
657 -3807.678352975541
658 -3805.338680396569
659 -3802.773103423876
660 -3800.345796636013
661 -3797.644574162355
662 -3795.158970501348
663 -3792.404140228222
664 -3789.826649858963
665 -3787.128650273928
666 -3784.410618031999
667 -3781.61098116423
668 -3778.891767624265
669 -3776.12912707465
670 -3773.429695450533
671 -3770.649944610943
672 -3767.858291397857
673 -3765.003273697193
674 -3762.151077213921
675 -3759.222779787987
676 -3756.344284725233
677 -3753.366702972293
678 -3750.680849148135
679 -3747.744835199369
680 -3745.07891686694
681 -3742.25840697272
682 -3739.621107175408
683 -3736.746573022308
684 -3734.078026352336
685 -3731.242664344458
686 -3728.570586048542
687 -3725.698760038255
688 -3723.067995732925
689 -3720.363451226518
690 -3717.784371987884
691 -3715.153383069182
692 -3712.689802104604
693 -3710.102402522428
694 -3707.679189412663
695 -3705.013053550304
696 -3702.535610469866
697 -3699.922826113382
698 -3697.520356107609
699 -3695.021807131594
700 -3692.658613480775
701 -3690.133677718617
702 -3687.852375173303
703 -3685.348277136206
704 -3683.130019526353
705 -3680.492906817685
706 -3678.095185330988
707 -3675.521426831662
708 -3673.079285620739
709 -3670.394686899475
710 -3667.991695134036
711 -3665.322621437449
712 -3662.803451450607
713 -3660.179153376328
714 -3657.743671991763
715 -3655.114589547355
716 -3652.69785063756
717 -3650.232704138017
718 -3647.875123667476
719 -3645.338763189796
720 -3643.108461992708
721 -3640.615965536711
722 -3638.312767676664
723 -3635.916665052523
724 -3633.71310491343
725 -3631.374260194123
726 -3629.296129639338
727 -3627.115938298899
728 -3625.152737286007
729 -3623.024901706402
730 -3621.134636606175
731 -3619.13146464958
732 -3617.330663049084
733 -3615.436272092908
734 -3613.807429544646
735 -3612.01849103187
736 -3610.414371779317
737 -3608.652171049808
738 -3607.051610037429
739 -3605.33790023712
740 -3603.925715798772
741 -3602.371898869666
742 -3600.944907805249
743 -3599.513617906662
744 -3598.273054060366
745 -3596.923708167441
746 -3595.77002562896
747 -3594.503626089419
748 -3593.475759974626
749 -3592.254779618716
750 -3591.198767564963
751 -3590.092881121899
752 -3589.262501677772
753 -3588.238101458961
754 -3587.458712903679
755 -3586.532339149567
756 -3585.684963924314
757 -3584.791709445363
758 -3584.061532408401
759 -3583.169043408522
760 -3582.608489090569
761 -3581.783082353257
762 -3581.086520539972
763 -3580.088415712045
764 -3579.686685099648
765 -3578.74625372734
766 -3577.885713377116
767 -3576.957534514417
768 -3576.216625705417
769 -3575.281925214943
770 -3574.57283105498
771 -3573.863868967049
772 -3573.145298596139
773 -3572.047596729408
774 -3571.06324367495
775 -3569.965765394852
776 -3569.090289640399
777 -3568.30423730303
778 -3567.375793849496
779 -3566.177278612832
780 -3565.097791895548
781 -3564.184943821971
782 -3562.987756660667
783 -3561.599031220022
784 -3560.450679132356
785 -3559.478905593844
786 -3558.192909754086
787 -3556.792250953889
788 -3555.528538449674
789 -3554.476763398684
790 -3553.137441865767
791 -3551.525014168274
792 -3550.097921257705
793 -3548.981130440349
794 -3547.588547033836
795 -3545.954102488513
796 -3544.321667272317
797 -3542.642008093621
798 -3541.100520698848
799 -3539.30222158708
800 -3537.723970777544
801 -3535.856256973624
802 -3534.182850575541
803 -3532.350668268953
804 -3530.630303074553
805 -3528.748673796242
806 -3527.123340290279
807 -3525.078740323064
808 -3523.25172801513
809 -3521.146381306402
810 -3519.230043239398
811 -3517.211249617339
812 -3515.387333252659
813 -3513.23734779853
814 -3511.286836205913
815 -3509.034422756556
816 -3507.024412970755
817 -3504.901207040963
818 -3502.999498799034
819 -3500.91428606869
820 -3499.016211018957
821 -3496.830023786199
822 -3494.970444392011
823 -3492.889767199214
824 -3490.97989516258
825 -3488.903815907206
826 -3487.160622470487
827 -3485.109388315827
828 -3483.284398446585
829 -3481.103287379209
830 -3479.458057194853
831 -3477.559981384779
832 -3476.014796037935
833 -3474.279123570955
834 -3472.858953582119
835 -3471.163451393908
836 -3469.638100567122
837 -3467.940287786799
838 -3466.595293150973
839 -3465.061587486407
840 -3463.937646892615
841 -3462.563457478017
842 -3461.556115321823
843 -3460.427387825828
844 -3459.620646245761
845 -3458.713659266527
846 -3458.142578262906
847 -3457.443763723104
848 -3456.98368675383
849 -3456.372219283612
850 -3456.093148364823
851 -3455.751541211619
852 -3455.788532812064
853 -3455.634597284279
854 -3455.799662429311
855 -3455.800281696991
856 -3456.134537239786
857 -3456.331848547423
858 -3456.83290570459
859 -3457.255280966684
860 -3458.006562413346
861 -3458.655429812947
862 -3459.572316275612
863 -3460.377651321793
864 -3461.489939333247
865 -3462.419263946419
866 -3463.624227246214
867 -3464.75075313946
868 -3466.136926342033
869 -3467.335726555994
870 -3468.832324508337
871 -3470.166862252131
872 -3471.78168200879
873 -3473.231234744356
874 -3474.89432309429
875 -3476.454270786546
876 -3478.28540723586
877 -3479.898572847349
878 -3481.767023344407
879 -3483.517512182118
880 -3485.492116717804
881 -3487.229132753749
882 -3489.389651901638
883 -3491.491509824219
884 -3493.69184612301
885 -3495.739887596985
886 -3498.013781538774
887 -3499.944323454567
888 -3502.163100922494
889 -3504.148878631778
890 -3506.347707535682
891 -3508.378976093311
892 -3510.614166233991
893 -3512.75954946363
894 -3515.110262730046
895 -3517.16427999407
896 -3519.360365920138
897 -3521.237789314503
898 -3523.373313755217
899 -3525.212427101459
900 -3527.122165144439
901 -3528.866001867599
902 -3530.724581765707
903 -3532.248043464329
904 -3534.07808244822
905 -3535.584409028756
906 -3537.349074411387
907 -3538.757048883648
908 -3540.47046756274
909 -3541.664024073287
910 -3543.097814751015
911 -3544.318502825792
912 -3545.675644260677
913 -3546.664773049838
914 -3547.840860884347
915 -3548.691068203646
916 -3549.682809210282
917 -3550.328363825961
918 -3551.028821106097
919 -3551.461333124189
920 -3552.152558166511
921 -3552.468331041101
922 -3552.964186070995
923 -3553.02694262656
924 -3553.258237354154
925 -3553.067976583714
926 -3553.117233407674
927 -3552.805005051109
928 -3552.587572126941
929 -3552.088700878413
930 -3551.747059414456
931 -3551.023044249152
932 -3550.570767831069
933 -3549.644376724421
934 -3548.946540237469
935 -3547.834175970891
936 -3546.832856893756
937 -3545.603447184246
938 -3544.591489653762
939 -3543.260052540657
940 -3542.154885953972
941 -3540.858980980229
942 -3539.617478140655
943 -3538.129330454948
944 -3536.828452813192
945 -3535.386092983761
946 -3534.144388732455
947 -3532.52673596155
948 -3531.100842620173
949 -3529.523371498541
950 -3528.149949749958
951 -3526.500440330538
952 -3525.152924928329
953 -3523.445414725476
954 -3521.972355870419
955 -3520.177731894542
956 -3518.63834128181
957 -3516.893442071461
958 -3515.440741428095
959 -3513.700278449295
960 -3512.256686078767
961 -3510.573583541022
962 -3509.13756319608
963 -3507.425494721127
964 -3506.058554004207
965 -3504.415712292785
966 -3503.030300803719
967 -3501.427128736825
968 -3500.085025063896
969 -3498.521417574806
970 -3497.190594827968
971 -3495.665996820098
972 -3494.43538425301
973 -3492.891629270949
974 -3491.549929736872
975 -3490.035504341951
976 -3488.649634930214
977 -3487.016242596084
978 -3485.599019687489
979 -3483.947284318962
980 -3482.496390390061
981 -3480.899484956586
982 -3479.307588205349
983 -3477.636370424547
984 -3475.984067522518
985 -3474.221966984543
986 -3472.595275346917
987 -3470.798620248604
988 -3469.294243711356
989 -3467.5159675727
990 -3466.03614492981
991 -3464.417958074518
992 -3462.861194858277
993 -3461.193011936246
994 -3459.660772062476
995 -3457.992094563624
996 -3456.421020516088
997 -3454.706129438343
998 -3453.242509017034
999 -3451.664211791885
1000 -3450.140152000665
1001 -3448.519455991662
1002 -3447.081850612046
1003 -3445.480529375823
1004 -3444.009124486069
1005 -3442.573241373635
1006 -3441.303649899105
1007 -3439.813016114816
1008 -3438.545841624164
1009 -3437.128737462022
1010 -3435.848052332342
1011 -3434.586705067894
1012 -3433.33595417487
1013 -3432.01805225104
1014 -3431.006177678978
1015 -3429.751316777463
1016 -3428.850663532745
1017 -3427.841211865654
1018 -3427.099201105074
1019 -3426.252599968932
1020 -3425.633241300109
1021 -3424.89842176909
1022 -3424.329508910092
1023 -3423.672139915655
1024 -3423.345512414211
1025 -3422.83960459433
1026 -3422.566766795305
1027 -3422.200275541763
1028 -3422.092842629601
1029 -3421.914413617735
1030 -3422.080626906031
1031 -3421.96561463043
1032 -3422.140193149103
1033 -3422.312028452616
1034 -3422.678410164408
1035 -3422.922855650217
1036 -3423.392930652098
1037 -3423.655721834041
1038 -3424.154974015801
1039 -3424.455650134867
1040 -3424.995014977505
1041 -3425.398711057663
1042 -3425.978260965036
1043 -3426.414874443313
1044 -3426.919201020824
1045 -3427.301586028414
1046 -3427.806973752182
1047 -3428.115360388899
1048 -3428.561325505485
1049 -3428.730399092365
1050 -3429.171967510476
1051 -3429.313693101509
1052 -3429.629532575938
1053 -3429.725494339102
1054 -3429.924269926099
1055 -3429.904800065222
1056 -3429.968527873454
1057 -3429.88052736873
1058 -3429.941986376611
1059 -3429.821329145767
1060 -3429.766501037791
1061 -3429.368302975906
1062 -3429.200878053141
1063 -3428.789868039828
1064 -3428.408533134921
1065 -3427.876498336721
1066 -3427.570501598435
1067 -3427.03924752155
1068 -3426.61900308259
1069 -3425.960595095843
1070 -3425.555090250867
1071 -3424.876607112577
1072 -3424.390008731666
1073 -3423.761491316149
1074 -3423.231497945122
1075 -3422.403483399755
1076 -3421.889005183001
1077 -3421.184035718737
1078 -3420.775230487645
1079 -3420.212148898884
1080 -3419.856960439405
1081 -3419.257415320727
1082 -3418.934196402604
1083 -3418.255904416536
1084 -3417.987096755407
1085 -3417.445660125212
1086 -3417.214276145185
1087 -3416.823387829668
1088 -3416.671163377044
1089 -3416.312623039811
1090 -3416.245366961276
1091 -3415.93470740639
1092 -3416.005093281646
1093 -3415.884991743034
1094 -3416.151729940712
1095 -3416.096625591411
1096 -3416.395863081351
1097 -3416.556456028367
1098 -3416.869164953855
1099 -3416.949927978924
1100 -3417.347451542585
1101 -3417.464993878173
1102 -3417.816390563853
1103 -3417.933439255757
1104 -3418.387843928474
1105 -3418.660328819136
1106 -3419.17194400064
1107 -3419.406216167143
1108 -3419.791275729478
1109 -3419.971861477989
1110 -3420.585993539085
1111 -3420.950996483554
1112 -3421.435881128896
1113 -3421.622348738705
1114 -3422.055423480934
1115 -3422.265191455054
1116 -3422.761158894618
1117 -3423.001535905633
1118 -3423.376828511419
1119 -3423.52020378411
1120 -3423.962175815492
1121 -3424.137329982058
1122 -3424.473065938919
1123 -3424.661429243263
1124 -3425.032189722632
1125 -3425.12468078594
1126 -3425.355946566022
1127 -3425.467638287042
1128 -3425.646229245572
1129 -3425.520392175445
1130 -3425.713165152487
1131 -3425.689501271946
1132 -3425.832178793471
1133 -3425.826286165563
1134 -3426.068980778515
1135 -3425.972050965739
1136 -3426.02326167403
1137 -3425.97480989018
1138 -3426.189053617983
1139 -3426.246849218483
1140 -3426.439986806303
1141 -3426.359308231512
1142 -3426.698836294422
1143 -3426.932632411698
1144 -3427.459475866114
1145 -3427.880930287531
1146 -3428.48058291744
1147 -3428.928315925036
1148 -3429.728275791165
1149 -3430.279846286572
1150 -3431.196824887629
1151 -3431.866450976589
1152 -3432.96277711622
1153 -3433.796556160768
1154 -3435.046900056336
1155 -3435.983503679812
1156 -3437.439199178414
1157 -3438.493136260244
1158 -3439.941831837009
1159 -3441.316672885925
1160 -3442.905015772198
1161 -3444.433542201906
1162 -3446.222595615925
1163 -3447.860965484964
1164 -3449.896250154208
1165 -3451.701060692691
1166 -3453.994610068612
1167 -3456.095575297565
1168 -3458.189870392584
1169 -3460.251980419097
1170 -3462.690240545065
1171 -3464.981077759019
1172 -3467.348989105033
1173 -3469.695382052483
1174 -3472.309234345876
1175 -3474.697649892797
1176 -3477.27564400892
1177 -3479.714645448015
1178 -3482.422012951107
1179 -3484.964757444925
1180 -3487.622217180428
1181 -3490.219429469665
1182 -3492.977623556892
1183 -3495.585260836639
1184 -3498.369431493124
1185 -3500.882404085924
1186 -3503.547747179398
1187 -3505.948912155493
1188 -3509.234234242271
1189 -3511.437167977982
1190 -3513.716205852656
1191 -3515.805316281449
1192 -3518.036865654878
1193 -3519.917053623162
1194 -3522.035363954939
1195 -3523.814966233645
1196 -3525.815938883551
1197 -3527.566269920455
1198 -3529.302387586689
1199 -3530.916301391599
1200 -3532.437114878633
1201 -3533.789266558283
1202 -3535.111074797263
1203 -3536.284813243997
1204 -3537.578007510789
1205 -3538.520413316834
1206 -3539.542996464497
1207 -3540.37767624488
1208 -3541.27176542346
1209 -3541.849540670624
1210 -3542.571963813485
1211 -3542.937869913973
1212 -3543.454023344132
1213 -3543.675797773041
1214 -3543.935430108925
1215 -3543.849632040068
1216 -3543.918878182864
1217 -3543.634160004564
1218 -3543.456645806409
1219 -3543.019455949958
1220 -3542.620352457654
1221 -3542.017809181501
1222 -3541.419485195455
1223 -3540.568589694564
1224 -3539.823406827574
1225 -3538.810515491125
1226 -3537.959047854086
1227 -3536.714996698356
1228 -3535.664470917357
1229 -3534.342450742944
1230 -3533.193143460827
1231 -3531.838434419121
1232 -3530.58167924716
1233 -3529.046516942423
1234 -3527.577412712445
1235 -3526.007330858067
1236 -3524.491164850314
1237 -3522.737947509746
1238 -3521.170217970473
1239 -3519.309092915624
1240 -3517.624237794793
1241 -3515.820930205596
1242 -3514.297533752949
1243 -3512.738414236839
1244 -3511.255089940079
1245 -3509.732173632905
1246 -3508.494056400853
1247 -3506.986234004419
1248 -3505.68437615136
1249 -3504.311587274963
1250 -3503.205194725374
1251 -3501.898133248872
1252 -3500.874088506178
1253 -3499.729392465186
1254 -3498.781317011008
1255 -3497.619102030686
1256 -3496.800085593186
1257 -3495.706033973341
1258 -3494.984039209246
1259 -3494.073411084843
1260 -3493.364083028413
1261 -3492.472126880704
1262 -3491.804970751892
1263 -3490.943154315763
1264 -3490.202555529558
1265 -3489.264147345087
1266 -3488.532219477971
1267 -3487.531484559697
1268 -3486.683815486605
1269 -3485.631577075132
1270 -3484.916407928485
1271 -3483.860076618593
1272 -3482.886280947359
1273 -3481.740843728985
1274 -3480.939539510454
1275 -3479.956992308341
1276 -3479.092661908057
1277 -3478.007340758203
1278 -3477.19051552414
1279 -3476.037561087768
1280 -3475.131241034857
1281 -3474.018384187885
1282 -3473.090121018798
1283 -3471.954315855355
1284 -3471.05129804402
1285 -3470.055453754074
1286 -3469.128592673032
1287 -3468.044109572414
1288 -3467.156414177692
1289 -3466.240356941316
1290 -3465.496242404071
1291 -3464.429861117888
1292 -3463.820436859051
1293 -3462.908705441228
1294 -3462.300724455498
1295 -3461.527769526149
1296 -3461.060926869939
1297 -3460.413348474798
1298 -3460.042017721049
1299 -3459.432768620379
1300 -3459.260914134061
1301 -3458.871978631903
1302 -3458.869509579248
1303 -3458.722609002319
1304 -3458.920767845314
1305 -3458.920381188093
1306 -3459.223360120809
1307 -3459.349492074291
1308 -3459.868899598971
1309 -3460.409990402388
1310 -3460.98038264946
1311 -3461.691749633391
1312 -3462.573906587557
1313 -3463.129635471329
1314 -3464.223198751316
1315 -3465.17511762549
1316 -3466.048362977026
1317 -3467.160020456259
1318 -3468.58734092325
1319 -3469.777448987835
1320 -3471.235605003482
1321 -3472.618959711008
1322 -3474.141025282734
1323 -3475.457527200736
1324 -3477.023591596173
1325 -3478.324939267812
1326 -3479.997639853265
1327 -3481.2952959046
1328 -3482.955435545417
1329 -3484.190693046142
1330 -3485.83003740533
1331 -3487.097106043325
1332 -3488.602936370096
1333 -3489.788144278409
1334 -3491.432801932257
1335 -3492.724818621921
1336 -3494.194851323027
1337 -3495.339929334372
1338 -3496.702861592176
1339 -3497.705513834244
1340 -3498.979750033654
1341 -3500.003438013487
1342 -3501.274203519276
1343 -3502.144447247074
1344 -3503.286007727696
1345 -3504.115026867586
1346 -3505.21899963437
1347 -3505.991400115748
1348 -3506.884331297006
1349 -3507.585123269945
1350 -3508.453618038524
1351 -3509.017928394181
1352 -3509.94649993034
1353 -3510.616049654488
1354 -3511.465058572444
1355 -3512.100655465515
1356 -3512.963430520372
1357 -3513.497748070602
1358 -3514.297059420666
1359 -3514.824328844064
1360 -3515.481435067109
1361 -3515.930981740503
1362 -3516.577081807711
1363 -3517.014068361826
1364 -3517.577663626832
1365 -3517.931688436048
1366 -3518.448639703896
1367 -3518.690913901449
1368 -3519.209487359188
1369 -3519.468256276131
1370 -3519.947335553976
1371 -3520.22190713707
1372 -3520.818136739178
1373 -3521.158471594541
1374 -3521.606721086215
1375 -3522.050227976367
1376 -3522.644996485892
1377 -3522.923991896358
1378 -3523.568496276776
1379 -3523.951185719506
1380 -3524.682756091898
1381 -3525.061091285634
1382 -3525.597337856679
1383 -3526.034083780856
1384 -3526.701837392363
1385 -3527.055604083214
1386 -3527.718896505142
1387 -3528.163477009049
1388 -3528.787451842681
1389 -3529.359013660135
1390 -3529.985777716667
1391 -3530.413809137442
1392 -3531.134114367935
1393 -3531.428201620316
1394 -3532.029172108443
1395 -3532.507431872541
1396 -3533.248711680202
1397 -3533.758975038782
1398 -3534.398240919902
1399 -3534.884419089619
1400 -3535.596733611299
1401 -3536.138373383502
1402 -3536.844102968976
1403 -3537.326369618218
1404 -3537.829354272928
1405 -3538.265355424411
1406 -3538.900316356818
1407 -3539.364698287755
1408 -3539.931291739186
1409 -3540.290906084854
1410 -3540.914100359456
1411 -3541.299464325744
1412 -3541.889902559712
1413 -3542.336354378723
1414 -3542.87833325583
1415 -3543.203585915085
1416 -3543.784428548558
1417 -3544.191853605791
1418 -3544.729706335474
1419 -3545.124278985187
1420 -3545.757340118035
1421 -3546.101351300881
1422 -3546.631332620592
1423 -3546.906707638289
1424 -3547.38729917338
1425 -3547.616861165534
1426 -3547.975424239439
1427 -3548.196368198069
1428 -3548.647686176998
1429 -3548.819615667208
1430 -3549.182476756883
1431 -3549.223880974519
1432 -3549.451692879761
1433 -3549.460418271461
1434 -3549.663853097567
1435 -3549.607633076624
1436 -3549.722567547227
1437 -3549.398670186862
1438 -3549.345966440346
1439 -3549.06204878353
1440 -3548.968606931229
1441 -3548.509700420311
1442 -3548.303605415882
1443 -3547.811841053349
1444 -3547.585724779613
1445 -3547.146196821507
1446 -3546.831689665722
1447 -3546.105278484538
1448 -3545.519400668819
1449 -3544.883657113729
1450 -3544.323102070132
1451 -3543.479813999056
1452 -3542.98865127838
1453 -3542.27995656692
1454 -3541.556050482778
1455 -3540.709511887311
1456 -3540.131564363427
1457 -3539.293058512107
1458 -3538.464304225986
1459 -3537.448873486598
1460 -3536.339620534186
1461 -3535.216742566127
1462 -3534.244603437801
1463 -3533.004951141079
1464 -3531.876500344389
1465 -3530.501076605512
1466 -3529.3439836159
1467 -3527.776870823833
1468 -3526.549169499607
1469 -3525.009205898652
1470 -3523.769756609282
1471 -3522.320541605369
1472 -3521.094897483591
1473 -3519.64207225257
1474 -3518.3970294558
1475 -3517.067890374498
1476 -3515.820128534907
1477 -3514.440933907988
1478 -3513.394591038124
1479 -3512.163029075656
1480 -3511.205309612124
1481 -3510.066547963675
1482 -3509.239368536578
1483 -3508.492933369074
1484 -3507.898787286832
1485 -3507.137823220737
1486 -3506.567219998349
1487 -3505.9526479529
1488 -3505.70807300777
1489 -3505.316645488568
1490 -3505.319468244526
1491 -3505.187663306022
1492 -3505.300261600985
1493 -3505.304807973083
1494 -3505.671190765065
1495 -3505.97464116556
1496 -3506.466371641317
1497 -3506.852922785063
1498 -3507.487236115024
1499 -3507.957300821472
1500 -3508.857574816357
1501 -3509.711082839301
1502 -3510.748056435924
1503 -3511.576580645937
1504 -3512.654194923096
1505 -3513.642650653845
1506 -3514.811248031694
1507 -3515.956090248485
1508 -3517.241348771769
1509 -3518.374654185627
1510 -3519.565179157212
1511 -3520.515657700951
1512 -3521.73492499788
1513 -3522.850208646949
1514 -3524.166962886492
1515 -3525.32018727756
1516 -3526.560913979946
1517 -3527.582299790228
1518 -3528.632088793275
1519 -3529.524178255272
1520 -3530.571160976499
1521 -3531.28216349203
1522 -3532.278650703133
1523 -3532.992232196617
1524 -3533.96130723179
1525 -3534.637962912205
1526 -3535.477822314499
1527 -3536.108490782371
1528 -3536.869663400278
1529 -3537.531757540455
1530 -3538.417793572266
1531 -3539.298303739518
1532 -3540.321615043208
1533 -3541.120473429457
1534 -3542.025804373155
1535 -3542.845733802004
1536 -3543.783616784443
1537 -3544.464438705051
1538 -3545.417726946092
1539 -3546.331383313979
1540 -3547.433935635734
1541 -3548.373547564198
1542 -3549.472479561792
1543 -3550.302650853505
1544 -3551.290959305099
1545 -3552.161002493587
1546 -3553.368006252965
1547 -3554.37356362874
1548 -3555.531149090226
1549 -3556.469642284914
1550 -3557.641898752951
1551 -3558.694154935694
1552 -3559.8816810336
1553 -3560.808728577913
1554 -3562.039325136023
1555 -3562.990599038974
1556 -3564.172260769886
1557 -3565.063896168879
1558 -3566.226784400274
1559 -3567.220077550624
1560 -3568.352026461482
1561 -3569.228897251651
1562 -3570.409421708805
1563 -3571.085803788458
1564 -3572.079113255556
1565 -3572.919079446413
1566 -3573.954158623835
1567 -3574.632719724551
1568 -3575.704698059171
1569 -3576.279712806626
1570 -3577.101156464866
1571 -3577.569457939388
1572 -3578.448574042241
1573 -3578.931528698536
1574 -3579.652210397562
1575 -3580.138698868408
1576 -3580.572367115684
1577 -3580.902903285031
1578 -3581.411501664972
1579 -3581.676405867395
1580 -3582.113029180233
1581 -3582.176264892697
1582 -3582.330784679497
1583 -3582.274705965448
1584 -3582.267571752107
1585 -3581.821210849185
1586 -3581.586592407325
1587 -3580.956471432525
1588 -3580.549116694694
1589 -3579.835268340976
1590 -3579.527163869134
1591 -3578.792624005279
1592 -3578.285276866644
1593 -3577.431662404389
1594 -3576.789404052464
1595 -3575.850511599806
1596 -3574.94526272065
1597 -3573.821602809699
1598 -3572.734424182308
1599 -3571.474663770087
1600 -3570.434149202069
1601 -3569.017436693889
1602 -3567.99975610919
1603 -3566.665490814018
1604 -3565.441178854386
1605 -3563.990101416897
1606 -3562.662180897248
1607 -3561.180642971013
1608 -3559.984827159129
1609 -3558.398125628114
1610 -3557.154099548019
1611 -3555.679612538643
1612 -3554.62987925167
1613 -3553.337282870584
1614 -3552.443043640407
1615 -3551.229387026553
1616 -3550.140069554944
1617 -3548.746298538744
1618 -3547.750407856468
1619 -3546.48832872786
1620 -3545.482876063603
1621 -3544.235603630276
1622 -3543.097648114234
1623 -3541.934153923005
1624 -3540.908123867793
1625 -3539.841412419853
1626 -3538.943309030506
1627 -3537.761748486524
1628 -3536.799374255391
1629 -3535.801902069693
1630 -3534.807706921645
1631 -3533.842618055677
1632 -3533.054189943143
1633 -3532.163050450516
1634 -3531.484401002901
1635 -3530.556450864313
1636 -3530.071569207199
1637 -3529.392956322436
1638 -3528.844328285609
1639 -3528.20276226917
1640 -3527.979508511302
1641 -3527.654593869386
1642 -3527.645693866232
1643 -3527.667775684238
1644 -3527.789877534683
1645 -3527.970612178326
1646 -3528.506862929415
1647 -3528.941060603219
1648 -3529.862314369561
1649 -3530.670182182643
1650 -3531.769004059555
1651 -3532.716671063613
1652 -3533.835526362031
1653 -3534.92267742551
1654 -3536.110048070006
1655 -3537.320846863554
1656 -3538.993278179566
1657 -3540.198655504054
1658 -3541.949345733382
1659 -3543.227867249487
1660 -3544.806421113379
1661 -3546.163285720386
1662 -3547.714388307961
1663 -3549.102922242674
1664 -3550.603884474926
1665 -3551.972785151408
1666 -3553.516157638003
1667 -3554.869303123246
1668 -3556.333623121636
1669 -3557.545438710301
1670 -3558.893877227127
1671 -3559.844708296584
1672 -3561.039363019282
1673 -3561.95357797386
1674 -3562.991398908131
1675 -3563.735832019595
1676 -3564.589769600708
1677 -3565.066203950282
1678 -3565.673626375742
1679 -3565.819367829437
1680 -3566.092334496604
1681 -3566.081907310986
1682 -3566.095281743733
1683 -3565.598884762694
1684 -3565.304669865183
1685 -3564.83099087647
1686 -3564.401621083789
1687 -3563.7569684789
1688 -3563.054202946444
1689 -3562.17741283905
1690 -3561.394413569449
1691 -3560.334160916904
1692 -3559.308033470625
1693 -3558.134434645836
1694 -3556.991719580758
1695 -3555.418685520309
1696 -3554.012986849861
1697 -3552.542769101815
1698 -3551.199593282262
1699 -3549.646645297973
1700 -3548.157267700412
1701 -3546.354609123588
1702 -3544.697102482761
1703 -3542.930872957177
1704 -3541.494225568757
1705 -3539.715041297755
1706 -3538.061453538304
1707 -3536.439562660066
1708 -3534.942931787947
1709 -3533.242056844154
1710 -3531.954077929807
1711 -3530.283877757633
1712 -3528.821987871017
1713 -3527.124882999853
1714 -3525.653678304811
1715 -3524.119068023546
1716 -3522.702960480256
1717 -3521.143993700407
1718 -3519.773282430964
1719 -3518.264043411567
1720 -3517.045103659841
1721 -3515.580087580253
1722 -3514.369292649418
1723 -3513.018958824537
1724 -3512.06558430075
1725 -3511.107353411979
1726 -3510.474094304167
1727 -3509.670514325323
1728 -3509.251920804875
1729 -3508.738553372049
1730 -3508.422313757955
1731 -3508.064384652109
1732 -3507.986762731802
1733 -3507.790355476287
1734 -3507.906563481165
1735 -3507.840666404581
1736 -3508.337259565138
1737 -3508.693643968697
1738 -3509.396438847881
1739 -3509.7788252383
1740 -3510.492394280805
1741 -3511.213930144558
1742 -3512.192998910741
1743 -3512.914437154961
1744 -3513.91872373865
1745 -3514.83389105477
1746 -3515.781854102233
1747 -3516.612007222907
1748 -3517.858064196182
1749 -3518.746744504949
1750 -3519.95357674376
1751 -3520.620123353599
1752 -3521.636430787284
1753 -3522.630590050775
1754 -3523.89847581729
1755 -3524.869663915607
1756 -3525.986980483175
1757 -3527.019936784763
1758 -3528.168494976612
1759 -3529.135562386355
1760 -3530.518989138945
1761 -3531.61691239453
1762 -3532.821973869557
1763 -3533.816182311463
1764 -3535.078240886728
1765 -3536.183827651708
1766 -3537.380146864131
1767 -3538.41748432247
1768 -3539.47671248284
1769 -3540.450865400608
1770 -3541.490388064365
1771 -3542.30110074744
1772 -3543.344566842793
1773 -3544.023958877166
1774 -3544.969161484883
1775 -3545.361627536617
1776 -3546.033422428477
1777 -3546.538499490797
1778 -3547.120246980603
1779 -3547.44465303585
1780 -3547.776646844269
1781 -3547.625356201323
1782 -3547.910728449016
1783 -3547.770534475904
1784 -3547.679958204317
1785 -3547.233136578637
1786 -3546.800462079786
1787 -3546.289712489826
1788 -3545.681375697399
1789 -3544.786129861919
1790 -3544.012635699193
1791 -3543.012181685901
1792 -3542.010447742845
1793 -3540.86170505157
1794 -3539.717778666702
1795 -3538.146294199298
1796 -3536.786300737455
1797 -3535.241750136748
1798 -3533.748551588425
1799 -3532.061138982192
1800 -3530.543272825196
1801 -3528.816495290366
1802 -3527.269794830307
1803 -3525.604405410141
1804 -3524.159744020335
1805 -3522.611001107643
1806 -3521.294458962343
1807 -3519.675038941185
1808 -3518.533501149517
1809 -3517.044667014846
1810 -3515.919888065189
1811 -3514.560975313054
1812 -3513.721130776826
1813 -3512.853081872911
1814 -3512.381085784891
1815 -3511.787605549516
1816 -3511.485398246116
1817 -3511.149751190296
1818 -3511.205633973927
1819 -3511.290098077957
1820 -3511.695556308714
1821 -3512.076768072113
1822 -3512.955700841142
1823 -3513.630830300269
1824 -3514.68394356258
1825 -3515.69569861099
1826 -3516.841247056499
1827 -3517.97694455894
1828 -3519.360974451091
1829 -3520.773031671557
1830 -3522.272074834247
1831 -3523.701646757511
1832 -3525.384405530683
1833 -3526.834657466617
1834 -3528.504253757957
1835 -3529.847208463226
1836 -3531.521616976621
1837 -3532.870756245326
1838 -3534.453964562714
1839 -3535.687587899975
1840 -3537.240833147772
1841 -3538.48255200224
1842 -3539.795082892683
1843 -3540.853471989381
1844 -3541.782433772536
1845 -3542.567815440098
1846 -3543.385489475812
1847 -3543.887392582707
1848 -3544.476675397234
1849 -3544.774562323114
1850 -3545.19841468272
1851 -3545.485150426556
1852 -3545.848304034078
1853 -3545.895534266167
1854 -3546.061821084482
1855 -3545.994511637432
1856 -3545.956102189255
1857 -3545.733392164836
1858 -3545.60104851321
1859 -3545.173778369281
1860 -3545.022724152104
1861 -3544.639608754768
1862 -3544.316271973251
1863 -3543.940316442963
1864 -3543.671713529511
1865 -3543.091162754918
1866 -3542.751225969059
1867 -3542.228837277419
1868 -3541.854763610149
1869 -3541.468521654556
1870 -3541.221219883056
1871 -3540.839390803563
1872 -3540.710303453661
1873 -3540.403388623602
1874 -3540.233643983249
1875 -3540.077271725793
1876 -3540.233250055106
1877 -3540.254680564124
1878 -3540.543430710223
1879 -3540.555707276249
1880 -3540.760981732321
1881 -3540.841388741687
1882 -3541.144675363424
1883 -3541.474768646207
1884 -3541.903177724356
1885 -3542.32002461032
1886 -3542.681682545316
1887 -3543.094817239653
1888 -3543.642485477621
1889 -3543.942945972125
1890 -3544.560181174281
1891 -3544.97165844075
1892 -3545.673394472446
1893 -3546.081209690841
1894 -3546.691620481838
1895 -3547.207869088268
1896 -3547.866705578633
1897 -3548.369403304195
1898 -3549.103542986211
1899 -3549.59050397203
1900 -3550.250412595325
1901 -3550.745730679907
1902 -3551.356286779833
1903 -3551.829587659531
1904 -3552.411647905208
1905 -3552.757983738527
1906 -3553.249051115784
1907 -3553.413241399624
1908 -3553.722705555877
1909 -3553.842201951358
1910 -3554.003676071758
1911 -3554.032318127069
1912 -3554.370121890506
1913 -3554.360209578377
1914 -3554.43323591607
1915 -3554.242421504081
1916 -3554.346223584917
1917 -3554.175077551174
1918 -3554.0089139087
1919 -3553.682514271934
1920 -3553.509297660874
1921 -3552.986957975156
1922 -3552.679975521241
1923 -3552.253625648136
1924 -3551.935413564061
1925 -3551.485503024618
1926 -3551.098512701893
1927 -3550.565263413756
1928 -3550.284699953429
1929 -3549.728072078469
1930 -3549.293155643923
1931 -3548.789049237523
1932 -3548.344139259457
1933 -3547.739235058623
1934 -3547.21969381695
1935 -3546.604626514795
1936 -3546.12321460077
1937 -3545.555426075263
1938 -3545.148771799071
1939 -3544.448857033676
1940 -3543.98768951134
1941 -3543.366703707438
1942 -3542.880317728363
1943 -3542.135391779672
1944 -3541.551742330937
1945 -3541.044053648946
1946 -3540.617932128262
1947 -3540.080376627286
1948 -3539.663214460166
1949 -3539.142937307333
1950 -3538.787279747552
1951 -3538.258799047293
1952 -3537.711233652529
1953 -3537.084513545696
1954 -3536.626314679775
1955 -3535.990688732491
1956 -3535.547924771349
1957 -3534.837867570333
1958 -3534.489373443367
1959 -3533.859243246783
1960 -3533.30635177713
1961 -3532.617824685969
1962 -3531.847882629519
1963 -3531.006465275906
1964 -3530.544371804988
1965 -3529.70847377366
1966 -3528.989493737112
1967 -3528.246685574029
1968 -3527.544196060142
1969 -3526.665281432369
1970 -3526.021996566342
1971 -3525.347762226404
1972 -3524.772439183028
1973 -3524.042288592356
1974 -3523.460053793046
1975 -3522.737429906935
1976 -3522.362416827094
1977 -3521.73174156928
1978 -3521.395098075327
1979 -3521.10437921337
1980 -3521.124888142997
1981 -3520.99556722438
1982 -3521.235846720651
1983 -3521.14470485566
1984 -3521.290428942715
1985 -3521.396660413229
1986 -3521.71743425229
1987 -3521.898368936874
1988 -3522.28102503124
1989 -3522.526131529158
1990 -3523.009950449702
1991 -3523.429330471165
1992 -3523.999187164795
1993 -3524.483223408658
1994 -3524.970575437944
1995 -3525.392091727213
1996 -3526.03071471128
1997 -3526.457901907268
1998 -3527.11838452859
1999 -3527.592049890659
2000 -3528.109607379941
2001 -3528.622657449172
2002 -3529.12762000268
2003 -3529.498267278564
2004 -3530.070978962849
2005 -3530.276424449726
2006 -3530.741785319667
2007 -3531.030257974555
2008 -3531.378452844166
2009 -3531.585499486964
2010 -3531.773606727602
2011 -3531.802950397499
2012 -3531.94708354728
2013 -3531.980937859217
2014 -3532.117296266003
2015 -3532.068293846293
2016 -3532.228922749141
2017 -3532.126822943784
2018 -3532.280140869269
2019 -3532.276144256487
2020 -3532.438256126423
2021 -3532.491552266101
2022 -3532.828692365467
2023 -3533.001374097309
2024 -3533.31914748442
2025 -3533.525947237806
2026 -3533.978019186088
2027 -3534.268505624619
2028 -3534.748450879653
2029 -3535.209592103214
2030 -3535.904168595728
2031 -3536.629385933224
2032 -3537.437539328099
2033 -3538.165998444146
2034 -3539.288299152132
2035 -3540.140492836768
2036 -3541.218481012667
2037 -3542.23046520113
2038 -3543.307564007169
2039 -3544.319077838325
2040 -3545.52862735197
2041 -3546.580192931531
2042 -3547.896867325583
2043 -3548.965437290419
2044 -3550.160686522907
2045 -3551.334923968111
2046 -3552.611142607757
2047 -3553.701433316343
2048 -3554.991289912722
2049 -3556.023489785092
2050 -3557.170198493464
2051 -3558.07032923731
2052 -3559.172655957831
2053 -3559.994401215173
2054 -3560.886530790744
2055 -3561.634020025102
2056 -3562.399680199612
2057 -3562.993244765867
2058 -3563.634283708426
2059 -3563.986761142996
2060 -3564.487478610554
2061 -3564.79873053186
2062 -3565.134472435514
2063 -3565.232663889615
2064 -3565.468505464778
2065 -3565.551316842903
2066 -3565.612905933478
2067 -3565.529255761567
2068 -3565.369442662946
2069 -3565.084795938886
2070 -3564.927856284056
2071 -3564.483086031824
2072 -3564.371169320564
2073 -3564.151912355268
2074 -3564.206403741118
2075 -3563.917788513406
2076 -3563.800741179405
2077 -3563.56553567593
2078 -3563.463000022892
2079 -3563.221159223177
2080 -3563.168131146525
2081 -3562.934594847732
2082 -3562.845590720669
2083 -3562.680720515682
2084 -3562.756591391272
2085 -3562.70145336414
2086 -3562.930331780979
2087 -3562.871596414102
2088 -3563.191603477752
2089 -3563.403464208758
2090 -3563.900282889507
2091 -3564.251959479951
2092 -3564.754059770215
2093 -3565.192579948745
2094 -3565.928947723274
2095 -3566.573811504596
2096 -3567.520755213729
2097 -3568.301819436779
2098 -3569.229347163664
2099 -3570.034318905449
2100 -3571.074036282832
2101 -3572.024661859194
2102 -3573.159347671962
2103 -3574.143791486761
2104 -3575.369585121546
2105 -3576.405100060505
2106 -3577.583717508764
2107 -3578.719395281306
2108 -3579.960933509883
2109 -3581.091720407571
2110 -3582.406374323823
2111 -3583.508717539657
2112 -3584.907734686632
2113 -3586.198356525981
2114 -3587.455894998477
2115 -3588.54682055016
2116 -3589.737849823086
2117 -3590.769649369064
2118 -3591.829093113266
2119 -3592.777096025654
2120 -3593.808541335444
2121 -3594.574078349598
2122 -3595.547089142198
2123 -3596.350662543115
2124 -3597.185306981666
2125 -3597.859512604582
2126 -3598.63772318228
2127 -3599.15484655197
2128 -3599.876212736649
2129 -3600.260210253871
2130 -3600.635999605449
2131 -3600.927013599962
2132 -3601.314298428787
2133 -3601.546427336591
2134 -3601.884188671763
2135 -3601.968629549357
2136 -3602.20073594185
2137 -3602.186257459177
2138 -3602.373554707038
2139 -3602.33323517859
2140 -3602.476727028391
2141 -3602.332281326291
2142 -3602.214576069581
2143 -3601.902261344235
2144 -3601.689835874804
2145 -3601.1939205936
2146 -3600.655800004379
2147 -3599.945222130902
2148 -3599.390392732272
2149 -3598.653952774377
2150 -3598.126254015856
2151 -3597.411006040458
2152 -3596.692024089602
2153 -3595.845501383229
2154 -3594.910443171192
2155 -3593.763406079122
2156 -3592.64679908215
2157 -3591.473317275218
2158 -3590.393111237132
2159 -3589.008016651837
2160 -3587.782491764935
2161 -3586.485066747386
2162 -3585.234005386325
2163 -3583.650160303082
2164 -3582.210332362614
2165 -3580.462808930285
2166 -3578.813326684511
2167 -3577.023912456518
2168 -3575.211581913209
2169 -3573.10837371098
2170 -3571.175567034741
2171 -3568.823445045372
2172 -3566.63025478066
2173 -3564.363270414584
2174 -3562.085753806106
2175 -3559.695317857465
2176 -3557.411032490168
2177 -3554.814258749177
2178 -3552.349867545659
2179 -3549.66055025814
2180 -3547.346721570274
2181 -3544.876364449217
2182 -3542.467322935542
2183 -3539.975490982519
2184 -3537.632437277753
2185 -3535.319399806588
2186 -3533.233834154551
2187 -3531.065618554455
2188 -3529.035590953883
2189 -3526.845835888604
2190 -3524.862627501776
2191 -3522.968172261255
2192 -3521.252216637693
2193 -3519.641306422749
2194 -3518.162576421864
2195 -3516.773687567341
2196 -3515.675266980385
2197 -3514.760644698676
2198 -3513.988113523626
2199 -3513.175025650771
2200 -3512.69409788861
2201 -3512.023887798523
2202 -3511.570820437292
2203 -3511.345680279455
2204 -3511.373895088115
2205 -3511.457759136059
2206 -3511.808943710951
2207 -3512.151090545988
2208 -3512.549386910795
2209 -3512.975366385493
2210 -3513.594718270085
2211 -3514.135103826583
2212 -3514.921786282323
2213 -3515.804287875731
2214 -3516.433453181863
2215 -3517.230970391828
2216 -3518.211674995775
2217 -3518.934737985832
2218 -3519.857567242845
2219 -3520.542835707769
2220 -3521.489002677458
2221 -3522.176489908594
2222 -3522.800083207048
2223 -3523.33254093529
2224 -3524.033241775547
2225 -3524.580526720245
2226 -3525.273137668386
2227 -3525.658797827488
2228 -3526.116426501393
2229 -3526.520962748908
2230 -3526.858506006086
2231 -3527.119101818031
2232 -3527.469896192897
2233 -3527.644823265566
2234 -3527.920580547357
2235 -3527.93781195386
2236 -3528.048144012103
2237 -3527.98393044072
2238 -3528.157831689506
2239 -3528.113496351425
2240 -3528.21236380659
2241 -3528.186508744198
2242 -3528.246506658368
2243 -3528.338562415031
2244 -3528.581905838615
2245 -3528.51247232337
2246 -3528.499951591028
2247 -3528.392149639221
2248 -3528.451237361837
2249 -3528.495899348015
2250 -3528.40151884168
2251 -3528.205917462525
2252 -3528.23974394914
2253 -3528.089300584877
2254 -3527.987054167826
2255 -3527.739588470174
2256 -3527.724443366342
2257 -3527.542755243458
2258 -3527.441531053523
2259 -3527.11737221248
2260 -3526.796425083427
2261 -3526.496273895939
2262 -3526.080691080343
2263 -3525.522773554646
2264 -3525.04940506502
2265 -3524.386181262621
2266 -3523.924565370911
2267 -3523.218914761239
2268 -3522.580510303004
2269 -3521.744540822992
2270 -3520.867532664776
2271 -3520.111425274863
2272 -3519.165089312918
2273 -3518.091445571536
2274 -3517.034753756673
2275 -3515.891820554646
2276 -3514.746954299805
2277 -3513.459935796856
2278 -3512.21185049647
2279 -3510.874551820757
2280 -3509.547814512818
2281 -3508.224568883975
2282 -3506.974186780264
2283 -3505.541819374624
2284 -3504.335506909049
2285 -3502.928962004013
2286 -3501.489475601734
2287 -3500.119327873396
2288 -3498.77587697995
2289 -3497.322023000241
2290 -3495.981600349651
2291 -3494.510813048615
2292 -3493.204213746824
2293 -3491.820510816196
2294 -3490.526114046374
2295 -3489.245859448513
2296 -3487.991051443963
2297 -3486.51188579832
2298 -3485.27705163929
2299 -3483.99064468658
2300 -3482.83375289372
2301 -3481.758443389341
2302 -3480.889260040813
2303 -3479.93608047581
2304 -3479.203411039694
2305 -3478.381386747651
2306 -3477.710784871523
2307 -3477.114972878937
2308 -3476.695890060061
2309 -3476.464660466331
2310 -3476.260786463996
2311 -3476.086651410674
2312 -3476.078344940553
2313 -3476.119844568841
2314 -3476.331841757706
2315 -3476.520153576846
2316 -3476.778124456995
2317 -3476.983674073504
2318 -3477.361475874714
2319 -3477.73459028319
2320 -3478.243733247668
2321 -3478.600154431953
2322 -3479.214403504408
2323 -3479.73514286462
2324 -3480.393899212532
2325 -3480.964893197524
2326 -3481.570838340394
2327 -3482.137625510197
2328 -3482.740531900342
2329 -3483.339634028411
2330 -3483.846691501051
2331 -3484.26461205035
2332 -3485.002826616846
2333 -3485.495042844023
2334 -3486.087925564015
2335 -3486.538287701627
2336 -3487.087102600794
2337 -3487.481292822778
2338 -3487.989627938014
2339 -3488.263040596271
2340 -3488.636576856366
2341 -3489.087053350892
2342 -3489.410882759655
2343 -3489.537184420813
2344 -3489.663506111133
2345 -3489.664241085612
2346 -3489.804974753969
2347 -3489.550099745901
2348 -3489.37262314801
2349 -3488.960899355958
2350 -3488.745749759119
2351 -3488.117557934932
2352 -3487.547178387042
2353 -3486.693194435004
2354 -3485.863581518646
2355 -3484.633943103625
2356 -3483.471655082458
2357 -3482.203288592128
2358 -3480.75546118279
2359 -3479.139173611848
2360 -3477.45036148839
2361 -3475.512466666331
2362 -3473.495393947604
2363 -3471.201585943219
2364 -3468.951836476873
2365 -3466.515345243869
2366 -3464.119092671841
2367 -3461.442474621023
2368 -3458.986830005194
2369 -3456.323825994413
2370 -3453.920518797481
2371 -3451.182775536735
2372 -3448.727518803917
2373 -3445.880291835445
2374 -3443.284343675724
2375 -3440.760693401207
2376 -3437.247201960442
2377 -3434.761969483437
2378 -3432.612439978621
2379 -3430.432044323484
2380 -3428.392853407723
2381 -3426.449916078133
2382 -3424.913771054396
2383 -3423.210997816484
2384 -3421.909070102659
2385 -3420.508767949571
2386 -3419.45424546661
2387 -3418.363758973102
2388 -3417.646334718069
2389 -3416.99063104134
2390 -3416.519783147549
2391 -3416.200239364878
2392 -3416.149107728717
2393 -3416.135045392606
2394 -3416.530058370046
2395 -3416.953268622587
2396 -3417.635662567967
2397 -3418.425123978498
2398 -3419.51921804053
2399 -3420.606756210511
2400 -3421.974223418337
2401 -3423.311469553249
2402 -3424.848018921715
2403 -3426.360468647761
2404 -3428.044601370159
2405 -3429.684195399174
2406 -3431.472677404464
2407 -3433.219650722541
2408 -3435.113653022946
2409 -3436.844810038674
2410 -3438.702123652114
2411 -3440.242568458376
2412 -3441.982291398086
2413 -3443.469077658607
2414 -3444.995794390107
2415 -3446.31759426626
2416 -3447.633201046174
2417 -3448.724550626465
2418 -3449.833237867092
2419 -3450.703826097378
2420 -3451.639089977567
2421 -3452.310451853417
2422 -3453.012436104326
2423 -3453.431101268934
2424 -3454.009377572826
2425 -3454.354882632841
2426 -3454.706896219854
2427 -3454.999017264397
2428 -3455.180481267257
2429 -3455.206923285401
2430 -3455.258543777398
2431 -3455.23930623343
2432 -3455.332761931111
2433 -3455.260594987766
2434 -3455.21192965949
2435 -3455.046643059203
2436 -3455.238927874887
2437 -3455.201163352297
2438 -3455.349014555605
2439 -3455.347230605985
2440 -3455.633976393964
2441 -3455.749185291535
2442 -3456.098914264635
2443 -3456.319387402951
2444 -3456.750775545214
2445 -3457.117073435499
2446 -3457.661252896823
2447 -3458.135852533011
2448 -3458.68237772217
2449 -3459.176641390704
2450 -3459.886233052857
2451 -3460.536013017363
2452 -3461.326749098861
2453 -3462.010980572572
2454 -3462.825533375142
2455 -3463.632162774685
2456 -3464.464077699441
2457 -3465.283678097238
2458 -3466.295720879364
2459 -3467.128421449507
2460 -3468.122250837494
2461 -3469.037090030019
2462 -3469.931573295703
2463 -3470.626521592821
2464 -3471.56041532766
2465 -3472.275581376422
2466 -3473.15565237389
2467 -3473.828798334311
2468 -3474.57479612518
2469 -3475.115487509638
2470 -3475.776301571409
2471 -3476.192344461941
2472 -3476.822184213436
2473 -3477.224730970188
2474 -3477.687936822123
2475 -3478.00442462003
2476 -3478.363486235433
2477 -3478.552727548158
2478 -3478.836361170745
2479 -3479.044163583687
2480 -3479.253680788513
2481 -3479.24083953948
2482 -3479.385361537233
2483 -3479.18970287123
2484 -3479.169830561669
2485 -3478.890721740717
2486 -3478.665452361348
2487 -3478.206952442814
2488 -3477.76074716111
2489 -3477.174196644571
2490 -3476.710094898573
2491 -3476.055407530593
2492 -3475.563715131043
2493 -3474.924200341289
2494 -3474.140316728073
2495 -3473.284420981275
2496 -3472.494274056654
2497 -3471.558674625844
2498 -3470.739974323734
2499 -3469.734627217892
2500 -3468.793804586149
2501 -3467.597043234571
2502 -3466.403003950024
2503 -3465.12190086587
2504 -3463.993826260476
2505 -3462.637982895702
2506 -3461.529228950131
2507 -3460.124917020699
2508 -3458.900053338864
2509 -3457.578928700696
2510 -3456.352074606078
2511 -3455.051576786019
2512 -3453.876469523147
2513 -3452.458530606832
2514 -3451.274761242852
2515 -3450.023981441305
2516 -3448.752415256594
2517 -3447.374638397477
2518 -3446.203284111482
2519 -3444.995242526831
2520 -3443.908087557162
2521 -3442.755745315085
2522 -3441.668740436724
2523 -3440.662327168772
2524 -3439.687524099815
2525 -3438.684868768715
2526 -3437.8384756369
2527 -3436.976571076921
2528 -3436.18681342552
2529 -3435.291726145271
2530 -3434.490616215073
2531 -3433.725649066469
2532 -3432.999122653594
2533 -3432.448788857903
2534 -3431.858685744569
2535 -3431.278677876761
2536 -3430.748058061435
2537 -3430.154587945802
2538 -3429.618047505773
2539 -3429.287435173621
2540 -3428.925421148324
2541 -3428.402381972931
2542 -3428.066962721678
2543 -3427.639449935012
2544 -3427.324752238166
2545 -3427.073590873109
2546 -3426.880466538652
2547 -3426.672359230767
2548 -3426.573436283188
2549 -3426.33298751565
2550 -3426.326367328701
2551 -3426.4061394632
2552 -3426.497808596165
