"x-rfile"
"Iteration" "x"
("Iteration" "x")
1 1284.792403758754
2 1148.910056572547
3 788.1389953055195
4 593.134406492325
5 416.4749262788192
6 316.1196465555573
7 233.6224802508004
8 166.8313139594295
9 116.5821580518902
10 74.07907544298558
11 42.69632431003754
12 18.31830995439985
13 2.543690114129745
14 -9.506245656284436
15 -16.97628343596035
16 -21.95498546530879
17 -24.90821462825658
18 -26.50778372302067
19 -27.26756735356306
20 -27.54037983607166
21 -27.65068739665066
22 -27.75902679819328
23 -27.80183156416666
24 -27.93061587318448
25 -28.11398180872968
26 -28.34132545012783
27 -28.62629235430588
28 -28.98212468435172
29 -29.39580520399394
30 -29.87345578678875
31 -30.39599453419061
32 -30.96878518858115
33 -31.557568481603
34 -32.25544631929449
35 -32.85306054579699
36 -33.61785448810578
37 -34.25125241064323
38 -34.98079332175447
39 -35.65180798866156
40 -36.40567858200718
41 -37.05657225281563
42 -37.92857337759314
43 -38.63701546272749
44 -39.5482025808076
45 -40.54794806196109
46 -41.45860334280994
47 -42.3208157377983
48 -43.24424155881657
49 -43.99410287092069
50 -44.83640649133089
51 -45.60258603925267
52 -46.25455067368544
53 -47.00395066948297
54 -47.54711987694314
55 -48.23420271926721
56 -48.7997473908375
57 -49.39071813795778
58 -49.98761425498544
59 -50.48140997785335
60 -51.01112306147758
61 -51.43376992470109
62 -51.89528454037487
63 -52.3748390761379
64 -52.86607134012084
65 -53.36163894804168
66 -53.85214193657048
67 -54.46690409525118
68 -54.90210934518534
69 -55.4574119172274
70 -55.85736353754116
71 -56.37279653797597
72 -56.84321898188579
73 -57.2834177695275
74 -57.69895896849977
75 -58.0903746221646
76 -58.46678953928115
77 -58.82635437836101
78 -59.10710941236832
79 -59.47274369383133
80 -59.74890946562301
81 -60.10237042973819
82 -60.36920067830112
83 -60.64518907504849
84 -60.92455265816643
85 -61.2036603645716
86 -61.47985761190423
87 -61.75362870702661
88 -62.02232248504667
89 -62.28594432901916
90 -62.54408135613934
91 -62.79657457450154
92 -63.04422327500387
93 -63.28555921158669
94 -63.52185535466361
95 -63.75165468255157
96 -63.97610864682441
97 -64.19367882950611
98 -64.40604683664635
99 -64.61239962419788
100 -64.81186064645172
101 -65.00601333164821
102 -65.19538901521592
103 -65.38019584801822
104 -65.55973149533071
105 -65.73536214460105
106 -65.90588186678984
107 -66.03093898216623
108 -66.20460723350895
109 -66.32878666433437
110 -66.50010616537685
111 -66.62105710855947
112 -66.74492038771444
113 -66.86963988667428
114 -66.99464300413149
115 -67.11831693800828
116 -67.24068243880565
117 -67.36154802596663
118 -67.47964563362885
119 -67.59622687547842
120 -67.70934847079076
121 -67.81984247064041
122 -67.92698886874071
123 -68.03100488186523
124 -68.13231112203439
125 -68.23119571506354
126 -68.32631899006162
127 -68.41847739131994
128 -68.50756279714115
129 -68.59301150276065
130 -68.67559520056287
131 -68.75560055464875
132 -68.83240475685682
133 -68.90660935440292
134 -68.97826732025368
135 -69.04769951285633
136 -69.115764354433
137 -69.18141996545607
138 -69.2445534346577
139 -69.3051401619997
140 -69.36366475742206
141 -69.42044163016581
142 -69.47502311104149
143 -69.52758229331668
144 -69.57850442115802
145 -69.6278117035518
146 -69.6753356003789
147 -69.72069143517177
148 -69.76444401974025
149 -69.80632289123942
150 -69.84666856694562
151 -69.88563440353518
152 -69.92295101253465
153 -69.95799213613085
154 -69.99174433688235
155 -70.02422486234768
156 -70.055355067904
157 -70.08507535575984
158 -70.11405287484614
159 -70.14177476609198
160 -70.16908742856008
161 -70.19573108125645
162 -70.22130619958585
163 -70.24574157420258
164 -70.26999330446866
165 -70.29369353821946
166 -70.31677528604908
167 -70.33961366032744
168 -70.3623771929766
169 -70.38510756404796
170 -70.40830553006057
171 -70.43088581765537
172 -70.45396332812899
173 -70.47698468043295
174 -70.50029434474838
175 -70.52363632781865
176 -70.54725992636486
177 -70.57070905295927
178 -70.59467800249338
179 -70.62855253459838
180 -70.65044872233365
181 -70.6732049720396
182 -70.69657058967809
183 -70.72041730893056
184 -70.74457814009112
185 -70.76942384649139
186 -70.79464829848401
187 -70.83112079258208
188 -70.85443375917379
189 -70.87845891827878
190 -70.90298728220026
191 -70.92749315652993
192 -70.95220040696728
193 -70.98728845357853
194 -71.0093055256572
195 -71.03212360505542
196 -71.065465513851
197 -71.08636813737587
198 -71.10823066594391
199 -71.1408574618421
200 -71.16092586536867
201 -71.19205425123506
202 -71.21171984671025
203 -71.24172029657663
204 -71.26053315466746
205 -71.28945738045532
206 -71.31612853782987
207 -71.33325972323276
208 -71.36032752064104
209 -71.38525044864106
210 -71.40981934455779
211 -71.43384189226643
212 -71.45747238953837
213 -71.48103360657032
214 -71.50448585107198
215 -71.52767043601652
216 -71.55112019074181
217 -71.57477420596999
218 -71.59870555425107
219 -71.62247293654903
220 -71.64649286415512
221 -71.67066569604495
222 -71.69500913501771
223 -71.71980710864428
224 -71.74506556968969
225 -71.77056897170596
226 -71.7962641082205
227 -71.82216773333043
228 -71.84881367485777
229 -71.87560804863719
230 -71.90299356210217
231 -71.93105042283231
232 -71.95964191833799
233 -71.98860502670775
234 -72.01789612970207
235 -72.0473653687831
236 -72.0771992004066
237 -72.10704968810617
238 -72.13710660217414
239 -72.16733830667494
240 -72.18813456739514
241 -72.22160464529087
242 -72.25393073477525
243 -72.27544340621732
244 -72.31008108037382
245 -72.33253726336031
246 -72.36820549889067
247 -72.39087179041432
248 -72.42612093102797
249 -72.44858534183179
250 -72.48357720701911
251 -72.50597279715208
252 -72.52992296852669
253 -72.56590409931145
254 -72.58850229409083
255 -72.61210254100776
256 -72.64749515618763
257 -72.66947757221025
258 -72.69249474604538
259 -72.71564132698752
260 -72.74963541269726
261 -72.77039756883165
262 -72.79186670117771
263 -72.81338207856288
264 -72.845179110857
265 -72.86434818269211
266 -72.88400226149429
267 -72.90357798423271
268 -72.92309011890498
269 -72.9422512265044
270 -72.97071061720281
271 -72.98765079015384
272 -73.00502820988197
273 -73.02222508891677
274 -73.03936288057862
275 -73.05606114262969
276 -73.07248031926174
277 -73.08846335774503
278 -73.10406025037553
279 -73.11915702094737
280 -73.13403693549014
281 -73.14834512331861
282 -73.16240200085008
283 -73.17605687353034
284 -73.19621698025321
285 -73.20787003769462
286 -73.21949760488418
287 -73.23082085767386
288 -73.24189053442029
289 -73.25812415916184
290 -73.26740004200508
291 -73.27654856191405
292 -73.29043787228129
293 -73.29833483288652
294 -73.30653223123483
295 -73.31458785985281
296 -73.32716417399445
297 -73.33434002417469
298 -73.34163387186024
299 -73.34892204299302
300 -73.35616562352401
301 -73.36727343327719
302 -73.3734886918358
303 -73.37989519682269
304 -73.38642447579677
305 -73.39281577720237
306 -73.39927587714118
307 -73.40571693772416
308 -73.41227216737208
309 -73.41878295565758
310 -73.42543790318304
311 -73.43203358360283
312 -73.43854703169806
313 -73.44490940963648
314 -73.45134624617258
315 -73.45771988241262
316 -73.46409520942007
317 -73.47039003543613
318 -73.47680225094335
319 -73.48332658241442
320 -73.49012318409065
321 -73.49697465438875
322 -73.50404686503856
323 -73.51099843708185
324 -73.51802934967606
325 -73.52489954517908
326 -73.5316420500757
327 -73.53832680175363
328 -73.54882823514308
329 -73.55498369958363
330 -73.56138173746352
331 -73.57129669196623
332 -73.57720160690336
333 -73.58657107806965
334 -73.59219080995094
335 -73.60127881152292
336 -73.60678964680865
337 -73.6156291764644
338 -73.62094365886074
339 -73.62957218234995
340 -73.63493792551552
341 -73.64363678798591
342 -73.64892741635796
343 -73.65777618284602
344 -73.66305309608998
345 -73.67188986814075
346 -73.67729985210585
347 -73.68628107613088
348 -73.69197703956537
349 -73.70127502935655
350 -73.71029601828631
351 -73.71592907130034
352 -73.72513407911703
353 -73.73385143646331
354 -73.7425785983603
355 -73.75094012689964
356 -73.7563419733652
357 -73.76532550759474
358 -73.77395553600189
359 -73.78260730690778
360 -73.79156831932475
361 -73.8004980690072
362 -73.80955306594949
363 -73.81845723497196
364 -73.82723926366802
365 -73.83574905936389
366 -73.84400714960637
367 -73.85212755146001
368 -73.86030639467771
369 -73.8685365770876
370 -73.87707577955395
371 -73.88565754164111
372 -73.8944331326458
373 -73.90326226993018
374 -73.91234036412722
375 -73.92154399619471
376 -73.93073306317203
377 -73.93976339894499
378 -73.94883481210627
379 -73.95762961151752
380 -73.96647717880344
381 -73.97519362195563
382 -73.9839399391644
383 -73.99270647995526
384 -74.00180499579643
385 -74.01099680776157
386 -74.02054580393737
387 -74.03012404366467
388 -74.03979435667527
389 -74.04934310061637
390 -74.05898140712952
391 -74.06839558936312
392 -74.07789081915692
393 -74.08719295235046
394 -74.09627911900215
395 -74.10519441557422
396 -74.11420057765693
397 -74.1232083297792
398 -74.13241642994805
399 -74.14179413589349
400 -74.15129317851755
401 -74.1606961263998
402 -74.17004244621003
403 -74.17919818228913
404 -74.18834933798962
405 -74.19744838469431
406 -74.20662008844093
407 -74.2157380747596
408 -74.22498242842995
409 -74.23411348798307
410 -74.24359092911382
411 -74.25322787019788
412 -74.26315418070973
413 -74.27297596256065
414 -74.28272614261903
415 -74.29209274432517
416 -74.30117780226443
417 -74.31004665531442
418 -74.31895992152846
419 -74.3278039959217
420 -74.33687014188207
421 -74.34620800116089
422 -74.35592551563013
423 -74.36574923094709
424 -74.37573442006463
425 -74.38554223750951
426 -74.39515418579133
427 -74.40435302718809
428 -74.41318985699985
429 -74.42174835096428
430 -74.43024939550008
431 -74.43885139238964
432 -74.44773174764396
433 -74.45677623022452
434 -74.46616413191411
435 -74.47573774787384
436 -74.48550443405659
437 -74.49515306572587
438 -74.50466309472729
439 -74.51391371405253
440 -74.5230430264785
441 -74.53178238853884
442 -74.54035394871381
443 -74.54872515848345
444 -74.55710012867307
445 -74.56546651656119
446 -74.57403642050186
447 -74.58266075510605
448 -74.59148404686914
449 -74.60034199301357
450 -74.60945079083653
451 -74.61841115438659
452 -74.62732499401395
453 -74.63604045872803
454 -74.64461015021685
455 -74.65287152630985
456 -74.66118096222516
457 -74.6692677483346
458 -74.67739128620859
459 -74.68539435415678
460 -74.69345510077481
461 -74.70157229764845
462 -74.70976938590356
463 -74.71807659305635
464 -74.72656078057791
465 -74.73502663967477
466 -74.74360647998992
467 -74.75200019782328
468 -74.76039896824599
469 -74.76857746760886
470 -74.77675704085199
471 -74.78483970508744
472 -74.79287843155504
473 -74.80074827058432
474 -74.80866139478209
475 -74.81657505647792
476 -74.82458692273617
477 -74.8324641034818
478 -74.84038782719581
479 -74.84818908066272
480 -74.85607636515161
481 -74.86391230136596
482 -74.87182213446511
483 -74.87957694084164
484 -74.88739818415962
485 -74.89510807148619
486 -74.90266439035743
487 -74.91001784543225
488 -74.91736275399941
489 -74.92466088618326
490 -74.93186983288369
491 -74.9391215576067
492 -74.94647771566183
493 -74.95381184297545
494 -74.96122441426701
495 -74.96860226331515
496 -74.97606686536697
497 -74.98334399904495
498 -74.99052517975164
499 -74.99742939401564
500 -75.00435453885738
501 -75.01119242717422
502 -75.0180960913281
503 -75.02501936007253
504 -75.03206031879319
505 -75.03912337985497
506 -75.04639622930938
507 -75.05351116000047
508 -75.06052697756276
509 -75.06724745292253
510 -75.07389091218657
511 -75.08011904121686
512 -75.08635870838729
513 -75.09240052398519
514 -75.09864567682317
515 -75.10493566494041
516 -75.11159923223416
517 -75.11835052580369
518 -75.12504064244817
519 -75.13168360409489
520 -75.13832863166724
521 -75.14478415678472
522 -75.15110335100344
523 -75.1570728663729
524 -75.16302659775921
525 -75.16872770561027
526 -75.17429737186205
527 -75.17993551889212
528 -75.18575961702997
529 -75.19161303414656
530 -75.19769742836598
531 -75.20378559456114
532 -75.20985990417876
533 -75.21577454270475
534 -75.22169813553336
535 -75.22751815236101
536 -75.23323553829492
537 -75.23886365350245
538 -75.24441954373837
539 -75.24976057005038
540 -75.25505550856403
541 -75.26031279195226
542 -75.26574733823287
543 -75.27122740335317
544 -75.27687399688894
545 -75.28247417250734
546 -75.28809350307998
547 -75.29349929370233
548 -75.29895309764318
549 -75.30276471157279
550 -75.30864079634587
551 -75.31416359534035
552 -75.31955656051933
553 -75.32465529870964
554 -75.32962915001141
555 -75.33448644056222
556 -75.33940019802637
557 -75.34421034247835
558 -75.34915155989104
559 -75.35398311377314
560 -75.35736824633763
561 -75.36263660247619
562 -75.36776150983717
563 -75.37284375685402
564 -75.37800475159432
565 -75.38315201003449
566 -75.38832930034908
567 -75.39333256080225
568 -75.39808453382831
569 -75.40246040673529
570 -75.40673372051549
571 -75.41093646845104
572 -75.41531591529372
573 -75.41984157880724
574 -75.42445645413959
575 -75.4291893703237
576 -75.43400680152034
577 -75.43878212142489
578 -75.44343957190922
579 -75.44796658445532
580 -75.45247905315891
581 -75.45674137625909
582 -75.46093033205702
583 -75.46494351192445
584 -75.4691091692645
585 -75.4732714541656
586 -75.47756341816334
587 -75.48172318276251
588 -75.48585821197784
589 -75.4896816436415
590 -75.49348707402152
591 -75.49721495816074
592 -75.50098752675846
593 -75.50479785105547
594 -75.5088092801751
595 -75.51289376763027
596 -75.51717499389763
597 -75.52149151562755
598 -75.52593500714768
599 -75.53011380816079
600 -75.53414265477329
601 -75.53785294466572
602 -75.5413752366149
603 -75.54468126287141
604 -75.54801253543224
605 -75.55120006177282
606 -75.55454872482527
607 -75.55787389577242
608 -75.56156102792229
609 -75.56532302178454
610 -75.5692212012045
611 -75.57315600450919
612 -75.57725071339249
613 -75.58118557593343
614 -75.58507834948449
615 -75.58862137494148
616 -75.59196864242109
617 -75.59509432294266
618 -75.59824643461151
619 -75.60131954079644
620 -75.6044344195504
621 -75.60735878837866
622 -75.61038759169996
623 -75.61361322582857
624 -75.617088743078
625 -75.62049224691891
626 -75.62399669094383
627 -75.62739931400982
628 -75.63089025111464
629 -75.63415886170739
630 -75.63735174315089
631 -75.6401443909954
632 -75.64303187695818
633 -75.64584176677326
634 -75.6486136805519
635 -75.6513862966718
636 -75.65431919823965
637 -75.65723591701158
638 -75.6602765237935
639 -75.66325425065935
640 -75.66633545644805
641 -75.66934343237754
642 -75.6722695989119
643 -75.67524813389014
644 -75.67839516381483
645 -75.68132944753204
646 -75.68420601418042
647 -75.68672091440051
648 -75.68911745573996
649 -75.69130489506919
650 -75.69357856447287
651 -75.69595563937465
652 -75.69849106256854
653 -75.70109073178297
654 -75.70398283727971
655 -75.70695933952437
656 -75.71016276694544
657 -75.71337106961226
658 -75.71661713237813
659 -75.71956776878994
660 -75.72242399100323
661 -75.72491524608652
662 -75.72741100544428
663 -75.72953618931746
664 -75.73180724222667
665 -75.73406706753705
666 -75.73652908870352
667 -75.73896805978225
668 -75.7416091965606
669 -75.74434880015745
670 -75.74722124315203
671 -75.74991863850362
672 -75.75257847174522
673 -75.75482659849474
674 -75.75704780433075
675 -75.75922401705094
676 -75.76146157495168
677 -75.76364682394819
678 -75.76590556033683
679 -75.76819267188833
680 -75.77065767799022
681 -75.7731313402922
682 -75.77572773201034
683 -75.77826781984258
684 -75.7806771812467
685 -75.78291047858704
686 -75.78527090829836
687 -75.78751988419454
688 -75.78991261635906
689 -75.79232046287937
690 -75.79484248834299
691 -75.79712711004342
692 -75.7993844041596
693 -75.80160294991268
694 -75.80380339335468
695 -75.80580738953115
696 -75.80789114584869
697 -75.80994427494859
698 -75.81212622033743
699 -75.81425502031139
700 -75.81656426960538
701 -75.81863409203781
702 -75.82080072282122
703 -75.82289491088162
704 -75.8249878177547
705 -75.82679468181368
706 -75.82857507803614
707 -75.83035476925188
708 -75.8322929238191
709 -75.83418018282742
710 -75.8363379513082
711 -75.83843315400628
712 -75.84069068477211
713 -75.84280224053082
714 -75.84496952446676
715 -75.84692462822098
716 -75.84880075399347
717 -75.8505790467599
718 -75.85246737365132
719 -75.85411015834428
720 -75.85588508350907
721 -75.85757896262842
722 -75.85939294642468
723 -75.86116032861358
724 -75.86298095332891
725 -75.86478864858044
726 -75.86661692107623
727 -75.86823429512658
728 -75.86992272945596
729 -75.87140614730211
730 -75.87300070552489
731 -75.87457802802048
732 -75.8762298786544
733 -75.87782161185116
734 -75.87943782627373
735 -75.88110906810981
736 -75.88289697714559
737 -75.88438481765881
738 -75.88586377394013
739 -75.88735097948835
740 -75.88898850358025
741 -75.89064262802171
742 -75.89236494020302
743 -75.89400271390477
744 -75.89574444518885
745 -75.89736834924557
746 -75.89915145037028
747 -75.90079715140226
748 -75.90234494949402
749 -75.90379773079997
750 -75.90534633289971
751 -75.90687149550598
752 -75.90861476317338
753 -75.91017375023658
754 -75.91181869068055
755 -75.91335682171257
756 -75.91491104532614
757 -75.91636223845403
758 -75.91772737128976
759 -75.91919206825986
760 -75.92084634798809
761 -75.92228198254939
762 -75.9236105162995
763 -75.92468413117398
764 -75.92592522525007
765 -75.92714220979308
766 -75.92848241111861
767 -75.92984636342317
768 -75.93140199272209
769 -75.93300317989926
770 -75.93480996661904
771 -75.93657285003583
772 -75.93828620389695
773 -75.93980912624436
774 -75.94126729630979
775 -75.94238476892725
776 -75.94349465157937
777 -75.94446039916006
778 -75.94555903149897
779 -75.94652777378917
780 -75.94767536308728
781 -75.9489620702779
782 -75.95048861596354
783 -75.95220591961235
784 -75.95409425911102
785 -75.95579697954589
786 -75.95737526681675
787 -75.95862308696009
788 -75.95978679906381
789 -75.96078260605753
790 -75.96164506500902
791 -75.96237287001905
792 -75.96317727739255
793 -75.96398286974083
794 -75.96512966349808
795 -75.96635184804043
796 -75.96783982168833
797 -75.96940521014479
798 -75.97098228254963
799 -75.97232310801915
800 -75.97331860555421
801 -75.97397159225922
802 -75.97461061046846
803 -75.97496423657329
804 -75.97545402808088
805 -75.9759963265479
806 -75.97683784811494
807 -75.97773181876093
808 -75.97881029090846
809 -75.97996751902704
810 -75.98138673328776
811 -75.98270857868432
812 -75.98414630654077
813 -75.98541431793304
814 -75.98658796334134
815 -75.98754328700214
816 -75.98849713905689
817 -75.98926187922505
818 -75.99001652280567
819 -75.9906908350624
820 -75.99155916335722
821 -75.99250063654065
822 -75.99369231935619
823 -75.99498099358374
824 -75.99633770200782
825 -75.9975397925289
826 -75.99879928395234
827 -75.99982740727779
828 -76.00087762178993
829 -76.00178253470906
830 -76.00283013222915
831 -76.00389886550873
832 -76.00478646185506
833 -76.00557157864547
834 -76.00651686202708
835 -76.00738149597879
836 -76.00844151216907
837 -76.00947390863925
838 -76.01046467182141
839 -76.01132227351287
840 -76.01223465667587
841 -76.01308475486188
842 -76.01386842631204
843 -76.01450671527948
844 -76.01535673765518
845 -76.01614910788444
846 -76.01715970602436
847 -76.0181004067602
848 -76.019087333679
849 -76.01980276322328
850 -76.02054847489354
851 -76.0209895635866
852 -76.02151749679342
853 -76.02172569987314
854 -76.02214851319795
855 -76.02261216669699
856 -76.02327557782364
857 -76.02389756468693
858 -76.02477460151613
859 -76.02565822781014
860 -76.02666770006513
861 -76.02759422323955
862 -76.02858403923514
863 -76.02939023515286
864 -76.03010885572583
865 -76.03067178954923
866 -76.03140428144694
867 -76.03204463541614
868 -76.03274158152063
869 -76.0334726963237
870 -76.03424947401975
871 -76.03495364718279
872 -76.03572126318079
873 -76.0365445441568
874 -76.03737708541435
875 -76.03821632219545
876 -76.03918142853908
877 -76.04000167570148
878 -76.04091705478281
879 -76.04158650529882
880 -76.04214371159499
881 -76.0425271384337
882 -76.04310547939394
883 -76.04355995657606
884 -76.04415351736047
885 -76.04456718246242
886 -76.04517320542483
887 -76.04583808442615
888 -76.04665884250234
889 -76.04743560871947
890 -76.04839152843162
891 -76.04909034424708
892 -76.04969098499549
893 -76.05012337685773
894 -76.05046845544433
895 -76.05049676999889
896 -76.05062201527311
897 -76.05079150256935
898 -76.05114307867709
899 -76.05151821723963
900 -76.05214609447511
901 -76.05277436061215
902 -76.05363657880334
903 -76.05438256220025
904 -76.05515878033424
905 -76.05584419498197
906 -76.05652223995915
907 -76.05709804059275
908 -76.05778236972375
909 -76.05827442277084
910 -76.05880444615944
911 -76.05927323820325
912 -76.05972881775558
913 -76.06010737875511
914 -76.06060832193049
915 -76.06105550794588
916 -76.0616190514271
917 -76.06211316836951
918 -76.06281647401126
919 -76.06332270906161
920 -76.06389274130753
921 -76.0644125084041
922 -76.06498739616124
923 -76.06539295383482
924 -76.06576278363869
925 -76.06605378377373
926 -76.06646737904255
927 -76.06678840479603
928 -76.06719186259213
929 -76.06759724037386
930 -76.06801063464808
931 -76.06840281450928
932 -76.06896880710494
933 -76.06960319877008
934 -76.07047489515116
935 -76.07125195088823
936 -76.07219240677983
937 -76.07298185908532
938 -76.07371968182451
939 -76.07431790858487
940 -76.07478263325315
941 -76.07501762218119
942 -76.07524663981623
943 -76.07533727705896
944 -76.07567849751506
945 -76.07599716430973
946 -76.0766465012029
947 -76.07735082858665
948 -76.07823100258166
949 -76.07893507178026
950 -76.07949658414861
951 -76.07977410040749
952 -76.07991739724291
953 -76.07987991014659
954 -76.08000654312744
955 -76.08006210617484
956 -76.08034810772634
957 -76.08060657769687
958 -76.08103506993631
959 -76.08139212577878
960 -76.08210028946787
961 -76.08275054233914
962 -76.08334184044254
963 -76.08369748495026
964 -76.08393548190139
965 -76.08391153662427
966 -76.08397272535564
967 -76.0840638295591
968 -76.08453062524721
969 -76.08505293567771
970 -76.08578651025893
971 -76.08637774831901
972 -76.08702446987597
973 -76.08752267332849
974 -76.08811043813415
975 -76.08854064543814
976 -76.08894724102024
977 -76.08907386137673
978 -76.08927641306673
979 -76.08932529071082
980 -76.08938920623866
981 -76.08948937033587
982 -76.0898051291874
983 -76.09010226663132
984 -76.09059848683384
985 -76.09088373674534
986 -76.09115675238414
987 -76.09133230308245
988 -76.09159292962315
989 -76.09191043390499
990 -76.0923650226915
991 -76.09278443540022
992 -76.09327987772032
993 -76.09361127554422
994 -76.09398534465349
995 -76.09424684620569
996 -76.09464765752575
997 -76.09485271674104
998 -76.09530260445295
999 -76.09589435482739
1000 -76.09664387603155
1001 -76.09716701964091
1002 -76.09767770016532
1003 -76.09805073645136
1004 -76.09837821938987
1005 -76.09847364587107
1006 -76.09852150597395
1007 -76.09845989429702
1008 -76.0985519229872
1009 -76.09853952505698
1010 -76.09863750602673
1011 -76.0984029641825
1012 -76.09814607609768
1013 -76.09782285032001
1014 -76.09770578982123
1015 -76.09772490218863
1016 -76.09804633857479
1017 -76.09842267753743
1018 -76.09889845225703
1019 -76.09939189907746
1020 -76.09999977058024
1021 -76.10048704663836
1022 -76.10097340500251
1023 -76.10125940028853
1024 -76.10149419180513
1025 -76.10150187022033
1026 -76.10159267568083
1027 -76.1016766783434
1028 -76.10214585277002
1029 -76.10278383629037
1030 -76.1037615487007
1031 -76.10475552942061
1032 -76.10571568338901
1033 -76.10648201356216
1034 -76.10724294022489
1035 -76.10773922769185
1036 -76.10802906359113
1037 -76.10795311224432
1038 -76.10772418194802
1039 -76.10726605772967
1040 -76.10695255967077
1041 -76.10663707510997
1042 -76.10655803801011
1043 -76.10633913916234
1044 -76.10648594600163
1045 -76.10670037911719
1046 -76.10709611165629
1047 -76.10718954691755
1048 -76.10732311093265
1049 -76.10734515457028
1050 -76.10751257671666
1051 -76.10761098717661
1052 -76.10778782662645
1053 -76.10785667765641
1054 -76.107906838864
1055 -76.10792492876882
1056 -76.10804897879109
1057 -76.10796926535933
1058 -76.10809197520331
1059 -76.10837576155289
1060 -76.10896595765274
1061 -76.10961918482236
1062 -76.11047060918456
1063 -76.11117535373575
1064 -76.11170660922616
1065 -76.11196930926361
1066 -76.11229472910017
1067 -76.11226318710686
1068 -76.11232977115867
1069 -76.11228100233149
1070 -76.11233622202749
1071 -76.11224349939357
1072 -76.11226960892644
1073 -76.11234554530301
1074 -76.11261212016623
1075 -76.11279635950814
1076 -76.11312459034777
1077 -76.11338137034696
1078 -76.11339751115962
1079 -76.1132723640027
1080 -76.11317623943779
1081 -76.11302354879138
1082 -76.1129870507277
1083 -76.11293652855737
1084 -76.11304595041091
1085 -76.11295954682824
1086 -76.11325148035431
1087 -76.11369647928134
1088 -76.11438645341998
1089 -76.1150886168988
1090 -76.11591493464648
1091 -76.11652186111321
1092 -76.11707291498747
1093 -76.11734988113973
1094 -76.1176120538335
1095 -76.11771500684573
1096 -76.11770856001394
1097 -76.11760997552916
1098 -76.11757331054737
1099 -76.11731569180968
1100 -76.11723718930666
1101 -76.11728427262555
1102 -76.11750576758187
1103 -76.11761310935583
1104 -76.11776726463381
1105 -76.1178429730312
1106 -76.11804554833412
1107 -76.11814322877785
1108 -76.11815256064418
1109 -76.11792994747339
1110 -76.11759492091757
1111 -76.11728478938301
1112 -76.11717359446071
1113 -76.11711930389059
1114 -76.11731530867266
1115 -76.117635377244
1116 -76.11833864730511
1117 -76.11887087660932
1118 -76.11954479531106
1119 -76.12009048454151
1120 -76.12059079660065
1121 -76.12083579192992
1122 -76.12098196338202
1123 -76.12101666443544
1124 -76.12106645470864
1125 -76.12113992909221
1126 -76.12138455067674
1127 -76.12143759258096
1128 -76.1216676681296
1129 -76.12190643232127
1130 -76.12234951208245
1131 -76.1225910887035
1132 -76.1227644442784
1133 -76.12273021595134
1134 -76.12272403874071
1135 -76.12251137201775
1136 -76.12244725645769
1137 -76.12235372507982
1138 -76.12225944784853
1139 -76.12218465113845
1140 -76.12224441442631
1141 -76.12218069200813
1142 -76.12225343706588
1143 -76.122300736901
1144 -76.12252934323547
1145 -76.12262753058307
1146 -76.12279524671952
1147 -76.12299776989818
1148 -76.12321077918675
1149 -76.12325841376212
1150 -76.12334760129666
1151 -76.12334747486753
1152 -76.12343135460297
1153 -76.12346742134373
1154 -76.12357642854317
1155 -76.1235766092276
1156 -76.12375822985109
1157 -76.12406816704249
1158 -76.12466737689539
1159 -76.12497596582949
1160 -76.12530520618216
1161 -76.1255004845611
1162 -76.12563827133394
1163 -76.12560686446061
1164 -76.12551005139959
1165 -76.12508337588312
1166 -76.1246070257329
1167 -76.12419430543281
1168 -76.12400229983258
1169 -76.12396096143715
1170 -76.12405019084777
1171 -76.12414953132919
1172 -76.12427343097335
1173 -76.12428375236021
1174 -76.12444346114177
1175 -76.12447501159883
1176 -76.12461117538867
1177 -76.12467338931124
1178 -76.12473501148291
1179 -76.12464923646532
1180 -76.12460559422379
1181 -76.12474810141889
1182 -76.12520771941435
1183 -76.12560017221591
1184 -76.12609896430463
1185 -76.1265772031212
1186 -76.12720064336452
1187 -76.12774554663612
1188 -76.12836442114309
1189 -76.12878851802603
1190 -76.12916140523146
1191 -76.12921176444546
1192 -76.12915108426758
1193 -76.12881394235485
1194 -76.1285105514512
1195 -76.12824226445053
1196 -76.12820952169997
1197 -76.12812207058707
1198 -76.12818549205107
1199 -76.12822319664878
1200 -76.1285016647543
1201 -76.12851823427387
1202 -76.1285071069716
1203 -76.12832566867546
1204 -76.12805032239004
1205 -76.12773842102965
1206 -76.1275878960532
1207 -76.1275493226433
1208 -76.12775593868135
1209 -76.12811069722919
1210 -76.12855941507372
1211 -76.12890876795636
1212 -76.12914153116991
1213 -76.1292734591771
1214 -76.12950609854629
1215 -76.12949729900834
1216 -76.12954725446049
1217 -76.12946535079999
1218 -76.12956315650855
1219 -76.12985243040097
1220 -76.1304746255239
1221 -76.13105684539808
1222 -76.13149145267582
1223 -76.13163240415955
1224 -76.13170019481039
1225 -76.1313533844657
1226 -76.13092354749389
1227 -76.13045696333239
1228 -76.13018149857874
1229 -76.12992925769527
1230 -76.12988043374726
1231 -76.12990551675718
1232 -76.13020371179334
1233 -76.1303921490121
1234 -76.13071733853667
1235 -76.13085231384329
1236 -76.13081555032943
1237 -76.13057038888509
1238 -76.13050692876196
1239 -76.13043057608483
1240 -76.13056838363727
1241 -76.13064628632343
1242 -76.13097092231533
1243 -76.13120373516979
1244 -76.1315665851324
1245 -76.13192314217856
1246 -76.13222539785616
1247 -76.13235861591338
1248 -76.13248623251874
1249 -76.13244837156005
1250 -76.13244788654259
1251 -76.13235240943605
1252 -76.13244087169372
1253 -76.13249623121723
1254 -76.13263788616156
1255 -76.1326314919712
1256 -76.13273681034579
1257 -76.13259693775855
1258 -76.13243808523158
1259 -76.13213937604819
1260 -76.13179978008368
1261 -76.13122452089212
1262 -76.13095266198248
1263 -76.13047838220058
1264 -76.13006643934959
1265 -76.12959463740555
1266 -76.12946991823762
1267 -76.12942660548653
1268 -76.12947851512807
1269 -76.12951033191625
1270 -76.12969413168796
1271 -76.12999988679383
1272 -76.13044003662679
1273 -76.13088952821695
1274 -76.13142973952471
1275 -76.13171575582032
1276 -76.13201452436351
1277 -76.13212431547709
1278 -76.1323054371245
1279 -76.13240274566753
1280 -76.13266375161371
1281 -76.13278021736301
1282 -76.13306201572838
1283 -76.13322000457966
1284 -76.13353703069598
1285 -76.13372666102174
1286 -76.13382464620484
1287 -76.13374053603273
1288 -76.13358205004955
1289 -76.13316570635097
1290 -76.1329306721164
1291 -76.13258582706885
1292 -76.1323670197437
1293 -76.1322419304452
1294 -76.13220682159047
1295 -76.13221921809568
1296 -76.13219965267226
1297 -76.13201154694084
1298 -76.13203399555039
1299 -76.13194994952724
1300 -76.13203863681041
1301 -76.13216331539373
1302 -76.13225714115033
1303 -76.13224432414447
1304 -76.13237714495344
1305 -76.13237821281938
1306 -76.13256593947008
1307 -76.13250382248928
1308 -76.13268474196023
1309 -76.1329145926355
1310 -76.13330409618082
1311 -76.13365293723074
1312 -76.134005837489
1313 -76.13433673839667
1314 -76.13472744798224
1315 -76.1349730083079
1316 -76.13521669056487
1317 -76.13517843573763
1318 -76.13504480103921
1319 -76.13474482959309
1320 -76.134535597114
1321 -76.13422206693083
1322 -76.13417482144537
1323 -76.13424418170985
1324 -76.1344220660034
1325 -76.13454820774399
1326 -76.13481593828857
1327 -76.13496883906855
1328 -76.13496536011846
1329 -76.1348840427968
1330 -76.13491033331309
1331 -76.13481631167598
1332 -76.1348718521329
1333 -76.13479414632862
1334 -76.13480936868599
1335 -76.13476145463622
1336 -76.13491223653966
1337 -76.13514843021562
1338 -76.13542365640896
1339 -76.13563871777525
1340 -76.13590886523065
1341 -76.13611513801609
1342 -76.13628662387602
1343 -76.13640904133639
1344 -76.13659416110039
1345 -76.13669571111224
1346 -76.13691303100792
1347 -76.13700319561453
1348 -76.1371870098756
1349 -76.13708133065717
1350 -76.13706657570287
1351 -76.13684451585162
1352 -76.13660407259688
1353 -76.13624563958098
1354 -76.13598233018436
1355 -76.13562913943166
1356 -76.13536447091762
1357 -76.13491925171533
1358 -76.13463612894502
1359 -76.1344147602473
1360 -76.13452089180592
1361 -76.13478457753669
1362 -76.13502029948452
1363 -76.13507206393487
1364 -76.13517848493268
1365 -76.13520775276056
1366 -76.13531548141732
1367 -76.13535339600227
1368 -76.13534420685002
1369 -76.13523897535931
1370 -76.13521516889024
1371 -76.13526415506524
1372 -76.13552240235153
1373 -76.13578190721144
1374 -76.13620792365985
1375 -76.13658329775865
1376 -76.13698349679109
1377 -76.13704273820748
1378 -76.13711134474941
1379 -76.13703237455319
1380 -76.13703323115411
1381 -76.1367552105249
1382 -76.13659152280259
1383 -76.13623178178632
1384 -76.13594985252345
1385 -76.13571885963972
1386 -76.13566318042251
1387 -76.1356490069105
1388 -76.13580251080147
1389 -76.13587582820877
1390 -76.13597915972589
1391 -76.13583358214433
1392 -76.13587575030337
1393 -76.13593645257416
1394 -76.13611261139839
1395 -76.13613358092513
1396 -76.13616831665816
1397 -76.13600966109961
1398 -76.13592804823332
1399 -76.13588323706088
1400 -76.13617378667784
1401 -76.13666667148844
1402 -76.13718234457143
1403 -76.13761748965098
1404 -76.13804255020251
1405 -76.13817592200941
1406 -76.13820918061958
1407 -76.13803887638393
1408 -76.13780295673952
1409 -76.1374481013691
1410 -76.13725977320541
1411 -76.13702401500014
1412 -76.13693627868905
1413 -76.13667896120722
1414 -76.1366305588341
1415 -76.13651571080261
1416 -76.13655826255243
1417 -76.1364885265256
1418 -76.13636031389841
1419 -76.13592125273134
1420 -76.13535639699543
1421 -76.13464945614372
1422 -76.13419930040719
1423 -76.13362363418365
1424 -76.13338334638068
1425 -76.13332759962067
1426 -76.13355253786791
1427 -76.13391781585189
1428 -76.13456242386032
1429 -76.13516150316163
1430 -76.13585813705242
1431 -76.13632496181437
1432 -76.1368008734036
1433 -76.13694668830881
1434 -76.13707283624089
1435 -76.13710056463133
1436 -76.13723842629372
1437 -76.13737671733452
1438 -76.13773785699982
1439 -76.1381301944332
1440 -76.13865948018899
1441 -76.13901127157609
1442 -76.13937457264858
1443 -76.13963983875439
1444 -76.13978019300525
1445 -76.13968432101227
1446 -76.13962468292152
1447 -76.13942559271551
1448 -76.13930435692239
1449 -76.13902554496443
1450 -76.1388087498497
1451 -76.13860318904509
1452 -76.1385134250515
1453 -76.13840552628405
1454 -76.13819245400234
1455 -76.13777017878654
1456 -76.13746159002503
1457 -76.13712102200782
1458 -76.13699793577359
1459 -76.136859843076
1460 -76.13700978574309
1461 -76.13728270914021
1462 -76.13784977271438
1463 -76.13846365062234
1464 -76.13911777933274
1465 -76.13934297971524
1466 -76.13938686304104
1467 -76.13904697197974
1468 -76.13855058396612
1469 -76.13790385349203
1470 -76.13748289562015
1471 -76.13715637074182
1472 -76.13721153189442
1473 -76.13734039102488
1474 -76.13761801828498
1475 -76.13781069021066
1476 -76.137921589223
1477 -76.13793866112808
1478 -76.13796498359787
1479 -76.13782854863189
1480 -76.13764063792495
1481 -76.13723263047103
1482 -76.13688979681656
1483 -76.13640534253273
1484 -76.13619372143047
1485 -76.13608707097821
1486 -76.13614198634065
1487 -76.13626506714654
1488 -76.13660108131134
1489 -76.13687939636776
1490 -76.1373081656926
1491 -76.13762400650988
1492 -76.13789743061373
1493 -76.13808087276438
1494 -76.1382397414412
1495 -76.13818263677489
1496 -76.13802906003914
1497 -76.13774139587439
1498 -76.13767017038317
1499 -76.13767756899564
1500 -76.13790452151852
1501 -76.13817512745152
1502 -76.13860812797753
1503 -76.13888555775219
1504 -76.13913602184708
1505 -76.13907816336985
1506 -76.13902623516259
1507 -76.13858198606628
1508 -76.13825245500226
1509 -76.1378526578319
1510 -76.13739681115672
1511 -76.13685225365788
1512 -76.13641676945521
1513 -76.13601836189468
1514 -76.13575505406658
1515 -76.13552885844967
1516 -76.13549888436035
1517 -76.13562005996735
1518 -76.13590933906563
1519 -76.13628934229425
1520 -76.13675935617142
1521 -76.1369431119398
1522 -76.13723980795636
1523 -76.13736266175852
1524 -76.13751227438586
1525 -76.13742251346518
1526 -76.13734126370399
1527 -76.13726376313167
1528 -76.13735801971852
1529 -76.13753812905333
1530 -76.13800383314464
1531 -76.1384329252294
1532 -76.139029425614
1533 -76.13944826926388
1534 -76.13984409129594
1535 -76.13986318453178
1536 -76.13974581444758
1537 -76.13932779461955
1538 -76.13886382156318
1539 -76.13811622930073
1540 -76.13753946153714
1541 -76.13713850280661
1542 -76.13696769999609
1543 -76.13692430453236
1544 -76.13700878064586
1545 -76.13699383611238
1546 -76.13699635832423
1547 -76.13694775487869
1548 -76.13708663291861
1549 -76.13714250077497
1550 -76.13726053519878
1551 -76.13741935180101
1552 -76.13764844918968
1553 -76.13784647581042
1554 -76.1380583387552
1555 -76.13808423217621
1556 -76.13823799266407
1557 -76.13829675884467
1558 -76.13843167307377
1559 -76.1386073731021
1560 -76.13878308205857
1561 -76.13907160329011
1562 -76.13952296433526
1563 -76.13979813764753
1564 -76.1400941144137
1565 -76.14017925630448
1566 -76.14023775468348
1567 -76.14001040829767
1568 -76.13975666227725
1569 -76.13934062618604
1570 -76.13899370525534
1571 -76.13845144326412
1572 -76.13819057627011
1573 -76.13795638654661
1574 -76.13805370561471
1575 -76.13825340381864
1576 -76.13848704923474
1577 -76.13855908799654
1578 -76.13876458125905
1579 -76.13890019005612
1580 -76.1391586653059
1581 -76.13905433615243
1582 -76.13884588242145
1583 -76.1384813809378
1584 -76.13813371083002
1585 -76.13786098520342
1586 -76.13787310604198
1587 -76.13802043747413
1588 -76.13846447489969
1589 -76.13895980706734
1590 -76.13968466604987
1591 -76.14016962509722
1592 -76.1405459669665
1593 -76.14062398320098
1594 -76.14067048129567
1595 -76.14038382100753
1596 -76.1400156195549
1597 -76.13934061408312
1598 -76.13877211563876
1599 -76.13836646179944
1600 -76.13822208983888
1601 -76.13838651100735
1602 -76.13869694636891
1603 -76.13902742761496
1604 -76.13937942652369
1605 -76.13939883725256
1606 -76.13922476552081
1607 -76.13870870422033
1608 -76.1381624565534
1609 -76.13741708099568
1610 -76.13684540521064
1611 -76.13634377631682
1612 -76.13619815607306
1613 -76.13615210757398
1614 -76.13660664596894
1615 -76.13706024880265
1616 -76.13768393086983
1617 -76.1381926281791
1618 -76.13864598647309
1619 -76.13885808862135
1620 -76.13905258373339
1621 -76.13906766045103
1622 -76.13913469744448
1623 -76.13900518679038
1624 -76.1388988280313
1625 -76.1388497624165
1626 -76.13896014896285
1627 -76.13899362977094
1628 -76.13922210825551
1629 -76.13932030506311
1630 -76.13945766798905
1631 -76.13958214046049
1632 -76.13966489292875
1633 -76.13941542028856
1634 -76.13901639545101
1635 -76.13849338130258
1636 -76.13814060449006
1637 -76.13760434652926
1638 -76.13724860487561
1639 -76.13686930527284
1640 -76.13670419227357
1641 -76.13664787521877
1642 -76.136781367808
1643 -76.13693463691267
1644 -76.13721981241993
1645 -76.13741262511212
1646 -76.13781930924999
1647 -76.13798336452683
1648 -76.13818093263941
1649 -76.13836731623132
1650 -76.13871599625641
1651 -76.13901182872878
1652 -76.13936354411922
1653 -76.13962809478019
1654 -76.14006741037554
1655 -76.14019851828931
1656 -76.14034202528835
1657 -76.14031975020595
1658 -76.1402009303054
1659 -76.13992298536111
1660 -76.13971549029438
1661 -76.13931360530388
1662 -76.13898991348893
1663 -76.13861269833811
1664 -76.13852896081063
1665 -76.13832446359874
1666 -76.13829733207506
1667 -76.13826950400042
1668 -76.13831234930957
1669 -76.13811315761558
1670 -76.13794385225798
1671 -76.13760325428943
1672 -76.13736275253255
1673 -76.13704281978323
1674 -76.13689939184958
1675 -76.1369097135927
1676 -76.13704089856741
1677 -76.13729147065801
1678 -76.13777606224231
1679 -76.13811933768815
1680 -76.13853001280289
1681 -76.13880274095558
1682 -76.13921342919943
1683 -76.13949468799738
1684 -76.13988337657477
1685 -76.14016526318771
1686 -76.14044389871805
1687 -76.14062582444792
1688 -76.14102485523455
1689 -76.14124168027922
1690 -76.14146986495734
1691 -76.14155655079328
1692 -76.14177746746441
1693 -76.1417796962442
1694 -76.14174530560997
1695 -76.14146801828993
1696 -76.14118097390465
1697 -76.14068904260444
1698 -76.14022025330156
1699 -76.1395791134977
1700 -76.13908092326854
1701 -76.13860716297303
1702 -76.13855807448674
1703 -76.13848864529344
1704 -76.13853565665396
1705 -76.13859325337172
1706 -76.13897152469256
1707 -76.13935681826113
1708 -76.13973157522048
1709 -76.13979272268313
1710 -76.13979455459133
1711 -76.13959533390424
1712 -76.13955007119968
1713 -76.13935767775904
1714 -76.1391263381619
1715 -76.13888350520017
1716 -76.13877399626048
1717 -76.13875825149088
1718 -76.13872225289526
1719 -76.13873418522041
1720 -76.13910778807909
1721 -76.13945248635852
1722 -76.13978866046983
1723 -76.13991792536463
1724 -76.13996951641413
1725 -76.13986875496151
1726 -76.13966183003856
1727 -76.13913968726229
1728 -76.13847916725398
1729 -76.13749696038812
1730 -76.13679759019257
1731 -76.13626509971543
1732 -76.13610893832738
1733 -76.13631798093034
1734 -76.13697130217935
1735 -76.13768193949595
1736 -76.13850967001997
1737 -76.13916678875221
1738 -76.13972897821276
1739 -76.1399284464519
1740 -76.14002256406128
1741 -76.13974822991756
1742 -76.13935535454131
1743 -76.13875112026714
1744 -76.1384069506025
1745 -76.13830928362943
1746 -76.13870257925083
1747 -76.13936137534036
1748 -76.14015950285699
1749 -76.14084392738906
1750 -76.1412028645007
1751 -76.14121050913063
1752 -76.14109468198093
1753 -76.1406890676671
1754 -76.14033199063451
1755 -76.13985209796317
1756 -76.13949619977896
1757 -76.13918008798416
1758 -76.13909582517525
1759 -76.13907430157215
1760 -76.13907380792888
1761 -76.13885216151037
1762 -76.138673170861
1763 -76.13838060323866
1764 -76.13826038685792
1765 -76.13795650057871
1766 -76.13782269865698
1767 -76.13759644320876
1768 -76.13761738441335
1769 -76.13767327587379
1770 -76.1379759267525
1771 -76.13812344871054
1772 -76.13852651312476
1773 -76.1388877453382
1774 -76.13920049954157
1775 -76.13932838550066
1776 -76.13946587938788
1777 -76.13964464866729
1778 -76.13992748613485
1779 -76.14011278393015
1780 -76.14033991815104
1781 -76.14043564608635
1782 -76.14051844469671
1783 -76.14040980933689
1784 -76.14040070480338
1785 -76.14017500877847
1786 -76.14017472126937
1787 -76.14011470289201
1788 -76.14013372679544
1789 -76.13993707028571
1790 -76.13964541198607
1791 -76.13916105077726
1792 -76.13851220538531
1793 -76.13783323633162
1794 -76.13741321676916
1795 -76.13687930920011
1796 -76.13663883848831
1797 -76.13646236248577
1798 -76.13658122702651
1799 -76.13685698637576
1800 -76.13740314891241
1801 -76.13791413461011
1802 -76.13850226091807
1803 -76.13884924002595
1804 -76.1391474981738
1805 -76.13930883606994
1806 -76.13944460684228
1807 -76.13951967932562
1808 -76.13964127887702
1809 -76.13970239669214
1810 -76.14002399548383
1811 -76.14032784376069
1812 -76.14081441512738
1813 -76.14074881874261
1814 -76.14075188776296
1815 -76.1405782150308
1816 -76.14044791658439
1817 -76.14020447921993
1818 -76.14003986291806
1819 -76.13975512193782
1820 -76.13954614941436
1821 -76.13924054340802
1822 -76.13905054738153
1823 -76.13883815114188
1824 -76.13868403192339
1825 -76.13847064116507
1826 -76.13824821981153
1827 -76.13790545146489
1828 -76.13779095036092
1829 -76.13771660082398
1830 -76.13781906950568
1831 -76.13787792834735
1832 -76.13809234307013
1833 -76.13832365840358
1834 -76.13865222449036
1835 -76.13893257570444
1836 -76.13931539197968
1837 -76.1394034207193
1838 -76.13940452038678
1839 -76.13930961998824
1840 -76.13925898555166
1841 -76.13916059456812
1842 -76.13917517332868
1843 -76.13905914679525
1844 -76.13902624581141
1845 -76.1388491044877
1846 -76.13886411263873
1847 -76.13896069659121
1848 -76.13917959348665
1849 -76.13941690263992
1850 -76.13978576718065
1851 -76.13986468288701
1852 -76.13977538360318
1853 -76.13942785812088
1854 -76.13900989367544
1855 -76.13836322927195
1856 -76.13775409389974
1857 -76.13729324411834
1858 -76.13707087048775
1859 -76.13703768701349
1860 -76.13743278982902
1861 -76.13791883271129
1862 -76.13865563416991
1863 -76.13925692948253
1864 -76.13986618989047
1865 -76.14008065308036
1866 -76.14001635789965
1867 -76.13964099043842
1868 -76.13929867227976
1869 -76.13895763605946
1870 -76.13888638146646
1871 -76.13896848222144
1872 -76.1393525111944
1873 -76.13976854207505
1874 -76.14038234464024
1875 -76.14093078386223
1876 -76.14137452385128
1877 -76.14143888487931
1878 -76.14142850982353
1879 -76.14112560368217
1880 -76.14086489226848
1881 -76.14042534686565
1882 -76.13994987054072
1883 -76.13930084821115
1884 -76.13881342373867
1885 -76.13834022438243
1886 -76.13826385108685
1887 -76.13813372987472
1888 -76.13833378807652
1889 -76.13860101345097
1890 -76.13904391000547
1891 -76.13933175125128
1892 -76.1397629874356
1893 -76.1400639558657
1894 -76.1403647519839
1895 -76.14048946810618
1896 -76.14060423826423
1897 -76.14041907649511
1898 -76.14013998145361
1899 -76.13987442809069
1900 -76.13983667599405
1901 -76.13993863629209
1902 -76.14044277496794
1903 -76.14093307633296
1904 -76.14154355965806
1905 -76.14188472978236
1906 -76.14198606580119
1907 -76.14174082350786
1908 -76.14120765278712
1909 -76.14046897666476
1910 -76.13987436130061
1911 -76.13920193606698
1912 -76.13867094778715
1913 -76.13820489515288
1914 -76.13803866567785
1915 -76.13790970367781
1916 -76.1379693636888
1917 -76.13793444961655
1918 -76.13791797859186
1919 -76.13756931030909
1920 -76.13729356351504
1921 -76.13687872484574
1922 -76.13656275918358
1923 -76.13621653149562
1924 -76.13621445261656
1925 -76.13634673624836
1926 -76.13686481279571
1927 -76.13738017903866
1928 -76.13807189300422
1929 -76.13840047930782
1930 -76.13870289616932
1931 -76.13900909051584
1932 -76.13938394463582
1933 -76.1396359038648
1934 -76.13989121085594
1935 -76.13996496620496
1936 -76.14004655101773
1937 -76.14005214531493
1938 -76.14007247196875
1939 -76.1399774576787
1940 -76.13985714313418
1941 -76.13975444595377
1942 -76.13983042109741
1943 -76.13986892810975
1944 -76.14012024142347
1945 -76.1401595608491
1946 -76.14029776650871
1947 -76.14021972048415
1948 -76.14014346603904
1949 -76.1398080633541
1950 -76.13943274123079
1951 -76.13897523302585
1952 -76.13874722214668
1953 -76.13853515161155
1954 -76.13852077990461
1955 -76.13861784267411
1956 -76.13897084228277
1957 -76.13925953472145
1958 -76.13963086375541
1959 -76.1397979064981
1960 -76.14003916256675
1961 -76.14005923369743
1962 -76.14017227257843
1963 -76.1402058622899
1964 -76.14027640989688
1965 -76.14031459359536
1966 -76.140435580945
1967 -76.1405236690353
1968 -76.14061324257042
1969 -76.14033598879195
1970 -76.14005851473667
1971 -76.13961735426514
1972 -76.13939405654942
1973 -76.13918402795464
1974 -76.13913912097404
1975 -76.13901053969674
1976 -76.13899831328081
1977 -76.13889757852085
1978 -76.13890013381761
1979 -76.13874987230068
1980 -76.13866676114975
1981 -76.1383437073688
1982 -76.1379604337106
1983 -76.13760226064258
1984 -76.13744780105311
1985 -76.1374279251165
1986 -76.13784963630711
1987 -76.13839957329796
1988 -76.13916801978327
1989 -76.13971802931941
1990 -76.14022154799082
1991 -76.14045562797472
1992 -76.14065227573704
1993 -76.14059568638388
1994 -76.14070024006072
1995 -76.14058792332452
1996 -76.14065096768434
1997 -76.14070656600232
1998 -76.14085090837557
1999 -76.14093715220761
2000 -76.14101908625854
2001 -76.14087696265467
2002 -76.14082403964488
2003 -76.14044247835332
2004 -76.14017879020582
2005 -76.13992226473746
2006 -76.13974528437247
2007 -76.1395494326685
2008 -76.13944532377134
2009 -76.1392980183727
2010 -76.13928212050936
2011 -76.13915694338276
2012 -76.13916763179563
2013 -76.13901115755473
2014 -76.13894547270645
2015 -76.13892567468247
2016 -76.13909847037812
2017 -76.13911275053528
2018 -76.13933882691907
2019 -76.13942833601179
2020 -76.13953884239517
2021 -76.13960633702702
2022 -76.13968064639435
2023 -76.1397480680638
2024 -76.13977618543359
2025 -76.13983754465717
2026 -76.1400257597972
2027 -76.14012892056259
2028 -76.14029632356861
2029 -76.1402623176388
2030 -76.14031911119616
2031 -76.14017045823847
2032 -76.14020281853269
2033 -76.14019880128154
2034 -76.1402468139886
2035 -76.13999982122868
2036 -76.13974037750042
2037 -76.13937830361002
2038 -76.13914251681646
2039 -76.13887528726772
2040 -76.13872806644882
2041 -76.13857923973625
2042 -76.1384777504517
2043 -76.13832862987678
2044 -76.13830126835958
2045 -76.13816519280981
2046 -76.13813134832299
2047 -76.13819723075902
2048 -76.1384521442086
2049 -76.13868076595801
2050 -76.1389532880972
2051 -76.13910369871654
2052 -76.13923629691907
2053 -76.13919733405162
2054 -76.13923966525948
2055 -76.13926874765249
2056 -76.13937793074994
2057 -76.13959636997073
2058 -76.13998527199917
2059 -76.14031469480777
2060 -76.14067970476445
2061 -76.14090727597672
2062 -76.14114268292366
2063 -76.14119289611095
2064 -76.14123610838199
2065 -76.14102787555186
2066 -76.14074781043776
2067 -76.14030653852024
2068 -76.13998611430679
2069 -76.13943504621434
2070 -76.13892854677837
2071 -76.13846668740091
2072 -76.13823378734257
2073 -76.13794434930061
2074 -76.13776215633732
2075 -76.13766710955184
2076 -76.137762544455
2077 -76.13777995672525
2078 -76.13808582934783
2079 -76.13842749848116
2080 -76.13886419479817
2081 -76.13916604307059
2082 -76.13954060820342
2083 -76.13959069775728
2084 -76.13962559812936
2085 -76.13946041712396
2086 -76.13949370482497
2087 -76.13940334253367
2088 -76.13935268912275
2089 -76.13920452985784
2090 -76.13910762332345
2091 -76.13905148511923
2092 -76.13920935768697
2093 -76.13938272192826
2094 -76.13972660411082
2095 -76.13986999731686
2096 -76.13985672671338
2097 -76.13966910179823
2098 -76.13934557305075
2099 -76.1389165367406
2100 -76.13852489959288
2101 -76.13795311197839
2102 -76.13755109765182
2103 -76.13715015814621
2104 -76.13714528050956
2105 -76.13729407322104
2106 -76.1377390875252
2107 -76.13811114117291
2108 -76.13857907147376
2109 -76.13896608578652
2110 -76.13951642191526
2111 -76.13989461689309
2112 -76.14017048298166
2113 -76.14024031521016
2114 -76.14026962063831
2115 -76.14017168732555
2116 -76.13987662603057
2117 -76.13950507888393
2118 -76.13949445425946
2119 -76.13941469439654
2120 -76.13973792767757
2121 -76.14013066102494
2122 -76.14052011747215
2123 -76.14085143835206
2124 -76.14118264601467
2125 -76.14123022494124
2126 -76.14116439228988
2127 -76.14084646431456
2128 -76.14044850979977
2129 -76.13989950634291
2130 -76.13937097631545
2131 -76.13880486552519
2132 -76.13857783234415
2133 -76.13854633314315
2134 -76.13869074236548
2135 -76.1386889278067
2136 -76.13874414322669
2137 -76.13866760648249
2138 -76.13870161466262
2139 -76.13873364060773
2140 -76.13879731708975
2141 -76.13879594879322
2142 -76.13893680773279
2143 -76.13905158907873
2144 -76.13932390408878
2145 -76.1395640559106
2146 -76.13993893552849
2147 -76.14025043143529
2148 -76.14069231506893
2149 -76.14099517586817
2150 -76.14127703928324
2151 -76.14124032343835
2152 -76.14132725187605
2153 -76.14139656906192
2154 -76.14147393208177
2155 -76.14136793363591
2156 -76.14131446136142
2157 -76.14119816719015
2158 -76.14100801595285
2159 -76.14067535204087
2160 -76.14039279921957
2161 -76.13985736746712
2162 -76.13943861557354
2163 -76.13894074587769
2164 -76.13849986446006
2165 -76.13798900332412
2166 -76.13766131275383
2167 -76.13737886765935
2168 -76.13740959533561
2169 -76.13746190487848
2170 -76.13778386326184
2171 -76.13807283826216
2172 -76.13825926761591
2173 -76.13820474162726
2174 -76.13818116428845
2175 -76.13793616520142
2176 -76.13780382125942
2177 -76.13756247402674
2178 -76.13742874741379
2179 -76.13735699937136
2180 -76.13750326407572
2181 -76.13775853067709
2182 -76.13820101513276
2183 -76.1385841696073
2184 -76.13905491703261
2185 -76.13936107914981
2186 -76.13956216039389
2187 -76.13941160196252
2188 -76.13929060861339
2189 -76.13907591852423
2190 -76.13901220168631
2191 -76.13894363637013
2192 -76.13895557672404
2193 -76.13876676649862
2194 -76.13881209203844
2195 -76.1389639650003
2196 -76.13911720204297
2197 -76.13907313865212
2198 -76.13909655195089
2199 -76.13910931957236
2200 -76.13918658585982
2201 -76.13926438902304
2202 -76.13959881856721
2203 -76.13970516125313
2204 -76.13968710944849
2205 -76.13949008251222
2206 -76.13932543624789
2207 -76.13913791319034
2208 -76.13921310673132
2209 -76.13933562415772
2210 -76.13967882049423
2211 -76.13994485190864
2212 -76.14034579659707
2213 -76.14064779039288
2214 -76.14102327647312
2215 -76.14115912764427
2216 -76.14132989309186
2217 -76.14112498953293
2218 -76.14087522304806
2219 -76.14046417690467
2220 -76.14014796001931
2221 -76.1397764075549
2222 -76.13955028183405
2223 -76.1393721984449
2224 -76.13933382395415
2225 -76.13933738434527
2226 -76.13953292804294
2227 -76.139667044012
2228 -76.13964886948253
2229 -76.13946096401632
2230 -76.13926321289777
2231 -76.13894138704825
2232 -76.13875194502623
2233 -76.13844036848974
2234 -76.13846427452373
2235 -76.13850616401675
2236 -76.13895072323236
2237 -76.13958211536679
2238 -76.14019184491322
2239 -76.14056711609281
2240 -76.14100202153722
2241 -76.14127402379602
2242 -76.1414101089285
2243 -76.14121446165952
2244 -76.14082436855348
2245 -76.14034973576189
2246 -76.13993905591049
2247 -76.13968213569377
2248 -76.13966511577142
2249 -76.13963724844436
2250 -76.13989051886311
2251 -76.14009591064411
2252 -76.14041277669797
2253 -76.14055352912861
2254 -76.14056720446963
2255 -76.1402725856853
2256 -76.13973533844668
2257 -76.13899727909524
2258 -76.13835791310812
2259 -76.1378132051945
2260 -76.13760706443433
2261 -76.13763454716889
2262 -76.13800312474589
2263 -76.13836194724603
2264 -76.13883353783288
2265 -76.13919805103897
2266 -76.13964109600079
2267 -76.1397738290491
2268 -76.13993424283406
2269 -76.13996213882049
2270 -76.14000146726303
2271 -76.13997674746891
2272 -76.14014862191384
2273 -76.14037330025937
2274 -76.1406784760012
2275 -76.14077690792008
2276 -76.14092331570822
2277 -76.14082357859105
2278 -76.14084365469537
2279 -76.14076859911341
2280 -76.14075681305594
2281 -76.14052048154157
2282 -76.14040386394242
2283 -76.14015166460022
2284 -76.13989697261606
2285 -76.13957625953897
2286 -76.13936823698828
2287 -76.13915810057729
2288 -76.1390567701192
2289 -76.13899956353092
2290 -76.13905921562164
2291 -76.13891285465566
2292 -76.13889940781567
2293 -76.13884871267737
2294 -76.13881166504962
2295 -76.13858413994946
2296 -76.13837043285834
2297 -76.13815372518569
2298 -76.1380995891416
2299 -76.13796485442883
2300 -76.13802184071041
2301 -76.13795350109262
2302 -76.13803949052263
2303 -76.13819082103657
2304 -76.1385529832187
2305 -76.13885907205093
2306 -76.13933302596845
2307 -76.1397606181731
2308 -76.14029091171193
2309 -76.14034840684216
2310 -76.14033321327379
2311 -76.14013304120972
2312 -76.13998904325619
2313 -76.13978235433447
2314 -76.13958545038159
2315 -76.13931477306183
2316 -76.13926005829433
2317 -76.13920822564384
2318 -76.13942853795179
2319 -76.13957134484855
2320 -76.13977639731907
2321 -76.13980700155102
2322 -76.13981410415504
2323 -76.13952252437197
2324 -76.13927525632144
2325 -76.13879959129353
2326 -76.13843306121002
2327 -76.13811408674185
2328 -76.13799227135574
2329 -76.13801027813977
2330 -76.138124967297
2331 -76.13845136880265
2332 -76.13894240204374
2333 -76.13937973696135
2334 -76.13981122255494
2335 -76.14001690347935
2336 -76.14012711526351
2337 -76.14005080246157
2338 -76.13999485155634
2339 -76.1399420691225
2340 -76.14003705006658
2341 -76.13993780395717
2342 -76.14005493014646
2343 -76.14004390666375
2344 -76.14006934945265
2345 -76.13992569174903
2346 -76.13980369464642
2347 -76.13939476492874
2348 -76.13908485392885
2349 -76.13879512056539
2350 -76.13874651511968
2351 -76.13855173160553
2352 -76.13858849184179
2353 -76.13864131829796
2354 -76.13884317917609
2355 -76.13901998966722
2356 -76.13922560428392
2357 -76.13932092806984
2358 -76.1394801012613
2359 -76.13960677493741
2360 -76.13988834871121
2361 -76.14006401564708
2362 -76.14019948856472
2363 -76.14021562180312
2364 -76.14040526128974
2365 -76.14031888624342
2366 -76.14028046812042
2367 -76.14020607001612
2368 -76.14023887351652
2369 -76.14031967864214
2370 -76.14053257456563
2371 -76.14064313001856
2372 -76.14071632135177
2373 -76.14069093284138
2374 -76.1407334811733
2375 -76.1404827674906
2376 -76.14023267790573
2377 -76.13970946856699
2378 -76.13927357949932
2379 -76.13876789506126
2380 -76.13837422008217
2381 -76.13798264630648
2382 -76.1378124498214
2383 -76.13759752990887
2384 -76.13781283681465
2385 -76.13806756968886
2386 -76.13840948650592
2387 -76.13872654421752
2388 -76.13914141179026
2389 -76.1393963903917
2390 -76.13960727516782
2391 -76.13953305997443
2392 -76.13944080951562
2393 -76.13913252217614
2394 -76.13890482449938
2395 -76.13867326671222
2396 -76.13869405678489
2397 -76.13879039428251
2398 -76.13916419241654
2399 -76.13958035207639
2400 -76.14008046214424
2401 -76.14049244610599
2402 -76.14095689368348
2403 -76.14127287397575
2404 -76.14136859846423
2405 -76.14130371198755
2406 -76.14122322155475
2407 -76.14074658212168
2408 -76.14028144140015
2409 -76.13968321882291
2410 -76.13928290768871
2411 -76.13887671252868
2412 -76.13869089044371
2413 -76.13848638217665
2414 -76.13846528696632
2415 -76.13837203069802
2416 -76.13840981931224
2417 -76.13841815473285
2418 -76.13846587549176
2419 -76.13838010719634
2420 -76.1383817071173
2421 -76.13810446138643
2422 -76.13791004946742
2423 -76.13766494890037
2424 -76.13762831211805
2425 -76.13739237700798
2426 -76.13745475954218
2427 -76.13758058681921
2428 -76.13777205859674
2429 -76.13804266804922
2430 -76.13849624522398
2431 -76.1389381147298
2432 -76.13935043529769
2433 -76.13959031671125
2434 -76.13979255662692
2435 -76.13974631761381
2436 -76.13955779683042
2437 -76.13934832410933
2438 -76.13919810223337
2439 -76.13898123300818
2440 -76.1387946372289
2441 -76.13861184660828
2442 -76.13872839232073
2443 -76.13884264265502
2444 -76.1391724382531
2445 -76.13949661652428
2446 -76.13978941986485
2447 -76.1398698041222
2448 -76.13996599756437
2449 -76.13981796656603
2450 -76.13980664528984
2451 -76.139752802692
2452 -76.13990738575498
2453 -76.13997867795106
2454 -76.14015016880789
2455 -76.14020370415379
2456 -76.14040509764516
2457 -76.14046446879233
2458 -76.14069410003208
2459 -76.14071610563249
2460 -76.14080767780156
2461 -76.14079187804994
2462 -76.14086841347159
2463 -76.14083297610604
2464 -76.1409148866327
2465 -76.14089709637632
2466 -76.14104847885429
2467 -76.14095436842393
2468 -76.14080269981923
2469 -76.14046033845312
2470 -76.14007848531804
2471 -76.13952094223949
2472 -76.13908032337854
2473 -76.13869360565984
2474 -76.13851781922006
2475 -76.13851703264299
2476 -76.13880149889621
2477 -76.13908259993494
2478 -76.1392802709581
2479 -76.13935717692712
2480 -76.13950917903028
2481 -76.13943182284166
2482 -76.13934765796027
2483 -76.13907028607231
2484 -76.1388610270029
2485 -76.13852713913046
2486 -76.13849504654679
2487 -76.13849961312464
2488 -76.1387036329297
2489 -76.13899745667227
2490 -76.13963791499637
2491 -76.14021822830706
2492 -76.14083161850297
2493 -76.14123511636322
2494 -76.14144187784227
2495 -76.1413329809028
2496 -76.14117786253445
2497 -76.14078559249856
2498 -76.14053432872181
2499 -76.14012718363021
2500 -76.13990674672606
2501 -76.13970544736864
2502 -76.1395820100484
2503 -76.13952255117857
2504 -76.13959804758019
2505 -76.13955909888907
2506 -76.1393999882074
2507 -76.13899913790291
2508 -76.13855830370576
2509 -76.13786074695939
2510 -76.13741899957266
2511 -76.13715887044837
2512 -76.13723389266826
2513 -76.13745744858602
2514 -76.13791798222792
2515 -76.13838614919054
2516 -76.13909361751678
2517 -76.13960665441481
2518 -76.13995542349517
2519 -76.14003694959329
2520 -76.13984399464614
2521 -76.13945870825427
2522 -76.1391748763223
2523 -76.13890566545936
2524 -76.13880345097644
2525 -76.13887578812957
2526 -76.13926776513934
2527 -76.13968113955782
2528 -76.14027111001374
2529 -76.14073791258258
2530 -76.14106867512621
2531 -76.14101317987348
2532 -76.1408109389326
2533 -76.14029719198139
2534 -76.1396145584755
2535 -76.13881087207962
2536 -76.13805201066459
2537 -76.13741188521369
2538 -76.13715701556147
2539 -76.13711686487919
2540 -76.13754566137408
2541 -76.13792984785539
2542 -76.1385158398398
2543 -76.13897764665377
2544 -76.13930941856376
2545 -76.13930617442836
2546 -76.1393048839152
2547 -76.13909726784796
2548 -76.13892273750166
2549 -76.13853959991265
2550 -76.13816402093116
2551 -76.13781803714318
2552 -76.13763817765548
2553 -76.13772395232201
2554 -76.13824588579685
2555 -76.13871792642784
2556 -76.13933731457017
2557 -76.139722077851
2558 -76.14011383649749
2559 -76.14025324350227
2560 -76.14044231736784
2561 -76.14048140932785
2562 -76.14050852246966
2563 -76.14042800282719
2564 -76.14046235947801
2565 -76.14034337460056
2566 -76.14024052753942
2567 -76.14006712281575
2568 -76.13998677813002
2569 -76.13979590881712
2570 -76.1396860316265
2571 -76.1395318853925
2572 -76.13952438578542
2573 -76.13947020286984
2574 -76.13962716480579
2575 -76.13981575778375
2576 -76.14005517431229
2577 -76.14016803200701
2578 -76.14024845102304
2579 -76.14002740397078
2580 -76.13983958847879
2581 -76.1395215463381
2582 -76.13952880507671
2583 -76.13947734436449
2584 -76.13945551270315
2585 -76.1393911296354
2586 -76.13946182918497
2587 -76.13937510239549
2588 -76.13954858320987
2589 -76.13957635142403
2590 -76.13973795947169
2591 -76.13977917728729
2592 -76.13993857686532
2593 -76.14003640045743
2594 -76.1400022489685
2595 -76.13982881517315
2596 -76.13962825750068
2597 -76.13924899186853
2598 -76.1388752147874
2599 -76.13834670095936
2600 -76.13794213277535
2601 -76.13759946811693
2602 -76.13749797356525
2603 -76.13760250807259
2604 -76.13788280857469
2605 -76.13829234162976
2606 -76.13902489283737
2607 -76.13969755968206
2608 -76.14030396333661
2609 -76.14052348379279
2610 -76.14063957111748
2611 -76.14053573242218
2612 -76.14058569362781
2613 -76.14053708397084
2614 -76.14057397837566
2615 -76.14033756722058
2616 -76.14034823866574
2617 -76.1404221047449
2618 -76.14068878261048
2619 -76.14099305382089
2620 -76.14131716834255
2621 -76.14140273779705
2622 -76.14131412741331
2623 -76.14086803209666
2624 -76.14039955334499
2625 -76.13978533509543
2626 -76.13911606121037
2627 -76.13848195146461
2628 -76.13796059774151
2629 -76.13741207157798
2630 -76.13723579343065
2631 -76.13725161363708
2632 -76.1375835765956
2633 -76.13788280810127
2634 -76.13837016402231
2635 -76.13862651028774
2636 -76.13863025750666
2637 -76.13838707944021
2638 -76.13825864563097
2639 -76.13801319464122
2640 -76.13793720068446
2641 -76.1378145322922
2642 -76.13795903019984
2643 -76.13817769259127
2644 -76.13866785101899
2645 -76.13940266609343
2646 -76.14026371772444
2647 -76.1408797482442
2648 -76.14137981584589
2649 -76.14165009809899
2650 -76.1417635385983
2651 -76.14156939431025
2652 -76.14136403373291
2653 -76.14096815500928
2654 -76.14074615376835
2655 -76.14037985577521
2656 -76.14022545731534
2657 -76.14001994409881
2658 -76.14007662923747
2659 -76.14030264110649
2660 -76.14059534483675
2661 -76.14074605996558
2662 -76.14101274422386
2663 -76.1410144937234
2664 -76.14092336607266
2665 -76.14049129909758
2666 -76.14001015108063
2667 -76.13938003817871
2668 -76.13871051205844
2669 -76.13809155568491
2670 -76.13772250969026
2671 -76.1373896608937
2672 -76.13747957604508
2673 -76.13770281682704
2674 -76.13809004232897
2675 -76.13829278884704
2676 -76.13849676486717
2677 -76.1385428532942
2678 -76.13858252906481
2679 -76.13859329364799
2680 -76.13880433550476
2681 -76.13889016122548
2682 -76.13891832911472
2683 -76.13877682420124
2684 -76.13867966433385
2685 -76.13856404596572
2686 -76.13856605796639
2687 -76.1385566588305
2688 -76.13863255049567
2689 -76.13841325968022
2690 -76.13838681071508
2691 -76.13835144070197
2692 -76.13847730464555
2693 -76.1385788244588
2694 -76.13876919896838
2695 -76.13882742084347
2696 -76.13886928433469
2697 -76.13876467812015
2698 -76.13868882947293
2699 -76.13849401352799
2700 -76.13855902112634
2701 -76.13874207350226
2702 -76.13911963080469
2703 -76.13934329779643
2704 -76.13958787224004
2705 -76.13976006326504
2706 -76.14004972480045
2707 -76.14011926030868
2708 -76.14034952674349
2709 -76.14060399870846
2710 -76.14078725442016
2711 -76.14086473583873
2712 -76.14099432508948
2713 -76.14093278767797
2714 -76.1408744979034
2715 -76.1407431916179
2716 -76.14059151846348
2717 -76.14023060635591
2718 -76.13998145686809
2719 -76.13968634918965
2720 -76.13955751927442
2721 -76.1392903931974
2722 -76.1391491694727
2723 -76.13894558418794
2724 -76.13889057982752
2725 -76.13881515457398
2726 -76.13879663541861
2727 -76.13865562867845
2728 -76.13868520074961
2729 -76.138719029344
2730 -76.13883881017092
2731 -76.13871789179522
2732 -76.13877388940951
2733 -76.13890572641996
2734 -76.13915757518518
2735 -76.13924116635563
2736 -76.1393389255944
2737 -76.13922934649918
2738 -76.13925162293457
2739 -76.13927369752857
2740 -76.13951278645268
2741 -76.13972270900285
2742 -76.13997747710833
2743 -76.14031080553983
2744 -76.14073369970369
2745 -76.14103479941079
2746 -76.14128708783851
2747 -76.14118706104098
2748 -76.14094424447512
2749 -76.14035044921566
2750 -76.13977809960087
2751 -76.13925755153512
2752 -76.13887378451855
2753 -76.13867791407047
2754 -76.13867038626934
2755 -76.13860875993116
2756 -76.13865832865766
2757 -76.13859466764505
2758 -76.13856056760022
2759 -76.13843946691823
2760 -76.13836502405157
2761 -76.1383048101831
2762 -76.13843400708743
2763 -76.13852984886968
2764 -76.13886718443513
2765 -76.13911762375102
2766 -76.13941414035934
2767 -76.13951738129236
2768 -76.13968633293665
2769 -76.13966359624237
2770 -76.13972495667433
2771 -76.1397766329605
2772 -76.13995071828657
2773 -76.1400555651224
2774 -76.14039460737858
2775 -76.140768245817
2776 -76.14115298816654
2777 -76.14124483233019
2778 -76.14125870072293
2779 -76.14099723451731
2780 -76.14060861834153
2781 -76.14016031184119
2782 -76.13966987186132
2783 -76.13910482222724
2784 -76.13865326148878
2785 -76.13838150711371
2786 -76.13843106174882
2787 -76.13850633190722
2788 -76.13881699038346
2789 -76.13912236577572
2790 -76.1394579856883
2791 -76.13960496617285
2792 -76.13968040967256
2793 -76.13948091705582
2794 -76.139263636851
2795 -76.13891512949156
2796 -76.13875398320192
2797 -76.13850946682302
2798 -76.13849331388361
2799 -76.13855748135509
2800 -76.13880761760788
2801 -76.13901249050302
2802 -76.13940109971871
2803 -76.13970170084224
2804 -76.14019377924598
2805 -76.14033109825149
2806 -76.14041112306462
2807 -76.14019001008958
2808 -76.13990247465314
2809 -76.13942938579615
2810 -76.13912631565582
2811 -76.13882870198374
2812 -76.13872854235689
2813 -76.1385873161986
2814 -76.13870469846412
2815 -76.1388107086464
2816 -76.13912656310531
2817 -76.13939086401226
2818 -76.13956417035223
2819 -76.13952349609167
2820 -76.13938995778493
2821 -76.13918775674851
2822 -76.13917872944474
2823 -76.13918152380751
2824 -76.13938949668736
2825 -76.13951416341062
2826 -76.13949861003476
2827 -76.13941261195653
2828 -76.13940839609202
2829 -76.13917285218515
2830 -76.13897262667679
2831 -76.13872925860311
2832 -76.13875330236868
2833 -76.13885060904683
2834 -76.13911909682483
2835 -76.1394101422954
2836 -76.13974889916395
2837 -76.13989933627718
2838 -76.14014298500531
2839 -76.14011388003127
2840 -76.13993986711966
2841 -76.13968313540859
2842 -76.13937206345101
2843 -76.13886453162843
2844 -76.13839435693004
2845 -76.13788564859884
2846 -76.13771706537392
2847 -76.13758495205569
2848 -76.13776418472411
2849 -76.13790936073191
2850 -76.13806408042336
2851 -76.13808591329663
2852 -76.13824010328665
2853 -76.13828797309024
2854 -76.13845215654869
2855 -76.1386132970682
2856 -76.13896892776343
2857 -76.13904429606312
2858 -76.13912497132081
2859 -76.13907573180934
2860 -76.13912890889928
2861 -76.13920109736341
2862 -76.13945529849389
2863 -76.13979929458574
2864 -76.14020753504798
2865 -76.14064698111463
2866 -76.14115578567124
2867 -76.14163467612083
2868 -76.1420538209575
2869 -76.1422238276466
2870 -76.14223855593845
2871 -76.14192076981503
2872 -76.14140402913598
2873 -76.1407034351699
2874 -76.14015459035657
2875 -76.13962404131327
2876 -76.13926712165613
2877 -76.13889869501955
2878 -76.13867815043962
2879 -76.13839771223745
2880 -76.13826830905437
2881 -76.1380739121927
2882 -76.13805632304653
2883 -76.13801092263564
2884 -76.13814366261384
2885 -76.13833119211117
2886 -76.13873605881486
2887 -76.13899508408018
2888 -76.13932206963084
2889 -76.13937011706284
2890 -76.13934766700815
2891 -76.13921535941424
2892 -76.13915857926175
2893 -76.13912946213345
2894 -76.13936732847729
2895 -76.13959213378497
2896 -76.13997392905081
2897 -76.14031331896874
2898 -76.14089373250275
2899 -76.14143135602734
2900 -76.14185264340976
2901 -76.1418907314428
2902 -76.14187860063255
2903 -76.14158297292811
2904 -76.14127266003972
2905 -76.14077826909325
2906 -76.14026868339309
2907 -76.13978613853104
2908 -76.13949004469403
2909 -76.1392462314064
2910 -76.13902045684833
2911 -76.1388575142151
2912 -76.13901189816946
2913 -76.13917946082796
2914 -76.13944710478127
2915 -76.13960518666271
2916 -76.13972510540832
2917 -76.13962378989829
2918 -76.1395574738121
2919 -76.13937255885583
2920 -76.13923953278612
2921 -76.13874830288573
2922 -76.13844269997755
2923 -76.1381500934168
2924 -76.13817660313759
2925 -76.13820463385252
2926 -76.13832794463637
2927 -76.13843343790107
2928 -76.13872564405536
2929 -76.13900910709501
2930 -76.13948335812201
2931 -76.13972434916681
2932 -76.13990232479428
2933 -76.13977973247208
2934 -76.13956703836199
2935 -76.13911612626454
2936 -76.13878670783878
2937 -76.13858156369001
2938 -76.13855700654217
2939 -76.13863088448896
2940 -76.13885340633659
2941 -76.13900131468154
2942 -76.13900873656945
2943 -76.13893749750278
2944 -76.13893715802428
2945 -76.13887494287114
2946 -76.13900937001274
2947 -76.13906557437917
2948 -76.13919548848358
2949 -76.13937744815111
2950 -76.13959889208957
2951 -76.13976315878395
2952 -76.14002982943251
2953 -76.14014418811836
2954 -76.14040398063612
2955 -76.140490304094
2956 -76.14058688354551
2957 -76.14049162611897
2958 -76.14052158991598
2959 -76.14042363434498
2960 -76.1404437695066
2961 -76.14030539589045
2962 -76.14023026716644
2963 -76.13981020167823
2964 -76.13959347312324
2965 -76.13938328246027
2966 -76.13934607207536
2967 -76.13923881762665
2968 -76.13926085458439
2969 -76.13921089441834
2970 -76.13922390422563
2971 -76.13903502700096
2972 -76.1388975806221
2973 -76.1386399225531
2974 -76.13846519751849
2975 -76.13826748799625
2976 -76.13822156397869
2977 -76.13814132167705
2978 -76.13833112338814
2979 -76.1385955792328
2980 -76.13896919564722
2981 -76.13925468197613
2982 -76.13967238205755
2983 -76.14002114091114
2984 -76.14031432491218
2985 -76.14051156201042
2986 -76.14062974393934
2987 -76.14035738262984
2988 -76.14010452010341
2989 -76.13986327612835
2990 -76.13996830893146
2991 -76.14010733597364
2992 -76.14041481253507
2993 -76.14062952233429
2994 -76.14084958877737
2995 -76.14077686955891
2996 -76.14067800859623
2997 -76.14032948427621
2998 -76.13993099596597
2999 -76.13952237302543
3000 -76.13929460187619
3001 -76.13902447977134
3002 -76.13895724524559
3003 -76.13882948601889
3004 -76.13874553396782
3005 -76.13852592122717
3006 -76.13841852662785
3007 -76.13825120666684
3008 -76.1382034440621
3009 -76.13812177558175
3010 -76.13826176680662
3011 -76.13847778881704
3012 -76.13882823944962
3013 -76.13906933812035
3014 -76.13931674319137
3015 -76.13945843593898
3016 -76.13950851520136
3017 -76.13956003017046
3018 -76.13985120229525
3019 -76.14011233411762
3020 -76.14048709688282
3021 -76.14074245116507
3022 -76.14113500076355
3023 -76.14130752398495
3024 -76.1415822489251
3025 -76.14168345568787
3026 -76.14166004499678
3027 -76.14127142238705
3028 -76.14073402921812
3029 -76.13999730634313
3030 -76.13936446255043
3031 -76.13883400743079
3032 -76.13857488919915
3033 -76.13825257066037
3034 -76.1381047843802
3035 -76.13791578408789
3036 -76.13797098406222
3037 -76.13789747142694
3038 -76.13794728768306
3039 -76.13792489761082
3040 -76.13788733852607
3041 -76.13762752807718
3042 -76.13741587557011
3043 -76.13721666247208
3044 -76.13730537595875
3045 -76.13749338837712
3046 -76.13796246456218
3047 -76.13833304054954
3048 -76.13865205189897
3049 -76.13881080618363
3050 -76.13906209143171
3051 -76.13918991978611
3052 -76.13942792601479
3053 -76.13945394811697
3054 -76.13951908095711
3055 -76.1394311268806
3056 -76.13945805955744
3057 -76.1394022025281
3058 -76.13922810534855
3059 -76.1388878345744
3060 -76.1387558225581
3061 -76.13851985999116
3062 -76.13850142396564
3063 -76.13848569191151
3064 -76.13869150683162
3065 -76.13883101427938
3066 -76.13911962408271
3067 -76.13936842802028
3068 -76.13962266329976
3069 -76.13959131018285
3070 -76.13954814358091
3071 -76.13935523956232
3072 -76.13931286394828
3073 -76.13931513153881
3074 -76.13952572197519
3075 -76.13962438569264
3076 -76.13990853428962
3077 -76.14011151469622
3078 -76.14040029260981
3079 -76.14030342340834
3080 -76.14029891758412
3081 -76.14025325744076
3082 -76.14011412202427
3083 -76.13983129068937
3084 -76.13958519937356
3085 -76.13933843409838
3086 -76.13942819990606
3087 -76.13949491656587
3088 -76.13967567178365
3089 -76.13970530703394
3090 -76.13974183826276
3091 -76.13962608027545
3092 -76.13959772375399
3093 -76.13928520517953
3094 -76.13903644130927
3095 -76.13880143220297
3096 -76.13877619964465
3097 -76.13876560162349
3098 -76.13889118530781
3099 -76.13904301357505
3100 -76.13922313605237
3101 -76.13922653503882
3102 -76.13938675387725
3103 -76.13937410480113
3104 -76.13951042212369
3105 -76.13967255757204
3106 -76.13998059731624
3107 -76.14021311073567
3108 -76.14060591571977
3109 -76.14078205387989
3110 -76.14103553512012
3111 -76.1410773608748
3112 -76.14123677761367
3113 -76.14129235540277
3114 -76.14141210874901
3115 -76.14142395086641
3116 -76.14149431561673
3117 -76.14140926819022
3118 -76.14135655496537
3119 -76.14118562029083
3120 -76.14119866557517
3121 -76.14085577620496
3122 -76.14055170105368
3123 -76.14015374288174
3124 -76.13971263473137
3125 -76.13917570787748
3126 -76.13879424990061
3127 -76.13838441109196
3128 -76.13819676061357
3129 -76.13791478122099
3130 -76.13778075217732
3131 -76.13768541950724
3132 -76.13762931020155
3133 -76.13774338312859
3134 -76.13804818063616
3135 -76.13822903311551
3136 -76.13853269309909
3137 -76.13872530457888
3138 -76.139068546427
3139 -76.13921201838367
3140 -76.1393477045051
3141 -76.139334185142
3142 -76.1393381198539
3143 -76.13926573664986
3144 -76.13954309976457
3145 -76.13978249924607
3146 -76.14019701186223
3147 -76.14060190910391
3148 -76.14106453241963
3149 -76.14141289807314
3150 -76.14164082818255
3151 -76.14149498241484
3152 -76.14117030211749
3153 -76.14034771002557
3154 -76.13946670973255
3155 -76.13869299917657
3156 -76.13827963704026
3157 -76.13802475471405
3158 -76.13823299934521
3159 -76.13855598399353
3160 -76.13906510811212
3161 -76.13947349671896
3162 -76.13980296969649
3163 -76.13984266904338
3164 -76.13975104215459
3165 -76.1394797465199
3166 -76.13922642752487
3167 -76.1387616329651
3168 -76.13851013539208
3169 -76.13818886512144
3170 -76.13826964651524
3171 -76.13844052417026
3172 -76.13893552881298
3173 -76.13952487687585
3174 -76.14001693689136
3175 -76.14024824488814
3176 -76.14039337125601
3177 -76.14033960125406
3178 -76.14019854358237
3179 -76.13994399783827
3180 -76.13973805891652
3181 -76.1393463025985
3182 -76.1390401998665
3183 -76.13868368188379
3184 -76.13853496850109
3185 -76.1382182515657
3186 -76.13807244454529
3187 -76.13789358803579
3188 -76.13784522658379
3189 -76.13778239535081
3190 -76.13783383636002
3191 -76.13779730200849
3192 -76.13791025326039
3193 -76.13795355793808
3194 -76.13819767507376
3195 -76.13830891510879
3196 -76.13843794730292
3197 -76.13850936991113
3198 -76.13861674415752
3199 -76.13850891609671
3200 -76.13848845369181
3201 -76.13831592664106
3202 -76.13825099924853
3203 -76.13824843611491
3204 -76.13858202367761
3205 -76.13891094978716
3206 -76.13931365335044
3207 -76.13984993867714
3208 -76.14042899441267
3209 -76.14080765455331
3210 -76.14107638566796
3211 -76.14101441119386
3212 -76.14087916017336
3213 -76.14038358567738
3214 -76.13987060418675
3215 -76.1393208406776
3216 -76.13890720630194
3217 -76.13849416692258
3218 -76.13837358488965
3219 -76.13842240229835
3220 -76.13862854413661
3221 -76.13887356334305
3222 -76.13919381153808
3223 -76.13934565584813
3224 -76.13959272920623
3225 -76.13982502605948
3226 -76.14017039669326
3227 -76.14027584507102
3228 -76.14034776281771
3229 -76.14020230692249
3230 -76.14010014052786
3231 -76.14001676377319
3232 -76.14010619339942
3233 -76.14021683248674
3234 -76.14061534130646
3235 -76.14103067170717
3236 -76.14147527933763
3237 -76.14159960459337
3238 -76.14157684639133
3239 -76.14143849031522
3240 -76.14139202036736
3241 -76.14114172440837
3242 -76.14093061921963
3243 -76.14064796437532
3244 -76.14049726049653
3245 -76.14035153705258
3246 -76.14022679364894
3247 -76.14000018314483
3248 -76.13966958690801
3249 -76.13926948966584
3250 -76.13889177785616
3251 -76.13838705881102
3252 -76.13809947011616
3253 -76.13776229606289
3254 -76.13777994860196
3255 -76.13781356732267
3256 -76.13802765883499
3257 -76.13823480531485
3258 -76.13866880112489
3259 -76.13903438014759
3260 -76.13951658094683
3261 -76.1397102726153
3262 -76.1397430615185
3263 -76.13957266222785
3264 -76.13957672763688
3265 -76.13952076950186
3266 -76.13956652375133
3267 -76.13966076010092
3268 -76.13993755713874
3269 -76.14003101321771
3270 -76.14025095460333
3271 -76.14028616813673
3272 -76.140470830084
3273 -76.14056650862655
3274 -76.1407202000082
3275 -76.14067697418746
3276 -76.14060540201217
3277 -76.14044572921946
3278 -76.1404468867653
3279 -76.14019903767034
3280 -76.13970118153276
3281 -76.13907037545265
3282 -76.13858755481948
3283 -76.13810376049307
3284 -76.13784797262981
3285 -76.13762778301808
3286 -76.13763019709708
3287 -76.13768624532007
3288 -76.1379135615251
3289 -76.13809963532168
3290 -76.13817932963347
3291 -76.13813885112354
3292 -76.13815624804788
3293 -76.13795057012574
3294 -76.13778582130846
3295 -76.13766489093118
3296 -76.13787163340986
3297 -76.13799967086466
3298 -76.13827420131291
3299 -76.13838695631205
3300 -76.13858018302972
3301 -76.13868058111464
3302 -76.13897184668744
3303 -76.13912478643486
3304 -76.13920031553539
3305 -76.13910281445499
3306 -76.13908252535266
3307 -76.13886821189999
3308 -76.13872768581655
3309 -76.13856076962753
3310 -76.13863104534438
3311 -76.1386319607336
3312 -76.13873153723868
3313 -76.13872720549828
3314 -76.13876137901501
3315 -76.13876236104825
3316 -76.13899457131691
3317 -76.13917280478591
3318 -76.13948259341724
3319 -76.13965969903026
3320 -76.14007216127497
3321 -76.14045925573701
3322 -76.14068374836408
3323 -76.14089153265597
3324 -76.14128344455666
3325 -76.14157114631074
3326 -76.1419468408624
3327 -76.14199541746147
3328 -76.14198824433515
3329 -76.14185179795605
3330 -76.14194625741338
3331 -76.14186021211229
3332 -76.14158458241219
3333 -76.14109121341383
3334 -76.14078939790454
3335 -76.14043756917812
3336 -76.14020510664038
3337 -76.13989259494318
3338 -76.13971494916521
3339 -76.13940486677043
3340 -76.13922931745439
3341 -76.13897462728357
3342 -76.13886279588672
3343 -76.13841924688494
3344 -76.13807693915543
3345 -76.13766729356969
3346 -76.1374495120635
3347 -76.13728768244725
3348 -76.13748020117752
3349 -76.13765998163434
3350 -76.1380532201714
3351 -76.1384094522172
3352 -76.13888464120065
3353 -76.1391375463768
3354 -76.13939417792069
3355 -76.13949657943621
3356 -76.13961512222045
3357 -76.13960096721298
3358 -76.13965235512502
3359 -76.1396053318411
3360 -76.13975221348183
3361 -76.13986203383126
3362 -76.14033044170993
3363 -76.14075437966879
3364 -76.14113202169706
3365 -76.1413380856845
3366 -76.14151003569472
3367 -76.14135409124287
3368 -76.14112208706352
3369 -76.14068542681342
3370 -76.14024414597722
3371 -76.13976265899423
3372 -76.13940375971661
3373 -76.13894513594006
3374 -76.13870190430836
3375 -76.13844472070149
3376 -76.13855317270648
3377 -76.13883498602193
3378 -76.13920256535363
3379 -76.13932391773362
3380 -76.13937773520986
3381 -76.13915418849663
3382 -76.13901698960635
3383 -76.13872198247742
3384 -76.13865595591692
3385 -76.13847849683917
3386 -76.13861369408707
3387 -76.13877534038559
3388 -76.13901380663013
3389 -76.13923129593537
3390 -76.13960585822284
3391 -76.13999400024615
3392 -76.14046908021707
3393 -76.1408196180427
3394 -76.14113829194353
3395 -76.14121880926841
3396 -76.14118542876308
3397 -76.14096635209408
3398 -76.14074226206792
3399 -76.14032872138056
3400 -76.14006082670572
3401 -76.13980313249323
3402 -76.13970374999231
3403 -76.13958629506838
3404 -76.13978503326243
3405 -76.13996157494047
3406 -76.13994322374572
3407 -76.1397238090394
3408 -76.13950161333752
3409 -76.13902883976998
3410 -76.13863437929908
3411 -76.13825809954476
3412 -76.13804481953156
3413 -76.13796622545978
3414 -76.13816527161343
3415 -76.13841050301309
3416 -76.13878282412726
3417 -76.13899758570491
3418 -76.13934308004949
3419 -76.13951879761873
3420 -76.13955339633895
3421 -76.13931368347957
3422 -76.13923349685429
3423 -76.13908580341325
3424 -76.13897946164631
3425 -76.13879355327694
3426 -76.13872873467281
3427 -76.1386282614647
3428 -76.1386789185745
3429 -76.13871955046912
3430 -76.13880464705457
3431 -76.13870933282601
3432 -76.13869177666582
3433 -76.13858206741565
3434 -76.13849765415031
3435 -76.13833878880193
3436 -76.13825127685681
3437 -76.1382452318542
3438 -76.1383566066004
3439 -76.13844063413757
3440 -76.13864928351585
3441 -76.13867758671715
3442 -76.13885749768002
3443 -76.13895599535276
3444 -76.1390418984635
3445 -76.13894220414305
3446 -76.13899033514775
3447 -76.1390407879219
3448 -76.13916586002719
3449 -76.13925039602204
3450 -76.13965280437297
3451 -76.13998707198226
3452 -76.14041719443833
3453 -76.14063612068385
3454 -76.14091120799445
3455 -76.14094370943825
3456 -76.14106920091884
3457 -76.14105645626161
3458 -76.1410764412268
3459 -76.140575479871
3460 -76.14009110012495
3461 -76.13957535031599
3462 -76.13935346913844
3463 -76.13919245324898
3464 -76.13935322389158
3465 -76.13951933827607
3466 -76.139760168162
3467 -76.13986492214292
3468 -76.14009558156387
3469 -76.14003033898658
3470 -76.13991215519184
3471 -76.13962760959561
3472 -76.13925778795243
3473 -76.13886362056887
3474 -76.13864142501198
3475 -76.13845939951682
3476 -76.13848124723987
3477 -76.13852179826492
3478 -76.13880939917856
3479 -76.13928892304126
3480 -76.1398273550403
3481 -76.14031559412311
3482 -76.14095507943684
3483 -76.14132189515747
3484 -76.14166073047586
3485 -76.14170372232265
3486 -76.14159771712882
3487 -76.14113291338249
3488 -76.14066222099635
3489 -76.14016121454516
3490 -76.13968480079656
3491 -76.13909486115128
3492 -76.13882473829604
3493 -76.13864514106233
3494 -76.13883168630876
3495 -76.13903576666587
3496 -76.13918835965488
3497 -76.13908262697468
3498 -76.1390209686295
3499 -76.13890151526391
3500 -76.1388846663632
3501 -76.13851748680487
3502 -76.13814643461055
3503 -76.13768847445851
3504 -76.13739780456538
3505 -76.13716802406516
3506 -76.13731296624049
3507 -76.13765024288092
3508 -76.13829217451502
3509 -76.1389739397051
3510 -76.13966061178161
3511 -76.13993153192544
3512 -76.14003301544444
3513 -76.13988079662838
3514 -76.13976871759517
3515 -76.1395799474551
3516 -76.13952749764833
3517 -76.13946163242385
3518 -76.13952701965175
3519 -76.13962120493727
3520 -76.13999245049664
3521 -76.1402980602291
3522 -76.1406212003381
3523 -76.14078035100312
3524 -76.14079693393704
3525 -76.14042307615087
3526 -76.13999417504584
3527 -76.13949202267877
3528 -76.13914290493238
3529 -76.13885496964896
3530 -76.13867902916591
3531 -76.13856523658694
3532 -76.13868846550966
3533 -76.13871324955677
3534 -76.13891674973014
3535 -76.13902612790012
3536 -76.13907599665689
3537 -76.13881683181999
3538 -76.13851417750219
3539 -76.13800769957567
3540 -76.13773766367771
3541 -76.13759325515827
3542 -76.13787898871279
3543 -76.13810533706163
3544 -76.13859280397178
3545 -76.13899778892655
3546 -76.13941690253192
3547 -76.13959267368196
3548 -76.13972623385993
3549 -76.13969841673358
3550 -76.13974323388283
3551 -76.13972204022591
3552 -76.13975918507693
3553 -76.13963052692198
3554 -76.13950889848327
3555 -76.13942405615495
3556 -76.13948587139521
3557 -76.13950593243723
3558 -76.13949099918115
3559 -76.13933391253305
3560 -76.13924980230584
3561 -76.13907706502658
3562 -76.13900802182472
3563 -76.13894471562988
3564 -76.13901693626818
3565 -76.13904768010518
3566 -76.13927050870264
3567 -76.13939624599212
3568 -76.13960678328026
3569 -76.13981447921988
3570 -76.14026537491461
3571 -76.14058672245184
3572 -76.14092093323791
3573 -76.1408467620109
3574 -76.1406971229744
3575 -76.1402965374524
3576 -76.14011636255614
3577 -76.14002345939109
3578 -76.14014229703422
3579 -76.1402935715151
3580 -76.14062389004708
3581 -76.1409527871478
3582 -76.14125900669218
3583 -76.14130320635216
3584 -76.14120580841923
3585 -76.14074796108991
3586 -76.14019873076268
3587 -76.13947980752714
3588 -76.13892057549664
3589 -76.1382956711936
3590 -76.13796521677264
3591 -76.13771300242712
3592 -76.13771639509145
3593 -76.13770151255676
3594 -76.13784203945032
3595 -76.13795143557044
3596 -76.13798153449764
3597 -76.13786814238109
3598 -76.13788152603104
3599 -76.13785570911665
3600 -76.13797702188539
3601 -76.13804534160003
3602 -76.13814735531254
3603 -76.13821765105801
3604 -76.13845141978514
3605 -76.13872406252726
3606 -76.1391171807295
3607 -76.1393084490342
3608 -76.13952849395113
3609 -76.13960894146183
3610 -76.13962343882324
3611 -76.13954620885643
3612 -76.1396876021544
3613 -76.13969331348908
3614 -76.13978558253572
3615 -76.13977177879856
3616 -76.13985501511317
3617 -76.13970082880945
3618 -76.13956070874445
3619 -76.13942788553325
3620 -76.13935853367541
3621 -76.13917004789745
3622 -76.13899676262821
3623 -76.13874288586725
3624 -76.13865484071212
3625 -76.13861596769028
3626 -76.13880891306852
3627 -76.13894028917402
3628 -76.13895856438947
3629 -76.1388715075296
3630 -76.13898114526236
3631 -76.1389339209414
3632 -76.13903987998351
3633 -76.13908012124541
3634 -76.13920314193592
3635 -76.13921952174977
3636 -76.13940534592
3637 -76.13954083072613
3638 -76.13971126677583
3639 -76.13969512284744
3640 -76.13981735735149
3641 -76.13978984602791
3642 -76.13993538400427
3643 -76.13994556746886
3644 -76.14010570535683
3645 -76.1400933039919
3646 -76.14010019630037
3647 -76.13999330720756
3648 -76.13994318168034
3649 -76.13965641264944
3650 -76.13950672704593
3651 -76.13931253834656
3652 -76.13929339970281
3653 -76.1392167290161
3654 -76.1391284301917
3655 -76.13890770501648
3656 -76.13885809719631
3657 -76.13875770595938
3658 -76.13871894626425
3659 -76.13859598294363
3660 -76.13860047799858
3661 -76.13868922033822
3662 -76.13895138790892
3663 -76.13917979678759
3664 -76.13942983111856
3665 -76.1396369817991
3666 -76.13978087773511
3667 -76.13986054949397
3668 -76.14007734778467
3669 -76.14019520619276
3670 -76.14032422099839
3671 -76.14035747134606
3672 -76.14051619001486
3673 -76.14037952815318
3674 -76.14032146980735
3675 -76.14018300289776
3676 -76.14025151567812
3677 -76.14028095669654
3678 -76.14033982937059
3679 -76.14021191134569
3680 -76.13994623942443
3681 -76.1394870559424
3682 -76.13916847247734
3683 -76.13887802140198
3684 -76.13871732950444
3685 -76.13858997165111
3686 -76.13868561778513
3687 -76.13868292809627
3688 -76.13882740212868
3689 -76.13886235275142
3690 -76.13906118847196
3691 -76.13904442664409
3692 -76.13906062299027
3693 -76.13906133877825
3694 -76.13918872413061
3695 -76.13940067258567
3696 -76.13984794279411
3697 -76.14014044287464
3698 -76.14047445423171
3699 -76.14059082907525
3700 -76.14077079079246
3701 -76.14067771250903
3702 -76.1405068679059
3703 -76.14021088974015
3704 -76.14011471850735
3705 -76.13997041455067
3706 -76.140035385581
3707 -76.14010081851907
3708 -76.14025270135352
3709 -76.14031033223513
3710 -76.14036096696073
3711 -76.14026406844819
3712 -76.14012928151868
3713 -76.13989421723598
3714 -76.13974868668049
3715 -76.13936286107456
3716 -76.13909344809601
3717 -76.13880906331923
3718 -76.13878806122429
3719 -76.13867850462745
3720 -76.13878561006482
3721 -76.13878438774633
3722 -76.13888918509623
3723 -76.13888357655557
3724 -76.13892664728948
3725 -76.13889616991926
3726 -76.13904812384912
3727 -76.13928176513656
3728 -76.13976306661178
3729 -76.14007266850666
3730 -76.14037403062324
3731 -76.14057155539568
3732 -76.14086496271473
3733 -76.14081793912335
3734 -76.14074908337369
3735 -76.14054875922852
3736 -76.14041698748053
3737 -76.14017118442099
3738 -76.14012129182983
3739 -76.139977094255
3740 -76.14001008015067
3741 -76.13997555831776
3742 -76.14006906741517
3743 -76.1399799366591
3744 -76.13984645049536
3745 -76.13947953524314
3746 -76.13909164268452
3747 -76.13855089411324
3748 -76.13807996736983
3749 -76.13751498292832
3750 -76.137217751226
3751 -76.13697187172167
3752 -76.13703972349779
3753 -76.13711135474057
3754 -76.13728078063826
3755 -76.13748774853039
3756 -76.13799828665871
3757 -76.13853673787837
3758 -76.13915939962565
3759 -76.13956583229562
3760 -76.13982440387495
3761 -76.13978706461249
3762 -76.13978750753401
3763 -76.13961273116568
3764 -76.13963868262896
3765 -76.13956558957472
3766 -76.1397854554173
3767 -76.14008059889339
3768 -76.14044873483229
3769 -76.14082808363904
3770 -76.14120518488667
3771 -76.14134305848182
3772 -76.14128656474711
3773 -76.14098678603283
3774 -76.14075924857876
3775 -76.14027265131541
3776 -76.13975804412702
3777 -76.13932972665661
3778 -76.13915941937884
3779 -76.13921966078216
3780 -76.13938764385868
3781 -76.13942145931128
3782 -76.13948678476717
3783 -76.13935266524219
3784 -76.13931993171087
3785 -76.13903969173288
3786 -76.13860237107296
3787 -76.13811134369352
3788 -76.13786731583788
3789 -76.13760254851753
3790 -76.13765764967636
3791 -76.13781347660291
3792 -76.138186943641
3793 -76.13853616559362
3794 -76.13899278987725
3795 -76.13936945610905
3796 -76.13967356068744
3797 -76.13966066338814
3798 -76.13966745321321
3799 -76.13942977642685
3800 -76.13910987357443
3801 -76.13869631612282
3802 -76.13848342569267
3803 -76.13829779855843
3804 -76.13825497956815
3805 -76.13819671959692
3806 -76.13835634005227
3807 -76.13845441762474
3808 -76.1387725389407
3809 -76.13909359398762
3810 -76.13945019471048
3811 -76.1394787561307
3812 -76.13951662062482
3813 -76.13935412752305
3814 -76.1391892253323
3815 -76.1389370202433
3816 -76.1386972512371
3817 -76.13842907223908
3818 -76.13820798460044
3819 -76.13819008277753
3820 -76.1386091254482
3821 -76.13919217886929
3822 -76.140062199217
3823 -76.14083161700609
3824 -76.14165474213598
3825 -76.14216396798389
3826 -76.14260214362751
3827 -76.14264071535544
3828 -76.14236336701119
3829 -76.14177401388778
3830 -76.1412747546424
3831 -76.14072672788538
3832 -76.14035015873053
3833 -76.13997261818895
3834 -76.13993839430852
3835 -76.13996829098414
3836 -76.14017999367886
3837 -76.14025724641697
3838 -76.1403860453939
3839 -76.14020630218074
3840 -76.14009343456139
3841 -76.13973600521692
3842 -76.13932671559141
3843 -76.13887312542938
3844 -76.1385244988134
3845 -76.13821520220183
3846 -76.13797701499146
3847 -76.13774303663776
3848 -76.13779486248765
3849 -76.13787824202755
3850 -76.13822468032396
3851 -76.13853314185899
3852 -76.13881741739323
3853 -76.13897741735886
3854 -76.13931978858955
3855 -76.13965716256456
3856 -76.13994730068404
3857 -76.1399017395548
3858 -76.1397862835416
3859 -76.13953097633538
3860 -76.13920394302451
3861 -76.13886418188977
3862 -76.13862176601788
3863 -76.13834621348248
3864 -76.13830285516055
3865 -76.13831096761487
3866 -76.13855116882077
3867 -76.13863194979133
3868 -76.13882599135782
3869 -76.138890106178
3870 -76.13882926805212
3871 -76.13855160114295
3872 -76.13825899208261
3873 -76.13789846167528
3874 -76.13765428589694
3875 -76.13747840551781
3876 -76.13750365377915
3877 -76.1376502082656
3878 -76.1380758400376
3879 -76.13861279720621
3880 -76.13928677044622
3881 -76.13970961616781
3882 -76.14015625280832
3883 -76.1404163071031
3884 -76.14061848174948
3885 -76.14050473194291
3886 -76.14039928255116
3887 -76.14030203513792
3888 -76.14039562765728
3889 -76.14037643730357
3890 -76.14051134514405
3891 -76.14057423028198
3892 -76.14077056358603
3893 -76.14097589384622
3894 -76.14135055587518
3895 -76.1413979346633
3896 -76.14145981199287
3897 -76.14126503444639
3898 -76.14093438003566
3899 -76.14036730326202
3900 -76.13985044891227
3901 -76.13932338767168
3902 -76.13881938593231
3903 -76.13841469603459
3904 -76.1381697185488
3905 -76.13799918931502
3906 -76.13815235927737
3907 -76.13831351065024
3908 -76.13842384262837
3909 -76.13836956417134
3910 -76.13837447635579
3911 -76.13848740440508
3912 -76.13876188886289
3913 -76.13885191175738
3914 -76.13906320024677
3915 -76.13918887389021
3916 -76.1394628547026
3917 -76.13973989844361
3918 -76.14004248777555
3919 -76.1400955271672
3920 -76.14020551286113
3921 -76.14020912541916
3922 -76.14038728612033
3923 -76.14030240080871
3924 -76.14042181342461
3925 -76.14062296960823
3926 -76.14099590084287
3927 -76.1412221564093
3928 -76.14140664383363
3929 -76.14114111394504
3930 -76.14084051740657
3931 -76.14025950060052
3932 -76.1396716572843
3933 -76.13887852246656
3934 -76.13813808262962
3935 -76.1375922434304
3936 -76.1374552122449
3937 -76.13748354125137
3938 -76.13795112122563
3939 -76.13839747576104
3940 -76.13885048986073
3941 -76.13911118521952
3942 -76.13930797254663
3943 -76.13923440405388
3944 -76.13914668074869
3945 -76.13892628124846
3946 -76.13879272864354
3947 -76.13853694895421
3948 -76.1385940544906
3949 -76.13876320579854
3950 -76.13914408877856
3951 -76.13950981876744
3952 -76.13996949256919
3953 -76.14030847357718
3954 -76.14066062331364
3955 -76.14062688293957
3956 -76.14067793884016
3957 -76.14049732179036
3958 -76.1402512374698
3959 -76.13980968645879
3960 -76.13941551253488
3961 -76.13892988529091
3962 -76.13867089224679
3963 -76.1385343911373
3964 -76.13862974152407
3965 -76.13856762784182
3966 -76.13865428649557
3967 -76.13873935650055
3968 -76.13894959595449
3969 -76.13899176076063
3970 -76.13891473455777
3971 -76.13869874068712
3972 -76.13868399453523
3973 -76.13857471928415
3974 -76.13859047836428
3975 -76.13868628117166
3976 -76.1387839386506
3977 -76.13892085235868
3978 -76.1393946263443
3979 -76.13966013762355
3980 -76.13988788633738
3981 -76.14002947369426
3982 -76.14017324845891
3983 -76.14020719355889
3984 -76.14041135246255
3985 -76.14044190892569
3986 -76.14054030813523
3987 -76.14039305094357
3988 -76.14041448906828
3989 -76.14024326285875
3990 -76.14008544345201
3991 -76.13986995935979
3992 -76.13977823704265
3993 -76.13956346344291
3994 -76.13940713078584
3995 -76.13915096212497
3996 -76.13911271359498
3997 -76.13891816120602
3998 -76.13900252219275
3999 -76.13905872082405
4000 -76.13912895186517
4001 -76.13908038129154
4002 -76.13910541433135
4003 -76.13893657345858
4004 -76.13886414191511
4005 -76.13871573636342
4006 -76.138812724565
4007 -76.13894856387999
4008 -76.13930424238778
4009 -76.1397430810292
4010 -76.14025934891713
4011 -76.14048915039074
4012 -76.14066600109325
4013 -76.14073571830492
4014 -76.14091163672076
4015 -76.14091642754651
4016 -76.14095553063048
4017 -76.14087733376674
4018 -76.14087066224927
4019 -76.1407579923698
4020 -76.14072119357203
4021 -76.14043538380348
4022 -76.14014002359703
4023 -76.13971148925523
4024 -76.1393837804367
4025 -76.13896224691526
4026 -76.13871264771417
4027 -76.13838901135274
4028 -76.13822297793381
4029 -76.13798212368006
4030 -76.13802231857265
4031 -76.13814245087674
4032 -76.13844453665412
4033 -76.13866559384697
4034 -76.13894543029619
4035 -76.13907316503598
4036 -76.13920305217091
4037 -76.13926610718988
4038 -76.13949289791854
4039 -76.139473767052
4040 -76.13947334949356
4041 -76.1394648320403
4042 -76.13973325738512
4043 -76.13999858988866
4044 -76.14052788099193
4045 -76.14088258329102
4046 -76.14116987429212
4047 -76.14120419668751
4048 -76.14115929372907
4049 -76.14092894629982
4050 -76.14054251310819
4051 -76.13993777623185
4052 -76.13933185566022
4053 -76.13862443729045
4054 -76.13817980654257
4055 -76.1378007765495
4056 -76.13771624912582
4057 -76.13760683757967
4058 -76.13775154363076
4059 -76.13789382484939
4060 -76.13804887369858
4061 -76.13807938325644
4062 -76.13813769858594
4063 -76.13793756060898
4064 -76.13774222991229
4065 -76.13756761694681
4066 -76.13754010526078
4067 -76.13757378703038
4068 -76.13785500636941
4069 -76.13823516716377
4070 -76.13889651594064
4071 -76.13934929801405
4072 -76.13994061336291
4073 -76.14040546768857
4074 -76.14072207296346
4075 -76.14083632853192
4076 -76.14087625987042
4077 -76.14072223404533
4078 -76.1405827428584
4079 -76.14040588930497
4080 -76.1405530369299
4081 -76.14061206132878
4082 -76.14078031126628
4083 -76.14090060120618
4084 -76.14099408560959
4085 -76.14090882062222
4086 -76.14083963089001
4087 -76.14044582026253
4088 -76.14019152937327
4089 -76.1397573579992
4090 -76.13937153867897
4091 -76.13879922684903
4092 -76.13814146683113
4093 -76.13745599634167
4094 -76.13708971406062
4095 -76.136948158837
4096 -76.13715953355823
4097 -76.13744212674821
4098 -76.13786523898112
4099 -76.13819211101865
4100 -76.13863679186998
4101 -76.13895326822653
4102 -76.13924347206741
4103 -76.13929316404987
4104 -76.13945262073308
4105 -76.13936606644711
4106 -76.13933098041592
4107 -76.13915875947939
4108 -76.1391494866069
4109 -76.13917757094897
4110 -76.13933908539092
4111 -76.13941404584742
4112 -76.13972371134372
4113 -76.1398024832536
4114 -76.13998537857944
4115 -76.14012085394143
4116 -76.14013318514907
4117 -76.13995917403716
4118 -76.1397484705774
4119 -76.13936266461548
4120 -76.138875833539
4121 -76.13835583258238
4122 -76.13808444153052
4123 -76.13784293427145
4124 -76.13793002885399
4125 -76.13806531908035
4126 -76.13833938897817
4127 -76.13854478171942
4128 -76.13892379613017
4129 -76.13928187639914
4130 -76.13984926087139
4131 -76.14028910929234
4132 -76.14078945518948
4133 -76.14119805592603
4134 -76.14145995537481
4135 -76.14149827566885
4136 -76.14163787306681
4137 -76.14143587895718
4138 -76.14131823801252
4139 -76.14112895976336
4140 -76.14103149789401
4141 -76.14082642715687
4142 -76.14072401541765
4143 -76.14065284823465
4144 -76.14072118567422
4145 -76.14067995582357
4146 -76.14078699864902
4147 -76.14072918855204
4148 -76.14055816348635
4149 -76.14013787862143
4150 -76.13975307779506
4151 -76.1391938030736
4152 -76.13871717666765
4153 -76.13829555750677
4154 -76.13810805712581
4155 -76.13791773743739
4156 -76.1380015336695
4157 -76.13814687430074
4158 -76.13834472283217
4159 -76.13852123427584
4160 -76.13882276610887
4161 -76.13912591627049
4162 -76.13956626297673
4163 -76.13981038235353
4164 -76.1399995220256
4165 -76.13996812034944
4166 -76.13991656890448
4167 -76.13986457086858
4168 -76.13998168261624
4169 -76.14009453646895
4170 -76.14029392442954
4171 -76.14050844753069
4172 -76.14071323535478
4173 -76.1407894812575
4174 -76.14084156329159
4175 -76.14082134539107
4176 -76.14078666980294
4177 -76.14048335349935
4178 -76.14021882714434
4179 -76.13971999397893
4180 -76.13921485644779
4181 -76.13866653087182
4182 -76.13837252693484
4183 -76.1379600157204
4184 -76.13774931649
4185 -76.13757518105622
4186 -76.13761873203893
4187 -76.13757290418513
4188 -76.13770521599793
4189 -76.13779801655402
4190 -76.13787483323948
4191 -76.13782285298102
4192 -76.13779106957972
4193 -76.13764250609243
4194 -76.13766668884786
4195 -76.13773253773638
4196 -76.13805495449074
4197 -76.1383408122737
4198 -76.13859323666932
4199 -76.13886715557966
4200 -76.13935739111039
4201 -76.13972310664461
4202 -76.14014782575252
4203 -76.14032008016497
4204 -76.14044867560494
4205 -76.14033786890208
4206 -76.14016116335938
4207 -76.13972988184764
4208 -76.13923022358964
4209 -76.13869225775709
4210 -76.13844163700669
4211 -76.13819715837532
4212 -76.13825371913872
4213 -76.13827434571414
4214 -76.13846156361386
4215 -76.13867855464149
4216 -76.13900951551486
4217 -76.13916239847647
4218 -76.13925763037166
4219 -76.13903958450446
4220 -76.13899287901913
4221 -76.13897517250054
4222 -76.13910745588873
4223 -76.13926163298106
4224 -76.13952754373813
4225 -76.13967631679948
4226 -76.13994174958225
4227 -76.14018485466171
4228 -76.14058255915918
4229 -76.14080873692218
4230 -76.14109204553552
4231 -76.14098426539523
4232 -76.14088344912028
4233 -76.14063916384929
4234 -76.14059064369989
4235 -76.14047394282656
4236 -76.14051657656236
4237 -76.14040161897951
4238 -76.14046614458697
4239 -76.14039256063073
4240 -76.14015640847569
4241 -76.13970046034646
4242 -76.1393785300903
4243 -76.13890473080505
4244 -76.13849395243263
4245 -76.13801350740577
4246 -76.13775561598237
4247 -76.13763350143225
4248 -76.13790149502636
