"mx-rfile"
"Iteration" "mx"
("Iteration" "mx")
1 -35107.79702828983
2 -34208.47743120941
3 -30592.84100418646
4 -27316.3518332975
5 -23339.57931009494
6 -19428.14460782754
7 -16528.50466654672
8 -12956.51171500024
9 -9459.022614200328
10 -6518.418410653306
11 -3904.932504237778
12 -2249.020906847119
13 -1061.052692827596
14 -419.2249973444395
15 -122.3016539473023
16 -119.6296199392186
17 -327.8075122050525
18 -697.5561537849711
19 -1177.662575657189
20 -1849.533582462142
21 -2666.338599402048
22 -3469.022590675607
23 -4229.681794376476
24 -4937.243767255388
25 -5541.494180786419
26 -5983.659706091999
27 -6369.330607037356
28 -6633.773363900255
29 -6855.562653326754
30 -7002.512405308355
31 -7124.673941571501
32 -7224.681575942514
33 -7303.660992484804
34 -7377.688593360044
35 -7418.418471589005
36 -7453.034763671447
37 -7471.164944325229
38 -7479.013962559047
39 -7477.626955661354
40 -7472.937994270253
41 -7465.249396408664
42 -7459.934696060576
43 -7455.150798434211
44 -7453.753166929095
45 -7454.959696307855
46 -7461.429593244446
47 -7472.284013498395
48 -7488.006505037343
49 -7507.003147275405
50 -7530.149335223773
51 -7557.054157864051
52 -7587.810909915524
53 -7620.069144473081
54 -7654.666908952547
55 -7690.505169838342
56 -7727.793796027302
57 -7764.474741264522
58 -7789.662241686932
59 -7827.933363071889
60 -7853.402390489297
61 -7890.556706723796
62 -7926.208004823363
63 -7959.26947919144
64 -7990.143271035768
65 -8017.559309111582
66 -8042.331564057737
67 -8063.980027366083
68 -8083.081946756065
69 -8098.845568897413
70 -8112.865896658852
71 -8124.066763534342
72 -8133.536777570635
73 -8140.936909589037
74 -8146.528797069441
75 -8151.343921918686
76 -8154.962326607252
77 -8157.59442330715
78 -8159.212348997452
79 -8160.404913814234
80 -8161.725186906117
81 -8162.266733525606
82 -8163.048195608751
83 -8163.591475588068
84 -8164.080933903774
85 -8164.440523693714
86 -8165.606000521038
87 -8166.123944345841
88 -8167.924380904438
89 -8169.529824463785
90 -8171.270699320489
91 -8172.893377781038
92 -8174.613038661343
93 -8175.740692040797
94 -8177.719591157679
95 -8178.73845078434
96 -8180.085166931061
97 -8181.730543001062
98 -8182.903334707794
99 -8183.247592544792
100 -8183.428117692008
101 -8183.726573215099
102 -8183.410139068639
103 -8182.758331240051
104 -8181.246628505395
105 -8179.810247547178
106 -8177.979150660422
107 -8176.773535363115
108 -8174.672481667426
109 -8172.185926672888
110 -8169.304057162173
111 -8165.823692622788
112 -8161.951504875744
113 -8158.413513213374
114 -8154.411609285359
115 -8150.416046302598
116 -8146.876260853071
117 -8143.0509879335
118 -8138.666452113936
119 -8134.153149212297
120 -8130.184060119187
121 -8125.862976611368
122 -8121.403429222389
123 -8117.876288009028
124 -8114.19082909626
125 -8108.930675253025
126 -8105.969435515188
127 -8101.979588228168
128 -8097.552833171428
129 -8093.887862236182
130 -8089.016286973564
131 -8085.327957120402
132 -8081.184798529371
133 -8077.758398968724
134 -8073.686202215582
135 -8070.83743428456
136 -8066.728104046802
137 -8063.504029517554
138 -8060.542090106895
139 -8058.130717410521
140 -8055.287151658708
141 -8051.772335227747
142 -8049.314030946916
143 -8046.247208523819
144 -8043.631082810502
145 -8040.879449446274
146 -8038.147557871824
147 -8035.905093221355
148 -8033.565946277934
149 -8032.386934906431
150 -8029.304332106025
151 -8027.622868724195
152 -8026.734485536395
153 -8024.635029808118
154 -8022.200719101034
155 -8020.367625583295
156 -8018.903211070066
157 -8017.491769135986
158 -8016.386176371775
159 -8014.447694183972
160 -8013.682782212383
161 -8012.802443184327
162 -8011.507550718615
163 -8009.109255117372
164 -8009.003242563117
165 -8007.80760073167
166 -8007.527309331947
167 -8006.856040331265
168 -8005.910642479656
169 -8003.813322618919
170 -8002.426499687762
171 -8001.990149711602
172 -8000.567465079653
173 -7999.286711445538
174 -7999.311010868497
175 -7999.395406709504
176 -7997.491140736259
177 -7995.275468595937
178 -7993.684990018413
179 -7990.492171649117
180 -7988.397416234674
181 -7986.364102368862
182 -7985.545436424993
183 -7984.04512671364
184 -7981.048243592026
185 -7979.32055898515
186 -7977.30827783113
187 -7976.030211993661
188 -7973.553900825617
189 -7969.885516586525
190 -7968.319012942449
191 -7966.397242369518
192 -7964.628482533349
193 -7962.734905842199
194 -7959.886412347958
195 -7957.326902636722
196 -7956.80042602391
197 -7955.616199622006
198 -7954.284025366459
199 -7951.893933614933
200 -7951.805401505
201 -7951.358344835761
202 -7952.739109680722
203 -7954.222868781366
204 -7956.500660857446
205 -7957.70573002274
206 -7958.190697803905
207 -7961.11323988655
208 -7963.813505640166
209 -7969.273744492083
210 -7972.859835530483
211 -7979.849630714731
212 -7985.717521925843
213 -7990.68404801062
214 -7999.115407462393
215 -8007.071935058286
216 -8016.598780657905
217 -8027.082616730931
218 -8036.170069346084
219 -8047.252298889834
220 -8058.031078522175
221 -8068.975486825653
222 -8082.025074493654
223 -8094.779890439046
224 -8108.520573678746
225 -8123.908971602719
226 -8139.858011059964
227 -8155.234685254944
228 -8171.723766314768
229 -8190.287831636746
230 -8209.516520360359
231 -8228.210267711695
232 -8248.533561042304
233 -8276.410300367977
234 -8299.464390226522
235 -8321.657716990747
236 -8343.243922901289
237 -8369.732891798856
238 -8391.439783080234
239 -8413.475959168398
240 -8441.395681000109
241 -8464.250241646436
242 -8487.350593428857
243 -8517.921527786259
244 -8542.270348759741
245 -8570.134512246495
246 -8594.562063464511
247 -8623.453225088679
248 -8647.527396371806
249 -8676.712888580822
250 -8702.233516950788
251 -8734.187541134948
252 -8760.267230086703
253 -8790.507372270422
254 -8817.396597962279
255 -8851.464777366518
256 -8878.454245231107
257 -8912.637299649881
258 -8940.162051117952
259 -8974.515681580731
260 -9001.945705898906
261 -9036.715447367078
262 -9065.944738057302
263 -9103.118899389705
264 -9133.697182128957
265 -9170.037191404183
266 -9200.617057318896
267 -9236.711378545569
268 -9268.322027748407
269 -9306.041926855698
270 -9337.396438488153
271 -9374.671511099863
272 -9405.09217260329
273 -9445.755750844206
274 -9478.036916190544
275 -9518.325879065393
276 -9551.107958193248
277 -9589.703564475712
278 -9621.303304764891
279 -9660.340122851572
280 -9691.65488730275
281 -9730.930938018591
282 -9763.919856754519
283 -9795.92410348283
284 -9836.50220053034
285 -9868.812513168956
286 -9908.365380250229
287 -9939.424033360574
288 -9978.373091127458
289 -10011.41154356827
290 -10045.0116547079
291 -10085.46421988673
292 -10118.73119415856
293 -10159.51843880023
294 -10192.29641312024
295 -10224.68426826383
296 -10263.22177511817
297 -10294.45435840373
298 -10325.64549935822
299 -10365.92382556188
300 -10397.59253370125
301 -10428.77265251974
302 -10458.07982197979
303 -10497.31653480477
304 -10528.30515417518
305 -10556.9871317225
306 -10592.85191315427
307 -10622.06613971418
308 -10652.681106281
309 -10679.81481684439
310 -10708.71111110693
311 -10740.92434326847
312 -10766.83626708262
313 -10790.85109293323
314 -10815.84484549563
315 -10839.21436975347
316 -10863.75223684198
317 -10886.20397517565
318 -10907.86135241966
319 -10930.29087342235
320 -10950.36760322018
321 -10970.65819950081
322 -10991.61144438025
323 -11009.18240158619
324 -11029.22671688462
325 -11046.86459693686
326 -11063.1438594333
327 -11076.54985633973
328 -11089.46800165059
329 -11102.70857656722
330 -11114.84356691523
331 -11124.38796870799
332 -11136.42939707166
333 -11145.6508167826
334 -11151.30655957789
335 -11156.31856043933
336 -11158.33893946377
337 -11158.96182730099
338 -11160.075822124
339 -11157.50497663481
340 -11152.34620050864
341 -11147.82726267555
342 -11143.65986382664
343 -11134.49000517186
344 -11122.7390670524
345 -11108.97140026875
346 -11097.55710641901
347 -11080.0696699708
348 -11064.75983116431
349 -11042.30436630679
350 -11022.82485037887
351 -10992.17976137936
352 -10969.51474621034
353 -10937.80116970524
354 -10912.37283386453
355 -10875.85803694132
356 -10846.56336006815
357 -10804.08779296806
358 -10771.89852206485
359 -10726.87930573589
360 -10691.20969283214
361 -10641.49694534511
362 -10603.74414446978
363 -10549.01030418146
364 -10505.66366019083
365 -10446.14929536958
366 -10399.61053797107
367 -10334.89773554937
368 -10271.85923044661
369 -10221.18550458366
370 -10153.3540723787
371 -10084.35273541016
372 -10032.60962958724
373 -9961.760018616664
374 -9891.691225645573
375 -9821.929873105222
376 -9751.230577534739
377 -9681.218646269688
378 -9628.310752713949
379 -9555.072912174886
380 -9482.048516661343
381 -9407.846395533068
382 -9336.439085926248
383 -9264.317741048351
384 -9192.461315466229
385 -9120.425709574174
386 -9065.468054150359
387 -8990.247301262452
388 -8916.803935705262
389 -8843.835938263308
390 -8771.414051446398
391 -8717.267259952851
392 -8645.023124126952
393 -8573.783487340941
394 -8520.344775858457
395 -8447.763575910196
396 -8393.956073367963
397 -8324.184882796653
398 -8270.868391087406
399 -8199.541817378955
400 -8148.131499981225
401 -8079.17237575562
402 -8028.753433960997
403 -7979.674617494087
404 -7915.752661631303
405 -7867.937494671581
406 -7820.942530344601
407 -7773.582493506216
408 -7726.94222352928
409 -7680.300256493238
410 -7634.928953883347
411 -7589.560994559745
412 -7545.565318115245
413 -7502.716427869463
414 -7459.854932619967
415 -7418.579384452433
416 -7379.100413369621
417 -7339.210211419206
418 -7301.049483644209
419 -7263.002306613071
420 -7227.767147485962
421 -7203.763033345546
422 -7167.951410457671
423 -7131.889516745148
424 -7109.034243178462
425 -7071.794694834703
426 -7046.901946642564
427 -7010.74237577141
428 -6985.617080226769
429 -6947.333494105861
430 -6921.088638019956
431 -6882.192392630021
432 -6856.018858194097
433 -6815.958861801853
434 -6790.541840529352
435 -6749.603389694546
436 -6723.659084506359
437 -6684.904204982805
438 -6660.21021263669
439 -6620.738726597825
440 -6595.109905800835
441 -6556.051907605237
442 -6531.283916796379
443 -6494.299766455581
444 -6469.524068537633
445 -6430.965601575629
446 -6405.886026268017
447 -6368.425663757429
448 -6344.516000089407
449 -6309.114818347504
450 -6285.228477927541
451 -6248.315720448815
452 -6213.419881873548
453 -6190.613059611148
454 -6156.648719324922
455 -6124.612746001442
456 -6094.01279692258
457 -6065.180333515091
458 -6036.566337833544
459 -6008.256340221471
460 -5982.08165041466
461 -5955.389643117992
462 -5930.658518432819
463 -5906.099986101645
464 -5883.031508768918
465 -5860.104931185985
466 -5837.956051855212
467 -5822.766533349514
468 -5801.239891897156
469 -5781.380524226
470 -5760.742553870274
471 -5747.559271112
472 -5727.411098293574
473 -5708.426638927965
474 -5696.257677716963
475 -5678.844101566579
476 -5667.804202009426
477 -5651.055618718513
478 -5641.788090044023
479 -5628.479176968234
480 -5620.397804018235
481 -5609.090220895589
482 -5602.675215701772
483 -5593.88572674835
484 -5589.620554156281
485 -5585.707642823995
486 -5584.237174177562
487 -5583.708416909074
488 -5584.281152540708
489 -5587.232261908566
490 -5590.25940145081
491 -5596.792345550983
492 -5603.287565288213
493 -5614.884832243933
494 -5623.744429389812
495 -5639.102394648167
496 -5650.944965183639
497 -5670.043365363883
498 -5684.502457914985
499 -5707.398128841088
500 -5724.131664877721
501 -5750.342713820452
502 -5778.627352196881
503 -5798.249702701652
504 -5828.642980927047
505 -5860.134612698596
506 -5892.55638225358
507 -5924.914497240288
508 -5957.532922409201
509 -5990.020874821611
510 -6022.338015553253
511 -6053.851864220654
512 -6084.605883187175
513 -6114.619741322167
514 -6144.235999856808
515 -6172.539798256518
516 -6199.924873432446
517 -6226.160302998544
518 -6251.843646225137
519 -6275.539940883239
520 -6298.233837197194
521 -6319.5033659704
522 -6339.238849177942
523 -6357.429816958666
524 -6373.945400038098
525 -6388.596378241433
526 -6402.48001875414
527 -6415.020520184482
528 -6425.495580090617
529 -6434.728054122278
530 -6442.096481870907
531 -6446.851639538661
532 -6449.914273687064
533 -6452.424606224589
534 -6454.119633775563
535 -6453.732020768027
536 -6451.954158724139
537 -6450.34132421795
538 -6447.84667227202
539 -6446.208778825477
540 -6442.163348500407
541 -6438.62977537497
542 -6433.478865201484
543 -6429.158631298922
544 -6421.838827374401
545 -6416.413731375651
546 -6408.000739967769
547 -6402.565203414601
548 -6394.537509151111
549 -6388.85695525981
550 -6380.377645301868
551 -6374.279295436645
552 -6365.062692242374
553 -6355.556915879403
554 -6348.813643914589
555 -6338.852121473788
556 -6329.905869294331
557 -6321.470270136642
558 -6313.878917292333
559 -6306.602807228726
560 -6299.726330338102
561 -6295.657299731001
562 -6290.03771888668
563 -6284.814568682
564 -6279.948158350233
565 -6276.157464699928
566 -6273.30618715433
567 -6271.655625348399
568 -6270.09131962607
569 -6270.5505262633
570 -6270.857648855952
571 -6272.841988363022
572 -6275.410662504782
573 -6278.39783416009
574 -6282.250298466196
575 -6286.600486612599
576 -6292.477002161012
577 -6299.011440810916
578 -6306.052359624907
579 -6313.566678722284
580 -6321.349823399974
581 -6329.526736897714
582 -6338.974337915404
583 -6348.119142341127
584 -6358.489974968124
585 -6368.847034402103
586 -6379.523281019432
587 -6391.292770274936
588 -6402.929168239671
589 -6414.690921628904
590 -6426.526487461801
591 -6439.47692415152
592 -6451.134983986892
593 -6462.745884703924
594 -6473.535958074383
595 -6485.169370449051
596 -6495.759032984577
597 -6505.568881756463
598 -6516.307837661823
599 -6525.712161412883
600 -6534.319331967346
601 -6543.217745441271
602 -6551.100617553123
603 -6557.084233012881
604 -6563.232568127812
605 -6568.893261796832
606 -6573.465571019477
607 -6575.64210196934
608 -6577.930626415916
609 -6579.745869172872
610 -6580.05594042293
611 -6580.589600459744
612 -6579.407426843653
613 -6577.017466859694
614 -6575.087204283205
615 -6570.398190351189
616 -6567.254222770527
617 -6561.060374619868
618 -6556.604570728958
619 -6551.376346961968
620 -6545.053679945783
621 -6535.082278383667
622 -6527.949191850607
623 -6520.416182256534
624 -6512.153317140982
625 -6503.396012128831
626 -6489.696525814213
627 -6480.593014092579
628 -6470.575154349291
629 -6460.55222146367
630 -6444.969593309412
631 -6434.254122982224
632 -6423.254769608367
633 -6406.85096074085
634 -6395.586092693265
635 -6384.158758814067
636 -6366.823703534445
637 -6355.243120933692
638 -6343.969120556013
639 -6327.255921589854
640 -6315.63944053223
641 -6304.610464943829
642 -6286.189113153588
643 -6275.001578407599
644 -6264.659964677937
645 -6248.50122532372
646 -6237.600043997626
647 -6226.770178101725
648 -6211.711648960063
649 -6200.996242410818
650 -6190.976745935996
651 -6176.409189447912
652 -6167.22843217596
653 -6158.349917805982
654 -6144.263884883977
655 -6134.999951378815
656 -6125.684329963567
657 -6112.293884679121
658 -6103.00374622516
659 -6094.246094472665
660 -6081.158510089165
661 -6071.690674895456
662 -6057.723966267096
663 -6049.273916136704
664 -6040.588888343666
665 -6028.387542311103
666 -6019.807053035264
667 -6006.664154008656
668 -5998.160372283226
669 -5989.266312097313
670 -5976.14496207714
671 -5967.561872832517
672 -5958.45214137933
673 -5945.55658575194
674 -5936.621042828588
675 -5927.880072380502
676 -5919.037814506894
677 -5910.112971286282
678 -5901.002459826271
679 -5892.42937702529
680 -5883.766159480662
681 -5874.874908422337
682 -5866.200115414016
683 -5857.152729369875
684 -5848.065461171889
685 -5839.780303187217
686 -5831.191273104404
687 -5822.471388102684
688 -5814.31816792422
689 -5805.84739105138
690 -5797.67828616469
691 -5790.139603980353
692 -5782.775156256168
693 -5775.77514837306
694 -5768.867394836007
695 -5762.079133361371
696 -5755.499057048059
697 -5749.244894515646
698 -5743.34821486585
699 -5737.693889746058
700 -5732.333092717935
701 -5726.937450450416
702 -5721.854395649864
703 -5716.641734585035
704 -5711.705371588097
705 -5706.673682194832
706 -5701.719019354238
707 -5696.987676323705
708 -5692.256323675536
709 -5687.576916572119
710 -5683.015350155164
711 -5678.485304502714
712 -5674.153339026067
713 -5669.522348814908
714 -5665.552572194222
715 -5661.429246783781
716 -5657.391077195534
717 -5653.760683681553
718 -5650.163076189097
719 -5646.813399461479
720 -5643.430211556309
721 -5640.183191367964
722 -5637.248292263253
723 -5634.262644323699
724 -5631.597377161108
725 -5628.969522515611
726 -5626.524337155628
727 -5624.467249654071
728 -5622.553897064844
729 -5621.017393831478
730 -5619.57070086203
731 -5618.458179545222
732 -5617.562135136857
733 -5616.994087667021
734 -5616.790806691866
735 -5616.669616324006
736 -5616.945056055035
737 -5617.577370797809
738 -5618.525611102924
739 -5619.826791638702
740 -5621.468206207664
741 -5623.400524370209
742 -5625.777105847279
743 -5628.345542727131
744 -5631.173006763809
745 -5634.226618126554
746 -5637.616904449998
747 -5641.207645778809
748 -5645.044162932008
749 -5648.796242643998
750 -5652.796565832235
751 -5656.812219453336
752 -5661.00037964518
753 -5665.149144875131
754 -5669.324512283026
755 -5673.331809923891
756 -5677.50688753611
757 -5681.629213150262
758 -5685.755922938285
759 -5689.794832959802
760 -5693.637018161608
761 -5699.009562297623
762 -5702.286165520706
763 -5705.489744372711
764 -5708.620017828162
765 -5712.386652679305
766 -5714.72329292883
767 -5716.589310253255
768 -5718.274024808118
769 -5719.447978316641
770 -5720.459470143864
771 -5721.214494366012
772 -5721.789643530336
773 -5721.968864060122
774 -5721.889604316091
775 -5721.431584368882
776 -5720.689237430361
777 -5719.468676229447
778 -5718.147665699218
779 -5716.547166632849
780 -5714.722565743062
781 -5712.380720941181
782 -5710.218966993484
783 -5707.781863881493
784 -5705.430888002618
785 -5702.655101847577
786 -5699.836750335806
787 -5696.745856278811
788 -5693.648572430913
789 -5690.451905595963
790 -5687.385203141826
791 -5684.237296607335
792 -5681.238448793775
793 -5676.663024720242
794 -5673.826256875155
795 -5670.931542316293
796 -5667.019801036417
797 -5664.337811281976
798 -5661.914765168372
799 -5658.276808616535
800 -5656.131843482642
801 -5653.048600822218
802 -5651.209609100445
803 -5648.505768224622
804 -5646.96112792968
805 -5644.676247961892
806 -5643.320883507626
807 -5641.893185367914
808 -5640.207964502267
809 -5639.117060201414
810 -5638.341270244206
811 -5637.117316375724
812 -5636.402200910035
813 -5635.577478450138
814 -5634.558781164839
815 -5633.813387978373
816 -5633.273889426218
817 -5632.488336857106
818 -5631.869375172324
819 -5631.075190902018
820 -5630.188884289689
821 -5629.318247058274
822 -5628.413900578562
823 -5627.335355320957
824 -5626.237637836582
825 -5624.93985954273
826 -5623.696473760825
827 -5622.411961302839
828 -5621.293801154413
829 -5619.934720686013
830 -5618.542913370169
831 -5617.014558756221
832 -5615.441483857169
833 -5613.782983763033
834 -5612.401940797989
835 -5610.991337779146
836 -5609.720029277139
837 -5608.193793894354
838 -5606.83468946365
839 -5605.301317038317
840 -5603.930470609533
841 -5602.355525469647
842 -5601.094199194268
843 -5599.703771539978
844 -5598.493647731915
845 -5597.227144884202
846 -5596.171999180575
847 -5594.897535592952
848 -5594.055386846362
849 -5592.885261697929
850 -5592.009744082797
851 -5590.988706857774
852 -5590.277229637719
853 -5589.232916310925
854 -5588.710285310062
855 -5588.055442684766
856 -5587.752314987647
857 -5587.061256798319
858 -5586.997686954771
859 -5586.713334576872
860 -5586.516652490729
861 -5586.165422115513
862 -5586.09818458294
863 -5585.881837371823
864 -5585.98563827105
865 -5585.686448715767
866 -5585.594052121819
867 -5585.317634882061
868 -5585.370336671847
869 -5585.02241248975
870 -5584.775382391849
871 -5584.671451546783
872 -5584.576970830475
873 -5584.508061632446
874 -5584.461604526968
875 -5584.027486521434
876 -5583.801992481272
877 -5583.482001261443
878 -5583.002457533797
879 -5582.57096724286
880 -5582.016836676703
881 -5581.424671875039
882 -5581.022733055282
883 -5580.317256432093
884 -5579.752363356358
885 -5578.537587036913
886 -5577.55544651365
887 -5576.102355614613
888 -5575.192480130146
889 -5573.488247290795
890 -5572.166733967275
891 -5570.337863348462
892 -5569.292817866846
893 -5567.424618316602
894 -5566.254713491689
895 -5564.11282521411
896 -5562.687940972026
897 -5560.6158441754
898 -5559.196908903029
899 -5557.363317252892
900 -5556.188848796761
901 -5554.251519982407
902 -5553.111961375491
903 -5551.503477530341
904 -5550.646661613228
905 -5549.802577250515
906 -5548.437754984924
907 -5547.62319651609
908 -5546.70113878408
909 -5546.203464610851
910 -5545.80327496566
911 -5545.211573084396
912 -5544.945281956158
913 -5544.571976256461
914 -5544.488984741118
915 -5544.430475786457
916 -5544.693872221221
917 -5544.928812995057
918 -5545.508705440409
919 -5545.932914031332
920 -5546.715326508331
921 -5547.719082850816
922 -5548.62780573496
923 -5549.335053817053
924 -5550.271911128283
925 -5551.199550424801
926 -5553.028115717906
927 -5554.247801936969
928 -5555.491152533215
929 -5556.760715065309
930 -5558.556689093183
931 -5559.708732848468
932 -5560.955945505437
933 -5562.634257362075
934 -5563.822177441138
935 -5565.290744796689
936 -5566.315561809922
937 -5567.788841447808
938 -5568.842902724578
939 -5570.105883138016
940 -5570.926623982294
941 -5572.010270715529
942 -5572.734972705892
943 -5573.572937156116
944 -5574.08515146562
945 -5574.700053258803
946 -5575.021024380125
947 -5575.346508128961
948 -5575.658038624003
949 -5576.134021066163
950 -5576.362318317343
951 -5576.625481040799
952 -5576.928652867618
953 -5577.221720546299
954 -5577.554973110638
955 -5577.609642209277
956 -5577.903400015822
957 -5578.322348730425
958 -5578.673619694111
959 -5579.212987104778
960 -5579.6616737464
961 -5580.245687059597
962 -5580.733250430945
963 -5581.577932098868
964 -5582.262643360576
965 -5583.342159409861
966 -5584.098726151917
967 -5585.342872743897
968 -5586.229347219824
969 -5587.099382079014
970 -5588.62645160547
971 -5589.401223717879
972 -5590.825876241882
973 -5591.637662775347
974 -5592.650949420778
975 -5593.910304429522
976 -5594.840911536909
977 -5595.630348837198
978 -5597.044384773127
979 -5597.857718822688
980 -5598.616204816884
981 -5599.623644886308
982 -5600.472589462276
983 -5601.20571612689
984 -5602.237428482524
985 -5602.88465506286
986 -5603.542521796113
987 -5604.649813447624
988 -5605.17735096974
989 -5605.527921444818
990 -5605.980362969651
991 -5606.515157326339
992 -5606.893862119512
993 -5607.31938967995
994 -5607.725052178516
995 -5608.184453902177
996 -5608.466453191892
997 -5608.677876247486
998 -5608.940871195187
999 -5609.208911887393
1000 -5609.506132023491
1001 -5609.727390325437
1002 -5609.939512210442
1003 -5610.123265374639
1004 -5610.197687710325
1005 -5610.373763530307
1006 -5610.362233116688
1007 -5610.215091288783
1008 -5610.192363754757
1009 -5610.035970345931
1010 -5609.963978336458
1011 -5609.795180769012
1012 -5609.654660271482
1013 -5609.188640664879
1014 -5608.757008218372
1015 -5608.044377425712
1016 -5607.552909998894
1017 -5606.507579635798
1018 -5605.87189607482
1019 -5604.520821666829
1020 -5603.584859830316
1021 -5602.081182454599
1022 -5601.044913043374
1023 -5599.236258512859
1024 -5597.966489564235
1025 -5595.821144099875
1026 -5594.472057614518
1027 -5592.198703686031
1028 -5590.630775637183
1029 -5588.118009148675
1030 -5586.359957057666
1031 -5583.674751807298
1032 -5581.77150155041
1033 -5578.672885944931
1034 -5576.62261111581
1035 -5573.538360511605
1036 -5571.459723023057
1037 -5568.266617476948
1038 -5566.194009659467
1039 -5562.987338538888
1040 -5560.789249863339
1041 -5557.614534120073
1042 -5555.547849771474
1043 -5552.554652964606
1044 -5550.580516715674
1045 -5547.69846471332
1046 -5545.717135383183
1047 -5542.770107033303
1048 -5540.903377858963
1049 -5538.283837841776
1050 -5536.607224066282
1051 -5534.289811099066
1052 -5532.773754166341
1053 -5530.412784296162
1054 -5529.025467687376
1055 -5526.999120136223
1056 -5525.671300448208
1057 -5524.402632772064
1058 -5522.368239055229
1059 -5521.058970890003
1060 -5519.879004796679
1061 -5518.007641077047
1062 -5516.866722915898
1063 -5515.498132363407
1064 -5513.622192649907
1065 -5512.1806836682
1066 -5510.895126368894
1067 -5508.667706950025
1068 -5507.272451315781
1069 -5505.814624262681
1070 -5503.752863697188
1071 -5502.145048681592
1072 -5499.87590045735
1073 -5498.21626696112
1074 -5495.836967444533
1075 -5494.117538416346
1076 -5491.589786232935
1077 -5489.790170776602
1078 -5487.150882054884
1079 -5485.243380581092
1080 -5482.550894796364
1081 -5480.55829638239
1082 -5477.758942006778
1083 -5475.813208281204
1084 -5473.118568709063
1085 -5471.030717065461
1086 -5468.087404653765
1087 -5465.21178885214
1088 -5463.14619884812
1089 -5460.363285352611
1090 -5457.51846453241
1091 -5455.521222325156
1092 -5452.827883802088
1093 -5450.208954401435
1094 -5447.689296796954
1095 -5445.855539308041
1096 -5443.540202061905
1097 -5441.057156598522
1098 -5438.771240068591
1099 -5436.415552651632
1100 -5435.010954201126
1101 -5432.636539019784
1102 -5430.632094286409
1103 -5428.510423670881
1104 -5427.027697215235
1105 -5424.741173625023
1106 -5422.846814572409
1107 -5421.274689005527
1108 -5419.200188157454
1109 -5417.678699988326
1110 -5415.428737440568
1111 -5413.894104055031
1112 -5411.851050395738
1113 -5410.535750965238
1114 -5408.641746082599
1115 -5407.303970656132
1116 -5405.644954648448
1117 -5404.342863228885
1118 -5402.66558267035
1119 -5401.563864046523
1120 -5399.937554584967
1121 -5398.79169496024
1122 -5397.218277891751
1123 -5396.302932993381
1124 -5394.964813212393
1125 -5393.951950329835
1126 -5393.094097509872
1127 -5392.483734242389
1128 -5391.660305783973
1129 -5390.979985685278
1130 -5390.521325479867
1131 -5390.191380358659
1132 -5389.833201329465
1133 -5389.587516479892
1134 -5389.687153757711
1135 -5389.801272932264
1136 -5390.371858312412
1137 -5391.237410606813
1138 -5391.982911925264
1139 -5393.310081450874
1140 -5394.690344793979
1141 -5396.856649686223
1142 -5398.336446214748
1143 -5400.840443324301
1144 -5402.987682958048
1145 -5406.146184215175
1146 -5408.734607679721
1147 -5412.78812381229
1148 -5415.74117553523
1149 -5420.420856559214
1150 -5423.964769121164
1151 -5429.353408086713
1152 -5433.478867627551
1153 -5439.553962841825
1154 -5443.996780976742
1155 -5450.812520806315
1156 -5455.904834531408
1157 -5463.376396829683
1158 -5468.969583996532
1159 -5476.99941113164
1160 -5482.731494566322
1161 -5491.192878006599
1162 -5497.190703292868
1163 -5506.23501068634
1164 -5515.283750047479
1165 -5521.179517738602
1166 -5530.267370125791
1167 -5539.477062983461
1168 -5549.052111313204
1169 -5558.168618646982
1170 -5567.607099281642
1171 -5576.542223208776
1172 -5585.581193861336
1173 -5594.397920021468
1174 -5603.332010331486
1175 -5611.96326908558
1176 -5620.603541708251
1177 -5629.140666628853
1178 -5637.759117515494
1179 -5645.769358299865
1180 -5654.025063625391
1181 -5661.694756903951
1182 -5669.649916202998
1183 -5677.172299623217
1184 -5684.85320616187
1185 -5691.955679034205
1186 -5696.874934814537
1187 -5703.898497081916
1188 -5711.175257637019
1189 -5715.785963405732
1190 -5722.894049669263
1191 -5729.590535942064
1192 -5734.180815593726
1193 -5740.66338529546
1194 -5744.893780347663
1195 -5750.915172538563
1196 -5755.036165300471
1197 -5760.80502841019
1198 -5764.595074610173
1199 -5769.92897169038
1200 -5773.42439719441
1201 -5776.520373458849
1202 -5781.443311715257
1203 -5784.131506869207
1204 -5786.994505812814
1205 -5789.451092526813
1206 -5791.652833284309
1207 -5793.705480195113
1208 -5795.790672409176
1209 -5797.345747139168
1210 -5798.788674289024
1211 -5799.965669400835
1212 -5800.917117515712
1213 -5801.709787216035
1214 -5802.453570290385
1215 -5802.77384634526
1216 -5802.940349530005
1217 -5802.631444747044
1218 -5802.424035653972
1219 -5801.967813482604
1220 -5801.307847543263
1221 -5800.279452126887
1222 -5799.239027739957
1223 -5798.002979640896
1224 -5796.776149718985
1225 -5794.527471247447
1226 -5793.170234433201
1227 -5791.359591302221
1228 -5788.787130262987
1229 -5787.007714296275
1230 -5785.050469826444
1231 -5781.936140910519
1232 -5779.901724177862
1233 -5776.841280245101
1234 -5774.666263919866
1235 -5771.293274877795
1236 -5769.332815601489
1237 -5766.160322164462
1238 -5764.115043143784
1239 -5760.970140151087
1240 -5758.965557241549
1241 -5755.726975925513
1242 -5753.834977636195
1243 -5750.797291423619
1244 -5749.013039565412
1245 -5745.990551490953
1246 -5744.214824975207
1247 -5741.235682817825
1248 -5739.367362662899
1249 -5736.46094557907
1250 -5734.543167936135
1251 -5731.656150656519
1252 -5729.840503918566
1253 -5727.05539251267
1254 -5725.552138726031
1255 -5723.240844785157
1256 -5721.900448702669
1257 -5719.446753739852
1258 -5717.985821762977
1259 -5715.368696363318
1260 -5713.953180842541
1261 -5712.269893881548
1262 -5709.981809384078
1263 -5708.263578605228
1264 -5706.603285331388
1265 -5704.792608559464
1266 -5702.445465887781
1267 -5700.5290599114
1268 -5698.737955562964
1269 -5696.62069790404
1270 -5694.692792267497
1271 -5692.551066459334
1272 -5690.629755561386
1273 -5688.141208393405
1274 -5685.733544256645
1275 -5683.096760345754
1276 -5680.574618021481
1277 -5677.534582391781
1278 -5674.601397368254
1279 -5671.261849093159
1280 -5668.06831338836
1281 -5664.411567454325
1282 -5660.812559808169
1283 -5656.754555824399
1284 -5652.952919613092
1285 -5648.985556230373
1286 -5645.00487725358
1287 -5640.654272167917
1288 -5636.480324492798
1289 -5632.064953176998
1290 -5627.776963729565
1291 -5623.160842455846
1292 -5618.33207923581
1293 -5613.743305171685
1294 -5608.996168385809
1295 -5604.265185585789
1296 -5599.549676756661
1297 -5594.653865511225
1298 -5589.639619877967
1299 -5584.771381201592
1300 -5580.003704057025
1301 -5575.139445075088
1302 -5570.366657586586
1303 -5565.380082212482
1304 -5560.813229783499
1305 -5556.198769263319
1306 -5549.43848219113
1307 -5544.819486630111
1308 -5540.417246670845
1309 -5536.125612533259
1310 -5529.870619255576
1311 -5525.852545215991
1312 -5522.069207688512
1313 -5516.448243508704
1314 -5513.037726176784
1315 -5509.508354518568
1316 -5504.629460243351
1317 -5501.446613945546
1318 -5498.613972579016
1319 -5494.277117833733
1320 -5491.706695252217
1321 -5489.154999228315
1322 -5485.455107773267
1323 -5482.978423042007
1324 -5480.801342185329
1325 -5477.457191970922
1326 -5475.257260135096
1327 -5473.161219672356
1328 -5471.31160252897
1329 -5468.459056141658
1330 -5466.824123273702
1331 -5464.85168711792
1332 -5463.086965474748
1333 -5461.362879140255
1334 -5458.780706543464
1335 -5456.95460022336
1336 -5455.479386673735
1337 -5453.655664750081
1338 -5451.804802555195
1339 -5450.184837540887
1340 -5448.382056275344
1341 -5446.385518661798
1342 -5444.453681734733
1343 -5442.441558370687
1344 -5440.325971216438
1345 -5437.994678259079
1346 -5435.732685915582
1347 -5433.422080145005
1348 -5431.16712960215
1349 -5428.713826680666
1350 -5426.31180202378
1351 -5423.758524065269
1352 -5421.199260393661
1353 -5418.539049488515
1354 -5416.042948940122
1355 -5413.432671133613
1356 -5410.868756592436
1357 -5408.034417092906
1358 -5405.327489574482
1359 -5402.675682705785
1360 -5400.329023976806
1361 -5397.819199609076
1362 -5395.312895392488
1363 -5392.740614732203
1364 -5390.339280905107
1365 -5387.749712951741
1366 -5385.158017881547
1367 -5382.39854124355
1368 -5379.697823377272
1369 -5376.970082462196
1370 -5374.438101457114
1371 -5370.326463905933
1372 -5367.681285086828
1373 -5364.680726100693
1374 -5361.791415174139
1375 -5357.542409950624
1376 -5354.669098525675
1377 -5351.80425107835
1378 -5347.668550178504
1379 -5344.740097141902
1380 -5340.659695605023
1381 -5337.864518104049
1382 -5334.124761582468
1383 -5331.518752389657
1384 -5328.012315179933
1385 -5325.776988034329
1386 -5322.386289302542
1387 -5320.11348466868
1388 -5317.292936987479
1389 -5315.287123506712
1390 -5312.461136357115
1391 -5310.569129985346
1392 -5308.33053083579
1393 -5306.876353129735
1394 -5304.716806566016
1395 -5303.180259652788
1396 -5301.328769839864
1397 -5300.156534505443
1398 -5298.865808232029
1399 -5297.886707863412
1400 -5296.921307755082
1401 -5296.244146515583
1402 -5295.578501562561
1403 -5295.038497944754
1404 -5294.709480706488
1405 -5294.39786883215
1406 -5294.612205881739
1407 -5294.634321655273
1408 -5295.087978863447
1409 -5295.529906688395
1410 -5296.508332193708
1411 -5297.172134144487
1412 -5298.115855868436
1413 -5299.794322814769
1414 -5301.039940972698
1415 -5302.13994215241
1416 -5304.367045893738
1417 -5305.881433657272
1418 -5307.7207383896
1419 -5310.299801007343
1420 -5312.333890904481
1421 -5314.260538709057
1422 -5316.405802837787
1423 -5319.521904930314
1424 -5321.825970238203
1425 -5324.08148532099
1426 -5327.940408299034
1427 -5330.350784357056
1428 -5332.931649235174
1429 -5336.765651449612
1430 -5339.496578439572
1431 -5343.372589988341
1432 -5346.117568357328
1433 -5350.114103577055
1434 -5352.949882086449
1435 -5356.891601284713
1436 -5359.56906898379
1437 -5363.220073172512
1438 -5365.81924868982
1439 -5369.52317173445
1440 -5372.085093022251
1441 -5375.478850658389
1442 -5377.872263577273
1443 -5381.122509703971
1444 -5383.376231869287
1445 -5386.452037786313
1446 -5388.710192449736
1447 -5391.629147067631
1448 -5393.585494448688
1449 -5396.012797168902
1450 -5397.832268093706
1451 -5400.019705794995
1452 -5401.752541098327
1453 -5403.099966031282
1454 -5405.524488012095
1455 -5406.904648699973
1456 -5408.477234175963
1457 -5410.576993720033
1458 -5411.960378443392
1459 -5413.126281967644
1460 -5415.426270872087
1461 -5416.59765721003
1462 -5418.003302012291
1463 -5419.121049403024
1464 -5421.32077276383
1465 -5422.521653297591
1466 -5423.876378106792
1467 -5424.90579326664
1468 -5426.695911373532
1469 -5427.510555559242
1470 -5428.73163334321
1471 -5429.578869083993
1472 -5431.418903969039
1473 -5432.142471907689
1474 -5432.940473047849
1475 -5433.45499015414
1476 -5434.097963815017
1477 -5434.849751292928
1478 -5435.330391827819
1479 -5435.467681876718
1480 -5435.682581169734
1481 -5435.598733091167
1482 -5435.67119535563
1483 -5435.640162122842
1484 -5435.696127923825
1485 -5435.295368992134
1486 -5434.974896405424
1487 -5434.430854070059
1488 -5434.066319656247
1489 -5433.406955626222
1490 -5432.798704055426
1491 -5432.058691956564
1492 -5431.400552055113
1493 -5430.447773413511
1494 -5429.544770333119
1495 -5428.520607044138
1496 -5427.555773454113
1497 -5426.423012201266
1498 -5425.218635506641
1499 -5423.84510656641
1500 -5422.579886284152
1501 -5421.140493085476
1502 -5419.788102076318
1503 -5418.105951189478
1504 -5416.663201195439
1505 -5414.945437118723
1506 -5413.372941745689
1507 -5411.572626619361
1508 -5410.06666010217
1509 -5408.221773920455
1510 -5406.659596756253
1511 -5404.888687450449
1512 -5403.425259817826
1513 -5401.75005759492
1514 -5400.227480543504
1515 -5398.557967120224
1516 -5397.182075825527
1517 -5395.715289978329
1518 -5394.341032664442
1519 -5392.010641029061
1520 -5390.766450631363
1521 -5389.358470291495
1522 -5388.172688863886
1523 -5386.93910070641
1524 -5385.904763063965
1525 -5384.727244785773
1526 -5383.784827907703
1527 -5382.812466027505
1528 -5382.239258517554
1529 -5381.320150234989
1530 -5380.783612606189
1531 -5380.201080379079
1532 -5379.928932657464
1533 -5379.543391607124
1534 -5379.409733111374
1535 -5379.150511243676
1536 -5379.120319188072
1537 -5379.065726185815
1538 -5379.108397924841
1539 -5379.10123463299
1540 -5379.223071686481
1541 -5379.060435194635
1542 -5379.252083588904
1543 -5379.233942482523
1544 -5379.424361728653
1545 -5379.358828750518
1546 -5379.497145853813
1547 -5379.528391660796
1548 -5379.604681815988
1549 -5379.539155052257
1550 -5379.648559805433
1551 -5379.451160808568
1552 -5379.457092522784
1553 -5379.147757909666
1554 -5378.903709743262
1555 -5378.395737321086
1556 -5378.050622982314
1557 -5377.404971352992
1558 -5376.871459462741
1559 -5376.078020072411
1560 -5375.515383931907
1561 -5374.383730138491
1562 -5373.652032765615
1563 -5372.570434680506
1564 -5371.559889069088
1565 -5370.306845637423
1566 -5369.287509365811
1567 -5368.001194546278
1568 -5366.917665865517
1569 -5365.621355393618
1570 -5364.506005770133
1571 -5363.143701331307
1572 -5361.986377053958
1573 -5360.592464358556
1574 -5359.472781264828
1575 -5357.979698558531
1576 -5356.747037195478
1577 -5355.304310577656
1578 -5354.11733746267
1579 -5352.708172174684
1580 -5351.553021027304
1581 -5350.122415030066
1582 -5348.94051734504
1583 -5347.534318285155
1584 -5346.552548551761
1585 -5345.235573264829
1586 -5344.140566673612
1587 -5342.860602045803
1588 -5341.869034130823
1589 -5340.80208231376
1590 -5339.970777775128
1591 -5338.801177883764
1592 -5337.98754520709
1593 -5336.936638969196
1594 -5336.293944972663
1595 -5335.32135833206
1596 -5334.598782005499
1597 -5333.657821060752
1598 -5332.960572925256
1599 -5332.025838010801
1600 -5331.389593422347
1601 -5330.593433421362
1602 -5329.930654740896
1603 -5329.090440662532
1604 -5328.504538181362
1605 -5327.742725582454
1606 -5327.316011289677
1607 -5326.582943195716
1608 -5326.149227386526
1609 -5325.612368262896
1610 -5325.301748106438
1611 -5324.767624902514
1612 -5324.603722648454
1613 -5324.354683852249
1614 -5324.38947069234
1615 -5324.140245809008
1616 -5324.288374689823
1617 -5324.19146598364
1618 -5324.504567975649
1619 -5324.743712398827
1620 -5325.346315917783
1621 -5325.858354541483
1622 -5326.611371209902
1623 -5327.217525378484
1624 -5328.080522296321
1625 -5329.043984745945
1626 -5330.388413597214
1627 -5331.638803673743
1628 -5333.103650270426
1629 -5334.51817056512
1630 -5336.259508086661
1631 -5338.007714594684
1632 -5339.92623121268
1633 -5342.509270050496
1634 -5344.572210915268
1635 -5346.419063491977
1636 -5348.574290960887
1637 -5351.43867329459
1638 -5353.514797992737
1639 -5355.390318345198
1640 -5358.438964395903
1641 -5360.308770105048
1642 -5362.334381164703
1643 -5365.108298467909
1644 -5367.082877849597
1645 -5368.788550005457
1646 -5371.538722617127
1647 -5372.996907953309
1648 -5374.653151107
1649 -5376.889038677145
1650 -5378.461312724739
1651 -5379.700373893092
1652 -5381.756634735624
1653 -5382.840923574258
1654 -5384.051251682063
1655 -5384.983501914945
1656 -5386.592112943766
1657 -5387.350877886981
1658 -5388.223346245445
1659 -5388.855982272995
1660 -5389.968733239005
1661 -5390.389963744459
1662 -5390.964866422406
1663 -5391.277822245362
1664 -5391.771071706603
1665 -5392.015184475002
1666 -5392.365275041806
1667 -5392.378917734934
1668 -5392.58789114851
1669 -5392.594995515019
1670 -5392.735527047143
1671 -5392.591636745962
1672 -5392.660186933906
1673 -5392.458625313422
1674 -5392.424311831778
1675 -5392.075801613633
1676 -5392.01020605037
1677 -5391.676485331429
1678 -5391.500395047015
1679 -5391.02906566422
1680 -5390.801569175323
1681 -5390.34261177502
1682 -5390.026045506009
1683 -5389.35268696266
1684 -5388.876890328337
1685 -5388.202812963499
1686 -5387.7680530766
1687 -5387.112086334152
1688 -5386.647591413985
1689 -5385.955814222702
1690 -5385.533079052755
1691 -5384.970163453906
1692 -5384.67325719015
1693 -5384.211950070663
1694 -5384.0385884853
1695 -5383.596962812916
1696 -5383.398458674286
1697 -5383.169638934104
1698 -5383.229958633263
1699 -5383.187135579082
1700 -5383.448860105414
1701 -5383.523480505907
1702 -5383.977035785775
1703 -5384.212958812793
1704 -5384.80547354159
1705 -5385.167667748595
1706 -5385.773964670651
1707 -5386.274908173174
1708 -5387.145833041923
1709 -5387.746779865244
1710 -5388.561170728473
1711 -5389.341516926985
1712 -5390.314102129248
1713 -5391.123776609945
1714 -5392.1471052811
1715 -5392.947790347571
1716 -5394.085880676207
1717 -5394.92611966967
1718 -5395.945482515642
1719 -5396.718184405326
1720 -5397.787047388719
1721 -5398.532889899601
1722 -5399.534804429034
1723 -5400.305821855933
1724 -5401.292912226952
1725 -5402.017401253154
1726 -5402.894654607466
1727 -5403.54550462889
1728 -5404.401986473803
1729 -5404.971646029485
1730 -5405.620253819
1731 -5406.023473278626
1732 -5406.639689269761
1733 -5406.904559972688
1734 -5407.365126357003
1735 -5407.457872533946
1736 -5407.839721783624
1737 -5407.804152387444
1738 -5407.939666886004
1739 -5407.774848555326
1740 -5407.791104700364
1741 -5407.402865166679
1742 -5407.245531337333
1743 -5406.734238188217
1744 -5406.36069526395
1745 -5405.745074548284
1746 -5405.290769808269
1747 -5404.489966725479
1748 -5403.77675423372
1749 -5402.811671680666
1750 -5401.951229628262
1751 -5400.780790721222
1752 -5399.87450670987
1753 -5398.593492995922
1754 -5397.516130876323
1755 -5396.184044144245
1756 -5394.972354940513
1757 -5393.525069945713
1758 -5392.251439493682
1759 -5390.667961326591
1760 -5389.360902006804
1761 -5387.750289348192
1762 -5386.322887855324
1763 -5384.643888322714
1764 -5383.179021106688
1765 -5381.43152677917
1766 -5379.842962360897
1767 -5377.910117298651
1768 -5376.251562594221
1769 -5374.369792996076
1770 -5372.642335529857
1771 -5370.586709127886
1772 -5368.714557433067
1773 -5366.668036335128
1774 -5364.784864763858
1775 -5362.662760395836
1776 -5360.854803660099
1777 -5358.67199131133
1778 -5356.71386443138
1779 -5354.47256439197
1780 -5352.499521802085
1781 -5350.232091073298
1782 -5348.181225734638
1783 -5345.903564589112
1784 -5343.87939514089
1785 -5341.616616210554
1786 -5339.641410971996
1787 -5337.393007354623
1788 -5335.360089821262
1789 -5333.136941574712
1790 -5331.144000709844
1791 -5328.933890129445
1792 -5327.022592863445
1793 -5324.810028961145
1794 -5322.911049416005
1795 -5320.828600952856
1796 -5318.939280134368
1797 -5316.899536112138
1798 -5315.076418020831
1799 -5313.036630020326
1800 -5311.259276644957
1801 -5309.255222978819
1802 -5307.502730425994
1803 -5305.42498823929
1804 -5303.704920992688
1805 -5301.67308728145
1806 -5299.93635485212
1807 -5298.014408594457
1808 -5296.362601294506
1809 -5294.41081603421
1810 -5292.767006849822
1811 -5290.892455524853
1812 -5289.221348640852
1813 -5287.323323621911
1814 -5285.661679951447
1815 -5283.845360721878
1816 -5282.29625839079
1817 -5280.390172004128
1818 -5278.861898523359
1819 -5277.198459790783
1820 -5275.780080793518
1821 -5274.190804271535
1822 -5272.812167475465
1823 -5271.281952538428
1824 -5269.901080878031
1825 -5268.462287434335
1826 -5267.317427026363
1827 -5266.057520755066
1828 -5265.129964851067
1829 -5264.039040563459
1830 -5263.233619061635
1831 -5262.276494228371
1832 -5261.649932768929
1833 -5260.841845587792
1834 -5260.422262981196
1835 -5259.734761764086
1836 -5259.369007920053
1837 -5258.928180043297
1838 -5258.744441879486
1839 -5258.364344831806
1840 -5258.331038952691
1841 -5258.091322147347
1842 -5258.250264078504
1843 -5258.166977777406
1844 -5258.356696583841
1845 -5258.382970744759
1846 -5258.597044435962
1847 -5258.673775829605
1848 -5259.010576533519
1849 -5259.170521726825
1850 -5259.486741971286
1851 -5259.5731265196
1852 -5259.937592974712
1853 -5260.148988476604
1854 -5260.54392693312
1855 -5260.722762227413
1856 -5261.2072550749
1857 -5261.431128622129
1858 -5261.885635918175
1859 -5262.20008896376
1860 -5262.688293146993
1861 -5262.974290905524
1862 -5263.482353790263
1863 -5263.683414468448
1864 -5264.056098588213
1865 -5264.270809716875
1866 -5264.655254860356
1867 -5264.905239025322
1868 -5265.256074112016
1869 -5265.480516974336
1870 -5265.837379664985
1871 -5266.035877079401
1872 -5266.481697268009
1873 -5266.648544328122
1874 -5266.956441722235
1875 -5267.130487217656
1876 -5267.464081475525
1877 -5267.612086287057
1878 -5267.968514322718
1879 -5268.138500001668
1880 -5268.53334461776
1881 -5268.710947450882
1882 -5269.089629171583
1883 -5269.319309926891
1884 -5269.721523993578
1885 -5269.940812296447
1886 -5270.338735459046
1887 -5270.618413308714
1888 -5271.094591472302
1889 -5271.372646065674
1890 -5271.875517553798
1891 -5272.233735919953
1892 -5272.850572308477
1893 -5273.367323740687
1894 -5274.086707463731
1895 -5274.678041598676
1896 -5275.481465659816
1897 -5276.096259685615
1898 -5277.00245382222
1899 -5277.674120157541
1900 -5278.643593731552
1901 -5279.419504201269
1902 -5280.485257717158
1903 -5281.302464073165
1904 -5282.544397963503
1905 -5283.541047188686
1906 -5284.888771633402
1907 -5285.954432481206
1908 -5287.358060053367
1909 -5288.530966342389
1910 -5290.054239195969
1911 -5291.396814339169
1912 -5293.031442502041
1913 -5294.38494124074
1914 -5296.123630418642
1915 -5297.697322196793
1916 -5299.495555442083
1917 -5301.160267613437
1918 -5303.097843860389
1919 -5304.801663159921
1920 -5306.90951614859
1921 -5308.821338680549
1922 -5310.97005324965
1923 -5313.958376159149
1924 -5316.12174267311
1925 -5318.060293933226
1926 -5320.276643978857
1927 -5323.442545027183
1928 -5325.645449699736
1929 -5327.639670047685
1930 -5330.838646015573
1931 -5332.801637916947
1932 -5335.958029864471
1933 -5337.864921016041
1934 -5340.910780627825
1935 -5342.719643525119
1936 -5345.784309759802
1937 -5347.470884572841
1938 -5350.249262785433
1939 -5351.845386813265
1940 -5354.499729371417
1941 -5355.997466894002
1942 -5358.540107307814
1943 -5359.98617248475
1944 -5362.517693379196
1945 -5363.889647398614
1946 -5366.235962495037
1947 -5367.492875484868
1948 -5369.57380781637
1949 -5370.722717272547
1950 -5372.713165880346
1951 -5373.743523920711
1952 -5375.52128847436
1953 -5376.45397294042
1954 -5378.116974678164
1955 -5378.963761780431
1956 -5380.335444056806
1957 -5381.023823187454
1958 -5382.14530953801
1959 -5382.615345867047
1960 -5383.282792815236
1961 -5383.805517731478
1962 -5384.324943945378
1963 -5384.492836829318
1964 -5384.975245262638
1965 -5385.012927958853
1966 -5385.097808235569
1967 -5384.845361592012
1968 -5384.689395175677
1969 -5384.023689393293
1970 -5383.686042187529
1971 -5383.010832898805
1972 -5382.459987711228
1973 -5381.625471211042
1974 -5380.880019747559
1975 -5379.79916502437
1976 -5378.347898004487
1977 -5377.11291379491
1978 -5375.977214578418
1979 -5374.547332445351
1980 -5372.691670439135
1981 -5371.134485645021
1982 -5369.662599380372
1983 -5367.089346363788
1984 -5365.510480890572
1985 -5362.888864157955
1986 -5361.178763699086
1987 -5358.295028317437
1988 -5356.571098189741
1989 -5353.725345601744
1990 -5351.955560543401
1991 -5348.824530984217
1992 -5347.025547583942
1993 -5343.973755941156
1994 -5342.117377983547
1995 -5339.004051718101
1996 -5337.162162959035
1997 -5334.14526197892
1998 -5332.294918406912
1999 -5329.262117257887
2000 -5327.502665014182
2001 -5324.566865116854
2002 -5322.78310725175
2003 -5319.996539520393
2004 -5318.372297935623
2005 -5315.698925987427
2006 -5314.160421240502
2007 -5312.439185802068
2008 -5310.181917705518
2009 -5308.601855137352
2010 -5307.22747729195
2011 -5305.722331259379
2012 -5303.887783879471
2013 -5302.552749705187
2014 -5301.450939826575
2015 -5300.160202221943
2016 -5299.172485757265
2017 -5297.997593338785
2018 -5297.05695833172
2019 -5296.008990879773
2020 -5295.26285432963
2021 -5294.366462816713
2022 -5293.746060521494
2023 -5293.001894545107
2024 -5292.602831356192
2025 -5292.083592759543
2026 -5291.854858325835
2027 -5291.444497888046
2028 -5291.392837876295
2029 -5291.241996930947
2030 -5291.328677622377
2031 -5291.316854465718
2032 -5291.629009319313
2033 -5291.840452278793
2034 -5292.347998328352
2035 -5292.75729414108
2036 -5293.375192226408
2037 -5293.880879640788
2038 -5294.678817050773
2039 -5295.280561612713
2040 -5296.225143399557
2041 -5296.977146800752
2042 -5297.939978822541
2043 -5298.630702670274
2044 -5299.660278608147
2045 -5300.356671699812
2046 -5301.310204575863
2047 -5301.998142526913
2048 -5302.900865804914
2049 -5303.572830939602
2050 -5304.445850868266
2051 -5305.029387314338
2052 -5305.837903262178
2053 -5306.335572331262
2054 -5307.046604525322
2055 -5307.379249089739
2056 -5307.905342885264
2057 -5308.100600498292
2058 -5308.432489382555
2059 -5308.433085658344
2060 -5308.585464997313
2061 -5308.42677597293
2062 -5308.388719896424
2063 -5308.018424430548
2064 -5307.893066383215
2065 -5307.415997522645
2066 -5307.089614438955
2067 -5306.407312074424
2068 -5305.878285311449
2069 -5305.005045230618
2070 -5304.306666070585
2071 -5303.244407041876
2072 -5302.338724691701
2073 -5301.152576772057
2074 -5300.125626132767
2075 -5298.765874120133
2076 -5297.621725061958
2077 -5296.163286741493
2078 -5294.901705790338
2079 -5293.359624538516
2080 -5292.029528341277
2081 -5290.408348756497
2082 -5289.015414982961
2083 -5287.248537168822
2084 -5285.757973340631
2085 -5284.007398279991
2086 -5282.495997491774
2087 -5280.76623997384
2088 -5279.22629480738
2089 -5277.471687865499
2090 -5275.949503849432
2091 -5274.124753608361
2092 -5272.603559921255
2093 -5270.882732167751
2094 -5269.443528114443
2095 -5267.777903915282
2096 -5266.391085241539
2097 -5264.732123027848
2098 -5263.420633107114
2099 -5261.83784353987
2100 -5260.596926726011
2101 -5259.082535721705
2102 -5257.911657227178
2103 -5256.534964039583
2104 -5255.509603542073
2105 -5254.262082199306
2106 -5253.280701256027
2107 -5252.118858663718
2108 -5251.37691473122
2109 -5250.497918429299
2110 -5250.042119412584
2111 -5249.361359311983
2112 -5249.069423675471
2113 -5248.580290445695
2114 -5248.468789770148
2115 -5248.245497138527
2116 -5248.380628752747
2117 -5248.427787915863
2118 -5248.815358254883
2119 -5249.14244796912
2120 -5249.908288254393
2121 -5250.565230358159
2122 -5251.456622445316
2123 -5252.316218836731
2124 -5253.564936006936
2125 -5254.586018379004
2126 -5255.986172682351
2127 -5257.245191933512
2128 -5258.906916503124
2129 -5260.376766602495
2130 -5262.200970671382
2131 -5263.884931868823
2132 -5265.997974659082
2133 -5267.995376938431
2134 -5270.234858661672
2135 -5272.212487685044
2136 -5274.638179421084
2137 -5276.789738796574
2138 -5279.175628422153
2139 -5281.437493185054
2140 -5283.908851424754
2141 -5286.175554818173
2142 -5288.760225131899
2143 -5291.093002181656
2144 -5293.723552263617
2145 -5296.182711920123
2146 -5298.896606132466
2147 -5301.357975781603
2148 -5304.041674577693
2149 -5306.483365469327
2150 -5309.099395639365
2151 -5311.411317766133
2152 -5313.925112425726
2153 -5316.132158036109
2154 -5318.485756342684
2155 -5320.498947808002
2156 -5322.694126664837
2157 -5324.63035419195
2158 -5326.668856218826
2159 -5328.410252941059
2160 -5330.279680712618
2161 -5331.859198525938
2162 -5333.505725234258
2163 -5334.778854398523
2164 -5336.199882554595
2165 -5337.269961373703
2166 -5338.487457268437
2167 -5339.349966458647
2168 -5340.367583288628
2169 -5341.005625122573
2170 -5341.790118729275
2171 -5342.207954269068
2172 -5342.801515288031
2173 -5343.003190163681
2174 -5343.366463405609
2175 -5343.417172531776
2176 -5343.590078299595
2177 -5343.464309539948
2178 -5343.497797303272
2179 -5343.232830633138
2180 -5343.146452222248
2181 -5342.717325749621
2182 -5342.461511838993
2183 -5341.904145660798
2184 -5341.574089799034
2185 -5341.008545500842
2186 -5340.599385380572
2187 -5339.932215619969
2188 -5339.506456263003
2189 -5338.816076298201
2190 -5338.325475123197
2191 -5337.582244764532
2192 -5337.08176203533
2193 -5336.322317342611
2194 -5335.819071605511
2195 -5335.07798946092
2196 -5334.614518780648
2197 -5333.913285890114
2198 -5333.490731745627
2199 -5332.850321789795
2200 -5332.500853632737
2201 -5331.944795592835
2202 -5331.626375137758
2203 -5331.162434170777
2204 -5330.994874752606
2205 -5330.6035718017
2206 -5330.456501341709
2207 -5330.164075197075
2208 -5330.15710999777
2209 -5330.003183378056
2210 -5330.114694780044
2211 -5330.0390198699
2212 -5330.281913225999
2213 -5330.329198405623
2214 -5330.677755175189
2215 -5330.807190126958
2216 -5331.263123367897
2217 -5331.489777614568
2218 -5332.01817579547
2219 -5332.367797327982
2220 -5332.94149697348
2221 -5333.318995329362
2222 -5333.92219746046
2223 -5334.32248979901
2224 -5334.973739861086
2225 -5335.397077471926
2226 -5336.075467133217
2227 -5336.521720755556
2228 -5337.181960582061
2229 -5337.668189691123
2230 -5338.346336428564
2231 -5338.785162413396
2232 -5339.502487159405
2233 -5339.969631384425
2234 -5340.618744515618
2235 -5341.019543546896
2236 -5341.578090703697
2237 -5341.879387933863
2238 -5342.38451880833
2239 -5342.643403636965
2240 -5343.065227275535
2241 -5343.2438191139
2242 -5343.573665955804
2243 -5343.648995620973
2244 -5343.895426421199
2245 -5343.910529274463
2246 -5344.092249862972
2247 -5344.008499847382
2248 -5344.134382820112
2249 -5344.008096095353
2250 -5344.053022968129
2251 -5343.869367719471
2252 -5343.856972886403
2253 -5343.563311380274
2254 -5343.461536359484
2255 -5343.097692943864
2256 -5342.918742014712
2257 -5342.522889233796
2258 -5342.26759876144
2259 -5341.780044436146
2260 -5341.463810491569
2261 -5340.919686478284
2262 -5340.536805140641
2263 -5339.938030397224
2264 -5339.557890331279
2265 -5338.897643367711
2266 -5338.41915225412
2267 -5337.701158166652
2268 -5337.163128916563
2269 -5336.40272942245
2270 -5335.839393189196
2271 -5335.004404539779
2272 -5334.353369339762
2273 -5333.466377572652
2274 -5332.779746344513
2275 -5331.823208308911
2276 -5331.069047871359
2277 -5330.073512255556
2278 -5329.221638980604
2279 -5328.108766057308
2280 -5327.23408586606
2281 -5326.061924305563
2282 -5325.069043463459
2283 -5323.859526654191
2284 -5322.840887610354
2285 -5321.523691959907
2286 -5320.40119548612
2287 -5319.016619894496
2288 -5317.855189107199
2289 -5316.432202589392
2290 -5315.209454579543
2291 -5313.719523502113
2292 -5312.464961660647
2293 -5310.963114288013
2294 -5309.652905968627
2295 -5308.108849020566
2296 -5306.786707473758
2297 -5305.243335939672
2298 -5303.903410169944
2299 -5302.350746858326
2300 -5301.04991446935
2301 -5299.5468174642
2302 -5298.245117393266
2303 -5296.77232298612
2304 -5295.561701743412
2305 -5294.104596211238
2306 -5292.909814865095
2307 -5291.521388582281
2308 -5290.367648177818
2309 -5289.060722517143
2310 -5288.02296786862
2311 -5286.800450550647
2312 -5285.879522482357
2313 -5284.767713778382
2314 -5283.893320114626
2315 -5282.875550520848
2316 -5282.154338901477
2317 -5281.276688415208
2318 -5280.677456609003
2319 -5279.885926666465
2320 -5279.408702470131
2321 -5278.765320704455
2322 -5278.382296554278
2323 -5277.828847019195
2324 -5277.584487307412
2325 -5277.147527042357
2326 -5277.007689013532
2327 -5276.685221100965
2328 -5276.646815568421
2329 -5276.393067874053
2330 -5276.429026493074
2331 -5276.285028715168
2332 -5276.400646681273
2333 -5276.344584665918
2334 -5276.544567602125
2335 -5276.519485561038
2336 -5276.806189972632
2337 -5276.873833785294
2338 -5277.180095811355
2339 -5277.303863419199
2340 -5277.665079496491
2341 -5277.830643954106
2342 -5278.214144301641
2343 -5278.40977022004
2344 -5278.836129087799
2345 -5279.059901971486
2346 -5279.494553463268
2347 -5279.691930639209
2348 -5280.128420483098
2349 -5280.343373724479
2350 -5280.772649273586
2351 -5280.977839126147
2352 -5281.401093425721
2353 -5281.572971467685
2354 -5281.955300827396
2355 -5282.095123736629
2356 -5282.426889097063
2357 -5282.531796556687
2358 -5282.829620888321
2359 -5282.856339595852
2360 -5283.114382031674
2361 -5283.112339519424
2362 -5283.275634813055
2363 -5283.212742319249
2364 -5283.323006735432
2365 -5283.181253135451
2366 -5283.23454894988
2367 -5283.017224974671
2368 -5282.999826476722
2369 -5282.736793890379
2370 -5282.628708239384
2371 -5282.259677063543
2372 -5282.095779515193
2373 -5281.713402701102
2374 -5281.506831756953
2375 -5281.084617332967
2376 -5280.849336788819
2377 -5280.388158960024
2378 -5280.096400367418
2379 -5279.605763810814
2380 -5279.315313834598
2381 -5278.825817423684
2382 -5278.551572303771
2383 -5278.048174863303
2384 -5277.7848183673
2385 -5277.32780388697
2386 -5277.067019407853
2387 -5276.638172311013
2388 -5276.449046632963
2389 -5276.02616145585
2390 -5275.862255607302
2391 -5275.486221417479
2392 -5275.376325682443
2393 -5275.111192546477
2394 -5275.058390594422
2395 -5274.800239370125
2396 -5274.801586004435
2397 -5274.623289306594
2398 -5274.7001645974
2399 -5274.540945576298
2400 -5274.65601629549
2401 -5274.570059828199
2402 -5274.729092410699
2403 -5274.7025896647
2404 -5274.925430770106
2405 -5274.944626062354
2406 -5275.214555733524
2407 -5275.24731341614
2408 -5275.575478529518
2409 -5275.684006019511
2410 -5276.024982960001
2411 -5276.151399926114
2412 -5276.522086745561
2413 -5276.666077079077
2414 -5277.075309214209
2415 -5277.21724168796
2416 -5277.629674256757
2417 -5277.782440822759
2418 -5278.181584103118
2419 -5278.307317537734
2420 -5278.702339989593
2421 -5278.852072495639
2422 -5279.235784733001
2423 -5279.362499191084
2424 -5279.790682500414
2425 -5279.926867890096
2426 -5280.320559690569
2427 -5280.468499680307
2428 -5280.8969599663
2429 -5281.05642755405
2430 -5281.472423177968
2431 -5281.611154851228
2432 -5282.055074277268
2433 -5282.214642833653
2434 -5282.606372434279
2435 -5282.783317892018
2436 -5283.228634730528
2437 -5283.410437561859
2438 -5283.873823225667
2439 -5284.085258834733
2440 -5284.59015491566
2441 -5284.837535507377
2442 -5285.320854129266
2443 -5285.604060060871
2444 -5286.120043645483
2445 -5286.403479713038
2446 -5286.942822399038
2447 -5287.237676484261
2448 -5287.799617573357
2449 -5288.141488458907
2450 -5288.679191478062
2451 -5288.999579390691
2452 -5289.54674009721
2453 -5289.873340066893
2454 -5290.448810071915
2455 -5290.771048946848
2456 -5291.346370567818
2457 -5291.688297786902
2458 -5292.236003617562
2459 -5292.551031153929
2460 -5293.121422164588
2461 -5293.446326533157
2462 -5293.986140445055
2463 -5294.256562680158
2464 -5294.762184654553
2465 -5295.018696754601
2466 -5295.478781878975
2467 -5295.675006457289
2468 -5296.038029035588
2469 -5296.159640483077
2470 -5296.547106597111
2471 -5296.609580915724
2472 -5296.897000745557
2473 -5296.925291090807
2474 -5297.13604353953
2475 -5297.051408265573
2476 -5297.179022426797
2477 -5297.040700818085
2478 -5297.108340159648
2479 -5296.87759470572
2480 -5296.883013421725
2481 -5296.603934980083
2482 -5296.526856393471
2483 -5296.183610494008
2484 -5296.04071138187
2485 -5295.637219124156
2486 -5295.441664089581
2487 -5294.927096713312
2488 -5294.679858594644
2489 -5294.145809078759
2490 -5293.837917364225
2491 -5293.246022125581
2492 -5292.901836161515
2493 -5292.298666868674
2494 -5291.918973659414
2495 -5291.269335100736
2496 -5290.875594954195
2497 -5290.242251414823
2498 -5289.812675666089
2499 -5289.152833677847
2500 -5288.716444450295
2501 -5288.056340900198
2502 -5287.636413729055
2503 -5286.975785541156
2504 -5286.60219492602
2505 -5285.977421256765
2506 -5285.606689035939
2507 -5284.989038690374
2508 -5284.618304691554
2509 -5284.016213018224
2510 -5283.684665182162
2511 -5283.101793979993
2512 -5282.806668193437
2513 -5282.277944877324
2514 -5281.994742747073
2515 -5281.465840284646
2516 -5281.201787881401
2517 -5280.712457271363
2518 -5280.485938366409
2519 -5280.026299617553
2520 -5279.818932333763
2521 -5279.4141421038
2522 -5279.259138650821
2523 -5278.887948378382
2524 -5278.78996576012
2525 -5278.466486425961
2526 -5278.414253553772
2527 -5278.126355540592
2528 -5278.099827035822
2529 -5277.863051665277
2530 -5277.872566387633
2531 -5277.669891737564
2532 -5277.688058637254
2533 -5277.509578858529
2534 -5277.601832093972
2535 -5277.477952938966
2536 -5277.62793930965
2537 -5277.561947142412
2538 -5277.761361427899
2539 -5277.735378398479
2540 -5277.974012641215
2541 -5278.002815480076
2542 -5278.267184829552
2543 -5278.294879074801
2544 -5278.588398033846
2545 -5278.654493382777
2546 -5278.983576580971
2547 -5279.059840206898
2548 -5279.378886022289
2549 -5279.46205209945
2550 -5279.79626878713
2551 -5279.851938289904
2552 -5280.176284040246
2553 -5280.244809475322
2554 -5280.540232562205
2555 -5280.581797200423
2556 -5280.86282370638
2557 -5280.907488095201
2558 -5281.171725259952
2559 -5281.144825241621
2560 -5281.378874887145
2561 -5281.346458964443
2562 -5281.552380370568
2563 -5281.482129579663
2564 -5281.646125043154
2565 -5281.535309395658
2566 -5281.694647748126
2567 -5281.561033011784
2568 -5281.666043039442
2569 -5281.493545363303
2570 -5281.569820976146
2571 -5281.397575589019
2572 -5281.465705044562
2573 -5281.304937811135
2574 -5281.400132162958
2575 -5281.275681309068
2576 -5281.405278483056
2577 -5281.29280147287
2578 -5281.405296102686
2579 -5281.275037954902
2580 -5281.418414899906
2581 -5281.346802656428
2582 -5281.552194182161
2583 -5281.511651736202
2584 -5281.741099535703
2585 -5281.741459281832
2586 -5282.002438654088
2587 -5282.057301170415
2588 -5282.364968693656
2589 -5282.454755021123
2590 -5282.812793322714
2591 -5282.950617471535
2592 -5283.368301966762
2593 -5283.563760361073
2594 -5283.994242219976
2595 -5284.211773247434
2596 -5284.693491538258
2597 -5284.950225822794
2598 -5285.464544904057
2599 -5285.761791667461
2600 -5286.31776829546
2601 -5286.656509928441
2602 -5287.225864578552
2603 -5287.580068599176
2604 -5288.185670320798
2605 -5288.591874101909
2606 -5289.252989591968
2607 -5289.666054948837
2608 -5290.363092260679
2609 -5290.818307323513
2610 -5291.490959950255
2611 -5291.946221747573
2612 -5292.659060017072
2613 -5293.12346911348
2614 -5293.852332551651
2615 -5294.330710700665
2616 -5295.065975373818
2617 -5295.571001658413
2618 -5296.305642971294
2619 -5296.815345902301
2620 -5297.582614047813
2621 -5298.137895904609
2622 -5298.898350972332
2623 -5299.422003947067
2624 -5300.215754587229
2625 -5300.778122290403
2626 -5301.576888763675
2627 -5302.168888680694
2628 -5302.979145826055
2629 -5303.571449735766
2630 -5304.400590272274
2631 -5304.968824881514
2632 -5305.823756086951
2633 -5306.4407322072
2634 -5307.289547706464
2635 -5307.925214944914
2636 -5308.787869735967
2637 -5309.437250212026
2638 -5310.339860724953
2639 -5310.97964012143
2640 -5311.867721174302
2641 -5312.513749006384
2642 -5313.39083847668
2643 -5314.055192136127
2644 -5314.93997207642
2645 -5315.607931309879
2646 -5316.502812426223
2647 -5317.171836177091
2648 -5318.069161751449
2649 -5318.747438460497
2650 -5319.628936204853
2651 -5320.284832647207
2652 -5321.140366563791
2653 -5321.768667828502
2654 -5322.615660839491
2655 -5323.216952811586
2656 -5324.022191725724
2657 -5324.620865695953
2658 -5325.413164907019
2659 -5325.980344540254
2660 -5326.76162986336
2661 -5327.283999317536
2662 -5328.039895198761
2663 -5328.549147244256
2664 -5329.263814493822
2665 -5329.75241379227
2666 -5330.439209991462
2667 -5330.881420877127
2668 -5331.507345813942
2669 -5331.928694269606
2670 -5332.551398013704
2671 -5332.935569165708
2672 -5333.516506741737
2673 -5333.852156178993
2674 -5334.397362657086
2675 -5334.726700096374
2676 -5335.251568513867
2677 -5335.563808606944
2678 -5336.057037009564
2679 -5336.326800191343
2680 -5336.818738974546
2681 -5337.095534207118
2682 -5337.548087681745
2683 -5337.796933998295
2684 -5338.248627895538
2685 -5338.494570289507
2686 -5338.926241134437
2687 -5339.151183732706
2688 -5339.555866935264
2689 -5339.761740755844
2690 -5340.152214141377
2691 -5340.340229617537
2692 -5340.722756398846
2693 -5340.909371940731
2694 -5341.288354692078
2695 -5341.43298294319
2696 -5341.805589278857
2697 -5341.961385834272
2698 -5342.306897490555
2699 -5342.451225749372
2700 -5342.810175569337
2701 -5342.951809182812
2702 -5343.309497570554
2703 -5343.442096308222
2704 -5343.795586583025
2705 -5343.957447925638
2706 -5344.315758540329
2707 -5344.468706442075
2708 -5344.892135842926
2709 -5345.039813425685
2710 -5345.423018088393
2711 -5345.544763525389
2712 -5345.89575726556
2713 -5346.055656473492
2714 -5346.421661084168
2715 -5346.559745424576
2716 -5346.954809116635
2717 -5347.134914410522
2718 -5347.533693192297
2719 -5347.696730917158
2720 -5348.107349766132
2721 -5348.293200568645
2722 -5348.704251435059
2723 -5348.877690157674
2724 -5349.316717668648
2725 -5349.509670281683
2726 -5349.928572545075
2727 -5350.10090420987
2728 -5350.51657494946
2729 -5350.713378239973
2730 -5351.133925792232
2731 -5351.288233093175
2732 -5351.707598154238
2733 -5351.878540223893
2734 -5352.282455564927
2735 -5352.472875475558
2736 -5352.900174290879
2737 -5353.10301616784
2738 -5353.515115660671
2739 -5353.672954926353
2740 -5354.066702311238
2741 -5354.219288933029
2742 -5354.612547042807
2743 -5354.782387813218
2744 -5355.184038318133
2745 -5355.376778875109
2746 -5355.788151175686
2747 -5355.945396377741
2748 -5356.344031034318
2749 -5356.482778841318
2750 -5356.880358658083
2751 -5357.016272731206
2752 -5357.425036006916
2753 -5357.596733209728
2754 -5358.011902469017
2755 -5358.177692191416
2756 -5358.587306610703
2757 -5358.784063499189
2758 -5359.229921956467
2759 -5359.417042577041
2760 -5359.845373874388
2761 -5360.051355444994
2762 -5360.482939106928
2763 -5360.644015216012
2764 -5361.112904088012
2765 -5361.348411103735
2766 -5361.808495792638
2767 -5362.023735150382
2768 -5362.476977529122
2769 -5362.694758106191
2770 -5363.191196298688
2771 -5363.437797731046
2772 -5363.938584478346
2773 -5364.18770714432
2774 -5364.694352838776
2775 -5364.914041070248
2776 -5365.430761587676
2777 -5365.691695434902
2778 -5366.212704730626
2779 -5366.457126446659
2780 -5366.959335497564
2781 -5367.210738358444
2782 -5367.701264139855
2783 -5367.939175705343
2784 -5368.409700623155
2785 -5368.607838798591
2786 -5369.071633039029
2787 -5369.243621120919
2788 -5369.707366736272
2789 -5369.911262578919
2790 -5370.365664565672
2791 -5370.53219726876
2792 -5370.972989973962
2793 -5371.108465924428
2794 -5371.540668807462
2795 -5371.683084799317
2796 -5372.085000608215
2797 -5372.238937720203
2798 -5372.646133415622
2799 -5372.816689245982
2800 -5373.183685694739
2801 -5373.347808876478
2802 -5373.702796105911
2803 -5373.785237683656
2804 -5374.133784767885
2805 -5374.218620668213
2806 -5374.573091793962
2807 -5374.650188875504
2808 -5374.964340759695
2809 -5375.063974421358
2810 -5375.345904960277
2811 -5375.367871443051
2812 -5375.651310368181
2813 -5375.679798425361
2814 -5375.941051815583
2815 -5375.986545055224
2816 -5376.233486021128
2817 -5376.256955079145
2818 -5376.484891951182
2819 -5376.474678500302
2820 -5376.714053174553
2821 -5376.745917151371
2822 -5376.974508305013
2823 -5376.99254553317
2824 -5377.261439508456
2825 -5377.312947562218
2826 -5377.530006065968
2827 -5377.549600968046
2828 -5377.784717787014
2829 -5377.818516281701
2830 -5378.095204578065
2831 -5378.156409674983
2832 -5378.419847650647
2833 -5378.472099553194
2834 -5378.70153004533
2835 -5378.72066497063
2836 -5378.990537987916
2837 -5379.026941478198
2838 -5379.290253906678
2839 -5379.340468961729
2840 -5379.647271391391
2841 -5379.744098735656
2842 -5380.027189729698
2843 -5380.091035186072
2844 -5380.373272230654
2845 -5380.414313102827
2846 -5380.692778008151
2847 -5380.767518171676
2848 -5381.06194309431
2849 -5381.190594123222
2850 -5381.510223213893
2851 -5381.588159190834
2852 -5381.906853648177
2853 -5382.027116747033
2854 -5382.392103552215
2855 -5382.549954715203
2856 -5382.945038135135
2857 -5383.112171978731
2858 -5383.521413900357
2859 -5383.691220336173
2860 -5384.102268857875
2861 -5384.32317147812
2862 -5384.76491835722
2863 -5384.965781654291
2864 -5385.382691888142
2865 -5385.615669552104
2866 -5386.048646579764
2867 -5386.279302371558
2868 -5386.687080826259
2869 -5386.885030012867
2870 -5387.309777695076
2871 -5387.466817916835
2872 -5387.817234557708
2873 -5388.003312434569
2874 -5388.35527233239
2875 -5388.477824024104
2876 -5388.837881095818
2877 -5388.979060207711
2878 -5389.275504995309
2879 -5389.317261791582
2880 -5389.507316473057
2881 -5389.467773543426
2882 -5389.609550800573
2883 -5389.49118082563
2884 -5389.553021986445
2885 -5389.344239614388
2886 -5389.32096258744
2887 -5389.000650361409
2888 -5388.879647805764
2889 -5388.505991741623
2890 -5388.279391424512
2891 -5387.794453940626
2892 -5387.452840761839
2893 -5386.866652288141
2894 -5386.44479085489
2895 -5385.749471445837
2896 -5385.203073075343
2897 -5384.437433741051
2898 -5383.824112926361
2899 -5382.897607129703
2900 -5382.183414856099
2901 -5381.172908675301
2902 -5380.362082225765
2903 -5379.255673956196
2904 -5378.358833093125
2905 -5377.17826073546
2906 -5376.169211642935
2907 -5374.907335902013
2908 -5373.827814722027
2909 -5372.516083339952
2910 -5371.377014164455
2911 -5369.987102869129
2912 -5368.798523136456
2913 -5367.400155469831
2914 -5366.136747005105
2915 -5364.639768181339
2916 -5363.382470403907
2917 -5361.85766684635
2918 -5360.535825171638
2919 -5358.998321815924
2920 -5357.637228079003
2921 -5356.058941080177
2922 -5354.681639190494
2923 -5353.06116476374
2924 -5351.667320838678
2925 -5350.071993770446
2926 -5348.702986306584
2927 -5347.103183876977
2928 -5345.767564633357
2929 -5344.210471933797
2930 -5342.863409617072
2931 -5341.34110131163
2932 -5340.036928139857
2933 -5338.558131268024
2934 -5337.290826004417
2935 -5335.800284343231
2936 -5334.555012264062
2937 -5333.139366373556
2938 -5331.963841883738
2939 -5330.568681578766
2940 -5329.46193348519
2941 -5328.12941044055
2942 -5327.052265398329
2943 -5325.766213479345
2944 -5324.75863229563
2945 -5323.575607258615
2946 -5322.626884954417
2947 -5321.457552097786
2948 -5320.597543055165
2949 -5319.53116563019
2950 -5318.743571878307
2951 -5317.729821395264
2952 -5316.995709195139
2953 -5316.109112800689
2954 -5315.465547165361
2955 -5314.645138236864
2956 -5314.12088403541
2957 -5313.432732449585
2958 -5312.995984172518
2959 -5312.369480097082
2960 -5312.004675722847
2961 -5311.497675470465
2962 -5311.250571099849
2963 -5310.815753016756
2964 -5310.658997751822
2965 -5310.315554953067
2966 -5310.254534301385
2967 -5310.008159141585
2968 -5309.987856117247
2969 -5309.782915286509
2970 -5309.819240694743
2971 -5309.64715592111
2972 -5309.699616897042
2973 -5309.55082148145
2974 -5309.630383214055
2975 -5309.494732247968
2976 -5309.591582264269
2977 -5309.472778505254
2978 -5309.539249393679
2979 -5309.379096313962
2980 -5309.42046959439
2981 -5309.2241703344
2982 -5309.271703307825
2983 -5309.06607482892
2984 -5309.045448472174
2985 -5308.799780797888
2986 -5308.74203594368
2987 -5308.432478625761
2988 -5308.350724390245
2989 -5308.003872156467
2990 -5307.857046674855
2991 -5307.440742518837
2992 -5307.241992403842
2993 -5306.788920472008
2994 -5306.52623613198
2995 -5306.014400694698
2996 -5305.754163614923
2997 -5305.211096073826
2998 -5304.865416208919
2999 -5304.281787295946
3000 -5303.898827038057
3001 -5303.285116289729
3002 -5302.834103710622
3003 -5302.137210455676
3004 -5301.641484289762
3005 -5300.909326550376
3006 -5300.390494127671
3007 -5299.631614124815
3008 -5299.083959727219
3009 -5298.291317069964
3010 -5297.684894262633
3011 -5296.828108605652
3012 -5296.19783558775
3013 -5295.323662998409
3014 -5294.703275946709
3015 -5293.823819121581
3016 -5293.139744008535
3017 -5292.268501060646
3018 -5291.60066475649
3019 -5290.713845503742
3020 -5290.052365705666
3021 -5289.147667945786
3022 -5288.514920089367
3023 -5287.665512263808
3024 -5287.036290546762
3025 -5286.221080073953
3026 -5285.623169694674
3027 -5284.826289893465
3028 -5284.281765667618
3029 -5283.550860789351
3030 -5283.072011736954
3031 -5282.399329556621
3032 -5281.991860214522
3033 -5281.39155717812
3034 -5281.037712173142
3035 -5280.522011693697
3036 -5280.257298960331
3037 -5279.8053087781
3038 -5279.61970990068
3039 -5279.258314966742
3040 -5279.136288072607
3041 -5278.878815073552
3042 -5278.867385904039
3043 -5278.735683165591
3044 -5278.853724037393
3045 -5278.794596991952
3046 -5279.03435041263
3047 -5279.090270172732
3048 -5279.417599208837
3049 -5279.581764370636
3050 -5279.984835700867
3051 -5280.207312575651
3052 -5280.722929702287
3053 -5281.019267687061
3054 -5281.606035297056
3055 -5281.999701189469
3056 -5282.646353110274
3057 -5283.100395944549
3058 -5283.847703126271
3059 -5284.402580751975
3060 -5285.24310704927
3061 -5285.872542570887
3062 -5286.770653968259
3063 -5287.432632015743
3064 -5288.355622373515
3065 -5289.084208365438
3066 -5290.04325810002
3067 -5290.798121996446
3068 -5291.808271839335
3069 -5292.60134233902
3070 -5293.64535022347
3071 -5294.456702247791
3072 -5295.472226847329
3073 -5296.283871226942
3074 -5297.314128473636
3075 -5298.142571657206
3076 -5299.188929024139
3077 -5300.015883448582
3078 -5301.092224317207
3079 -5301.90351258006
3080 -5302.914530462366
3081 -5303.706694259862
3082 -5304.67847647934
3083 -5305.418276105865
3084 -5306.370975741631
3085 -5307.078923624258
3086 -5307.981325483111
3087 -5308.607783040743
3088 -5309.419681199456
3089 -5309.984607706383
3090 -5310.77541946956
3091 -5311.26509202649
3092 -5311.962047233425
3093 -5312.359203470463
3094 -5312.959066937759
3095 -5313.321574709516
3096 -5313.873222146902
3097 -5314.173891513316
3098 -5314.648048190978
3099 -5314.835208564262
3100 -5315.235762276811
3101 -5315.375347439103
3102 -5315.748845133362
3103 -5315.821413792372
3104 -5316.125215257907
3105 -5316.112143114495
3106 -5316.285265300952
3107 -5316.206888152732
3108 -5316.343968793914
3109 -5316.176974964233
3110 -5316.236763423689
3111 -5316.019295724354
3112 -5316.010345442663
3113 -5315.74003541176
3114 -5315.664353943702
3115 -5315.344444179475
3116 -5315.228545132095
3117 -5314.867763623422
3118 -5314.728028609071
3119 -5314.330069199015
3120 -5314.179921344773
3121 -5313.750397115483
3122 -5313.556549171211
3123 -5313.132008568916
3124 -5312.957666055151
3125 -5312.558166491849
3126 -5312.401787389463
3127 -5311.999497712825
3128 -5311.852616344679
3129 -5311.480408477816
3130 -5311.324598815759
3131 -5310.967097589338
3132 -5310.858861239298
3133 -5310.512219366262
3134 -5310.436028707687
3135 -5310.143534201609
3136 -5310.119586485357
3137 -5309.874925508965
3138 -5309.878628449223
3139 -5309.672130991106
3140 -5309.754968110163
3141 -5309.6265477783
3142 -5309.780411129509
3143 -5309.718139953421
3144 -5309.920339793643
3145 -5309.925433988385
3146 -5310.170115355797
3147 -5310.214950582598
3148 -5310.523270875057
3149 -5310.596351016621
3150 -5310.95314013275
3151 -5311.083450175314
3152 -5311.445177716335
3153 -5311.602523696645
3154 -5311.992096789955
3155 -5312.16214184239
3156 -5312.589402848214
3157 -5312.773078577006
3158 -5313.221499714283
3159 -5313.401259983272
3160 -5313.843532220117
3161 -5314.026539282261
3162 -5314.490632258572
3163 -5314.702052674703
3164 -5315.146338106751
3165 -5315.321361707222
3166 -5315.756461684812
3167 -5315.956573624867
3168 -5316.376688045831
3169 -5316.555159963065
3170 -5316.97491541254
3171 -5317.148698135498
3172 -5317.568222826419
3173 -5317.741930306511
3174 -5318.149636937758
3175 -5318.315580472801
3176 -5318.737097930562
3177 -5318.905862935649
3178 -5319.302285176912
3179 -5319.432437398801
3180 -5319.84330333787
3181 -5319.991915268974
3182 -5320.375219211008
3183 -5320.512774230121
3184 -5320.890739040945
3185 -5321.04181514867
3186 -5321.412484469377
3187 -5321.516464738203
3188 -5321.867386815619
3189 -5321.955559157906
3190 -5322.271028789731
3191 -5322.322246283502
3192 -5322.598501686852
3193 -5322.628319053371
3194 -5322.857100426455
3195 -5322.824312157356
3196 -5322.985979536385
3197 -5322.908517568811
3198 -5323.014947759506
3199 -5322.873053250196
3200 -5322.926370017379
3201 -5322.738448268658
3202 -5322.72403250496
3203 -5322.460037429951
3204 -5322.391761151261
3205 -5322.072048623853
3206 -5321.931081065515
3207 -5321.543786116348
3208 -5321.339780371921
3209 -5320.858171875864
3210 -5320.60593795324
3211 -5320.070936396942
3212 -5319.734696368871
3213 -5319.1506828338
3214 -5318.729911839042
3215 -5318.09614948828
3216 -5317.699044184112
3217 -5317.054070364939
3218 -5316.614168313033
3219 -5315.951431796846
3220 -5315.489567830497
3221 -5314.791141586623
3222 -5314.323192842809
3223 -5313.615883503968
3224 -5313.172391612962
3225 -5312.487692224301
3226 -5312.027521623128
3227 -5311.33577691663
3228 -5310.87064130967
3229 -5310.235576005979
3230 -5309.787726487083
3231 -5309.136044295745
3232 -5308.728853547619
3233 -5308.117291653412
3234 -5307.742329545049
3235 -5307.148934257165
3236 -5306.800810069511
3237 -5306.251323922438
3238 -5305.950602800578
3239 -5305.420868938379
3240 -5305.169496300527
3241 -5304.701676951267
3242 -5304.463008735157
3243 -5304.019538638695
3244 -5303.853660631099
3245 -5303.447184431153
3246 -5303.319178944678
3247 -5302.961305396802
3248 -5302.875386007138
3249 -5302.576676991001
3250 -5302.547648657111
3251 -5302.265607812304
3252 -5302.277504092139
3253 -5302.055039290417
3254 -5302.071136691603
3255 -5301.902803155399
3256 -5301.954565438207
3257 -5301.797439595685
3258 -5301.896404891282
3259 -5301.747511080594
3260 -5301.904334749281
3261 -5301.828596024634
3262 -5301.988286471709
3263 -5301.929222916904
3264 -5302.16504875608
3265 -5302.167775510919
3266 -5302.424026202424
3267 -5302.490070519031
3268 -5302.770186458094
3269 -5302.867851669508
3270 -5303.199054764342
3271 -5303.308047285698
3272 -5303.686293869592
3273 -5303.829513958202
3274 -5304.261742734998
3275 -5304.407247207098
3276 -5304.887769872616
3277 -5305.105169315827
3278 -5305.605002564589
3279 -5305.811326706167
3280 -5306.335603625034
3281 -5306.591371607064
3282 -5307.113315765697
3283 -5307.365145986543
3284 -5307.888715952366
3285 -5308.151972646559
3286 -5308.680495282559
3287 -5308.917258238251
3288 -5309.423278470874
3289 -5309.681800337084
3290 -5310.144731606436
3291 -5310.347346075684
3292 -5310.829709229862
3293 -5311.025628016234
3294 -5311.462449392706
3295 -5311.622313009021
3296 -5312.044843617364
3297 -5312.206935091369
3298 -5312.607001500609
3299 -5312.691366277644
3300 -5313.066548995721
3301 -5313.162013282955
3302 -5313.489675243143
3303 -5313.546998733604
3304 -5313.855757701564
3305 -5313.908230077764
3306 -5314.186388821327
3307 -5314.184407273077
3308 -5314.445468330667
3309 -5314.430743558068
3310 -5314.669150735506
3311 -5314.618129899812
3312 -5314.832814377021
3313 -5314.794775335354
3314 -5314.975562423709
3315 -5314.894953510201
3316 -5315.096055822917
3317 -5315.015384948131
3318 -5315.207216900055
3319 -5315.136459661872
3320 -5315.336145790789
3321 -5315.289668961488
3322 -5315.485922486479
3323 -5315.418786988802
3324 -5315.647121760507
3325 -5315.618005645904
3326 -5315.848376666059
3327 -5315.828103847932
3328 -5316.08339377359
3329 -5316.102432985941
3330 -5316.368085424411
3331 -5316.394721458106
3332 -5316.695422778919
3333 -5316.749882179152
3334 -5317.071794580059
3335 -5317.132601927873
3336 -5317.477406917239
3337 -5317.586922281343
3338 -5317.935302318657
3339 -5318.038404189894
3340 -5318.414547202337
3341 -5318.537063277609
3342 -5318.89966425413
3343 -5319.008225162629
3344 -5319.390773927808
3345 -5319.538739325874
3346 -5319.936739058989
3347 -5320.073523747692
3348 -5320.481598442494
3349 -5320.650151827616
3350 -5321.05852251239
3351 -5321.193216786622
3352 -5321.617684278431
3353 -5321.80413263282
3354 -5322.213483346774
3355 -5322.381012139358
3356 -5322.779592166809
3357 -5322.948974916853
3358 -5323.36365622578
3359 -5323.527577361279
3360 -5323.959368209968
3361 -5324.140076554616
3362 -5324.546471681028
3363 -5324.715367528302
3364 -5325.116793331701
3365 -5325.2938800885
3366 -5325.697974420531
3367 -5325.850102994958
3368 -5326.265250243703
3369 -5326.41385563857
3370 -5326.814088613261
3371 -5326.961371045228
3372 -5327.346906091305
3373 -5327.495129232839
3374 -5327.868426840523
3375 -5327.970771031874
3376 -5328.346457799335
3377 -5328.467152270869
3378 -5328.785040827434
3379 -5328.852973015127
3380 -5329.158890387735
3381 -5329.194451192234
3382 -5329.483479947714
3383 -5329.500127797443
3384 -5329.747649750406
3385 -5329.746277493627
3386 -5329.96292655934
3387 -5329.930342011004
3388 -5330.125493397066
3389 -5330.044482434883
3390 -5330.190895837648
3391 -5330.045524893667
3392 -5330.155627982426
3393 -5330.007626213845
3394 -5330.034367607606
3395 -5329.852155399666
3396 -5329.870579276063
3397 -5329.659165669753
3398 -5329.626717889552
3399 -5329.364684785794
3400 -5329.309674875358
3401 -5329.011677752505
3402 -5328.878538101647
3403 -5328.548843415451
3404 -5328.408667679395
3405 -5328.011600492278
3406 -5327.829883495967
3407 -5327.392361552733
3408 -5327.159847390094
3409 -5326.700981614058
3410 -5326.431732408166
3411 -5325.93645909544
3412 -5325.634346188504
3413 -5325.115149469081
3414 -5324.804896495785
3415 -5324.252943318295
3416 -5323.908605891835
3417 -5323.350006053123
3418 -5322.979963236986
3419 -5322.398206044589
3420 -5322.032094223309
3421 -5321.427075238519
3422 -5321.054416115945
3423 -5320.419545813518
3424 -5320.017596601097
3425 -5319.385328495772
3426 -5318.964933405978
3427 -5318.336221789683
3428 -5317.893441435834
3429 -5317.244997886309
3430 -5316.833195786273
3431 -5316.191294565144
3432 -5315.773349607016
3433 -5315.129176696171
3434 -5314.715587850451
3435 -5314.071327496293
3436 -5313.653610129865
3437 -5313.038168284776
3438 -5312.62017365573
3439 -5312.011463895898
3440 -5311.601983024833
3441 -5311.003016170913
3442 -5310.6150627537
3443 -5310.000494743203
3444 -5309.647990407726
3445 -5309.050781229792
3446 -5308.669679058603
3447 -5308.076598978978
3448 -5307.702606980288
3449 -5307.118962373229
3450 -5306.747267507483
3451 -5306.140521673046
3452 -5305.803915692565
3453 -5305.201015124841
3454 -5304.844380513139
3455 -5304.229899287844
3456 -5303.881679995874
3457 -5303.258796882441
3458 -5302.886787667006
3459 -5302.246549184817
3460 -5301.890823726352
3461 -5301.267719139535
3462 -5300.867796801726
3463 -5300.221366716317
3464 -5299.81390252794
3465 -5299.169840503326
3466 -5298.756877786112
3467 -5298.093046289146
3468 -5297.707623153637
3469 -5297.056448589895
3470 -5296.636438197246
3471 -5295.997561745151
3472 -5295.590354727143
3473 -5294.929899401542
3474 -5294.506902861785
3475 -5293.845501068881
3476 -5293.435789127911
3477 -5292.77906274609
3478 -5292.369601502674
3479 -5291.717765583064
3480 -5291.341795210183
3481 -5290.714124547237
3482 -5290.341252169745
3483 -5289.742886866989
3484 -5289.421842187953
3485 -5288.835859821374
3486 -5288.508261500956
3487 -5287.959841280405
3488 -5287.675367290251
3489 -5287.150389984225
3490 -5286.881018907365
3491 -5286.349338599103
3492 -5286.113011338608
3493 -5285.616484203348
3494 -5285.374620440968
3495 -5284.897022017173
3496 -5284.709049323242
3497 -5284.26003777765
3498 -5284.067644822474
3499 -5283.621228531175
3500 -5283.471084954002
3501 -5283.085276732445
3502 -5282.951690523077
3503 -5282.582710899004
3504 -5282.462600805286
3505 -5282.134918929535
3506 -5282.038161436606
3507 -5281.71628159416
3508 -5281.645762935626
3509 -5281.345560249609
3510 -5281.286322995998
3511 -5281.000892557918
3512 -5280.95220304392
3513 -5280.678668383121
3514 -5280.641082386102
3515 -5280.364339627449
3516 -5280.329897813407
3517 -5280.062931752974
3518 -5280.014856904792
3519 -5279.741403750084
3520 -5279.69652179048
3521 -5279.406166108393
3522 -5279.349469439738
3523 -5279.040300613965
3524 -5278.97775283983
3525 -5278.656470733004
3526 -5278.544860211543
3527 -5278.235719515124
3528 -5278.131658246813
3529 -5277.789960603834
3530 -5277.679646916788
3531 -5277.316280829987
3532 -5277.198482144449
3533 -5276.828302043441
3534 -5276.66389256346
3535 -5276.281391404087
3536 -5276.113908524934
3537 -5275.711558860927
3538 -5275.565649207861
3539 -5275.154572886136
3540 -5274.983495563211
3541 -5274.58492572963
3542 -5274.431143322898
3543 -5274.050158199866
3544 -5273.931029119058
3545 -5273.581280532404
3546 -5273.475847985279
3547 -5273.121809816881
3548 -5273.053029205888
3549 -5272.757971344528
3550 -5272.714328775934
3551 -5272.439711549518
3552 -5272.43511971127
3553 -5272.212980311456
3554 -5272.252015262127
3555 -5272.053143060861
3556 -5272.141436139345
3557 -5272.000525744079
3558 -5272.128554069704
3559 -5272.036820892366
3560 -5272.205647695572
3561 -5272.148990100347
3562 -5272.362160705434
3563 -5272.338524150831
3564 -5272.610444798355
3565 -5272.643037597702
3566 -5272.932589941859
3567 -5272.989215414243
3568 -5273.327589598507
3569 -5273.435329123727
3570 -5273.79173274512
3571 -5273.906794438096
3572 -5274.307301416945
3573 -5274.455491822256
3574 -5274.867096120112
3575 -5275.035335832106
3576 -5275.4662597564
3577 -5275.674074567186
3578 -5276.107795272194
3579 -5276.300581496684
3580 -5276.775683895874
3581 -5276.994287532738
3582 -5277.450711118093
3583 -5277.664704640281
3584 -5278.137373338907
3585 -5278.369247829372
3586 -5278.851213066609
3587 -5279.079698531798
3588 -5279.594445196591
3589 -5279.855050306576
3590 -5280.34473302252
3591 -5280.596722214276
3592 -5281.110106161263
3593 -5281.382940846764
3594 -5281.902035062314
3595 -5282.131722040991
3596 -5282.64367615003
3597 -5282.915674448531
3598 -5283.412793268988
3599 -5283.66850499539
3600 -5284.159028421654
3601 -5284.412527015508
3602 -5284.911197854102
3603 -5285.136023076472
3604 -5285.637784210464
3605 -5285.882930862812
3606 -5286.366989846641
3607 -5286.572391655148
3608 -5287.021552371883
3609 -5287.213768685034
3610 -5287.661483123463
3611 -5287.837996363458
3612 -5288.244027934867
3613 -5288.41385104697
3614 -5288.796247637166
3615 -5288.9306329646
3616 -5289.315267513551
3617 -5289.42269630491
3618 -5289.778896554345
3619 -5289.8681846833
3620 -5290.180547926485
3621 -5290.253722481448
3622 -5290.571220950168
3623 -5290.633864585634
3624 -5290.948032525666
3625 -5291.013675556971
3626 -5291.286053427274
3627 -5291.323526968876
3628 -5291.607345217489
3629 -5291.63590053277
3630 -5291.928174158262
3631 -5291.931859318208
3632 -5292.19095356161
3633 -5292.208148376259
3634 -5292.442697694819
3635 -5292.422362109981
3636 -5292.654874541966
3637 -5292.631542094753
3638 -5292.841761445829
3639 -5292.794668915276
