"y-rfile"
"Iteration" "y"
("Iteration" "y")
1 -23763.18785052953
2 -23195.10555078487
3 -20851.58973847956
4 -18685.75902936421
5 -16027.64351725648
6 -13407.9951160877
7 -11463.32598426538
8 -9074.590741790305
9 -6723.982972427289
10 -4745.341639394876
11 -2981.994234920518
12 -1866.169186613565
13 -1071.731304664305
14 -641.4733662471941
15 -442.9840785723859
16 -440.9778913816916
17 -578.9365019203824
18 -823.9157700610324
19 -1144.55945393682
20 -1591.416234469398
21 -2133.894972176115
22 -2666.80325308795
23 -3172.00091041593
24 -3642.430518219284
25 -4046.114679916901
26 -4342.015854998039
27 -4601.450443543386
28 -4781.358377653715
29 -4932.952134627832
30 -5034.257466126099
31 -5120.047161228507
32 -5190.604394998966
33 -5247.489971272621
34 -5302.111107072666
35 -5333.378488332777
36 -5360.944336517613
37 -5377.220548935625
38 -5386.047573997753
39 -5387.616670630566
40 -5386.42651000736
41 -5383.406471951348
42 -5380.965228014393
43 -5378.812695732918
44 -5378.643969909301
45 -5380.259118926826
46 -5384.886395414379
47 -5392.295722786563
48 -5402.5599866059
49 -5415.071305578955
50 -5430.200152369636
51 -5447.661770955169
52 -5467.432322908836
53 -5488.270232004827
54 -5510.427937403684
55 -5533.606483164449
56 -5557.499268262191
57 -5581.178199970654
58 -5597.303260975143
59 -5621.939139272824
60 -5638.216878174607
61 -5662.057056736303
62 -5684.920767706083
63 -5706.131378787564
64 -5725.824299150438
65 -5743.277964654208
66 -5758.968554329224
67 -5772.689619361486
68 -5784.621865459579
69 -5794.59339201399
70 -5803.202147822441
71 -5810.055964556745
72 -5815.630776289247
73 -5819.916411037135
74 -5822.895753364408
75 -5825.282214802185
76 -5826.945950695154
77 -5828.00408883608
78 -5828.372047956143
79 -5828.434017530027
80 -5828.566808971984
81 -5828.263459346963
82 -5827.942841418363
83 -5827.660769810111
84 -5827.365136758256
85 -5827.16400218833
86 -5827.267152400876
87 -5827.214453464582
88 -5827.848947293333
89 -5828.533457748082
90 -5829.21792671403
91 -5829.766100331739
92 -5830.441056416029
93 -5830.711371788798
94 -5831.517761795602
95 -5831.895198099735
96 -5832.333797924271
97 -5833.012713933974
98 -5833.323934672703
99 -5833.166715358128
100 -5833.010627064311
101 -5832.828614720327
102 -5832.387433338825
103 -5831.594201752742
104 -5830.396019617445
105 -5829.224017966459
106 -5827.60849791265
107 -5826.348415563066
108 -5824.560651557309
109 -5822.859653540086
110 -5820.659182681708
111 -5818.386377237465
112 -5815.718080348885
113 -5813.348544916105
114 -5810.428183758124
115 -5807.705160961115
116 -5805.236714748865
117 -5802.604083544337
118 -5799.65900098666
119 -5796.830107751623
120 -5794.221360181749
121 -5791.559791342013
122 -5788.627190783007
123 -5786.638964643869
124 -5784.407362169195
125 -5781.457266324378
126 -5779.637055102334
127 -5777.35113274279
128 -5774.664027820778
129 -5772.475306989536
130 -5769.544643944248
131 -5767.493292955244
132 -5765.029927996185
133 -5762.966173615004
134 -5760.618600780173
135 -5758.983761117875
136 -5756.682825256852
137 -5755.039136100331
138 -5753.406255052308
139 -5752.240473058692
140 -5750.644231118109
141 -5748.769174173909
142 -5747.41951708743
143 -5745.818384527592
144 -5744.634902845954
145 -5743.275776305018
146 -5741.987375289055
147 -5740.952293035595
148 -5739.837617252754
149 -5739.355135130775
150 -5737.758882008016
151 -5737.111114295167
152 -5736.909901023334
153 -5736.266710697127
154 -5735.319043785338
155 -5734.869864229196
156 -5734.578266310446
157 -5734.326421099669
158 -5734.189987128218
159 -5733.65114380121
160 -5734.126201799947
161 -5734.388418364623
162 -5734.313519991003
163 -5733.691746524499
164 -5734.27438461182
165 -5734.595401886222
166 -5735.352360672164
167 -5735.94345847137
168 -5736.028587744029
169 -5735.828279456985
170 -5735.880844214886
171 -5736.752696767728
172 -5736.70854382362
173 -5737.097196100196
174 -5737.916392719452
175 -5739.261793718456
176 -5739.13662645257
177 -5739.311977123556
178 -5739.223234305902
179 -5738.392493041892
180 -5738.151295685034
181 -5738.468284502964
182 -5738.934244610047
183 -5739.428489381258
184 -5738.806320740766
185 -5739.161161636309
186 -5739.24123746503
187 -5739.969036184566
188 -5739.569353444241
189 -5738.580666514647
190 -5738.736411433781
191 -5739.012126515156
192 -5739.032127995839
193 -5739.116746742414
194 -5738.550217754788
195 -5738.389508260875
196 -5738.869906621537
197 -5739.434573510722
198 -5739.641240829581
199 -5739.480913374991
200 -5740.318941041395
201 -5741.254294965614
202 -5742.752737437638
203 -5744.730129510197
204 -5747.000357156898
205 -5749.295823962588
206 -5750.915947334071
207 -5753.951338152012
208 -5756.560276296605
209 -5760.80636857876
210 -5763.971120737129
211 -5769.297567936816
212 -5773.816151077467
213 -5777.590353395177
214 -5783.543803666154
215 -5789.030490607216
216 -5795.137562237821
217 -5802.267639241138
218 -5808.556681846144
219 -5816.047424876182
220 -5823.337810264496
221 -5830.689865301611
222 -5839.376489365512
223 -5848.05045263397
224 -5857.183426787107
225 -5867.12267579999
226 -5877.499743441447
227 -5887.948010922017
228 -5899.289322596465
229 -5911.541956142656
230 -5924.011301757139
231 -5936.422449496977
232 -5949.524919883944
233 -5967.515326479439
234 -5981.99382860883
235 -5996.262064662977
236 -6010.338566067048
237 -6027.725528665032
238 -6041.562049263788
239 -6055.798789113638
240 -6073.858073702489
241 -6089.006048364969
242 -6104.201667503927
243 -6123.935313929236
244 -6139.794123464356
245 -6158.002220041406
246 -6173.656163791897
247 -6192.486030645149
248 -6208.013155956781
249 -6227.267150489769
250 -6243.688209459459
251 -6264.608289097824
252 -6281.202678188271
253 -6300.915278653776
254 -6318.091715556902
255 -6339.979021922033
256 -6357.135662802226
257 -6379.443146781992
258 -6396.93318315177
259 -6419.20282502411
260 -6436.953625494187
261 -6459.060543813613
262 -6477.463277030617
263 -6501.144607086597
264 -6520.48478782748
265 -6543.82337837869
266 -6563.025026363969
267 -6586.309728510626
268 -6606.312141028443
269 -6630.241110567634
270 -6649.933385307237
271 -6673.348246111925
272 -6692.788194498869
273 -6718.55338997724
274 -6738.778149273242
275 -6764.022749908527
276 -6784.503528505804
277 -6808.955418148369
278 -6829.047894171924
279 -6854.066817506087
280 -6873.942877446503
281 -6899.119852239106
282 -6920.168820608153
283 -6940.70870475956
284 -6966.424335756968
285 -6986.926917227709
286 -7012.075332467447
287 -7031.79288400141
288 -7056.663745322025
289 -7077.513317080037
290 -7098.963566960096
291 -7124.730061962601
292 -7145.889074340642
293 -7171.650404162903
294 -7192.547281733108
295 -7213.013301744551
296 -7237.944111842703
297 -7258.192543666559
298 -7278.273040409637
299 -7304.340384448064
300 -7324.567425400394
301 -7344.616260988999
302 -7363.823566783913
303 -7389.277861152545
304 -7409.051913177277
305 -7427.783983261153
306 -7451.537977081886
307 -7470.76847327384
308 -7490.618509983989
309 -7508.881426029072
310 -7528.002200617369
311 -7550.033108971437
312 -7567.443018456713
313 -7584.283480697855
314 -7601.330961032698
315 -7617.78818056748
316 -7635.196014628268
317 -7651.213990457969
318 -7666.902810998722
319 -7682.983310063389
320 -7697.704945920712
321 -7712.771626464163
322 -7728.251072115338
323 -7741.889685010338
324 -7756.661100185887
325 -7770.274688768267
326 -7783.040552047341
327 -7794.378648424533
328 -7805.367886373449
329 -7816.576574598112
330 -7827.309560214604
331 -7836.5270042467
332 -7846.999033862005
333 -7856.009024330826
334 -7862.948053089629
335 -7869.286439016369
336 -7874.652513276123
337 -7879.051131941457
338 -7883.567206747606
339 -7885.945699231044
340 -7886.981194472784
341 -7888.257902731514
342 -7888.868089666755
343 -7888.006143639468
344 -7885.644031137585
345 -7882.287850466839
346 -7879.451746587256
347 -7874.377163280912
348 -7869.241845130586
349 -7862.086039056586
350 -7855.035442330587
351 -7843.230731737515
352 -7834.666103509789
353 -7822.809407111674
354 -7813.03682484779
355 -7798.482317732935
356 -7786.695293785625
357 -7769.12866939275
358 -7755.584170963007
359 -7736.884196512572
360 -7721.488104128203
361 -7700.187200140435
362 -7683.928849341746
363 -7660.249674971308
364 -7640.846093612556
365 -7614.173772782802
366 -7593.143495676482
367 -7564.096535257576
368 -7535.676037263666
369 -7512.588775362858
370 -7481.520452674173
371 -7449.887717501536
372 -7425.996201499487
373 -7393.205032686235
374 -7360.619804299961
375 -7327.900418135731
376 -7294.550335179197
377 -7261.320167070767
378 -7236.126736545792
379 -7201.095552514287
380 -7166.000394712764
381 -7130.341548998993
382 -7095.516835004039
383 -7060.35207417924
384 -7025.190521781852
385 -6989.745310187071
386 -6962.433089321509
387 -6925.041925408336
388 -6888.350281981115
389 -6851.64539463614
390 -6815.232983448092
391 -6787.822977144385
392 -6751.009986286562
393 -6714.534333094114
394 -6687.068362724806
395 -6649.512858659602
396 -6621.57844119259
397 -6585.032574516158
398 -6557.039663639513
399 -6519.55432298486
400 -6492.344139499425
401 -6455.557630216626
402 -6428.331747023469
403 -6401.556391587364
404 -6366.694317043712
405 -6340.307665588327
406 -6314.112271095517
407 -6287.676012146894
408 -6261.431257903539
409 -6234.96157696669
410 -6208.940828077897
411 -6182.736822753983
412 -6156.954713372439
413 -6131.604231853015
414 -6106.400905296059
415 -6082.063393781649
416 -6058.209950056464
417 -6034.258463551334
418 -6011.392369484838
419 -5988.599497358823
420 -5967.051287281629
421 -5952.619796789125
422 -5930.656009559286
423 -5909.015407724885
424 -5895.146806916027
425 -5873.09517103738
426 -5858.460181656837
427 -5837.084829359151
428 -5822.403218655969
429 -5799.913273186676
430 -5784.739578162205
431 -5762.526985525717
432 -5747.705074047855
433 -5725.372379577889
434 -5711.12737677903
435 -5688.732705066172
436 -5674.414324472739
437 -5653.490984685674
438 -5640.059321266557
439 -5618.926331836774
440 -5605.365692643899
441 -5584.768882563922
442 -5571.85918159364
443 -5552.728031636113
444 -5540.016582549202
445 -5520.637443761375
446 -5507.959460213002
447 -5489.436989075953
448 -5477.639743439358
449 -5460.487673059846
450 -5448.963462482697
451 -5431.381110244955
452 -5414.865115360622
453 -5404.117009613371
454 -5388.2702913173
455 -5373.461478535047
456 -5359.431094402996
457 -5346.387860524038
458 -5333.504008633367
459 -5320.859756396051
460 -5309.304593810259
461 -5297.437397643995
462 -5286.646488576451
463 -5276.056320170773
464 -5266.202455457164
465 -5256.49579619394
466 -5247.226238708484
467 -5240.895327528397
468 -5231.992700925845
469 -5223.994833634841
470 -5215.523453311225
471 -5210.263520862993
472 -5202.131972486135
473 -5194.524467417901
474 -5189.666929479239
475 -5182.783499359876
476 -5178.435183962154
477 -5171.754285427884
478 -5168.182943436703
479 -5162.951140503565
480 -5159.786322649056
481 -5155.325701733976
482 -5152.815182012905
483 -5149.344552522868
484 -5147.729784543733
485 -5146.344780340018
486 -5145.929939315296
487 -5146.053065914622
488 -5146.453802435071
489 -5147.956335538891
490 -5149.38914290687
491 -5152.326529947069
492 -5155.276841565032
493 -5160.438324541742
494 -5164.344256872759
495 -5171.155342111123
496 -5176.434767315413
497 -5184.858470658225
498 -5191.281635516727
499 -5201.336458236642
500 -5208.731876272191
501 -5220.30050621689
502 -5232.698607643208
503 -5241.365573241313
504 -5254.765272032139
505 -5268.702135305125
506 -5283.000090073176
507 -5297.318215077817
508 -5311.742276390059
509 -5326.20435297526
510 -5340.604431132097
511 -5354.734489956481
512 -5368.608183638081
513 -5382.170840740592
514 -5395.580301085682
515 -5408.480828480683
516 -5421.104871710072
517 -5433.245765495863
518 -5445.177499259162
519 -5456.206212554595
520 -5466.803095256312
521 -5476.81416976496
522 -5486.198868651463
523 -5494.982091972209
524 -5503.000489398867
525 -5510.159059477924
526 -5517.006933288716
527 -5523.262732144357
528 -5528.53597645863
529 -5533.260105447464
530 -5537.167989381948
531 -5539.784788660338
532 -5541.609778541181
533 -5543.309446676923
534 -5544.534150751051
535 -5544.640493165903
536 -5544.202175447325
537 -5543.665067704111
538 -5542.795763858838
539 -5542.245169991201
540 -5540.587011242117
541 -5539.066724168109
542 -5536.677736293233
543 -5534.592052590761
544 -5530.936979867271
545 -5528.151078733339
546 -5523.780978657249
547 -5520.87840245085
548 -5516.491586800024
549 -5513.329643962385
550 -5508.367106208088
551 -5504.906872717577
552 -5499.392782472036
553 -5493.655173775138
554 -5489.459140974683
555 -5483.264467200626
556 -5477.436122552275
557 -5471.694439409644
558 -5466.373476745463
559 -5461.134489622429
560 -5455.972011650666
561 -5452.764127913405
562 -5447.951474425473
563 -5443.303624011712
564 -5438.722619628959
565 -5434.661153823369
566 -5430.90002672086
567 -5427.716584460632
568 -5424.613926215322
569 -5422.354143809355
570 -5420.028973317077
571 -5418.520757713223
572 -5417.185283936497
573 -5416.046192099624
574 -5415.3185547386
575 -5414.715362200976
576 -5414.885533230836
577 -5415.334601232629
578 -5415.99834316116
579 -5416.854098212375
580 -5417.825385503968
581 -5419.034623304081
582 -5420.854016225699
583 -5422.611990111266
584 -5424.881020001863
585 -5427.258814906077
586 -5429.703932983718
587 -5432.734868777254
588 -5435.752581902264
589 -5438.89698604874
590 -5442.066604451024
591 -5445.765582002492
592 -5448.888289734789
593 -5452.18270894291
594 -5455.201415523897
595 -5458.560092920191
596 -5461.476552610655
597 -5464.150104805167
598 -5467.312935129833
599 -5469.889085223883
600 -5472.173649923138
601 -5474.600496515676
602 -5476.611771457764
603 -5477.864244724507
604 -5479.18869691786
605 -5480.395251781032
606 -5481.12111459538
607 -5481.322187511208
608 -5481.057375335881
609 -5480.722688899543
610 -5480.087023526622
611 -5479.197088130103
612 -5477.905391113028
613 -5475.750130887903
614 -5474.196566404737
615 -5471.017799298173
616 -5468.918290468473
617 -5465.23855183464
618 -5462.630200635513
619 -5459.761984821612
620 -5456.384200713804
621 -5451.07694940916
622 -5447.385073728384
623 -5443.588858454887
624 -5439.503106553567
625 -5435.24170253352
626 -5428.593991478691
627 -5424.247215138878
628 -5419.517439287036
629 -5414.822570404885
630 -5407.598176820724
631 -5402.673839068657
632 -5397.654605235216
633 -5390.318717569467
634 -5385.337773349584
635 -5380.334586987282
636 -5372.807842834617
637 -5367.758992853654
638 -5362.879652093988
639 -5355.751522635212
640 -5350.815688614133
641 -5346.154617414205
642 -5338.477667937207
643 -5333.817935881554
644 -5329.518277803993
645 -5322.831782927787
646 -5318.360770558963
647 -5313.884502609896
648 -5307.693809663959
649 -5303.27202101686
650 -5299.11213613273
651 -5293.12613273357
652 -5289.400841435116
653 -5285.750045840979
654 -5279.953526503562
655 -5276.164819714008
656 -5272.307195493698
657 -5266.742983657178
658 -5262.893504075871
659 -5259.268129164958
660 -5253.763233553471
661 -5249.839430111736
662 -5243.989346841051
663 -5240.402997476843
664 -5236.711650476271
665 -5231.484077416332
666 -5227.792913466272
667 -5222.070132520314
668 -5218.366982263002
669 -5214.461625402359
670 -5208.697701128218
671 -5204.926756583625
672 -5200.897773694024
673 -5195.176422755089
674 -5191.219218066779
675 -5187.338332607268
676 -5183.362365663893
677 -5179.386202935525
678 -5175.271703573846
679 -5171.407006636398
680 -5167.40840274187
681 -5163.381439285135
682 -5159.422659529335
683 -5155.260529300237
684 -5151.087573076513
685 -5147.227333874635
686 -5143.232124500812
687 -5139.181137368839
688 -5135.295756529545
689 -5131.344664551755
690 -5127.473279410934
691 -5123.884423304942
692 -5120.329889016362
693 -5116.963278519124
694 -5113.6061485021
695 -5110.330205262753
696 -5107.15023255725
697 -5104.083645545358
698 -5101.173118647459
699 -5098.344919407549
700 -5095.637351663603
701 -5092.983077278064
702 -5090.458906424029
703 -5087.936501750527
704 -5085.516226548872
705 -5083.07207828779
706 -5080.638273480956
707 -5078.357825372994
708 -5076.090073616192
709 -5073.838677739644
710 -5071.643885012332
711 -5069.474304082021
712 -5067.421155353438
713 -5065.238412253589
714 -5063.361648568906
715 -5061.437455994798
716 -5059.584316245197
717 -5057.885736449099
718 -5056.201757421827
719 -5054.668322052681
720 -5053.136604847061
721 -5051.664215703713
722 -5050.261138635738
723 -5048.885073744263
724 -5047.604321314492
725 -5046.388345619674
726 -5045.199330403838
727 -5044.253026505249
728 -5043.334085127919
729 -5042.595793750833
730 -5041.882830945884
731 -5041.367823567422
732 -5040.887155642261
733 -5040.552124483032
734 -5040.378783151245
735 -5040.23175068515
736 -5040.21529720232
737 -5040.380479568774
738 -5040.679465731175
739 -5041.122525913423
740 -5041.709124965155
741 -5042.450861739669
742 -5043.328383015491
743 -5044.302202968023
744 -5045.408114853307
745 -5046.659578139332
746 -5048.007221546045
747 -5049.413559753018
748 -5050.908530172844
749 -5052.400521472576
750 -5053.981065671147
751 -5055.530995123475
752 -5057.207978304526
753 -5058.858562931632
754 -5060.541375135082
755 -5062.185283306229
756 -5063.928190422688
757 -5065.667978409891
758 -5067.387542342586
759 -5069.089204394671
760 -5070.680869403728
761 -5072.951354019207
762 -5074.317084801878
763 -5075.694556048918
764 -5077.002592442344
765 -5078.607049075917
766 -5079.596351744545
767 -5080.395537383926
768 -5081.151968719209
769 -5081.684232389611
770 -5082.125585548778
771 -5082.473912984176
772 -5082.763109463827
773 -5082.842013271314
774 -5082.805041635555
775 -5082.604611070158
776 -5082.250641439457
777 -5081.702917510632
778 -5081.092256718738
779 -5080.371163849384
780 -5079.517026291159
781 -5078.430061913881
782 -5077.393342541885
783 -5076.262078740771
784 -5075.168723332668
785 -5073.853702485858
786 -5072.493263099472
787 -5071.062189399151
788 -5069.506613895775
789 -5067.92306303245
790 -5066.364688937456
791 -5064.75253864193
792 -5063.197468605534
793 -5060.845261217397
794 -5059.362385626881
795 -5057.816108514719
796 -5055.650907074238
797 -5054.186823794106
798 -5052.809409809618
799 -5050.751222998392
800 -5049.46126791143
801 -5047.666403424068
802 -5046.497741031996
803 -5044.770083535125
804 -5043.759103054657
805 -5042.279160704143
806 -5041.310035048577
807 -5040.346076070193
808 -5039.036144250671
809 -5038.154912035053
810 -5037.39508054713
811 -5036.301689223768
812 -5035.632103126165
813 -5034.925949123775
814 -5033.930799187623
815 -5033.201023092433
816 -5032.599704964074
817 -5031.876815573684
818 -5031.206517145844
819 -5030.472696301793
820 -5029.677195936476
821 -5028.910875019802
822 -5028.094116376245
823 -5027.207461630943
824 -5026.322424235636
825 -5025.394432361022
826 -5024.469107777233
827 -5023.586881170581
828 -5022.859852760442
829 -5021.918874597003
830 -5021.05050110978
831 -5020.052792171794
832 -5019.073637338677
833 -5018.071766843601
834 -5017.206437230058
835 -5016.348174245062
836 -5015.509906808405
837 -5014.632962605757
838 -5013.751218020835
839 -5012.77601144845
840 -5011.957362694709
841 -5011.009450288221
842 -5010.140998176906
843 -5009.333407778126
844 -5008.479348588916
845 -5007.66397837408
846 -5006.934277946536
847 -5006.032698033504
848 -5005.239213624312
849 -5004.271076207111
850 -5003.454335961398
851 -5002.592672842228
852 -5001.952786406439
853 -5000.927014711101
854 -5000.315351820998
855 -4999.640493213765
856 -4999.137538924922
857 -4998.356401963365
858 -4998.014478935364
859 -4997.557515854899
860 -4996.993890049966
861 -4996.46780506654
862 -4996.04424019927
863 -4995.400952928032
864 -4995.046259951024
865 -4994.48803783415
866 -4994.127532951057
867 -4993.494964329852
868 -4993.210370764102
869 -4992.599666977059
870 -4992.086031848826
871 -4991.612487229918
872 -4991.287020844939
873 -4990.832246604605
874 -4990.569802732383
875 -4989.847655148043
876 -4989.413990620595
877 -4988.904002724532
878 -4988.426785846593
879 -4987.901979220484
880 -4987.389089807949
881 -4986.778874360954
882 -4986.371707968101
883 -4985.708345506479
884 -4985.260042368959
885 -4984.420451820301
886 -4983.762333121374
887 -4982.910454850693
888 -4982.40760293961
889 -4981.478870871933
890 -4980.817705786909
891 -4979.903676474241
892 -4979.442103680451
893 -4978.51322260753
894 -4978.016289668556
895 -4977.280458448976
896 -4976.734963262737
897 -4975.945623019638
898 -4975.39303367618
899 -4974.767847824309
900 -4974.382282975675
901 -4973.703883342205
902 -4973.286672328382
903 -4972.808975178129
904 -4972.575122676933
905 -4972.402883329017
906 -4972.109808234861
907 -4971.980077997062
908 -4971.810205099748
909 -4971.804085147008
910 -4971.78913823207
911 -4971.833755192561
912 -4971.908159424283
913 -4971.86366918446
914 -4972.190425554803
915 -4972.408235154019
916 -4972.789445632977
917 -4973.242594151242
918 -4973.835019058602
919 -4974.309870168037
920 -4974.969201485696
921 -4975.931093606871
922 -4976.668631579468
923 -4977.369870324548
924 -4978.103426931886
925 -4978.90635257654
926 -4980.266414937288
927 -4981.170663706527
928 -4982.104481402158
929 -4983.118033570685
930 -4984.517708420269
931 -4985.427747837082
932 -4986.405876853484
933 -4987.763492811289
934 -4988.654822030519
935 -4989.821844080435
936 -4990.62143790126
937 -4991.888882256593
938 -4992.807886120721
939 -4994.013888865379
940 -4994.80640713764
941 -4996.005638275084
942 -4996.809034424404
943 -4997.88506895812
944 -4998.598342031331
945 -4999.631943384436
946 -5000.302897135121
947 -5001.226593962065
948 -5001.861297065068
949 -5002.894206206919
950 -5003.449512196165
951 -5004.282433570282
952 -5004.878565718735
953 -5005.691623218053
954 -5006.243115551519
955 -5006.844876560783
956 -5007.39462515214
957 -5008.267038144621
958 -5008.872025636911
959 -5009.739460596078
960 -5010.287978593018
961 -5011.04945144704
962 -5011.598230811418
963 -5012.41316925871
964 -5013.013351752733
965 -5013.988565380188
966 -5014.564525217196
967 -5015.593578137544
968 -5016.192303954786
969 -5016.809331735474
970 -5017.813854863213
971 -5018.361939004738
972 -5019.182155218657
973 -5019.66088162298
974 -5020.248117761938
975 -5020.945682959674
976 -5021.40258473035
977 -5021.80684320264
978 -5022.490188753024
979 -5022.846824057332
980 -5023.208840558397
981 -5023.714153535311
982 -5024.112727980859
983 -5024.44915744605
984 -5024.834121891947
985 -5025.131836422977
986 -5025.379864705511
987 -5025.835019279052
988 -5025.967752219533
989 -5025.923238861366
990 -5025.956623795142
991 -5025.931192036921
992 -5025.902183165695
993 -5025.78286703811
994 -5025.724907573164
995 -5025.511759871224
996 -5025.329766430325
997 -5024.974909007806
998 -5024.71050399012
999 -5024.286576377817
1000 -5024.031897188183
1001 -5023.597205668525
1002 -5023.258202299396
1003 -5022.681711473221
1004 -5022.250897310107
1005 -5021.646975734619
1006 -5021.145068326146
1007 -5020.390320252822
1008 -5019.838636248078
1009 -5018.999939090195
1010 -5018.405500496043
1011 -5017.600640658788
1012 -5017.029345108251
1013 -5016.105079219075
1014 -5015.364030847035
1015 -5014.28081363135
1016 -5013.472690218873
1017 -5012.080327420868
1018 -5011.206401479709
1019 -5009.716125757656
1020 -5008.714286923233
1021 -5007.235121861216
1022 -5006.173606416357
1023 -5004.53867961792
1024 -5003.37594448091
1025 -5001.573976754928
1026 -5000.436584285769
1027 -4998.609524094902
1028 -4997.38629205334
1029 -4995.481159809361
1030 -4994.194606658637
1031 -4992.216204424093
1032 -4990.850260669952
1033 -4988.765957947177
1034 -4987.317368929864
1035 -4985.284795456551
1036 -4983.891638319169
1037 -4981.789521675522
1038 -4980.408309384469
1039 -4978.35308176841
1040 -4976.88930255769
1041 -4974.777990850397
1042 -4973.499230727606
1043 -4971.655682641897
1044 -4970.395438449917
1045 -4968.602374974826
1046 -4967.359086145151
1047 -4965.590550991205
1048 -4964.494455495047
1049 -4962.90705064536
1050 -4961.922986771381
1051 -4960.481612193636
1052 -4959.599491346901
1053 -4958.130179579043
1054 -4957.253741190616
1055 -4956.081770552308
1056 -4955.284612363595
1057 -4954.500748885448
1058 -4953.172743534288
1059 -4952.380481389811
1060 -4951.619105474381
1061 -4950.618406153289
1062 -4949.956447765952
1063 -4949.207077289037
1064 -4948.207270650479
1065 -4947.3682627155
1066 -4946.626823342849
1067 -4945.45534663682
1068 -4944.761604844303
1069 -4944.074086699206
1070 -4943.176145660207
1071 -4942.421404513275
1072 -4941.349167462721
1073 -4940.663413047148
1074 -4939.649288668179
1075 -4938.907136181944
1076 -4937.808173482965
1077 -4937.084236230587
1078 -4935.995725658869
1079 -4935.277333543827
1080 -4934.210645808052
1081 -4933.3982155384
1082 -4932.280041612114
1083 -4931.488918535668
1084 -4930.514246878192
1085 -4929.615481100565
1086 -4928.273209986012
1087 -4927.055466752014
1088 -4926.108329281895
1089 -4924.982253548385
1090 -4923.70874679899
1091 -4922.855616356423
1092 -4921.712631076193
1093 -4920.508807583406
1094 -4919.394154485342
1095 -4918.50378288
1096 -4917.37555799105
1097 -4916.204853636821
1098 -4915.138112734979
1099 -4914.048573479018
1100 -4913.40399622762
1101 -4912.296111886663
1102 -4911.305027840202
1103 -4910.350667566952
1104 -4909.580734321246
1105 -4908.466981369167
1106 -4907.627049126081
1107 -4906.837237940837
1108 -4905.719012269123
1109 -4904.980594530636
1110 -4903.74876047526
1111 -4902.976986096762
1112 -4901.921486199291
1113 -4901.284889065119
1114 -4900.372300323867
1115 -4899.660800358874
1116 -4898.894891296534
1117 -4898.239448581205
1118 -4897.3647809472
1119 -4896.780454924455
1120 -4895.887333917632
1121 -4895.278715638608
1122 -4894.38591117897
1123 -4893.865740694785
1124 -4893.111359602603
1125 -4892.635479396862
1126 -4892.154421026747
1127 -4891.880446865308
1128 -4891.419514974338
1129 -4891.072194413807
1130 -4890.827593764335
1131 -4890.701520071948
1132 -4890.476349817618
1133 -4890.326995546471
1134 -4890.300009780882
1135 -4890.292184703494
1136 -4890.520803918763
1137 -4890.863724533943
1138 -4891.239270348416
1139 -4891.985990259224
1140 -4892.644588892152
1141 -4893.782194752534
1142 -4894.505856109491
1143 -4895.837688463232
1144 -4896.985808858593
1145 -4898.700100265989
1146 -4900.124198957295
1147 -4902.398663840145
1148 -4904.003472416428
1149 -4906.635839202772
1150 -4908.614548559768
1151 -4911.644395828683
1152 -4913.948273676247
1153 -4917.42173120071
1154 -4919.897307637173
1155 -4923.780352383223
1156 -4926.641776462901
1157 -4930.944653376347
1158 -4934.158307226498
1159 -4938.734665695481
1160 -4942.016063068788
1161 -4946.934420780412
1162 -4950.395120739214
1163 -4955.685851334742
1164 -4960.856451972282
1165 -4964.292947940387
1166 -4969.539074981011
1167 -4974.897578724141
1168 -4980.564171472584
1169 -4985.98082551654
1170 -4991.568077109803
1171 -4996.893086580973
1172 -5002.35267518431
1173 -5007.707488018855
1174 -5013.065089974669
1175 -5018.289104900418
1176 -5023.524094102975
1177 -5028.744835815476
1178 -5033.986729572637
1179 -5039.003993821512
1180 -5044.037298603121
1181 -5048.768429779519
1182 -5053.699301778935
1183 -5058.469003339441
1184 -5063.279013002034
1185 -5067.764551344529
1186 -5070.849507706514
1187 -5075.331543437832
1188 -5079.901777841253
1189 -5082.86137931963
1190 -5087.402377926895
1191 -5091.689628563703
1192 -5094.616881198565
1193 -5098.73951409482
1194 -5101.425856261782
1195 -5105.348326464479
1196 -5108.019568487406
1197 -5111.818303635965
1198 -5114.270446925744
1199 -5117.805631162492
1200 -5120.104865568719
1201 -5122.193597734039
1202 -5125.437273640434
1203 -5127.292357672824
1204 -5129.248580706327
1205 -5131.008798674146
1206 -5132.562872844472
1207 -5134.061339185948
1208 -5135.532352275875
1209 -5136.739048826143
1210 -5137.795048090607
1211 -5138.736030043948
1212 -5139.503083626351
1213 -5140.20153311718
1214 -5140.838945911637
1215 -5141.253276898254
1216 -5141.505071383695
1217 -5141.50012616213
1218 -5141.500149081499
1219 -5141.411320002068
1220 -5141.167245751334
1221 -5140.669010061923
1222 -5140.119849708192
1223 -5139.483666106249
1224 -5138.76194563827
1225 -5137.494028565772
1226 -5136.683908679463
1227 -5135.624365221322
1228 -5134.003831517435
1229 -5132.934965655698
1230 -5131.683733325152
1231 -5129.740727879039
1232 -5128.422195729554
1233 -5126.469165921899
1234 -5125.045140040961
1235 -5122.89400878614
1236 -5121.60524546901
1237 -5119.566883314336
1238 -5118.192717577288
1239 -5116.140306793494
1240 -5114.769897951499
1241 -5112.663033057216
1242 -5111.341533297978
1243 -5109.269183203986
1244 -5108.026256277238
1245 -5105.999184026981
1246 -5104.739648430282
1247 -5102.736999931799
1248 -5101.437296819248
1249 -5099.46287700148
1250 -5098.122061325994
1251 -5096.138745326332
1252 -5094.805832466432
1253 -5092.89803522617
1254 -5091.754809281338
1255 -5090.144137574153
1256 -5089.105153853681
1257 -5087.256574101788
1258 -5086.107792002902
1259 -5084.208630194098
1260 -5083.096668933475
1261 -5081.872203958303
1262 -5080.095838541052
1263 -5078.831672776877
1264 -5077.54497050934
1265 -5076.227204730197
1266 -5074.413539722113
1267 -5073.058373620122
1268 -5071.755020442259
1269 -5070.316406694184
1270 -5068.915943274341
1271 -5067.443273977203
1272 -5066.08897210036
1273 -5064.468496904628
1274 -5062.883085150014
1275 -5061.248120170253
1276 -5059.627638434572
1277 -5057.735097442803
1278 -5055.944489392817
1279 -5053.99123587191
1280 -5052.146868383365
1281 -5050.109185573901
1282 -5048.116371452669
1283 -5045.878999598431
1284 -5043.853610228968
1285 -5041.747738171965
1286 -5039.622289635441
1287 -5037.328215260349
1288 -5035.126739136997
1289 -5032.889357808913
1290 -5030.706432644618
1291 -5028.3516914189
1292 -5025.926690508402
1293 -5023.724143781991
1294 -5021.408434970158
1295 -5019.147699251833
1296 -5016.873519619853
1297 -5014.57146028523
1298 -5012.189752408691
1299 -5009.935206507147
1300 -5007.702734251788
1301 -5005.461306737975
1302 -5003.211964128641
1303 -5000.924952167202
1304 -4998.872487444224
1305 -4996.807876103647
1306 -4993.678874206047
1307 -4991.576388015269
1308 -4989.526463260903
1309 -4987.560407501666
1310 -4984.654202410318
1311 -4982.775088694005
1312 -4981.011886294124
1313 -4978.379358863935
1314 -4976.809517837828
1315 -4975.168790022817
1316 -4972.900949807981
1317 -4971.473361926452
1318 -4970.103636484268
1319 -4968.106847202381
1320 -4966.919003915861
1321 -4965.738358644599
1322 -4963.967471577506
1323 -4962.813177411854
1324 -4961.74288571673
1325 -4960.21550825597
1326 -4959.149501980141
1327 -4958.132313026194
1328 -4957.244131338063
1329 -4955.881092759466
1330 -4955.039786396611
1331 -4954.067791000846
1332 -4953.104131286763
1333 -4952.251541292169
1334 -4950.962094429701
1335 -4950.050957122371
1336 -4949.275899328449
1337 -4948.495073549031
1338 -4947.60976513456
1339 -4946.861859507353
1340 -4945.974857243032
1341 -4945.006523529869
1342 -4944.09016424064
1343 -4943.169547215936
1344 -4942.124634389762
1345 -4940.976691471835
1346 -4939.790204879046
1347 -4938.707138261708
1348 -4937.67041679496
1349 -4936.418951125649
1350 -4935.235942819915
1351 -4934.096945566401
1352 -4932.906210600853
1353 -4931.641692358005
1354 -4930.346650712781
1355 -4929.11373553665
1356 -4927.791090377226
1357 -4926.429527466931
1358 -4925.080943916433
1359 -4923.789765702491
1360 -4922.648356317906
1361 -4921.349573841307
1362 -4920.054810745462
1363 -4918.737282349058
1364 -4917.433161099649
1365 -4916.080107082634
1366 -4914.596780949995
1367 -4913.133918921431
1368 -4911.633853610196
1369 -4910.125526375269
1370 -4908.636447773602
1371 -4906.313344823371
1372 -4904.697704787512
1373 -4902.991830010539
1374 -4901.177954617615
1375 -4898.567370271936
1376 -4896.815202365891
1377 -4895.053817152259
1378 -4892.398291781332
1379 -4890.633651672036
1380 -4887.986530611883
1381 -4886.184713407802
1382 -4883.610436761478
1383 -4881.862873748807
1384 -4879.45193921694
1385 -4877.897499297725
1386 -4875.373781448005
1387 -4873.772110528814
1388 -4871.521730167514
1389 -4870.045799619814
1390 -4867.844421909537
1391 -4866.42694816757
1392 -4864.521955332199
1393 -4863.402172643601
1394 -4861.493895160364
1395 -4860.159702295466
1396 -4858.416686332712
1397 -4857.316650838602
1398 -4855.90508452793
1399 -4854.86999448503
1400 -4853.620650855367
1401 -4852.809483501096
1402 -4851.762452859867
1403 -4850.979731096519
1404 -4850.105417389861
1405 -4849.401603044549
1406 -4848.856291338496
1407 -4848.476803188549
1408 -4848.061118243422
1409 -4848.040587135304
1410 -4848.125503457763
1411 -4848.16485903413
1412 -4848.422640597223
1413 -4849.041973662587
1414 -4849.490338171729
1415 -4849.893171356939
1416 -4850.817586037669
1417 -4851.467079464803
1418 -4852.310062230277
1419 -4853.53045356266
1420 -4854.517971468049
1421 -4855.416899651601
1422 -4856.41886775181
1423 -4857.926481388815
1424 -4859.037428578884
1425 -4860.211131540584
1426 -4862.300976716878
1427 -4863.633320872845
1428 -4865.047285343889
1429 -4867.321449221747
1430 -4868.923939116762
1431 -4871.169391051151
1432 -4872.735739042872
1433 -4875.197648120119
1434 -4876.927943641829
1435 -4879.431371508326
1436 -4881.086913180555
1437 -4883.46708797908
1438 -4885.107526855407
1439 -4887.524952066286
1440 -4889.177800798362
1441 -4891.474363652361
1442 -4892.96947179701
1443 -4895.027172214297
1444 -4896.422396656693
1445 -4898.434629900398
1446 -4899.863224223256
1447 -4901.678537599973
1448 -4902.894088194549
1449 -4904.371238384044
1450 -4905.457600499032
1451 -4906.709716156424
1452 -4907.718220981068
1453 -4908.516014857521
1454 -4909.942875459697
1455 -4910.843298390349
1456 -4911.783722148983
1457 -4913.034105484085
1458 -4913.784890068488
1459 -4914.486746368
1460 -4915.842156802622
1461 -4916.568970083988
1462 -4917.367421104175
1463 -4918.038841031985
1464 -4919.413238509671
1465 -4920.155068813619
1466 -4920.938726801418
1467 -4921.632304302519
1468 -4922.64400411243
1469 -4923.122576355957
1470 -4923.729370372552
1471 -4924.185544864823
1472 -4925.220893214983
1473 -4925.55481373974
1474 -4925.918847228567
1475 -4926.113419983384
1476 -4926.323925385843
1477 -4926.557808197478
1478 -4926.669854556766
1479 -4926.612468067466
1480 -4926.515673053092
1481 -4926.209529752797
1482 -4925.997939249256
1483 -4925.76371905095
1484 -4925.514824087522
1485 -4924.974264073677
1486 -4924.44397514366
1487 -4923.852566766837
1488 -4923.258650545257
1489 -4922.500180541971
1490 -4921.790161686114
1491 -4921.013300120428
1492 -4920.200582457766
1493 -4919.288257223541
1494 -4918.354522143434
1495 -4917.378982871645
1496 -4916.378126312792
1497 -4915.328385714233
1498 -4914.161747859266
1499 -4912.999042358309
1500 -4911.830795332355
1501 -4910.633117519485
1502 -4909.428071484008
1503 -4908.10742818366
1504 -4906.861392968927
1505 -4905.540765001613
1506 -4904.241890800852
1507 -4902.872567473727
1508 -4901.65008859693
1509 -4900.263861420687
1510 -4899.018567753888
1511 -4897.658800954658
1512 -4896.439914127168
1513 -4895.195020488366
1514 -4893.961883742053
1515 -4892.738574522884
1516 -4891.662278839611
1517 -4890.645435617558
1518 -4889.60240081999
1519 -4887.984325433951
1520 -4887.036358249797
1521 -4886.030876983047
1522 -4885.115584897413
1523 -4884.203741777086
1524 -4883.427055021411
1525 -4882.636241031787
1526 -4881.920829727699
1527 -4881.298177906656
1528 -4880.839714914865
1529 -4880.189713591028
1530 -4879.738004960076
1531 -4879.323463757388
1532 -4879.030352912733
1533 -4878.774354854016
1534 -4878.5572407746
1535 -4878.333379189272
1536 -4878.209545827442
1537 -4878.13118808283
1538 -4878.00646747663
1539 -4877.901833444329
1540 -4877.828609311687
1541 -4877.635845537085
1542 -4877.612778088768
1543 -4877.543396904492
1544 -4877.545731361327
1545 -4877.444228112819
1546 -4877.399982985193
1547 -4877.364051179778
1548 -4877.256912755328
1549 -4877.174960508307
1550 -4877.120365416867
1551 -4876.948046783566
1552 -4876.860565099723
1553 -4876.558989801457
1554 -4876.258921868412
1555 -4875.885900571705
1556 -4875.529217785698
1557 -4875.080517559325
1558 -4874.66377953937
1559 -4874.125358802696
1560 -4873.701054077804
1561 -4872.958320802668
1562 -4872.395923422251
1563 -4871.690686816321
1564 -4870.972524159283
1565 -4870.196701728084
1566 -4869.512523809267
1567 -4868.727087325036
1568 -4867.993548570768
1569 -4867.253407254925
1570 -4866.513815941811
1571 -4865.722527687433
1572 -4864.923018142913
1573 -4864.063786596772
1574 -4863.305815663393
1575 -4862.363893532038
1576 -4861.492314247048
1577 -4860.563549426682
1578 -4859.713961893891
1579 -4858.807089093467
1580 -4857.935786516135
1581 -4856.988536524612
1582 -4856.126033117957
1583 -4855.169050257465
1584 -4854.444029485844
1585 -4853.551253594893
1586 -4852.712281327838
1587 -4851.840151753278
1588 -4851.085236494022
1589 -4850.346248723374
1590 -4849.667384741484
1591 -4848.83634639903
1592 -4848.128852954455
1593 -4847.408183926968
1594 -4846.921929909354
1595 -4846.306688856952
1596 -4845.826011599528
1597 -4845.275758392903
1598 -4844.791707290789
1599 -4844.242362254177
1600 -4843.823636455768
1601 -4843.390410003138
1602 -4842.960039421367
1603 -4842.570263320275
1604 -4842.268004560924
1605 -4841.969855294847
1606 -4841.777044440928
1607 -4841.502404696522
1608 -4841.395502739022
1609 -4841.279918733428
1610 -4841.249162444088
1611 -4841.166167799403
1612 -4841.269683825899
1613 -4841.3813284988
1614 -4841.614853316028
1615 -4841.732350501314
1616 -4842.02191900932
1617 -4842.18848711198
1618 -4842.596013861548
1619 -4843.013749882872
1620 -4843.57750221984
1621 -4844.135461214541
1622 -4844.785491672495
1623 -4845.403858141985
1624 -4846.094881904878
1625 -4846.904581964175
1626 -4847.880245851942
1627 -4848.854288092923
1628 -4849.899034941372
1629 -4850.975783939846
1630 -4852.156010977618
1631 -4853.400479741904
1632 -4854.672810140894
1633 -4856.463678490848
1634 -4857.786086850007
1635 -4859.025443816599
1636 -4860.343929237296
1637 -4862.204757536133
1638 -4863.450791126478
1639 -4864.63844637446
1640 -4866.483268896485
1641 -4867.666484378702
1642 -4868.865998035282
1643 -4870.562077332635
1644 -4871.694952941537
1645 -4872.742325190778
1646 -4874.378070262596
1647 -4875.297947282263
1648 -4876.269051665941
1649 -4877.666017606214
1650 -4878.585955540295
1651 -4879.368893490942
1652 -4880.61911383212
1653 -4881.322242337999
1654 -4882.019176902622
1655 -4882.596421067749
1656 -4883.529418851875
1657 -4884.016191436041
1658 -4884.501934938887
1659 -4884.892223307431
1660 -4885.507671073622
1661 -4885.77452553983
1662 -4886.057734980251
1663 -4886.255375167323
1664 -4886.495229912535
1665 -4886.636642694462
1666 -4886.77647487183
1667 -4886.759264678554
1668 -4886.81193831837
1669 -4886.791225147274
1670 -4886.778709763374
1671 -4886.640425195445
1672 -4886.549154233448
1673 -4886.372266586841
1674 -4886.226377638242
1675 -4885.935939760231
1676 -4885.738379223668
1677 -4885.454134816345
1678 -4885.198984598032
1679 -4884.835737258702
1680 -4884.530737054239
1681 -4884.144988755516
1682 -4883.775921796756
1683 -4883.254399743767
1684 -4882.752939780292
1685 -4882.1931639452
1686 -4881.700527497721
1687 -4881.139948835243
1688 -4880.606972550588
1689 -4879.975891609507
1690 -4879.445702336639
1691 -4878.869568849659
1692 -4878.376162612169
1693 -4877.841449388529
1694 -4877.42604814094
1695 -4876.893263882504
1696 -4876.436410812641
1697 -4876.007241297285
1698 -4875.684423411968
1699 -4875.348301951182
1700 -4875.12085926005
1701 -4874.831864702985
1702 -4874.668595201737
1703 -4874.470129089605
1704 -4874.390841977042
1705 -4874.246613723536
1706 -4874.151882806622
1707 -4874.072569852366
1708 -4874.135637591161
1709 -4874.08693875481
1710 -4874.11350775098
1711 -4874.204068200126
1712 -4874.327509742607
1713 -4874.43416993359
1714 -4874.59732967019
1715 -4874.705847099372
1716 -4874.941857964626
1717 -4875.062902863
1718 -4875.257741268828
1719 -4875.368235372474
1720 -4875.584537334197
1721 -4875.652694551762
1722 -4875.83067200861
1723 -4875.941582639512
1724 -4876.115375599579
1725 -4876.200902843037
1726 -4876.340434189565
1727 -4876.406555820033
1728 -4876.524654567001
1729 -4876.540595299892
1730 -4876.567212333088
1731 -4876.503188995009
1732 -4876.522230001422
1733 -4876.403276995296
1734 -4876.347918750183
1735 -4876.120244317751
1736 -4876.010249408895
1737 -4875.728077788412
1738 -4875.489096308747
1739 -4875.164166049863
1740 -4874.879133998598
1741 -4874.435109826738
1742 -4874.059881311132
1743 -4873.548632727699
1744 -4873.07144581985
1745 -4872.500470135663
1746 -4871.992464913622
1747 -4871.342190746705
1748 -4870.672131416887
1749 -4869.914317280929
1750 -4869.187042877774
1751 -4868.346638940187
1752 -4867.60116882133
1753 -4866.695221467872
1754 -4865.863431805404
1755 -4864.944272310428
1756 -4864.021127926205
1757 -4863.039066255091
1758 -4862.089390035801
1759 -4861.025215482307
1760 -4860.071476297373
1761 -4858.999672053286
1762 -4857.972716845452
1763 -4856.874805077229
1764 -4855.846194551185
1765 -4854.71725622352
1766 -4853.611454971818
1767 -4852.393540576991
1768 -4851.287451148872
1769 -4850.115750968685
1770 -4848.979750040787
1771 -4847.715611774539
1772 -4846.518962365329
1773 -4845.292675842418
1774 -4844.087736601207
1775 -4842.834620177256
1776 -4841.677576999811
1777 -4840.403416473206
1778 -4839.182755001238
1779 -4837.876644229981
1780 -4836.664523660963
1781 -4835.372478696773
1782 -4834.147273414334
1783 -4832.865146321769
1784 -4831.681123431474
1785 -4830.445527138211
1786 -4829.322506222157
1787 -4828.111055402553
1788 -4826.975506797035
1789 -4825.789740507086
1790 -4824.692114471856
1791 -4823.532074617776
1792 -4822.501819549183
1793 -4821.344823605116
1794 -4820.337345456632
1795 -4819.294375554139
1796 -4818.309655410388
1797 -4817.297509855543
1798 -4816.368607836343
1799 -4815.383522957814
1800 -4814.494535314905
1801 -4813.537887501196
1802 -4812.684823125243
1803 -4811.719529587597
1804 -4810.900157896809
1805 -4809.978416588488
1806 -4809.170113953328
1807 -4808.311698428201
1808 -4807.565190187901
1809 -4806.716686335638
1810 -4805.97458632163
1811 -4805.184019899813
1812 -4804.470762749212
1813 -4803.691091626022
1814 -4803.002036784024
1815 -4802.283549582778
1816 -4801.654763076271
1817 -4800.917561402875
1818 -4800.328033300148
1819 -4799.70894253024
1820 -4799.170190638887
1821 -4798.612314269808
1822 -4798.111170627065
1823 -4797.568482069954
1824 -4797.083345712581
1825 -4796.602107751823
1826 -4796.249075392657
1827 -4795.867682646759
1828 -4795.611815251628
1829 -4795.324314040541
1830 -4795.155165160843
1831 -4794.952744160101
1832 -4794.856166619122
1833 -4794.716167893572
1834 -4794.753448990481
1835 -4794.671082496019
1836 -4794.709276960759
1837 -4794.760530292552
1838 -4794.884396864552
1839 -4794.955092586601
1840 -4795.157571991406
1841 -4795.292075653693
1842 -4795.610016224438
1843 -4795.82957293302
1844 -4796.154273523858
1845 -4796.431127250775
1846 -4796.769953763153
1847 -4797.0815726029
1848 -4797.469160348095
1849 -4797.806773525405
1850 -4798.18130946536
1851 -4798.481599838832
1852 -4798.888064182211
1853 -4799.254595154914
1854 -4799.683520416984
1855 -4800.040473177926
1856 -4800.506540625016
1857 -4800.893646959706
1858 -4801.35274218062
1859 -4801.789345974134
1860 -4802.279464625989
1861 -4802.694672912867
1862 -4803.183633584738
1863 -4803.552162371883
1864 -4803.960993561143
1865 -4804.330019614034
1866 -4804.75076849212
1867 -4805.141851146948
1868 -4805.550266941911
1869 -4805.940880903122
1870 -4806.368961011346
1871 -4806.73684097908
1872 -4807.205044388668
1873 -4807.55946886802
1874 -4807.94921102921
1875 -4808.307417656232
1876 -4808.69531153273
1877 -4809.033161527473
1878 -4809.442032466454
1879 -4809.79609322841
1880 -4810.231141984022
1881 -4810.57559987374
1882 -4810.986047209523
1883 -4811.348838333817
1884 -4811.754741383957
1885 -4812.112107987104
1886 -4812.518691892553
1887 -4812.889688216368
1888 -4813.332263773826
1889 -4813.686061391732
1890 -4814.126354300117
1891 -4814.503483237076
1892 -4815.001615951625
1893 -4815.483198187839
1894 -4816.033074595255
1895 -4816.541477032512
1896 -4817.110422108044
1897 -4817.609513346365
1898 -4818.229951482384
1899 -4818.746854646273
1900 -4819.388012539141
1901 -4819.957259641922
1902 -4820.611731335722
1903 -4821.170520325689
1904 -4821.893330119318
1905 -4822.536282160571
1906 -4823.298594887854
1907 -4823.949052965258
1908 -4824.717794463754
1909 -4825.39712233444
1910 -4826.217288372443
1911 -4826.997387264757
1912 -4827.859703229896
1913 -4828.597178763988
1914 -4829.506752727247
1915 -4830.360762608039
1916 -4831.251352892446
1917 -4832.120117310046
1918 -4833.100297530406
1919 -4833.977899300399
1920 -4835.058828961162
1921 -4836.038543553356
1922 -4837.110422746102
1923 -4838.665763105389
1924 -4839.744564616065
1925 -4840.745705909714
1926 -4841.867049812408
1927 -4843.528320066244
1928 -4844.643571759958
1929 -4845.704600366182
1930 -4847.317587326505
1931 -4848.351920055919
1932 -4849.947931761941
1933 -4850.967072827121
1934 -4852.526482800631
1935 -4853.509983804527
1936 -4855.114185521114
1937 -4856.018493029562
1938 -4857.454504256376
1939 -4858.329386130818
1940 -4859.704008529134
1941 -4860.526220391172
1942 -4861.865166924496
1943 -4862.67978506175
1944 -4864.029305566329
1945 -4864.787728906792
1946 -4866.040352649348
1947 -4866.744891079845
1948 -4867.828445441502
1949 -4868.47268532514
1950 -4869.520713920852
1951 -4870.088999705517
1952 -4870.999524830913
1953 -4871.508249279648
1954 -4872.333154053482
1955 -4872.770113547694
1956 -4873.403557373539
1957 -4873.735554568503
1958 -4874.209638055259
1959 -4874.404320655819
1960 -4874.653372082214
1961 -4874.793433113998
1962 -4874.945387735706
1963 -4874.941857429828
1964 -4874.952742592259
1965 -4874.84912679669
1966 -4874.69413974382
1967 -4874.402129615308
1968 -4874.082207990199
1969 -4873.414051544255
1970 -4872.982472733805
1971 -4872.40404256315
1972 -4871.820677119494
1973 -4871.112748965425
1974 -4870.397837895201
1975 -4869.546917977867
1976 -4868.284339163916
1977 -4867.342714817005
1978 -4866.395293729171
1979 -4865.329148493392
1980 -4863.82664353847
1981 -4862.674346751068
1982 -4861.50669555557
1983 -4859.617232460506
1984 -4858.407988028134
1985 -4856.53745114212
1986 -4855.252427024275
1987 -4853.219410691684
1988 -4851.93896486602
1989 -4849.96866419631
1990 -4848.679925049988
1991 -4846.535382762918
1992 -4845.23726683919
1993 -4843.170682569902
1994 -4841.858680369231
1995 -4839.789052589621
1996 -4838.503839498466
1997 -4836.537225074293
1998 -4835.27418251168
1999 -4833.312629288004
2000 -4832.12446246235
2001 -4830.249301048376
2002 -4829.084970003521
2003 -4827.345094302819
2004 -4826.290785706963
2005 -4824.654138065751
2006 -4823.674649560627
2007 -4822.658536820584
2008 -4821.28140527526
2009 -4820.36970771049
2010 -4819.552304498955
2011 -4818.720816025917
2012 -4817.651632232596
2013 -4816.937316560764
2014 -4816.315222379143
2015 -4815.645551356604
2016 -4815.116914164209
2017 -4814.54769330785
2018 -4814.073112897747
2019 -4813.59600034126
2020 -4813.249395288645
2021 -4812.884702442812
2022 -4812.637686477946
2023 -4812.373778123866
2024 -4812.263125545291
2025 -4812.142361908323
2026 -4812.154515042918
2027 -4812.124053540783
2028 -4812.258034104225
2029 -4812.385571014922
2030 -4812.606559808863
2031 -4812.822445389528
2032 -4813.188396009155
2033 -4813.561798290738
2034 -4814.056519838028
2035 -4814.544575710816
2036 -4815.096966679342
2037 -4815.647968037623
2038 -4816.310828951935
2039 -4816.91263671961
2040 -4817.645872134819
2041 -4818.329775769425
2042 -4819.07081884887
2043 -4819.72085519775
2044 -4820.505577525118
2045 -4821.160573985942
2046 -4821.891365186636
2047 -4822.528247238145
2048 -4823.228041616403
2049 -4823.850539548235
2050 -4824.52286583438
2051 -4825.077896314208
2052 -4825.690296132907
2053 -4826.190040494837
2054 -4826.742515683943
2055 -4827.13803821693
2056 -4827.586185987818
2057 -4827.887426931637
2058 -4828.207346147959
2059 -4828.38955291929
2060 -4828.60108437175
2061 -4828.686970951231
2062 -4828.781551576392
2063 -4828.736112991023
2064 -4828.764243958459
2065 -4828.643258591614
2066 -4828.540428552191
2067 -4828.285222905641
2068 -4828.05493955958
2069 -4827.68507067815
2070 -4827.344089580522
2071 -4826.858086760933
2072 -4826.396676284447
2073 -4825.8289529263
2074 -4825.282792108776
2075 -4824.60436942315
2076 -4823.984199708841
2077 -4823.238341797722
2078 -4822.542540826666
2079 -4821.751721340554
2080 -4821.003131264337
2081 -4820.142478012402
2082 -4819.344817454325
2083 -4818.394859158044
2084 -4817.546391310599
2085 -4816.603039436636
2086 -4815.737219713707
2087 -4814.799108813162
2088 -4813.911887298515
2089 -4812.952325587947
2090 -4812.066337793739
2091 -4811.05995656491
2092 -4810.164789538372
2093 -4809.194022665411
2094 -4808.324173127266
2095 -4807.376476803715
2096 -4806.528881619581
2097 -4805.57805394315
2098 -4804.755302024791
2099 -4803.8491734039
2100 -4803.068275083979
2101 -4802.20612521484
2102 -4801.469598104914
2103 -4800.67911115788
2104 -4800.028423096025
2105 -4799.318019455533
2106 -4798.69617197435
2107 -4798.039040710008
2108 -4797.551128290843
2109 -4797.045459183581
2110 -4796.697150637817
2111 -4796.291683133798
2112 -4796.049899204774
2113 -4795.763686090012
2114 -4795.644450323156
2115 -4795.50974975604
2116 -4795.519107569632
2117 -4795.537786534958
2118 -4795.691599209893
2119 -4795.861706884583
2120 -4796.217200778568
2121 -4796.567792849488
2122 -4797.015426988667
2123 -4797.488402693172
2124 -4798.123071532185
2125 -4798.692554193393
2126 -4799.420702072434
2127 -4800.122552570545
2128 -4801.000271560968
2129 -4801.828511832739
2130 -4802.807375391732
2131 -4803.755111624424
2132 -4804.885754549181
2133 -4805.998037775129
2134 -4807.207836411599
2135 -4808.326817412982
2136 -4809.633343368297
2137 -4810.84976659617
2138 -4812.159628854447
2139 -4813.454489143593
2140 -4814.823338425432
2141 -4816.129446462607
2142 -4817.554711750418
2143 -4818.903140687789
2144 -4820.360070417623
2145 -4821.780620853337
2146 -4823.302277500851
2147 -4824.72913445731
2148 -4826.236638294812
2149 -4827.651970279341
2150 -4829.127371140003
2151 -4830.488870569349
2152 -4831.916257273064
2153 -4833.23444616393
2154 -4834.589367226915
2155 -4835.802326484932
2156 -4837.076754868023
2157 -4838.239944610395
2158 -4839.417460819619
2159 -4840.486758766706
2160 -4841.580568073583
2161 -4842.564746596893
2162 -4843.546268013594
2163 -4844.38073200353
2164 -4845.236236693258
2165 -4845.950093893349
2166 -4846.696336554202
2167 -4847.294682705
2168 -4847.930556991779
2169 -4848.407693790695
2170 -4848.916597369517
2171 -4849.260635053462
2172 -4849.654645675218
2173 -4849.888286883331
2174 -4850.150299930243
2175 -4850.285947439317
2176 -4850.442466965761
2177 -4850.480873840737
2178 -4850.556905087598
2179 -4850.509326633942
2180 -4850.510916747114
2181 -4850.376004140954
2182 -4850.284345250227
2183 -4850.068298473079
2184 -4849.919125411574
2185 -4849.682132568618
2186 -4849.47208117337
2187 -4849.161917389971
2188 -4848.922291023052
2189 -4848.592233136959
2190 -4848.322178641212
2191 -4847.95344395876
2192 -4847.662866582377
2193 -4847.279683931712
2194 -4846.986839410285
2195 -4846.604850368364
2196 -4846.325897969569
2197 -4845.962635683652
2198 -4845.691990061096
2199 -4845.344321683358
2200 -4845.091984973304
2201 -4844.768155715334
2202 -4844.51978888996
2203 -4844.231031723092
2204 -4844.049567455756
2205 -4843.79520659007
2206 -4843.626960198863
2207 -4843.41054629553
2208 -4843.297720572039
2209 -4843.15389265193
2210 -4843.096786679392
2211 -4842.982612814272
2212 -4842.98425915649
2213 -4842.924560965012
2214 -4842.973892709394
2215 -4842.952001496064
2216 -4843.044605004755
2217 -4843.067547215298
2218 -4843.197669661262
2219 -4843.275075620981
2220 -4843.429660205399
2221 -4843.528328171848
2222 -4843.696336806107
2223 -4843.797780394029
2224 -4843.987323363202
2225 -4844.1053190557
2226 -4844.311104076082
2227 -4844.438439074423
2228 -4844.6438008016
2229 -4844.797640736722
2230 -4845.020273315817
2231 -4845.169032453186
2232 -4845.417636788675
2233 -4845.5830588902
2234 -4845.810152192134
2235 -4845.950910145616
2236 -4846.136009614575
2237 -4846.234574982978
2238 -4846.40145495712
2239 -4846.485172389425
2240 -4846.621339402623
2241 -4846.679148206435
2242 -4846.779311700869
2243 -4846.787877057169
2244 -4846.850280213418
2245 -4846.836755930729
2246 -4846.871650948729
2247 -4846.820451806238
2248 -4846.82757002368
2249 -4846.754646786949
2250 -4846.726961931623
2251 -4846.622703090311
2252 -4846.56727943204
2253 -4846.411303893931
2254 -4846.310394975269
2255 -4846.1147639873
2256 -4845.975071714244
2257 -4845.758714402241
2258 -4845.580660432806
2259 -4845.316972845359
2260 -4845.104896626377
2261 -4844.811596985475
2262 -4844.559798080134
2263 -4844.239316481789
2264 -4843.984308634657
2265 -4843.629595588783
2266 -4843.327291575484
2267 -4842.935095369538
2268 -4842.593428250907
2269 -4842.180607990521
2270 -4841.829952601516
2271 -4841.372392548045
2272 -4840.975116123122
2273 -4840.496839627221
2274 -4840.080229482552
2275 -4839.569874979417
2276 -4839.121810030619
2277 -4838.593555314286
2278 -4838.099767153382
2279 -4837.505996561884
2280 -4836.997683891177
2281 -4836.388468143768
2282 -4835.831345895592
2283 -4835.198437552128
2284 -4834.62990089329
2285 -4833.948896815267
2286 -4833.334160781141
2287 -4832.636148222549
2288 -4832.008934879784
2289 -4831.292685596764
2290 -4830.644442421619
2291 -4829.901158638781
2292 -4829.237652773172
2293 -4828.494271698862
2294 -4827.811509651174
2295 -4827.046765537108
2296 -4826.357411317024
2297 -4825.590157258948
2298 -4824.892043839836
2299 -4824.127816930688
2300 -4823.446828795098
2301 -4822.701252622521
2302 -4822.023796984421
2303 -4821.295778487133
2304 -4820.661582371658
2305 -4819.946661452339
2306 -4819.32310718256
2307 -4818.636976832193
2308 -4818.026189879169
2309 -4817.376269108017
2310 -4816.821990802147
2311 -4816.21357799826
2312 -4815.716937311478
2313 -4815.162559610932
2314 -4814.690263437569
2315 -4814.17958074829
2316 -4813.778179421733
2317 -4813.335896327874
2318 -4812.996295323451
2319 -4812.599294393042
2320 -4812.312807872117
2321 -4811.981536283862
2322 -4811.747746141532
2323 -4811.464698852142
2324 -4811.296578035385
2325 -4811.072441769727
2326 -4810.955755112479
2327 -4810.788678610607
2328 -4810.721250438194
2329 -4810.588572433349
2330 -4810.557984221419
2331 -4810.477841160155
2332 -4810.491123717584
2333 -4810.450723622269
2334 -4810.501050406538
2335 -4810.481056641547
2336 -4810.571896518431
2337 -4810.596664306149
2338 -4810.710425835795
2339 -4810.7663490756
2340 -4810.899092673127
2341 -4810.979355895368
2342 -4811.132663355073
2343 -4811.228417521376
2344 -4811.405507710542
2345 -4811.516947215128
2346 -4811.697588253433
2347 -4811.799554341894
2348 -4811.983599877113
2349 -4812.094538478053
2350 -4812.274117943333
2351 -4812.37902123915
2352 -4812.562392896534
2353 -4812.66010428662
2354 -4812.831678443606
2355 -4812.92108490784
2356 -4813.074442489361
2357 -4813.148632934031
2358 -4813.283997124093
2359 -4813.333119814647
2360 -4813.450827704825
2361 -4813.479675296879
2362 -4813.550898205592
2363 -4813.542467877233
2364 -4813.586018843333
2365 -4813.551429193423
2366 -4813.566412299661
2367 -4813.487803557576
2368 -4813.470357181295
2369 -4813.374092231032
2370 -4813.315569013506
2371 -4813.162511466662
2372 -4813.07397123242
2373 -4812.911252943571
2374 -4812.809623584264
2375 -4812.631984111397
2376 -4812.515174722856
2377 -4812.315863697097
2378 -4812.163171276142
2379 -4811.944559301674
2380 -4811.801656334074
2381 -4811.588533056074
2382 -4811.432515948019
2383 -4811.204227587107
2384 -4811.050176105982
2385 -4810.8295570597
2386 -4810.678691142515
2387 -4810.472798800287
2388 -4810.344038662147
2389 -4810.13326014765
2390 -4810.014395359834
2391 -4809.834136379343
2392 -4809.739922485388
2393 -4809.595709875571
2394 -4809.521943888075
2395 -4809.380948183405
2396 -4809.325843211168
2397 -4809.215927629197
2398 -4809.193184443353
2399 -4809.078948913598
2400 -4809.060828963342
2401 -4808.969787533533
2402 -4808.955371552424
2403 -4808.889508062092
2404 -4808.90500948365
2405 -4808.857523464652
2406 -4808.894679843355
2407 -4808.854325863694
2408 -4808.91540312322
2409 -4808.895531804917
2410 -4808.95794571393
2411 -4808.944115694215
2412 -4809.020874246889
2413 -4809.014128679393
2414 -4809.109887629356
2415 -4809.102686272216
2416 -4809.191897528453
2417 -4809.184093756643
2418 -4809.259919363042
2419 -4809.238189000024
2420 -4809.300000867663
2421 -4809.285970114876
2422 -4809.34860924605
2423 -4809.321602756009
2424 -4809.399004840571
2425 -4809.383807492315
2426 -4809.450249107616
2427 -4809.439143852997
2428 -4809.516491354078
2429 -4809.509883404843
2430 -4809.594404981773
2431 -4809.582533188355
2432 -4809.675208192254
2433 -4809.667888921144
2434 -4809.730456025517
2435 -4809.727651653472
2436 -4809.817175467182
2437 -4809.818026778497
2438 -4809.914770824455
2439 -4809.935469493596
2440 -4810.064813056168
2441 -4810.112789709596
2442 -4810.224697322943
2443 -4810.273799013677
2444 -4810.408138504907
2445 -4810.457642803125
2446 -4810.593831347709
2447 -4810.651931530108
2448 -4810.808293857825
2449 -4810.894364244267
2450 -4811.033144023389
2451 -4811.102822783154
2452 -4811.246537424311
2453 -4811.323939187009
2454 -4811.487802353079
2455 -4811.558959578154
2456 -4811.720013869533
2457 -4811.792640874755
2458 -4811.940652439846
2459 -4812.005109013323
2460 -4812.164734906247
2461 -4812.243450500045
2462 -4812.388769545022
2463 -4812.435651233965
2464 -4812.566799918454
2465 -4812.60856436274
2466 -4812.717160678027
2467 -4812.732752921358
2468 -4812.790281983539
2469 -4812.777999812681
2470 -4812.855239525386
2471 -4812.819493359645
2472 -4812.856822817447
2473 -4812.814450438307
2474 -4812.816914500233
2475 -4812.712829173874
2476 -4812.677499921037
2477 -4812.553857912882
2478 -4812.500106438729
2479 -4812.333990609921
2480 -4812.247206502398
2481 -4812.06511132959
2482 -4811.942870872876
2483 -4811.73032942798
2484 -4811.580986629857
2485 -4811.346121592049
2486 -4811.170226798725
2487 -4810.885164295294
2488 -4810.692668083699
2489 -4810.389113701023
2490 -4810.165145878377
2491 -4809.845800972686
2492 -4809.611666910208
2493 -4809.288758794776
2494 -4809.040926270042
2495 -4808.705696127102
2496 -4808.450269026948
2497 -4808.122839179813
2498 -4807.844926364524
2499 -4807.505788134579
2500 -4807.233460515923
2501 -4806.896232978837
2502 -4806.633711843319
2503 -4806.302824785796
2504 -4806.081941693603
2505 -4805.769161505013
2506 -4805.543645877888
2507 -4805.23729286885
2508 -4805.015943736384
2509 -4804.722422780048
2510 -4804.516625026527
2511 -4804.241973596371
2512 -4804.061114060949
2513 -4803.815014121057
2514 -4803.645389945986
2515 -4803.39242209408
2516 -4803.234450210556
2517 -4803.005514508792
2518 -4802.868339004639
2519 -4802.665341078211
2520 -4802.53241847025
2521 -4802.357822697926
2522 -4802.270183141117
2523 -4802.125060709535
2524 -4802.067265660666
2525 -4801.945488917102
2526 -4801.916816901963
2527 -4801.816607859917
2528 -4801.808263883408
2529 -4801.738436778031
2530 -4801.747174942723
2531 -4801.699354796722
2532 -4801.71997280687
2533 -4801.687589759584
2534 -4801.752877170982
2535 -4801.765020804917
2536 -4801.861024307337
2537 -4801.909619395666
2538 -4802.049868855747
2539 -4802.121835617579
2540 -4802.284385669367
2541 -4802.38641025373
2542 -4802.560401338559
2543 -4802.6819282894
2544 -4802.894002446747
2545 -4803.034201840435
2546 -4803.267003008202
2547 -4803.420078376644
2548 -4803.636171676395
2549 -4803.787529630134
2550 -4804.024012998389
2551 -4804.177567671009
2552 -4804.41844725037
2553 -4804.583571973712
2554 -4804.821489394554
2555 -4804.986506457111
2556 -4805.236858552522
2557 -4805.413931018003
2558 -4805.661521804487
2559 -4805.810473204758
2560 -4806.052344061479
2561 -4806.198029918686
2562 -4806.438677998003
2563 -4806.570886610718
2564 -4806.780013558349
2565 -4806.885797286302
2566 -4807.103198849564
2567 -4807.218672169653
2568 -4807.40929781769
2569 -4807.493835370622
2570 -4807.673658690165
2571 -4807.764925438596
2572 -4807.93915488736
2573 -4808.039148137654
2574 -4808.232241416086
2575 -4808.375060552931
2576 -4808.599119690964
2577 -4808.74969244179
2578 -4808.96750882159
2579 -4809.102150866646
2580 -4809.321852579678
2581 -4809.478637488561
2582 -4809.725765237198
2583 -4809.897343645398
2584 -4810.157834685578
2585 -4810.342072145168
2586 -4810.605989771745
2587 -4810.812065548906
2588 -4811.107646338261
2589 -4811.334709814852
2590 -4811.653497264528
2591 -4811.90250915757
2592 -4812.248919292872
2593 -4812.513031888024
2594 -4812.849677203151
2595 -4813.114865401863
2596 -4813.48084465878
2597 -4813.749581988297
2598 -4814.118422367441
2599 -4814.424403648603
2600 -4814.81994986668
2601 -4815.139978109608
2602 -4815.528421524301
2603 -4815.842875898913
2604 -4816.253128579032
2605 -4816.608907196954
2606 -4817.048424132761
2607 -4817.407953894842
2608 -4817.868571159801
2609 -4818.243349982065
2610 -4818.678338892997
2611 -4819.049037254743
2612 -4819.509448321131
2613 -4819.886715697582
2614 -4820.350709822419
2615 -4820.727125659999
2616 -4821.193746521883
2617 -4821.587362388364
2618 -4822.049394215374
2619 -4822.446840250115
2620 -4822.936067236624
2621 -4823.356479653525
2622 -4823.821127806467
2623 -4824.210198505178
2624 -4824.700418884548
2625 -4825.10239968619
2626 -4825.585757577271
2627 -4825.998836261251
2628 -4826.481393540756
2629 -4826.890433361688
2630 -4827.378651197158
2631 -4827.769335317194
2632 -4828.269028992573
2633 -4828.680946818776
2634 -4829.176356841123
2635 -4829.596371261581
2636 -4830.093887173418
2637 -4830.529576645478
2638 -4831.051451639847
2639 -4831.4791126708
2640 -4831.983707886373
2641 -4832.408499955784
2642 -4832.909580852546
2643 -4833.351226684825
2644 -4833.856843225749
2645 -4834.287834821725
2646 -4834.792030292761
2647 -4835.221723084271
2648 -4835.724008215358
2649 -4836.155878153815
2650 -4836.657538750414
2651 -4837.074666112172
2652 -4837.551642349172
2653 -4837.951964355672
2654 -4838.418799187382
2655 -4838.804540997424
2656 -4839.25050765704
2657 -4839.628292003786
2658 -4840.072052900515
2659 -4840.432233629942
2660 -4840.861814809948
2661 -4841.196152833175
2662 -4841.603889228076
2663 -4841.924202569749
2664 -4842.309017394464
2665 -4842.620542645145
2666 -4842.991911944487
2667 -4843.279326530835
2668 -4843.623776280134
2669 -4843.898997337491
2670 -4844.2402325903
2671 -4844.496440194855
2672 -4844.813573916403
2673 -4845.046813909365
2674 -4845.342474219574
2675 -4845.566920709268
2676 -4845.854516888991
2677 -4846.070502649059
2678 -4846.337501702922
2679 -4846.535998494054
2680 -4846.802751403639
2681 -4846.994867494102
2682 -4847.239420624986
2683 -4847.413564636135
2684 -4847.658844980751
2685 -4847.831292650217
2686 -4848.058508525531
2687 -4848.216793895475
2688 -4848.429880932911
2689 -4848.580863858834
2690 -4848.787952829136
2691 -4848.924704867181
2692 -4849.119592929259
2693 -4849.250490241797
2694 -4849.439881810193
2695 -4849.550510203058
2696 -4849.73737204692
2697 -4849.853046804841
2698 -4850.026757676708
2699 -4850.132739465046
2700 -4850.314216639538
2701 -4850.423387160244
2702 -4850.598940361341
2703 -4850.701259248513
2704 -4850.872117884376
2705 -4850.989108309823
2706 -4851.171143644942
2707 -4851.289386205907
2708 -4851.509194069214
2709 -4851.620044130081
2710 -4851.8089703961
2711 -4851.911536938204
2712 -4852.092773207978
2713 -4852.22074597049
2714 -4852.417006617533
2715 -4852.543828781342
2716 -4852.756331106828
2717 -4852.896004982991
2718 -4853.115977574097
2719 -4853.256998421061
2720 -4853.484977640137
2721 -4853.648265585823
2722 -4853.883097126291
2723 -4854.047772133428
2724 -4854.309605542612
2725 -4854.487065608591
2726 -4854.735846860839
2727 -4854.91120171588
2728 -4855.169601441568
2729 -4855.35620911917
2730 -4855.620061447886
2731 -4855.794680163164
2732 -4856.058271335339
2733 -4856.244167023849
2734 -4856.502127509611
2735 -4856.714006974315
2736 -4857.001503512149
2737 -4857.21927987111
2738 -4857.504946972308
2739 -4857.71311847446
2740 -4858.001145528317
2741 -4858.217363914483
2742 -4858.509686278528
2743 -4858.736610222085
2744 -4859.044248556886
2745 -4859.295788283224
2746 -4859.620396292731
2747 -4859.857388829252
2748 -4860.175323831358
2749 -4860.40688096657
2750 -4860.733231657534
2751 -4860.972725428719
2752 -4861.302946250489
2753 -4861.563268851552
2754 -4861.914944381099
2755 -4862.191040892039
2756 -4862.546847944898
2757 -4862.85123467887
2758 -4863.236387697239
2759 -4863.534441428087
2760 -4863.920513976511
2761 -4864.245504212496
2762 -4864.636521621087
2763 -4864.941331883163
2764 -4865.359652889769
2765 -4865.703778094096
2766 -4866.122100147275
2767 -4866.46092525846
2768 -4866.879451393828
2769 -4867.231993552147
2770 -4867.67460589394
2771 -4868.048290459087
2772 -4868.50212998308
2773 -4868.876820490053
2774 -4869.33272909247
2775 -4869.693849285388
2776 -4870.16592809853
2777 -4870.557115622041
2778 -4871.037770811136
2779 -4871.42642080384
2780 -4871.894867203675
2781 -4872.278796302945
2782 -4872.742127887351
2783 -4873.119519845302
2784 -4873.56652469856
2785 -4873.909290245161
2786 -4874.349684328942
2787 -4874.685697904888
2788 -4875.123146877006
2789 -4875.484197327944
2790 -4875.919135395465
2791 -4876.256194133463
2792 -4876.689580268231
2793 -4877.002095833966
2794 -4877.42269388604
2795 -4877.741866224957
2796 -4878.1485429541
2797 -4878.472239542921
2798 -4878.874322065086
2799 -4879.213450948576
2800 -4879.600064239048
2801 -4879.927909616385
2802 -4880.321622252537
2803 -4880.603831779747
2804 -4880.985674134135
2805 -4881.272692867946
2806 -4881.66069902038
2807 -4881.948321193391
2808 -4882.312196856205
2809 -4882.60071105765
2810 -4882.934935005348
2811 -4883.175124520018
2812 -4883.506606063356
2813 -4883.749737879069
2814 -4884.066841749122
2815 -4884.316946543817
2816 -4884.625877739711
2817 -4884.848629516257
2818 -4885.1393786192
2819 -4885.34448276681
2820 -4885.640998881007
2821 -4885.873250545411
2822 -4886.163583177205
2823 -4886.386466495899
2824 -4886.704998648326
2825 -4886.939462994774
2826 -4887.217755943547
2827 -4887.43129579288
2828 -4887.713096849418
2829 -4887.930050910089
2830 -4888.235612046919
2831 -4888.46743281241
2832 -4888.760930756918
2833 -4888.975468099618
2834 -4889.239491039531
2835 -4889.434119268811
2836 -4889.70903148202
2837 -4889.901779319658
2838 -4890.176129234441
2839 -4890.378699460181
2840 -4890.670952734262
2841 -4890.894024807561
2842 -4891.160108270311
2843 -4891.349184510541
2844 -4891.615893232816
2845 -4891.790261365313
2846 -4892.03478059784
2847 -4892.211326823369
2848 -4892.465706235151
2849 -4892.669871411884
2850 -4892.918700940048
2851 -4893.085990765617
2852 -4893.314779472649
2853 -4893.482773216915
2854 -4893.738253822428
2855 -4893.921524740658
2856 -4894.178166999303
2857 -4894.347062415563
2858 -4894.5910043765
2859 -4894.75706919884
2860 -4895.0048176034
2861 -4895.194817592077
2862 -4895.435702927786
2863 -4895.594693798558
2864 -4895.806216568143
2865 -4895.975678415351
2866 -4896.184339362521
2867 -4896.329782605458
2868 -4896.511086175389
2869 -4896.638161450584
2870 -4896.814143190233
2871 -4896.898363619848
2872 -4897.036237704289
2873 -4897.127714603579
2874 -4897.257656905657
2875 -4897.315982269193
2876 -4897.447988256792
2877 -4897.506883752225
2878 -4897.59664252828
2879 -4897.592162832475
2880 -4897.606881145496
2881 -4897.541334785249
2882 -4897.530793714315
2883 -4897.422660424297
2884 -4897.353477466139
2885 -4897.180243610329
2886 -4897.050163357322
2887 -4896.803716242455
2888 -4896.609896809744
2889 -4896.319163296248
2890 -4896.068611486583
2891 -4895.717020251326
2892 -4895.385431208929
2893 -4894.970255118598
2894 -4894.586247598649
2895 -4894.105230482635
2896 -4893.662727002367
2897 -4893.136899191249
2898 -4892.644943296689
2899 -4892.028034052913
2900 -4891.479086843031
2901 -4890.810275986358
2902 -4890.193724770187
2903 -4889.467562398927
2904 -4888.806879286221
2905 -4888.032930672715
2906 -4887.305151335451
2907 -4886.48158892151
2908 -4885.697508657848
2909 -4884.837272456878
2910 -4884.027324814216
2911 -4883.127795727268
2912 -4882.30036622013
2913 -4881.396891695572
2914 -4880.524776287818
2915 -4879.565495776366
2916 -4878.685972953402
2917 -4877.717131751951
2918 -4876.80462929987
2919 -4875.821411309935
2920 -4874.892058537364
2921 -4873.881909069813
2922 -4872.934610312599
2923 -4871.897963226374
2924 -4870.932646958546
2925 -4869.906235637413
2926 -4868.955084980151
2927 -4867.932117013833
2928 -4867.010873311719
2929 -4866.015693150111
2930 -4865.091664945186
2931 -4864.129537153562
2932 -4863.231156381748
2933 -4862.290748849097
2934 -4861.416077869844
2935 -4860.478108897119
2936 -4859.626425829644
2937 -4858.735599474569
2938 -4857.931671693424
2939 -4857.057901793306
2940 -4856.307142429994
2941 -4855.482132141704
2942 -4854.747921720629
2943 -4853.957595395636
2944 -4853.267557842002
2945 -4852.536283430515
2946 -4851.893453864649
2947 -4851.185533829243
2948 -4850.59634219628
2949 -4849.958240330401
2950 -4849.418788002481
2951 -4848.815584343288
2952 -4848.317839290034
2953 -4847.789038783885
2954 -4847.345349630688
2955 -4846.865810119478
2956 -4846.494955610062
2957 -4846.089640124352
2958 -4845.775951047931
2959 -4845.410443980533
2960 -4845.148540923165
2961 -4844.859724419352
2962 -4844.666435240426
2963 -4844.423176691053
2964 -4844.285586457054
2965 -4844.102516389173
2966 -4844.02585677941
2967 -4843.896852816993
2968 -4843.849074061689
2969 -4843.751951667587
2970 -4843.740129038117
2971 -4843.665384046684
2972 -4843.666253462168
2973 -4843.612784681388
2974 -4843.632836271513
2975 -4843.584724064746
2976 -4843.621132872973
2977 -4843.588587659189
2978 -4843.616921586889
2979 -4843.572553100626
2980 -4843.5916233448
2981 -4843.53342306317
2982 -4843.554887405228
2983 -4843.492506829582
2984 -4843.489406742302
2985 -4843.407225708701
2986 -4843.379778964547
2987 -4843.267830959966
2988 -4843.228079929954
2989 -4843.094069262614
2990 -4843.019431634858
2991 -4842.848611871432
2992 -4842.748268443588
2993 -4842.55331655995
2994 -4842.417288500916
2995 -4842.190876406799
2996 -4842.048304583456
2997 -4841.80594834289
2998 -4841.614165437697
2999 -4841.338666912963
3000 -4841.127226335998
3001 -4840.829217791654
3002 -4840.569613231196
3003 -4840.222234610093
3004 -4839.928214169392
3005 -4839.549217993718
3006 -4839.234019139177
3007 -4838.83372071483
3008 -4838.503647968221
3009 -4838.081748026771
3010 -4837.706694751751
3011 -4837.239330275066
3012 -4836.841169921771
3013 -4836.35829151328
3014 -4835.960121259091
3015 -4835.468712059263
3016 -4835.035439717266
3017 -4834.537432883174
3018 -4834.105083690058
3019 -4833.593043096973
3020 -4833.151434292938
3021 -4832.62733701129
3022 -4832.19294751589
3023 -4831.687118230175
3024 -4831.254790514623
3025 -4830.762382845391
3026 -4830.340361246513
3027 -4829.86011020533
3028 -4829.461001219388
3029 -4829.013046351351
3030 -4828.648139845111
3031 -4828.221724373144
3032 -4827.890262346737
3033 -4827.496677188018
3034 -4827.188945983572
3035 -4826.838308971714
3036 -4826.57517217198
3037 -4826.26108388599
3038 -4826.040841186211
3039 -4825.772199357876
3040 -4825.583498356998
3041 -4825.367919360961
3042 -4825.239094526032
3043 -4825.089518048222
3044 -4825.027566422135
3045 -4824.923233407967
3046 -4824.92216354754
3047 -4824.873242848919
3048 -4824.926627533514
3049 -4824.940018277144
3050 -4825.036139574254
3051 -4825.084484664485
3052 -4825.239231030685
3053 -4825.329108704971
3054 -4825.525831147793
3055 -4825.664232994629
3056 -4825.896770261981
3057 -4826.078439050323
3058 -4826.370962357685
3059 -4826.604782666853
3060 -4826.944172507527
3061 -4827.220353508849
3062 -4827.590570988009
3063 -4827.88589649566
3064 -4828.27466803888
3065 -4828.60423291498
3066 -4829.016414332949
3067 -4829.368059439957
3068 -4829.80748047453
3069 -4830.180829162813
3070 -4830.638313295968
3071 -4831.016250029664
3072 -4831.462410749773
3073 -4831.84947375472
3074 -4832.306025459652
3075 -4832.701028054216
3076 -4833.165581232623
3077 -4833.562096996456
3078 -4834.040451173696
3079 -4834.42596326794
3080 -4834.874980897921
3081 -4835.25299429527
3082 -4835.684193976923
3083 -4836.038224115554
3084 -4836.458779573381
3085 -4836.794657095827
3086 -4837.180200049504
3087 -4837.471158175593
3088 -4837.816814094712
3089 -4838.075870146451
3090 -4838.406424698311
3091 -4838.628650842911
3092 -4838.910816932815
3093 -4839.081746898718
3094 -4839.314853018223
3095 -4839.463260931223
3096 -4839.666008772781
3097 -4839.783464458742
3098 -4839.945361181154
3099 -4840.000475311593
3100 -4840.11862691875
3101 -4840.143003236935
3102 -4840.237050805782
3103 -4840.224501476056
3104 -4840.283782394699
3105 -4840.225426748714
3106 -4840.212905059466
3107 -4840.121507714574
3108 -4840.088964634626
3109 -4839.946835304292
3110 -4839.870810960145
3111 -4839.698212447283
3112 -4839.585210745771
3113 -4839.384148289261
3114 -4839.234049944539
3115 -4839.000903440736
3116 -4838.825468186252
3117 -4838.56797269403
3118 -4838.378307323401
3119 -4838.10108945814
3120 -4837.904121431567
3121 -4837.607748252984
3122 -4837.386141295631
3123 -4837.086049453036
3124 -4836.870871220768
3125 -4836.586289492463
3126 -4836.374647093743
3127 -4836.08597953658
3128 -4835.882640350708
3129 -4835.603685038323
3130 -4835.392961921645
3131 -4835.118500130858
3132 -4834.930105874523
3133 -4834.662365957023
3134 -4834.485816145496
3135 -4834.247257460041
3136 -4834.098203180177
3137 -4833.883606042536
3138 -4833.751386841738
3139 -4833.55316455814
3140 -4833.463382052251
3141 -4833.30593266276
3142 -4833.244023750628
3143 -4833.11962173832
3144 -4833.090725533949
3145 -4833.004100565237
3146 -4833.002387052589
3147 -4832.946900825791
3148 -4832.982218336421
3149 -4832.943975476507
3150 -4833.008772815795
3151 -4833.004471925115
3152 -4833.0846605124
3153 -4833.104727264274
3154 -4833.204129885652
3155 -4833.23601384316
3156 -4833.357805070467
3157 -4833.405757203159
3158 -4833.545584899441
3159 -4833.600432059113
3160 -4833.746895214678
3161 -4833.8136142513
3162 -4833.97848133102
3163 -4834.062767919339
3164 -4834.225103958465
3165 -4834.301497288119
3166 -4834.464449156296
3167 -4834.550027062319
3168 -4834.71115844962
3169 -4834.795615781653
3170 -4834.959561770927
3171 -4835.042793371028
3172 -4835.211699672328
3173 -4835.29621014096
3174 -4835.458298369681
3175 -4835.536941273057
3176 -4835.70413540047
3177 -4835.783830792323
3178 -4835.939886210152
3179 -4836.002069035218
3180 -4836.162377246942
3181 -4836.234176538136
3182 -4836.381619758859
3183 -4836.446751536489
3184 -4836.59463662182
3185 -4836.667173410894
3186 -4836.809967385496
3187 -4836.860983017886
3188 -4836.992887632186
3189 -4837.032608090171
3190 -4837.14691035577
3191 -4837.165153144304
3192 -4837.261892277063
3193 -4837.273328426171
3194 -4837.343197484426
3195 -4837.320540871069
3196 -4837.357888155103
3197 -4837.313213887976
3198 -4837.326955784504
3199 -4837.253345528371
3200 -4837.239887853302
3201 -4837.143144344143
3202 -4837.098163920438
3203 -4836.965276098526
3204 -4836.893278456118
3205 -4836.73316207733
3206 -4836.627567010059
3207 -4836.432195674909
3208 -4836.294256417492
3209 -4836.055314658963
3210 -4835.890117042582
3211 -4835.625432822685
3212 -4835.42575766889
3213 -4835.140186236038
3214 -4834.904398502842
3215 -4834.596148895291
3216 -4834.364868818778
3217 -4834.05178110014
3218 -4833.802727288763
3219 -4833.478232176833
3220 -4833.219363836429
3221 -4832.883892017294
3222 -4832.624691177697
3223 -4832.285143544528
3224 -4832.036179964587
3225 -4831.709033028036
3226 -4831.453236597367
3227 -4831.11982591072
3228 -4830.863174914654
3229 -4830.554897169634
3230 -4830.306902679518
3231 -4829.989357476648
3232 -4829.754990435501
3233 -4829.456985751379
3234 -4829.241046533964
3235 -4828.952383128268
3236 -4828.746800313043
3237 -4828.478924147015
3238 -4828.296382328273
3239 -4828.03886542501
3240 -4827.879771839077
3241 -4827.650675501223
3242 -4827.499622211815
3243 -4827.287768899556
3244 -4827.170530997451
3245 -4826.976200846369
3246 -4826.87992617481
3247 -4826.709074136093
3248 -4826.635440481509
3249 -4826.497464979628
3250 -4826.457543053239
3251 -4826.331984887932
3252 -4826.319106551679
3253 -4826.231191361104
3254 -4826.22828127566
3255 -4826.168260473206
3256 -4826.185961187259
3257 -4826.139286150176
3258 -4826.183038788551
3259 -4826.14203524185
3260 -4826.213858666427
3261 -4826.213867568894
3262 -4826.295963959767
3263 -4826.308034318574
3264 -4826.429966238818
3265 -4826.478655646411
3266 -4826.615492190536
3267 -4826.693810104372
3268 -4826.849654386801
3269 -4826.95136092068
3270 -4827.13258201123
3271 -4827.238677043975
3272 -4827.44320174484
3273 -4827.571033244396
3274 -4827.802748485728
3275 -4827.932613355726
3276 -4828.184642843085
3277 -4828.35227654198
3278 -4828.616525375692
3279 -4828.780508348959
3280 -4829.057630089463
3281 -4829.243243239188
3282 -4829.518387476329
3283 -4829.703746440519
3284 -4829.983660762932
3285 -4830.1782291605
3286 -4830.463816162591
3287 -4830.642875227201
3288 -4830.914676356111
3289 -4831.104852650928
3290 -4831.354439906027
3291 -4831.515708902151
3292 -4831.769965985839
3293 -4831.927363373803
3294 -4832.162124861275
3295 -4832.303227549219
3296 -4832.533523513242
3297 -4832.683861135563
3298 -4832.906965667563
3299 -4833.012782416532
3300 -4833.219621380476
3301 -4833.329345452226
3302 -4833.508419268077
3303 -4833.598065059177
3304 -4833.770538216433
3305 -4833.855949842647
3306 -4834.010500554104
3307 -4834.071926606154
3308 -4834.22161795907
3309 -4834.277858951837
3310 -4834.414367408271
3311 -4834.450107763953
3312 -4834.573970934945
3313 -4834.614792117395
3314 -4834.723132128167
3315 -4834.743890141443
3316 -4834.859535393388
3317 -4834.885074497368
3318 -4834.99681937582
3319 -4835.02285384684
3320 -4835.138003380996
3321 -4835.167817840994
3322 -4835.282469259605
3323 -4835.308953606725
3324 -4835.432577540016
3325 -4835.47094998447
3326 -4835.59210497697
3327 -4835.633524505267
3328 -4835.767167566561
3329 -4835.821200207148
3330 -4835.956244600082
3331 -4836.013234504738
3332 -4836.162259287171
3333 -4836.229552047324
3334 -4836.392772602524
3335 -4836.459488502564
3336 -4836.616991770709
3337 -4836.69897107276
3338 -4836.859076703435
3339 -4836.936815705744
3340 -4837.101443951404
3341 -4837.180069529759
3342 -4837.336354519892
3343 -4837.401284909082
3344 -4837.559763479954
3345 -4837.640728120055
3346 -4837.803466974997
3347 -4837.877648116657
3348 -4838.045806540445
3349 -4838.132160317753
3350 -4838.294376866673
3351 -4838.359682887084
3352 -4838.522861505943
3353 -4838.611698556276
3354 -4838.770579593817
3355 -4838.848682982341
3356 -4839.000041690886
3357 -4839.076798470075
3358 -4839.2371330408
3359 -4839.316910913014
3360 -4839.488166233838
3361 -4839.570728700852
3362 -4839.726344896226
3363 -4839.807807287821
3364 -4839.965456682196
3365 -4840.049117466676
3366 -4840.206603119083
3367 -4840.276672202477
3368 -4840.432918312783
3369 -4840.499098617918
3370 -4840.649171808371
3371 -4840.710536254972
3372 -4840.857102044859
3373 -4840.919639244149
3374 -4841.052587838851
3375 -4841.092378450171
3376 -4841.224050928337
3377 -4841.269248229954
3378 -4841.372660240223
3379 -4841.391556003497
3380 -4841.485855876967
3381 -4841.48709709993
3382 -4841.566766571186
3383 -4841.547819152735
3384 -4841.602863638965
3385 -4841.580047736038
3386 -4841.622132972045
3387 -4841.582434265349
3388 -4841.613980180481
3389 -4841.546829705002
3390 -4841.549870764195
3391 -4841.449210300101
3392 -4841.43534819763
3393 -4841.335410005272
3394 -4841.289103743263
3395 -4841.171989147216
3396 -4841.11754471411
3397 -4840.987499704623
3398 -4840.910808667179
3399 -4840.757893790459
3400 -4840.667194627404
3401 -4840.493741263718
3402 -4840.366041993458
3403 -4840.175507985187
3404 -4840.044933881455
3405 -4839.821528014595
3406 -4839.665184200566
3407 -4839.420732219752
3408 -4839.238496135398
3409 -4838.979277467931
3410 -4838.777199115292
3411 -4838.500392602946
3412 -4838.284547275938
3413 -4837.995360448139
3414 -4837.772547560286
3415 -4837.466536916338
3416 -4837.227336052152
3417 -4836.919242638452
3418 -4836.671122684418
3419 -4836.346875178347
3420 -4836.093020293357
3421 -4835.756931959862
3422 -4835.496662149629
3423 -4835.145548353404
3424 -4834.869480029261
3425 -4834.513828627661
3426 -4834.224071032362
3427 -4833.867901664394
3428 -4833.570607987906
3429 -4833.203770250237
3430 -4832.910068285181
3431 -4832.537827610089
3432 -4832.239995949611
3433 -4831.870313965372
3434 -4831.56881924202
3435 -4831.1907268857
3436 -4830.885177136359
3437 -4830.516761956983
3438 -4830.2098102364
3439 -4829.839088177278
3440 -4829.534738082856
3441 -4829.172779897162
3442 -4828.872951034178
3443 -4828.500227704144
3444 -4828.22034939767
3445 -4827.857315933665
3446 -4827.568653805146
3447 -4827.210480046198
3448 -4826.925188404957
3449 -4826.574273495135
3450 -4826.294545581898
3451 -4825.937154969061
3452 -4825.673570739942
3453 -4825.326116685709
3454 -4825.058635668654
3455 -4824.706870256383
3456 -4824.449319724341
3457 -4824.100603619017
3458 -4823.836564029261
3459 -4823.48726391964
3460 -4823.235017827717
3461 -4822.894984622822
3462 -4822.631108698639
3463 -4822.285882795966
3464 -4822.022615854116
3465 -4821.686198686642
3466 -4821.425842158444
3467 -4821.088517712097
3468 -4820.849911819976
3469 -4820.523831689256
3470 -4820.276875764316
3471 -4819.958874300947
3472 -4819.719558617314
3473 -4819.399249467883
3474 -4819.15434712227
3475 -4818.833355863582
3476 -4818.597032407228
3477 -4818.28062135657
3478 -4818.048764808933
3479 -4817.737721547342
3480 -4817.524333584257
3481 -4817.232778964635
3482 -4817.025419533012
3483 -4816.748747747985
3484 -4816.564705226297
3485 -4816.295560184639
3486 -4816.115392126075
3487 -4815.866317555577
3488 -4815.707254742667
3489 -4815.473334247768
3490 -4815.324478586521
3491 -4815.090469675521
3492 -4814.954832589876
3493 -4814.738144256214
3494 -4814.607960402827
3495 -4814.402237246514
3496 -4814.293093942183
3497 -4814.098540129851
3498 -4813.987569408216
3499 -4813.794545239159
3500 -4813.701658477637
3501 -4813.534433820962
3502 -4813.449555847059
3503 -4813.288227342829
3504 -4813.209689152919
3505 -4813.06775933395
3506 -4812.998538248366
3507 -4812.856680661637
3508 -4812.798714844012
3509 -4812.665187511474
3510 -4812.611210703174
3511 -4812.481463504842
3512 -4812.428576225829
3513 -4812.304705495558
3514 -4812.25520883201
3515 -4812.125726360033
3516 -4812.075321218231
3517 -4811.9509906662
3518 -4811.894656025784
3519 -4811.762499007441
3520 -4811.701934785403
3521 -4811.557918615768
3522 -4811.488757268558
3523 -4811.334852470349
3524 -4811.260333003744
3525 -4811.100673797669
3526 -4811.00498618792
3527 -4810.844397306783
3528 -4810.749166190567
3529 -4810.575155876665
3530 -4810.475528724526
3531 -4810.28979394829
3532 -4810.182274831337
3533 -4809.991440728099
3534 -4809.863177649275
3535 -4809.663008384855
3536 -4809.530783377739
3537 -4809.322619822728
3538 -4809.195833448268
3539 -4808.981506102905
3540 -4808.842546089836
3541 -4808.630316293452
3542 -4808.499668298282
3543 -4808.294338604277
3544 -4808.173623008531
3545 -4807.97938628543
3546 -4807.861091627915
3547 -4807.661267540756
3548 -4807.556622040969
3549 -4807.380499510428
3550 -4807.287333562493
3551 -4807.114886137793
3552 -4807.036497719344
3553 -4806.888896599091
3554 -4806.82689638172
3555 -4806.690844470646
3556 -4806.652225004732
3557 -4806.540392359295
3558 -4806.516980459395
3559 -4806.427143957185
3560 -4806.424375178297
3561 -4806.351446198932
3562 -4806.371106618674
3563 -4806.315809141937
3564 -4806.364436683153
3565 -4806.335918014381
3566 -4806.396348395623
3567 -4806.3804793364
3568 -4806.464802365294
3569 -4806.476578561641
3570 -4806.575679908533
3571 -4806.59442629591
3572 -4806.7118680779
3573 -4806.748659562364
3574 -4806.875652939516
3575 -4806.921924678096
3576 -4807.059640513602
3577 -4807.126694115317
3578 -4807.26760886149
3579 -4807.329087108419
3580 -4807.487968448035
3581 -4807.561645209738
3582 -4807.715512960211
3583 -4807.78713180716
3584 -4807.947240645615
3585 -4808.03067452511
3586 -4808.19428250114
3587 -4808.27362197316
3588 -4808.451563639082
3589 -4808.547039950637
3590 -4808.715921159662
3591 -4808.810175484762
3592 -4808.992375930981
3593 -4809.093394659192
3594 -4809.277483326653
3595 -4809.360925100046
3596 -4809.541550050023
3597 -4809.642760482826
3598 -4809.817868689644
3599 -4809.910372029114
3600 -4810.083161799468
3601 -4810.175242042515
3602 -4810.347057542023
3603 -4810.428645719162
3604 -4810.603270737735
3605 -4810.692292446024
3606 -4810.860294192803
3607 -4810.928906500156
3608 -4811.08024818889
3609 -4811.145701304587
3610 -4811.29372514103
3611 -4811.348886612105
3612 -4811.479965651502
3613 -4811.530719482656
3614 -4811.649696419523
3615 -4811.68641907672
3616 -4811.804655870677
3617 -4811.827944029299
3618 -4811.933527182565
3619 -4811.947739510501
3620 -4812.032895473392
3621 -4812.041361320957
3622 -4812.13030048053
3623 -4812.132240640336
3624 -4812.217868581909
3625 -4812.219398994668
3626 -4812.285714172181
3627 -4812.274352336009
3628 -4812.34347583702
3629 -4812.325745675006
3630 -4812.396638481807
3631 -4812.363901556718
3632 -4812.414542573957
3633 -4812.388124268343
3634 -4812.428801381524
3635 -4812.381405931797
3636 -4812.41872159102
3637 -4812.371373304412
3638 -4812.39839300753
3639 -4812.337723289269
