"mz-rfile"
"Iteration" "mz"
("Iteration" "mz")
1 7708.520326345406
2 7529.002910234727
3 6697.638569030163
4 5973.960560816448
5 5281.374892188715
6 4631.138946375499
7 4008.327472028105
8 3449.612479981677
9 2883.301501307005
10 2280.541765845916
11 1870.3363800954
12 1557.328431768881
13 1327.415507802824
14 1187.659199241688
15 1097.633965960976
16 1064.072457711663
17 1063.362746371571
18 1089.348163372637
19 1138.682067991731
20 1214.497626159185
21 1302.14105531759
22 1412.489592335382
23 1527.559127965471
24 1636.420880788221
25 1731.46724366726
26 1820.926692375895
27 1908.974529493506
28 1977.421056124223
29 2043.968827749504
30 2093.24550140936
31 2140.632690011991
32 2185.654912074774
33 2237.191320144905
34 2281.327337625958
35 2319.93806519348
36 2356.694760007982
37 2379.796308209516
38 2400.485673129479
39 2412.995000236947
40 2420.141686765277
41 2424.046768426408
42 2424.906641654271
43 2425.13246410702
44 2424.560131525575
45 2424.145435297849
46 2423.528958139811
47 2423.491134289322
48 2424.092430268132
49 2425.756132704319
50 2427.326323200705
51 2430.438977113869
52 2433.153592198223
53 2436.744428538017
54 2440.739079304173
55 2445.42263392994
56 2448.967467366886
57 2454.918022360334
58 2459.039424464817
59 2463.759199671418
60 2468.775679307672
61 2474.132260607681
62 2482.163373198558
63 2487.563953006266
64 2495.408476870418
65 2500.450826140895
66 2507.636667844161
67 2512.082286848015
68 2518.188818690361
69 2521.844698889788
70 2525.253528777979
71 2529.882985841513
72 2532.411627530951
73 2534.707831940286
74 2536.700652690111
75 2539.226738957294
76 2540.393739001909
77 2541.368073472537
78 2542.067888170673
79 2542.61000548791
80 2542.882717110649
81 2542.96964352599
82 2542.842749194085
83 2542.613442437611
84 2542.203264011291
85 2541.6772271614
86 2540.982967840443
87 2540.243829993531
88 2539.412576721625
89 2538.496853007437
90 2537.470595483363
91 2536.503205595513
92 2535.452250399143
93 2534.430730529338
94 2533.350869938152
95 2532.288564770022
96 2531.142488779205
97 2530.065498328276
98 2528.930910488718
99 2527.836530938037
100 2526.695251708973
101 2525.644001435183
102 2524.5872926099
103 2523.569030327162
104 2522.548607446946
105 2521.634900741208
106 2520.733294179419
107 2519.913026848185
108 2519.068716888961
109 2518.333788617992
110 2517.622878528405
111 2517.023676451752
112 2516.426053851741
113 2515.920938098029
114 2515.48382322001
115 2515.147217948155
116 2514.813272431316
117 2514.641110465225
118 2514.491276027617
119 2514.437107856781
120 2514.44291931094
121 2514.534778498208
122 2514.66168735126
123 2514.907655889729
124 2515.189805506932
125 2515.532847164887
126 2515.980820806495
127 2516.535053497574
128 2517.12600832836
129 2517.79920363895
130 2518.536082096993
131 2519.389961284833
132 2520.255029440948
133 2521.203572884807
134 2522.216118908712
135 2523.331790049407
136 2524.482853782707
137 2525.67893101758
138 2526.953226357451
139 2528.291346748037
140 2529.667784705094
141 2531.083404940631
142 2532.560986692158
143 2534.085675463705
144 2535.648547547409
145 2537.231762992748
146 2538.835976327089
147 2540.475671070949
148 2542.112622320084
149 2543.799482344896
150 2545.466974578062
151 2547.182165087459
152 2548.899360087959
153 2550.62975606261
154 2552.353899693733
155 2554.076596261341
156 2555.803247186287
157 2557.537846547899
158 2559.241376976875
159 2560.943231836182
160 2562.644143373626
161 2564.339204680844
162 2566.000392942637
163 2567.651209053427
164 2569.26785350923
165 2570.875039156915
166 2572.445055686069
167 2573.986337737738
168 2575.503952101124
169 2577.033881780468
170 2578.485215609366
171 2579.960810547268
172 2581.359820825778
173 2582.776436054575
174 2584.12734970286
175 2585.477333399424
176 2586.790521351548
177 2588.105931563131
178 2589.342571005604
179 2590.594340740479
180 2591.789578288909
181 2592.999642161239
182 2594.139042002069
183 2595.304610485146
184 2596.421507816051
185 2597.544939621987
186 2598.601672702173
187 2599.702475254814
188 2600.736361305201
189 2601.807314994252
190 2602.811059798646
191 2603.856615251525
192 2604.818029414685
193 2605.837479953013
194 2606.802853694112
195 2607.816085008801
196 2608.750719330563
197 2609.755987127231
198 2610.689901339161
199 2611.689483107479
200 2612.584684103631
201 2613.565278282948
202 2614.473773375004
203 2615.467500935546
204 2616.365185607247
205 2617.351074488108
206 2618.272391289674
207 2619.27576211516
208 2620.189964935294
209 2621.21812074446
210 2622.142780825178
211 2623.187938844279
212 2624.14372436742
213 2625.215450665561
214 2626.173348028899
215 2627.267758100686
216 2628.256492498151
217 2629.369820511176
218 2630.377213215369
219 2631.499345435878
220 2632.548235264791
221 2633.703636720742
222 2634.747611063238
223 2635.912717397218
224 2636.996668959202
225 2638.177216435024
226 2639.294019109482
227 2640.51500990464
228 2641.646641891939
229 2642.86601790864
230 2644.01512036713
231 2645.249826271231
232 2646.414541834773
233 2647.649059854769
234 2648.820431428199
235 2650.079744595418
236 2651.260438018408
237 2652.533209822196
238 2653.727755910305
239 2654.995081000103
240 2656.171458041331
241 2657.445050594184
242 2658.631693897171
243 2659.914760801349
244 2661.10912518289
245 2662.417332211258
246 2663.571963813376
247 2664.859709143124
248 2666.042405256489
249 2667.323019249151
250 2668.494139872394
251 2669.75362451238
252 2670.931924235228
253 2672.190694892254
254 2673.333652392371
255 2674.558233497431
256 2675.722690701327
257 2676.951884076131
258 2678.071301432039
259 2679.312594360199
260 2680.406624532702
261 2681.607130633442
262 2682.715937054591
263 2683.894066173717
264 2684.967733527316
265 2686.133714459153
266 2687.184208520754
267 2688.329426839655
268 2689.371211959462
269 2690.495066300131
270 2691.500571841374
271 2692.612443449349
272 2693.588343101481
273 2694.666840925068
274 2695.648976346154
275 2696.707665336024
276 2697.668920980088
277 2698.708235103185
278 2699.633628738467
279 2700.658920327252
280 2701.583650238921
281 2702.592728279884
282 2703.47139443493
283 2704.468172110084
284 2705.32896108278
285 2706.286185397511
286 2707.14788461598
287 2708.082336030805
288 2708.887549791849
289 2709.808806754787
290 2710.604565246709
291 2711.509976012563
292 2712.294158929014
293 2713.179863626486
294 2713.933055812322
295 2714.807749484555
296 2715.538075897238
297 2716.384538364704
298 2717.10988437065
299 2717.961873146876
300 2718.642265125605
301 2719.455111185722
302 2720.121603633949
303 2720.91317895855
304 2721.565101269948
305 2722.351280186115
306 2722.9696811334
307 2723.760111304137
308 2724.377322578771
309 2725.116800749202
310 2725.716967398534
311 2726.461860124734
312 2727.050418259425
313 2727.778304005699
314 2728.32795978062
315 2729.024018126532
316 2729.591328970194
317 2730.281022781702
318 2730.81678786952
319 2731.476210259327
320 2731.995673312461
321 2732.668045024871
322 2733.175869900845
323 2733.834592852229
324 2734.316228116195
325 2734.957211680198
326 2735.407902439996
327 2736.041594464109
328 2736.512057216799
329 2737.124174763009
330 2737.579221467131
331 2738.196292958991
332 2738.623449498103
333 2739.210237906776
334 2739.661659659288
335 2740.234899084548
336 2740.675649376554
337 2741.256365021717
338 2741.653941397446
339 2742.213467311107
340 2742.626970021844
341 2743.194064004414
342 2743.565205349555
343 2744.099823340317
344 2744.493868674207
345 2745.021550514058
346 2745.399525478587
347 2745.924834063952
348 2746.297029525577
349 2746.81309545381
350 2747.169769624199
351 2747.672371706745
352 2748.035779061527
353 2748.518569237447
354 2748.869539289622
355 2749.366262198771
356 2749.701122301904
357 2750.17578121474
358 2750.509531851668
359 2750.976232007672
360 2751.318728721722
361 2751.785129396483
362 2752.101424405395
363 2752.575374894318
364 2752.90426626524
365 2753.36305630782
366 2753.671711889266
367 2754.112989585945
368 2754.432836062669
369 2754.850827188656
370 2755.145336908409
371 2755.60757505052
372 2755.900985024721
373 2756.356412511981
374 2756.60947375164
375 2757.043604221303
376 2757.334463397264
377 2757.771800802889
378 2758.050325757781
379 2758.469771237638
380 2758.736718034892
381 2759.131283419143
382 2759.409658233285
383 2759.814321957013
384 2760.096121023563
385 2760.472818729157
386 2760.728197685899
387 2761.130658817607
388 2761.385095018689
389 2761.778747380666
390 2762.017932130486
391 2762.411871669349
392 2762.64657372599
393 2763.025220744941
394 2763.254026136893
395 2763.622377768186
396 2763.860915750973
397 2764.23161328869
398 2764.447457231191
399 2764.806599793901
400 2765.049951216306
401 2765.392317145099
402 2765.608892093264
403 2765.951101004786
404 2766.166728103244
405 2766.52095439788
406 2766.735830262658
407 2767.094036533812
408 2767.291282719694
409 2767.633050150956
410 2767.814949096218
411 2768.144370409057
412 2768.347556889362
413 2768.689471888336
414 2768.864275765598
415 2769.189781515716
416 2769.384506124879
417 2769.682132255217
418 2769.867226427568
419 2770.197757595187
420 2770.373414944297
421 2770.691489418617
422 2770.838243827241
423 2771.170683118034
424 2771.342270942097
425 2771.661766203828
426 2771.797277607949
427 2772.103672330607
428 2772.25372709418
429 2772.551947486691
430 2772.688707308601
431 2773.00146518311
432 2773.142997066661
433 2773.446120311961
434 2773.571132983308
435 2773.862972184636
436 2774.001882308626
437 2774.305337948789
438 2774.428863063106
439 2774.714540071631
440 2774.832177389585
441 2775.114445333415
442 2775.236112057298
443 2775.529295290881
444 2775.641031249171
445 2775.918733419084
446 2776.026430981416
447 2776.306429879105
448 2776.428378240973
449 2776.693612166035
450 2776.808649060144
451 2777.040673216262
452 2777.157523365903
453 2777.425080999266
454 2777.532703145667
455 2777.780497915638
456 2777.887422135393
457 2778.152694248741
458 2778.241486017323
459 2778.479148841428
460 2778.592851935875
461 2778.85398258901
462 2778.961234439177
463 2779.204362153338
464 2779.290579552468
465 2779.541522780294
466 2779.657662242694
467 2779.875416095163
468 2779.956208680313
469 2780.204516086805
470 2780.282636026305
471 2780.524245107978
472 2780.602844429083
473 2780.842346912378
474 2780.918604496547
475 2781.15959825024
476 2781.218518039041
477 2781.460700291917
478 2781.530865760166
479 2781.751602186191
480 2781.814313496517
481 2782.052254316102
482 2782.116625598639
483 2782.348879453052
484 2782.408766888785
485 2782.626797310639
486 2782.661636705479
487 2782.896561231815
488 2782.957728724697
489 2783.17353242715
490 2783.253403278816
491 2783.481121486295
492 2783.51912203956
493 2783.738754500809
494 2783.789573979273
495 2783.995503292954
496 2784.050733958835
497 2784.26164058642
498 2784.297167287301
499 2784.508218562579
500 2784.546918272027
501 2784.748677390211
502 2784.806500537788
503 2785.005518608494
504 2785.061123619869
505 2785.255605652702
506 2785.302526228226
507 2785.488011778473
508 2785.551883117157
509 2785.738648093868
510 2785.781780445784
511 2785.978450143451
512 2785.998141552709
513 2786.18533769986
514 2786.234546617261
515 2786.415706672548
516 2786.460780426284
517 2786.651686296511
518 2786.674313332045
519 2786.860413260071
520 2786.903608750665
521 2787.070807097727
522 2787.10444548605
523 2787.292510441931
524 2787.318662469226
525 2787.496774984218
526 2787.532067864143
527 2787.697895980827
528 2787.719009927207
529 2787.922259791684
530 2787.927188553368
531 2788.106784367333
532 2788.116599379212
533 2788.308093925737
534 2788.303774501509
535 2788.503105528889
536 2788.48373566535
537 2788.673388431104
538 2788.687916631679
539 2788.861791543494
540 2788.853340168794
541 2789.02790240258
542 2789.02466396916
543 2789.193947778613
544 2789.203099529067
545 2789.366431104116
546 2789.373673803942
547 2789.5360834329
548 2789.52649175526
549 2789.687535051454
550 2789.703269330717
551 2789.863191518247
552 2789.870372491911
553 2790.029589665041
554 2790.027595460373
555 2790.190264242831
556 2790.188617545622
557 2790.34885040897
558 2790.346785101035
559 2790.504154226964
560 2790.480174045381
561 2790.635711815446
562 2790.617749210077
563 2790.782790332288
564 2790.77324374824
565 2790.937415716552
566 2790.916254081105
567 2791.067962336146
568 2791.061010276332
569 2791.212108720598
570 2791.197209083708
571 2791.344276727493
572 2791.321168730843
573 2791.484582984825
574 2791.455986864829
575 2791.612775431297
576 2791.592119298603
577 2791.750095803166
578 2791.711558226642
579 2791.866998763579
580 2791.849613779476
581 2792.003986898106
582 2791.978014797529
583 2792.104974040984
584 2792.079584226625
585 2792.21736349943
586 2792.20453223295
587 2792.352136087903
588 2792.331115558954
589 2792.466835174949
590 2792.430933199461
591 2792.575229039348
592 2792.555026136922
593 2792.684232572821
594 2792.661979902728
595 2792.792553739378
596 2792.762077540527
597 2792.892074154598
598 2792.87472327132
599 2792.99060379403
600 2792.971792518755
601 2793.114043252801
602 2793.069334870236
603 2793.205374760515
604 2793.186379352275
605 2793.319074439196
606 2793.294988299452
607 2793.416145149442
608 2793.379210383932
609 2793.50299217091
610 2793.478316967891
611 2793.604780963256
612 2793.574113094319
613 2793.699840337575
614 2793.662683295574
615 2793.785785352644
616 2793.759248734232
617 2793.880273282608
618 2793.847667526945
619 2793.9673886489
620 2793.918941888257
621 2794.043091305975
622 2794.012262478203
623 2794.130776538259
624 2794.102120757204
625 2794.227186876018
626 2794.183445854846
627 2794.283573408666
628 2794.256590446772
629 2794.392536540517
630 2794.358649243599
631 2794.485999103717
632 2794.443435249719
633 2794.564336791654
634 2794.523030821876
635 2794.662042929482
636 2794.610375043942
637 2794.735299508012
638 2794.667930547974
639 2794.809459880081
640 2794.763706614093
641 2794.881366481809
642 2794.844093638178
643 2794.945335485832
644 2794.887193823878
645 2795.012067587512
646 2794.967445840321
647 2795.078071992949
648 2795.051518983815
649 2795.174484217519
650 2795.109885059434
651 2795.231010949268
652 2795.188077565847
653 2795.306473538736
654 2795.249409182911
655 2795.373091072437
656 2795.305690987321
657 2795.426898437592
658 2795.37941552322
659 2795.509781671983
660 2795.442966498385
661 2795.569212456522
662 2795.482963852243
663 2795.601502094681
664 2795.561390783093
665 2795.668483370513
666 2795.618736819126
667 2795.723114414822
668 2795.666618938639
669 2795.797102991837
670 2795.737028374461
671 2795.852431259825
672 2795.803005405045
673 2795.914907544968
674 2795.83648510436
675 2795.964395323546
676 2795.910174125021
677 2796.02401980588
678 2795.969270823015
679 2796.09432872038
680 2796.028652162755
681 2796.142062208187
682 2796.097993112593
683 2796.19776325607
684 2796.152068145218
685 2796.250523743962
686 2796.189622124748
687 2796.298600463992
688 2796.253425038332
689 2796.35297847232
690 2796.295523486279
691 2796.401100036363
692 2796.335201566889
693 2796.447857779491
694 2796.381267309589
695 2796.492958085426
696 2796.442314158463
697 2796.561912258308
698 2796.479315910201
699 2796.582572350551
700 2796.526655262737
701 2796.629832726187
702 2796.573711297649
703 2796.669892561978
704 2796.6120241354
705 2796.709986919227
706 2796.659557175549
707 2796.760152885727
708 2796.692022470058
709 2796.807510135737
710 2796.726692166993
711 2796.829967377931
712 2796.766075648406
713 2796.863718152239
714 2796.804078061155
715 2796.900762904442
716 2796.825431656101
717 2796.939100683248
718 2796.877103777586
719 2796.98397697116
720 2796.918297652752
721 2797.032820300004
722 2796.956948783707
723 2797.062293708529
724 2796.980745561953
725 2797.088320541297
726 2797.015335332371
727 2797.118335173186
728 2797.041408518915
729 2797.147591906867
730 2797.080731607349
731 2797.184264179835
732 2797.119864031157
733 2797.226749453282
734 2797.138579098131
735 2797.247336734485
736 2797.185129945547
737 2797.280381244311
738 2797.21546520971
739 2797.300498119836
740 2797.222207509385
741 2797.318283808158
742 2797.255289417868
743 2797.361150153782
744 2797.302093792899
745 2797.406816501963
746 2797.313433269898
747 2797.412784270481
748 2797.340080488098
749 2797.434987719026
750 2797.364893619193
751 2797.462326856255
752 2797.382941437602
753 2797.487386084128
754 2797.415702341159
755 2797.513445918171
756 2797.438202768307
757 2797.534512233178
758 2797.456043167969
759 2797.56182797574
760 2797.492352170476
761 2797.582918757481
762 2797.518929874368
763 2797.613394528834
764 2797.530776341282
765 2797.639485708212
766 2797.565776831054
767 2797.650342293259
768 2797.584152085424
769 2797.695198016847
770 2797.59972934651
771 2797.698690617934
772 2797.644300630473
773 2797.748493115035
774 2797.665662973364
775 2797.769697696958
776 2797.67610323937
777 2797.7792300148
778 2797.703550962139
779 2797.809438738456
780 2797.735925749343
781 2797.832266190921
782 2797.739161027117
783 2797.845014817375
784 2797.767504834245
785 2797.860260702629
786 2797.78605202122
787 2797.882139042342
788 2797.800249840906
789 2797.901617770806
790 2797.829323910058
791 2797.936273102969
792 2797.845096802382
793 2797.952261576076
794 2797.874780121205
795 2797.968755327967
796 2797.905043242969
797 2798.003840017762
798 2797.91719627965
799 2798.01806146482
800 2797.930019275578
801 2798.017160721933
802 2797.94635399613
803 2798.041829893027
804 2797.964863699342
805 2798.052492958136
806 2797.970674465555
807 2798.070828045878
808 2797.994994623801
809 2798.094396248974
810 2798.006967565424
811 2798.09491584425
812 2798.005503961595
813 2798.109654006277
814 2798.037190969831
815 2798.133179257149
816 2798.062668619041
817 2798.140381949661
818 2798.05324554657
819 2798.15702083506
820 2798.075824721319
821 2798.181149717545
822 2798.09783047513
823 2798.192904947747
824 2798.105453846559
825 2798.204874043293
826 2798.12965979183
827 2798.219560615034
828 2798.130239216057
829 2798.242256538913
830 2798.145284914817
831 2798.243943853919
832 2798.157287795329
833 2798.252533907577
834 2798.155783289929
835 2798.257119358986
836 2798.177997223313
837 2798.276573379572
838 2798.208153686908
839 2798.302064913273
840 2798.229719557328
841 2798.335442227806
842 2798.248450802366
843 2798.343217604516
844 2798.269274101821
845 2798.357336863858
846 2798.276504041179
847 2798.376686456449
848 2798.276840942982
849 2798.37676900391
850 2798.292068241864
851 2798.399239379561
852 2798.312380149369
853 2798.412668410017
854 2798.319800208148
855 2798.419583552198
856 2798.344511537791
857 2798.431812847291
858 2798.349514884144
859 2798.439242017881
860 2798.35140448045
861 2798.440544670319
862 2798.359480072582
863 2798.45316146655
864 2798.381281773151
865 2798.473543425622
866 2798.383259470735
867 2798.475433542184
868 2798.408956898207
869 2798.508577389725
870 2798.421201315891
871 2798.527135430191
872 2798.437609907624
873 2798.525517370711
874 2798.432253950098
875 2798.535989114347
876 2798.455004249378
877 2798.542988655399
878 2798.446699367322
879 2798.563687508864
880 2798.480195242425
881 2798.568534902971
882 2798.479070409996
883 2798.579363907703
884 2798.480648596239
885 2798.579302235927
886 2798.496232808467
887 2798.587620743201
888 2798.508156414086
889 2798.597005554248
890 2798.502175846015
891 2798.597272871492
892 2798.524122899702
893 2798.615570099875
894 2798.520661133256
895 2798.621743066145
896 2798.526172821215
897 2798.612144636883
898 2798.534119965359
899 2798.623365955896
900 2798.539147975584
901 2798.629217692031
902 2798.534691455473
903 2798.632514972262
904 2798.540795510191
905 2798.620815767877
906 2798.537202378843
907 2798.633563087522
908 2798.535670127813
909 2798.629686662817
910 2798.549393160087
911 2798.635453045439
912 2798.570873867328
913 2798.649465055024
914 2798.553948012328
915 2798.647199016481
916 2798.573219140443
917 2798.661069048524
918 2798.581391778835
919 2798.671294900774
920 2798.584646161068
921 2798.6569980299
922 2798.573302000883
923 2798.668413374756
924 2798.579393295159
925 2798.672242667311
926 2798.578490233185
927 2798.671160006514
928 2798.592586999987
929 2798.687405674881
930 2798.596343391519
931 2798.688193865597
932 2798.592111726247
933 2798.697309020199
934 2798.608062374332
935 2798.706241162245
936 2798.625082975351
937 2798.716294834905
938 2798.632073302724
939 2798.711552998034
940 2798.631464537116
941 2798.717589214615
942 2798.638332645744
943 2798.723750275017
944 2798.634677902454
945 2798.711436484785
946 2798.647389453973
947 2798.73141724088
948 2798.653594033552
949 2798.7460044243
950 2798.651017272803
951 2798.741459086832
952 2798.652542016193
953 2798.751406497478
954 2798.658046552723
955 2798.74887792615
956 2798.650181127075
957 2798.744079241495
958 2798.661340573592
959 2798.758477711371
960 2798.66663190495
961 2798.769866058039
962 2798.66139523504
963 2798.740573193869
964 2798.659027577044
965 2798.752627810072
966 2798.675976146487
967 2798.754623642269
968 2798.654815324413
969 2798.750523443124
970 2798.676014421919
971 2798.773069190343
972 2798.687968821826
973 2798.774294437584
974 2798.684139224697
975 2798.773420790249
976 2798.694517743904
977 2798.774450494658
978 2798.698127287341
979 2798.780479910464
980 2798.682212413432
981 2798.778557249586
982 2798.699241046267
983 2798.782356614775
984 2798.697067683344
985 2798.794170118852
986 2798.69445913038
987 2798.775357361907
988 2798.698657256894
989 2798.798084998376
990 2798.710910176852
991 2798.806921870918
992 2798.709436058894
993 2798.803348487572
994 2798.724488747255
995 2798.815879280026
996 2798.727609919456
997 2798.817082079092
998 2798.734641285657
999 2798.835679855813
1000 2798.746569990734
1001 2798.834861572067
1002 2798.750645325176
1003 2798.837599746566
1004 2798.736413688219
1005 2798.828277850075
1006 2798.756049491292
1007 2798.845377218409
1008 2798.75037040536
1009 2798.860360842182
1010 2798.756620758099
1011 2798.862338586439
1012 2798.773653161491
1013 2798.874683237104
1014 2798.783771486768
1015 2798.867110415564
1016 2798.773474027468
1017 2798.864990456671
1018 2798.784552678459
1019 2798.883706051684
1020 2798.796254051
1021 2798.881887974629
1022 2798.782827475727
1023 2798.880953294863
1024 2798.788103984223
1025 2798.884713862006
1026 2798.792879536084
1027 2798.891662202482
1028 2798.788508814285
1029 2798.884657250959
1030 2798.800679530605
1031 2798.890982255701
1032 2798.81942657278
1033 2798.912779563759
1034 2798.818610983792
1035 2798.906710670732
1036 2798.824598594712
1037 2798.913801803611
1038 2798.834095428887
1039 2798.922733392727
1040 2798.828842029484
1041 2798.907669935694
1042 2798.834404134422
1043 2798.920348648265
1044 2798.845538723381
1045 2798.918540449616
1046 2798.826575118314
1047 2798.914685683627
1048 2798.829527376352
1049 2798.912281608419
1050 2798.823691214815
1051 2798.912009622361
1052 2798.816725623353
1053 2798.910743939728
1054 2798.823521403191
1055 2798.910771539179
1056 2798.837867057974
1057 2798.926723566761
1058 2798.826334142123
1059 2798.917781644826
1060 2798.830991171292
1061 2798.924428987083
1062 2798.842240082127
1063 2798.932998832059
1064 2798.835511697538
1065 2798.916752687306
1066 2798.84010724017
1067 2798.92741994017
1068 2798.844341648797
1069 2798.932130556271
1070 2798.82996312242
1071 2798.928760575321
1072 2798.822566038423
1073 2798.916063140322
1074 2798.8300205184
1075 2798.92752028969
1076 2798.822630455279
1077 2798.916493784379
1078 2798.8430190136
1079 2798.925891208083
1080 2798.851187355659
1081 2798.936547377661
1082 2798.846339790885
1083 2798.942705349596
1084 2798.861373569974
1085 2798.946882680387
1086 2798.865080279911
1087 2798.950041921133
1088 2798.850685983525
1089 2798.936442526494
1090 2798.849191359124
1091 2798.946930603639
1092 2798.867520756514
1093 2798.952864137806
1094 2798.851127240202
1095 2798.949730068663
1096 2798.868955485621
1097 2798.94712603809
1098 2798.857856772565
1099 2798.955207440068
1100 2798.851000274636
1101 2798.948704010695
1102 2798.864318940971
1103 2798.95660682674
1104 2798.886375991142
1105 2798.978749357269
1106 2798.877365464188
1107 2798.965281055478
1108 2798.880548528889
1109 2798.975889370718
1110 2798.883191301906
1111 2798.986286213337
1112 2798.882413713802
1113 2798.981201249707
1114 2798.887610888156
1115 2798.979817518687
1116 2798.898000431217
1117 2798.982985330866
1118 2798.879416401508
1119 2798.977296441422
1120 2798.88951779238
1121 2798.974527223277
1122 2798.895892285204
1123 2798.980587022846
1124 2798.882093883011
1125 2798.970998032666
1126 2798.881136119328
1127 2798.976674145395
1128 2798.889229965003
1129 2798.998444370827
1130 2798.876892898055
1131 2798.969135744892
1132 2798.886496216676
1133 2798.991493482752
1134 2798.895897002038
1135 2798.993772043455
1136 2798.884840668727
1137 2798.973653351908
1138 2798.884712734276
1139 2798.991882763565
1140 2798.903599079522
1141 2798.987157662662
1142 2798.883532615622
1143 2798.982630144845
1144 2798.887552729086
1145 2798.972966145619
1146 2798.892352465843
1147 2798.977256906304
1148 2798.874110245177
1149 2798.961545155174
1150 2798.875317142654
1151 2798.967306779165
1152 2798.891585284695
1153 2798.989285784233
1154 2798.865611188488
1155 2798.966039077658
1156 2798.885549127157
1157 2798.98496939481
1158 2798.898149960334
1159 2798.990024728646
1160 2798.885510087553
1161 2798.979664105338
1162 2798.885295329897
1163 2798.98093340146
1164 2798.896214479769
1165 2798.994548463247
1166 2798.89347426233
1167 2798.98695069827
1168 2798.88870086099
1169 2798.982077094249
1170 2798.885509651106
1171 2798.978779867605
1172 2798.88124412457
1173 2798.978614115534
1174 2798.895080362513
1175 2798.977209847418
1176 2798.905859090787
1177 2798.994055053068
1178 2798.894449155044
1179 2798.983188654201
1180 2798.892307278318
1181 2798.989747449707
1182 2798.89590481179
1183 2798.993479444349
1184 2798.880463055465
1185 2798.970468807074
1186 2798.888709258222
1187 2798.980690621696
1188 2798.896740679779
1189 2798.991430922323
1190 2798.892747507256
1191 2798.99332232197
1192 2798.900822398834
1193 2798.990095627989
1194 2798.906238900041
1195 2798.988282201397
1196 2798.884251969218
1197 2798.977433335657
1198 2798.893940407197
1199 2798.979701349168
1200 2798.901632747524
1201 2799.003887323531
1202 2798.899339827852
1203 2798.987517182191
1204 2798.897695450336
1205 2798.98529593117
1206 2798.894102097024
1207 2798.990050639897
1208 2798.885224025287
1209 2798.980410274666
1210 2798.887620780421
1211 2798.993237341001
1212 2798.897788253631
1213 2798.992140437759
1214 2798.885340026987
1215 2798.988006820048
1216 2798.888238520351
1217 2798.980584621584
1218 2798.894558765407
1219 2798.987980064438
1220 2798.882350829071
1221 2798.961382442792
1222 2798.881748237792
1223 2798.972698319951
1224 2798.890723025894
1225 2798.978736228956
1226 2798.881910943073
1227 2798.970326394671
1228 2798.886873122567
1229 2798.980828220654
1230 2798.887208423912
1231 2798.985774375087
1232 2798.885083867106
1233 2798.978488461423
1234 2798.883639772188
1235 2798.977025370745
1236 2798.896597687707
1237 2798.98508217477
1238 2798.8877870792
1239 2798.987761355918
1240 2798.894952030043
1241 2798.97564540485
1242 2798.892923311506
1243 2798.986407835757
1244 2798.879644053567
1245 2798.972044044228
1246 2798.87529193712
1247 2798.981788053841
1248 2798.901487258351
1249 2798.990229129867
1250 2798.88596873565
1251 2798.975736125416
1252 2798.892681453741
1253 2798.985500698419
1254 2798.895268333531
1255 2798.988400862504
1256 2798.891044982501
1257 2798.981930402143
1258 2798.90051685825
1259 2798.991724923865
1260 2798.911675397595
1261 2798.995766506386
1262 2798.895636439768
1263 2798.99510202095
1264 2798.89982401684
1265 2798.983167149888
1266 2798.900708076031
1267 2798.996617484886
1268 2798.897185503856
1269 2798.98477295806
1270 2798.882628522765
1271 2798.987379390388
1272 2798.901129877158
1273 2798.997025053661
1274 2798.893806710865
1275 2798.982781005099
1276 2798.905631139462
1277 2798.990185473406
1278 2798.904323423428
1279 2798.998567815219
1280 2798.899260157282
1281 2798.987334410217
1282 2798.903803871978
1283 2799.002887016223
1284 2798.91730090495
1285 2799.005771785458
1286 2798.902894395564
1287 2798.993112151809
1288 2798.896059296955
1289 2798.983300463716
1290 2798.895328012804
1291 2798.989857006354
1292 2798.881810648553
1293 2798.981594829065
1294 2798.890478902995
1295 2798.976821546445
1296 2798.903514067961
1297 2798.992985471952
1298 2798.901779118313
1299 2798.999905861965
1300 2798.912341832758
1301 2799.005644087302
1302 2798.923461433164
1303 2799.021938051736
1304 2798.916329634568
1305 2799.007367527767
1306 2798.912736850552
1307 2799.013875101793
1308 2798.921503757585
1309 2799.020124518988
1310 2798.909986958333
1311 2799.004119385682
1312 2798.915338535503
1313 2798.99302548891
1314 2798.906181541683
1315 2798.989729896705
1316 2798.890116937458
1317 2798.983566202236
1318 2798.892423416303
1319 2798.993151491583
1320 2798.919455466119
1321 2799.004788865404
1322 2798.910157950506
1323 2798.998178020345
1324 2798.913671258244
1325 2799.005266470526
1326 2798.920072421777
1327 2799.011269522627
1328 2798.90729556501
1329 2798.990680276187
1330 2798.902879597093
1331 2798.999470917997
1332 2798.91939679166
1333 2799.009749994339
1334 2798.907673450989
1335 2799.010882942998
1336 2798.923247936746
1337 2799.006996422491
1338 2798.917951193187
1339 2799.009424233639
1340 2798.90264127976
1341 2798.998865336904
1342 2798.902579075977
1343 2798.998807543327
1344 2798.920846453347
1345 2799.012945704041
1346 2798.908675428715
1347 2798.996425026024
1348 2798.913602834043
1349 2799.008028029327
1350 2798.918903021525
1351 2799.011451301335
1352 2798.905218764241
1353 2798.99773277182
1354 2798.907957160348
1355 2799.00810960804
1356 2798.920763858991
1357 2799.016183758015
1358 2798.916864090123
1359 2799.015604913884
1360 2798.919621553061
1361 2799.008575960438
1362 2798.929368074198
1363 2799.017223253816
1364 2798.90589386904
1365 2798.992115683173
1366 2798.913941926849
1367 2799.004014359042
1368 2798.928432924338
1369 2799.019830391831
1370 2798.908136634715
1371 2799.003031551647
1372 2798.921023095622
1373 2799.01433458038
1374 2798.91823747287
1375 2799.015486331815
1376 2798.909738956007
1377 2799.002912120939
1378 2798.90865248834
1379 2799.007067254716
1380 2798.920738782191
1381 2799.016264766274
1382 2798.910782999139
1383 2799.007372859615
1384 2798.909746334752
1385 2798.99466568691
1386 2798.913081490503
1387 2798.995886155919
1388 2798.886469633118
1389 2798.986212249096
1390 2798.895275252983
1391 2798.996019023735
1392 2798.911250328671
1393 2799.012939146056
1394 2798.912368043322
1395 2799.004531255489
1396 2798.912031197079
1397 2799.008196069371
1398 2798.927023586225
1399 2799.018766076808
1400 2798.907050197937
1401 2798.997619915747
1402 2798.924327333742
1403 2799.007205622338
1404 2798.923393632059
1405 2799.001603389645
1406 2798.909814608247
1407 2799.003372841782
1408 2798.913959298589
1409 2799.00059145275
1410 2798.921683746744
1411 2798.9995220055
1412 2798.895500992534
1413 2798.993597276469
1414 2798.912997192685
1415 2799.002975607575
1416 2798.926242164455
1417 2799.020171967851
1418 2798.932670141215
1419 2799.015125095471
1420 2798.922157643096
1421 2799.012581485209
1422 2798.932346029944
1423 2799.02159197973
1424 2798.913384619896
1425 2799.007599607735
1426 2798.923431971668
1427 2799.014262648524
1428 2798.926174831311
1429 2799.021764115549
1430 2798.923134584598
1431 2799.01537392954
1432 2798.925284256269
1433 2799.010264380656
1434 2798.923071265909
1435 2799.008838342093
1436 2798.907560299823
1437 2798.990664257537
1438 2798.912786638503
1439 2799.002447871875
1440 2798.926241690525
1441 2799.011429557209
1442 2798.916900322806
1443 2799.007443082839
1444 2798.924030662427
1445 2799.006360917829
1446 2798.930058162779
1447 2799.008855596906
1448 2798.910745506023
1449 2799.002242168844
1450 2798.910797016313
1451 2799.001898160084
1452 2798.921395385494
1453 2799.015702312995
1454 2798.917239867947
1455 2799.010002451148
1456 2798.926595378811
1457 2799.004092821905
1458 2798.926511860533
1459 2799.014036694294
1460 2798.914097535572
1461 2798.999118633708
1462 2798.91890134287
1463 2799.008509968183
1464 2798.935160855889
1465 2799.020355289395
1466 2798.925259701538
1467 2799.00960772922
1468 2798.919996160788
1469 2799.004196783295
1470 2798.928473564621
1471 2799.018821024525
1472 2798.909119653229
1473 2798.998249109078
1474 2798.911480262548
1475 2799.007515078472
1476 2798.919810650547
1477 2798.998112691021
1478 2798.911460558083
1479 2799.008322967502
1480 2798.924403291669
1481 2798.994719163777
1482 2798.913528112708
1483 2798.995558902075
1484 2798.896550055867
1485 2798.978715656545
1486 2798.900698403317
1487 2798.978949652868
1488 2798.907636936719
1489 2798.99094571499
1490 2798.892957170356
1491 2798.98953268574
1492 2798.89861958058
1493 2798.985775617667
1494 2798.902706601611
1495 2798.996246817124
1496 2798.895288230467
1497 2798.982067565191
1498 2798.899631927719
1499 2798.997477203749
1500 2798.915450089127
1501 2799.000877289173
1502 2798.90438368619
1503 2798.997350442699
1504 2798.911964929462
1505 2798.984852654634
1506 2798.899408105292
1507 2798.99315406692
1508 2798.892375218091
1509 2798.974375358206
1510 2798.889913427451
1511 2798.984422034321
1512 2798.90697713363
1513 2799.001574319621
1514 2798.893316299635
1515 2798.993425741244
1516 2798.906205557174
1517 2798.995403834281
1518 2798.908357306437
1519 2799.004090062711
1520 2798.903402156668
1521 2798.990412324372
1522 2798.907772005324
1523 2798.988200887993
1524 2798.900050196391
1525 2798.995088656288
1526 2798.90238689395
1527 2798.994263834914
1528 2798.895921779193
1529 2798.989773530805
1530 2798.904392519846
1531 2798.9869875598
1532 2798.878517847314
1533 2798.979372004263
1534 2798.900365508684
1535 2798.99454217745
1536 2798.910542212646
1537 2799.011711801119
1538 2798.908434180547
1539 2799.010638611381
1540 2798.896150306968
1541 2798.995611245459
1542 2798.909337569641
1543 2799.012172104207
1544 2798.90571661461
1545 2798.992908727065
1546 2798.90892123688
1547 2799.003724487294
1548 2798.92113106048
1549 2799.002703445583
1550 2798.911473833684
1551 2799.00404248291
1552 2798.91034652362
1553 2798.994579034647
1554 2798.916618346677
1555 2798.995768210433
1556 2798.889286004602
1557 2798.98402597996
1558 2798.896049632638
1559 2798.997309577749
1560 2798.90498000291
1561 2799.007340138977
1562 2798.905221981859
1563 2799.003840801657
1564 2798.908479617305
1565 2799.00283285986
1566 2798.923618475266
1567 2799.015244139024
1568 2798.902371244627
1569 2798.997004033036
1570 2798.914961183708
1571 2799.007187748125
1572 2798.92658127277
1573 2799.015369911343
1574 2798.920631127972
1575 2799.007396642376
1576 2798.912312685514
1577 2799.005076581797
1578 2798.925560865897
1579 2799.010380376166
1580 2798.90013615968
1581 2798.99029984974
1582 2798.913466327293
1583 2799.002005788759
1584 2798.926045741222
1585 2799.014787934039
1586 2798.91867752613
1587 2799.003295436032
1588 2798.918467151176
1589 2799.01049214773
1590 2798.937587216817
1591 2799.022951003559
1592 2798.924478270876
1593 2799.009284035983
1594 2798.927151084
1595 2799.022978390426
1596 2798.93843896868
1597 2799.027927938585
1598 2798.928659423883
1599 2799.028105973426
1600 2798.936709619587
1601 2799.020275009615
1602 2798.935378569373
1603 2799.028945637592
1604 2798.924439740081
1605 2799.01299116992
1606 2798.925705640231
1607 2799.020710373825
1608 2798.939468033313
1609 2799.043288837826
1610 2798.936269689847
1611 2799.025383398173
1612 2798.936251904341
1613 2799.026911796444
1614 2798.943939640376
1615 2799.029886853815
1616 2798.928056094896
1617 2799.017090717386
1618 2798.935565666555
1619 2799.029153369646
1620 2798.940380712797
1621 2799.027967488447
1622 2798.928004628564
1623 2799.025716837488
1624 2798.929456831335
1625 2799.012128529001
1626 2798.928947286497
1627 2799.011420918153
1628 2798.902542859276
1629 2798.999023774518
1630 2798.899868094247
1631 2798.992834497386
1632 2798.916404249743
1633 2799.01818407591
1634 2798.913527118779
1635 2798.999433346243
1636 2798.91728362258
1637 2799.006386211217
1638 2798.921956722118
1639 2799.016915793947
1640 2798.914997207983
1641 2799.001816251538
1642 2798.91544174044
1643 2799.014448326619
1644 2798.930337842785
1645 2799.018817349352
1646 2798.914057504552
1647 2799.00894241477
1648 2798.913204658253
1649 2799.001038645833
1650 2798.908108844365
1651 2799.003943941258
1652 2798.893949656278
1653 2798.98894082114
1654 2798.903747998134
1655 2798.997238592126
1656 2798.916971073985
1657 2799.011417963905
1658 2798.914581501553
1659 2799.002968550587
1660 2798.915605291159
1661 2799.01192835762
1662 2798.925535536505
1663 2799.013387802735
1664 2798.905006706056
1665 2799.001336836413
1666 2798.919030391464
1667 2799.000655654796
1668 2798.911896438007
1669 2799.012290300438
1670 2798.903376090026
1671 2799.003314997901
1672 2798.908246402075
1673 2799.00173048276
1674 2798.914473106325
1675 2799.004894193481
1676 2798.895481363942
1677 2798.984800746586
1678 2798.909832591837
1679 2798.996754296771
1680 2798.916747685252
1681 2799.015500385472
1682 2798.91806977325
1683 2799.013212115315
1684 2798.917171949036
1685 2799.009490170684
1686 2798.91637571709
1687 2799.015957165287
1688 2798.907096181252
1689 2798.998257470289
1690 2798.909366478312
1691 2799.008185849555
1692 2798.927184863233
1693 2799.016913808718
1694 2798.911089458369
1695 2799.009515879353
1696 2798.914318088752
1697 2798.993604424601
1698 2798.921869914684
1699 2799.008855401078
1700 2798.903855315105
1701 2798.998513843885
1702 2798.905862268505
1703 2799.002590248354
1704 2798.910336488964
1705 2799.011116527497
1706 2798.913897204306
1707 2798.998637636737
1708 2798.911339037414
1709 2799.004709018804
1710 2798.913030580685
1711 2799.005289756348
1712 2798.900040707127
1713 2798.98917665902
1714 2798.903654569539
1715 2798.996392616521
1716 2798.91449285269
1717 2799.005375931836
1718 2798.904595372634
1719 2799.005624082969
1720 2798.906507256298
1721 2798.993786887115
1722 2798.917272927137
1723 2799.013333562615
1724 2798.904902357014
1725 2798.998794347867
1726 2798.913102048543
1727 2799.004412034614
1728 2798.929102778789
1729 2799.013309613636
1730 2798.911246607944
1731 2799.004390510306
1732 2798.919931490026
1733 2799.011743713602
1734 2798.928834677014
1735 2799.011069581527
1736 2798.910916787799
1737 2799.005999611288
1738 2798.930386138933
1739 2799.018634882624
1740 2798.931389987767
1741 2799.021830259238
1742 2798.919213525844
1743 2799.02786785946
1744 2798.917319262548
1745 2799.013754277164
1746 2798.934758144436
1747 2799.025218632753
1748 2798.912699716162
1749 2799.014182235943
1750 2798.923621908637
1751 2799.020670004265
1752 2798.941147182683
1753 2799.030441235941
1754 2798.930121625724
1755 2799.018397694329
1756 2798.93334044831
1757 2799.021596214038
1758 2798.936214308615
1759 2799.03901648899
1760 2798.926313311723
1761 2799.020723674851
1762 2798.937400525246
1763 2799.031483971191
1764 2798.953698284737
1765 2799.02798031204
1766 2798.926725207685
1767 2799.019990935163
1768 2798.937077752256
1769 2799.016867190158
1770 2798.934060037251
1771 2799.026480699544
1772 2798.92214487405
1773 2799.008640240568
1774 2798.911943612885
1775 2799.013065983934
1776 2798.93180587304
1777 2799.034908871857
1778 2798.91990782409
1779 2799.011640831263
1780 2798.925801619919
1781 2799.021726445754
1782 2798.928083783954
1783 2799.027159074899
1784 2798.919005131163
1785 2799.014724586668
1786 2798.921970631864
1787 2799.021767825731
1788 2798.92573567847
1789 2799.022780858297
1790 2798.911635833092
1791 2799.009502448955
1792 2798.911926782608
1793 2799.002681666648
1794 2798.915713100607
1795 2799.001918347557
1796 2798.891742515319
1797 2798.985995541805
1798 2798.911855849203
1799 2799.002330675841
1800 2798.918068572814
1801 2799.011941993363
1802 2798.91132918682
1803 2799.009236632213
1804 2798.921601381571
1805 2799.012828294692
1806 2798.921010030596
1807 2799.010327962684
1808 2798.908545194711
1809 2799.003157128162
1810 2798.91695452955
1811 2799.011354967347
1812 2798.93307904097
1813 2799.02345121788
1814 2798.925976176469
1815 2799.01114109357
1816 2798.923290671405
1817 2799.01242692372
1818 2798.923457447896
1819 2799.019059724286
1820 2798.913681725227
1821 2799.00348989485
1822 2798.926801692165
1823 2799.013965021969
1824 2798.92844468153
1825 2799.023570015211
1826 2798.930125496974
1827 2799.01635255037
1828 2798.927481143168
1829 2799.022028862905
1830 2798.92865703687
1831 2799.025037711201
1832 2798.919628726474
1833 2799.010027996966
1834 2798.934153165152
1835 2799.027181131656
1836 2798.941510695619
1837 2799.032310177085
1838 2798.935055226688
1839 2799.027344132453
1840 2798.932473680786
1841 2799.022164078227
1842 2798.938608741128
1843 2799.026841444826
1844 2798.923031458675
1845 2799.008800393474
1846 2798.929752239721
1847 2799.01349947253
1848 2798.934055667904
1849 2799.030175877094
1850 2798.927803498823
1851 2799.017328398542
1852 2798.932473316393
1853 2799.029976364767
1854 2798.937099199939
1855 2799.027964547544
1856 2798.925274808167
1857 2799.019024669393
1858 2798.938331938264
1859 2799.039847961204
1860 2798.950412148615
1861 2799.032821849336
1862 2798.939644973582
1863 2799.031222235418
1864 2798.928790745464
1865 2799.010428070508
1866 2798.933547409668
1867 2799.024212927809
1868 2798.916925319711
1869 2799.008354902074
1870 2798.925370350968
1871 2799.012846063505
1872 2798.930142076071
1873 2799.025388072352
1874 2798.920156880267
1875 2799.013590543088
1876 2798.927736341818
1877 2799.016275678764
1878 2798.937057140127
1879 2799.035558427157
1880 2798.934992586221
1881 2799.019109728695
1882 2798.934795102367
1883 2799.036692359403
1884 2798.941475378359
1885 2799.029248033576
1886 2798.932462303802
1887 2799.029559934997
1888 2798.93646738159
1889 2799.019539325938
1890 2798.925443896127
1891 2799.022707324901
1892 2798.915760074249
1893 2799.016204772574
1894 2798.931176819452
1895 2799.023951885969
1896 2798.943446209651
1897 2799.041993013496
1898 2798.942302355969
1899 2799.026384364419
1900 2798.94702989299
1901 2799.023211524613
1902 2798.947898464636
1903 2799.039077894678
1904 2798.934541440169
1905 2799.029161335973
1906 2798.942461735992
1907 2799.030969673163
1908 2798.948899638676
1909 2799.038630336663
1910 2798.937624102886
1911 2799.032290488422
1912 2798.941139586145
1913 2799.024100294899
1914 2798.947384693523
1915 2799.024442998704
1916 2798.924463764969
1917 2799.013436608133
1918 2798.941356694459
1919 2799.03246879554
1920 2798.954620880143
1921 2799.04752651533
1922 2798.942862211917
1923 2799.036863961946
1924 2798.945465814818
1925 2799.033711601573
1926 2798.949438567095
1927 2799.043626724078
1928 2798.936088774759
1929 2799.030963809782
1930 2798.93913148922
1931 2799.030669971509
1932 2798.946194823647
1933 2799.033714503409
1934 2798.928816743702
1935 2799.022715119694
1936 2798.935983747564
1937 2799.021256545642
1938 2798.932993539919
1939 2799.028084435256
1940 2798.910868441755
1941 2799.004818676183
1942 2798.923057152082
1943 2799.01725080684
1944 2798.925574400465
1945 2799.025818494649
1946 2798.914658194521
1947 2799.014015963845
1948 2798.921863701857
1949 2799.012379438928
1950 2798.923218458141
1951 2799.022204038366
1952 2798.916925039483
1953 2799.011675753869
1954 2798.922089946022
1955 2799.014981936649
1956 2798.931203505135
1957 2799.01475336182
1958 2798.917581907224
1959 2799.011064486236
1960 2798.917420003991
1961 2798.997689021355
1962 2798.914405698388
1963 2799.012481860266
1964 2798.905513179594
1965 2798.989720657034
1966 2798.914363596299
1967 2799.005743720018
1968 2798.919900166795
1969 2799.023954570708
1970 2798.902279878237
1971 2799.002094532485
1972 2798.914514328126
1973 2799.004727474706
1974 2798.922263470455
1975 2799.01076161916
1976 2798.902229577997
1977 2798.997892209441
1978 2798.926513717728
1979 2799.017706990402
1980 2798.926553282314
1981 2799.0114289954
1982 2798.919172511175
1983 2799.013509316763
1984 2798.913769948956
1985 2798.999246829915
1986 2798.922625822988
1987 2799.012220577477
1988 2798.90346564631
1989 2798.995412774321
1990 2798.908814510533
1991 2798.998506440516
1992 2798.924597663652
1993 2799.009789510185
1994 2798.901118221779
1995 2798.997194410275
1996 2798.915833755781
1997 2799.006730820622
1998 2798.913866461241
1999 2799.01821929819
2000 2798.909584103542
2001 2799.00198280856
2002 2798.912602651697
2003 2799.009466854483
2004 2798.924100415855
2005 2799.017367038585
2006 2798.910545447936
2007 2799.010119272865
2008 2798.915846114054
2009 2799.002644297319
2010 2798.906365251513
2011 2799.011838242918
2012 2798.890997531027
2013 2798.988954846188
2014 2798.90964272291
2015 2799.005429449719
2016 2798.923612029397
2017 2799.014175915948
2018 2798.913313814739
2019 2799.001895670462
2020 2798.915412565219
2021 2798.998453466157
2022 2798.919104770453
2023 2799.007563406628
2024 2798.913532100803
2025 2798.997827705576
2026 2798.911051276013
2027 2799.012771007743
2028 2798.920880433292
2029 2799.016127286161
2030 2798.91018625289
2031 2799.007922605259
2032 2798.91553122496
2033 2799.002604841286
2034 2798.909178048307
2035 2799.003772512265
2036 2798.89665495412
2037 2798.990577316883
2038 2798.900278100076
2039 2799.00069765605
2040 2798.916135355857
2041 2799.016213429623
2042 2798.907793973279
2043 2799.005239132644
2044 2798.904794068563
2045 2798.993496699271
2046 2798.909077963882
2047 2799.010293634871
2048 2798.89808921826
2049 2799.002302995633
2050 2798.910309375289
2051 2799.008618930972
2052 2798.921513574052
2053 2799.013819474781
2054 2798.911045690009
2055 2799.001604008559
2056 2798.911392522493
2057 2798.991845488379
2058 2798.91581378389
2059 2798.996045304154
2060 2798.900635773619
2061 2798.983539224724
2062 2798.901968426719
2063 2798.990566516019
2064 2798.912512804603
2065 2799.004117632803
2066 2798.898460205752
2067 2798.993027284188
2068 2798.898557414166
2069 2798.995218121935
2070 2798.902546377351
2071 2799.000385448515
2072 2798.89656504244
2073 2798.988403703505
2074 2798.900102760528
2075 2798.997094018419
2076 2798.912685372384
2077 2799.001202951362
2078 2798.902423709695
2079 2798.998797710114
2080 2798.895468887154
2081 2798.981376629743
2082 2798.898323724894
2083 2798.992655658461
2084 2798.881509281604
2085 2798.985489056506
2086 2798.893606272917
2087 2798.985622856997
2088 2798.899103926421
2089 2799.001537550731
2090 2798.889246861057
2091 2798.991019654089
2092 2798.89322432122
2093 2798.994525061679
2094 2798.905742435167
2095 2799.006676105797
2096 2798.897991959292
2097 2798.997493385594
2098 2798.902213197518
2099 2799.004041383124
2100 2798.903060306365
2101 2798.995207891806
2102 2798.900599124553
2103 2798.99462798985
2104 2798.905083291585
2105 2798.989242268813
2106 2798.906780570459
2107 2798.997142465973
2108 2798.880467372381
2109 2798.978192560743
2110 2798.887069971634
2111 2798.988663851321
2112 2798.906569131644
2113 2799.001333498113
2114 2798.897629050183
2115 2798.984751598754
2116 2798.899113972399
2117 2798.989470534726
2118 2798.911706337612
2119 2798.994591350664
2120 2798.889815228415
2121 2798.980023386886
2122 2798.906028192159
2123 2799.000677190109
2124 2798.917279488397
2125 2798.994517813437
2126 2798.901743289007
2127 2798.989082360722
2128 2798.902334249059
2129 2798.983629043001
2130 2798.906224601448
2131 2798.986000150496
2132 2798.879163083708
2133 2798.977057258749
2134 2798.881699516003
2135 2798.970796965895
2136 2798.896060901625
2137 2798.997972641376
2138 2798.900605008815
2139 2798.991252125963
2140 2798.906125035163
2141 2798.99779424778
2142 2798.904003793398
2143 2799.000857833047
2144 2798.895567017169
2145 2798.993007461183
2146 2798.902776461313
2147 2799.001710918963
2148 2798.91389753505
2149 2799.005865062593
2150 2798.903656037395
2151 2798.993232299372
2152 2798.903434681332
2153 2798.991143887366
2154 2798.900721782071
2155 2798.991546917204
2156 2798.887217181315
2157 2798.985638193339
2158 2798.897392868873
2159 2798.989514688139
2160 2798.916419119462
2161 2799.010670179608
2162 2798.906733983532
2163 2798.997026720538
2164 2798.920827636704
2165 2799.002679724862
2166 2798.91793771628
2167 2799.003676996951
2168 2798.905367534021
2169 2798.998199906345
2170 2798.90326876362
2171 2798.99966995232
2172 2798.920999104108
2173 2799.014846911882
2174 2798.914859748102
2175 2799.006135059435
2176 2798.919543879386
2177 2799.007340593872
2178 2798.921726628319
2179 2799.010173484745
2180 2798.90799540324
2181 2798.995394953993
2182 2798.918560932929
2183 2799.00695468813
2184 2798.930674381574
2185 2799.021797921586
2186 2798.934009505076
2187 2799.009642403873
2188 2798.920853134654
2189 2799.008319816561
2190 2798.924735532583
2191 2799.012325755611
2192 2798.912386387407
2193 2799.001912378205
2194 2798.922743519293
2195 2799.008026114458
2196 2798.927557328672
2197 2799.006890622664
2198 2798.921946447071
2199 2799.013294644425
2200 2798.921124541524
2201 2799.002644896677
2202 2798.925339593378
2203 2799.011778750806
2204 2798.918068412701
2205 2798.997193259646
2206 2798.909093076585
2207 2798.999068525525
2208 2798.92626255189
2209 2799.011732834274
2210 2798.905193053401
2211 2799.003532738844
2212 2798.921862004053
2213 2799.009754721944
2214 2798.916361814458
2215 2799.008674394788
2216 2798.908256744435
2217 2798.996181485518
2218 2798.911639692932
2219 2799.011792113939
2220 2798.927749471249
2221 2799.011335448772
2222 2798.9154871468
2223 2799.009191075971
2224 2798.920688781965
2225 2799.001054228258
2226 2798.925562713331
2227 2799.004212942877
2228 2798.896210457094
2229 2798.986599467985
2230 2798.896506284648
2231 2798.992399936708
2232 2798.91989601599
2233 2799.002802585193
2234 2798.896947017571
2235 2798.988309198855
2236 2798.913738845036
2237 2798.99607402127
2238 2798.911672688133
2239 2799.007203992292
2240 2798.905621781045
2241 2798.996012161697
2242 2798.899849967102
2243 2798.998194098442
2244 2798.920376626223
2245 2799.012237289368
2246 2798.90754425376
2247 2799.003960593223
2248 2798.909640311178
2249 2798.998907113962
2250 2798.906714872684
2251 2798.999089068565
2252 2798.894496354695
2253 2798.991259941175
2254 2798.90212929338
2255 2798.997025852925
2256 2798.919602128895
2257 2799.010231713738
2258 2798.91197466593
2259 2799.006340596605
2260 2798.917181590283
2261 2799.006290428686
2262 2798.922310841155
2263 2799.017183487495
2264 2798.909794037247
2265 2798.997928322292
2266 2798.924807684743
2267 2799.010430375241
2268 2798.924310951356
2269 2799.009142725688
2270 2798.912579405264
2271 2798.997982185655
2272 2798.910854559262
2273 2798.99385080837
2274 2798.906036794482
2275 2798.993012954696
2276 2798.893096996761
2277 2798.988540778036
2278 2798.886922674814
2279 2798.98261576392
2280 2798.897583814382
2281 2798.99704082944
2282 2798.896871138088
2283 2798.989428101363
2284 2798.901116867206
2285 2798.989098266788
2286 2798.900188762264
2287 2798.99623845168
2288 2798.886736678531
2289 2798.984647572052
2290 2798.897468187545
2291 2798.996069673052
2292 2798.906916741608
2293 2799.001351526028
2294 2798.892071360611
2295 2798.992602173279
2296 2798.883358805884
2297 2798.975794811275
2298 2798.895109649815
2299 2798.996462408368
2300 2798.892432806716
2301 2798.981019465275
2302 2798.896086669813
2303 2798.988979207312
2304 2798.91589288482
2305 2799.002198795411
2306 2798.907087964397
2307 2799.001311710727
2308 2798.9153074008
2309 2799.002583238189
2310 2798.916630277105
2311 2799.009814449798
2312 2798.916153262582
2313 2799.00101818935
2314 2798.909965753663
2315 2799.013067164716
2316 2798.926345293957
2317 2799.019395612624
2318 2798.914852890116
2319 2799.014684747148
2320 2798.914610634684
2321 2799.003302624502
2322 2798.918788726151
2323 2799.012434252146
2324 2798.913754371805
2325 2798.996078471551
2326 2798.910025088299
2327 2799.001853669247
2328 2798.926415340966
2329 2799.018135155731
2330 2798.912685088227
2331 2799.008350062833
2332 2798.927222637626
2333 2799.020813523875
2334 2798.933283981716
2335 2799.026730477567
2336 2798.925650788894
2337 2799.015817939316
2338 2798.935244761227
2339 2799.027372398818
2340 2798.950858270494
2341 2799.030078266541
2342 2798.935224111832
2343 2799.030562311298
2344 2798.949991650863
2345 2799.017228820009
2346 2798.942573230889
2347 2799.016884997859
2348 2798.914702319439
2349 2799.007058509894
2350 2798.910243854795
2351 2799.005852025094
2352 2798.921576274885
2353 2799.030919464093
2354 2798.923105768386
2355 2799.014604856377
2356 2798.919848904429
2357 2799.025503898101
2358 2798.926789664991
2359 2799.023862143828
2360 2798.919654517995
2361 2799.01126301786
2362 2798.933700551876
2363 2799.023959844537
2364 2798.939859581238
2365 2799.019033803202
2366 2798.919051946727
2367 2799.0082076249
2368 2798.9156627027
2369 2799.001440416192
2370 2798.910364913547
2371 2799.000944866154
2372 2798.895872678614
2373 2798.994318358273
2374 2798.897849664375
2375 2798.991151878179
2376 2798.912028535528
2377 2799.010638197327
2378 2798.91608275827
2379 2799.004205204512
2380 2798.916600054755
2381 2799.010409422255
2382 2798.924809831353
2383 2799.016800377382
2384 2798.917490755694
2385 2799.001147378432
2386 2798.914558852538
2387 2799.008980040545
2388 2798.928406718819
2389 2799.01586201296
2390 2798.909154324701
2391 2799.004276314556
2392 2798.913938301418
2393 2798.999616945406
2394 2798.91136818349
2395 2798.998344705552
2396 2798.900218319078
2397 2798.993592652982
2398 2798.904374733045
2399 2799.01058930615
2400 2798.922872264165
2401 2799.021176625139
2402 2798.921331886711
2403 2799.004150579772
2404 2798.908526307857
2405 2799.00067878137
2406 2798.91358444143
2407 2799.000984716326
2408 2798.9009605081
2409 2798.991850537927
2410 2798.904271187289
2411 2798.998962945176
2412 2798.911700268945
2413 2799.003598480469
2414 2798.899582438796
2415 2798.99921914197
2416 2798.903760449989
2417 2798.991465793163
2418 2798.910611561255
2419 2798.99821381153
2420 2798.894612847504
2421 2798.98202647281
2422 2798.898634924987
2423 2798.990103153834
2424 2798.916176130921
2425 2799.003270110021
2426 2798.90686578129
2427 2798.9883694427
2428 2798.904897690509
2429 2798.99538609042
2430 2798.908048931337
2431 2799.002909489117
2432 2798.8973457404
2433 2798.989307006758
2434 2798.899757599533
2435 2798.99337267082
2436 2798.910809332796
2437 2799.001946236162
2438 2798.896786168021
2439 2799.00123330616
2440 2798.908087295651
2441 2798.9878466387
2442 2798.906277593148
2443 2798.997297064507
2444 2798.888419619109
2445 2798.982623193354
2446 2798.905845781225
2447 2798.995093381105
2448 2798.910449436799
2449 2799.002615718221
2450 2798.902748100666
2451 2798.987694726388
2452 2798.909350143283
2453 2798.995758404458
2454 2798.912893224053
2455 2798.993107422809
2456 2798.893063963267
2457 2798.981253746396
2458 2798.905774374897
2459 2798.994230542856
2460 2798.912579022164
2461 2798.99427153342
2462 2798.902659637448
2463 2798.993089232113
2464 2798.907996166837
2465 2798.984670328561
2466 2798.905642952044
2467 2798.989710998392
2468 2798.888233913896
2469 2798.980288639326
2470 2798.898191304117
2471 2798.993032519952
2472 2798.915399697488
2473 2799.00407895902
2474 2798.909460521133
2475 2798.991484279637
2476 2798.911708939964
2477 2798.999645221101
2478 2798.921255692163
2479 2799.016237825621
2480 2798.912303763145
2481 2799.001287093617
2482 2798.924778606265
2483 2799.009753369623
2484 2798.927881721574
2485 2799.010937348128
2486 2798.906518239409
2487 2799.008063995998
2488 2798.924175147748
2489 2799.000374066778
2490 2798.913119139512
2491 2798.998851775064
2492 2798.903883834857
2493 2798.993941919683
2494 2798.908933797471
2495 2798.998588264752
2496 2798.923497592552
2497 2799.01883436574
2498 2798.915299275719
2499 2799.00402038741
2500 2798.917258553634
2501 2799.002644610561
2502 2798.913841278864
2503 2799.006839622904
2504 2798.903073646688
2505 2798.988808743993
2506 2798.904884606016
2507 2798.995967099253
2508 2798.911316583468
2509 2798.994471853864
2510 2798.894356087719
2511 2798.991770716605
2512 2798.889639905674
2513 2798.976571384466
2514 2798.893388654246
2515 2798.982217231872
2516 2798.875336131031
2517 2798.970280368782
2518 2798.888256814455
2519 2798.977917997944
2520 2798.896118414175
2521 2798.989429235291
2522 2798.88885289114
2523 2798.981857796774
2524 2798.90122813336
2525 2798.986898954006
2526 2798.904468489081
2527 2798.990497183554
2528 2798.888573679906
2529 2798.978409580186
2530 2798.88701486228
2531 2798.981025962387
2532 2798.900231146874
2533 2798.989155908458
2534 2798.890633014042
2535 2798.978028389462
2536 2798.896455011983
2537 2798.975540359025
2538 2798.892734690422
2539 2798.985588477825
2540 2798.882907989564
2541 2798.971581390222
2542 2798.886693969825
2543 2798.990473590719
2544 2798.908124286395
2545 2798.9976075727
2546 2798.894462781397
2547 2798.984475471915
2548 2798.903094942621
2549 2798.989246365429
2550 2798.905831591662
2551 2798.995259834954
2552 2798.893403475484
2553 2798.978485179288
2554 2798.903604511417
2555 2798.989961801283
2556 2798.912315922306
2557 2798.995678999729
2558 2798.910669666394
2559 2799.001825383385
2560 2798.918528341235
2561 2798.995389962966
2562 2798.929698711192
2563 2798.994393943519
2564 2798.893267591864
2565 2798.977286843186
2566 2798.904516120387
2567 2798.983569212851
2568 2798.912502598032
2569 2798.998154143221
2570 2798.909030328237
2571 2798.983713040333
2572 2798.907959279645
2573 2798.997605720169
2574 2798.915808641164
2575 2799.003314702384
2576 2798.907287350405
2577 2798.996241596216
2578 2798.915968304347
2579 2799.01305433783
2580 2798.929167340902
2581 2799.014583551375
2582 2798.923886506806
2583 2799.011706624872
2584 2798.926440094982
2585 2799.005875718767
2586 2798.921630652881
2587 2799.00116194372
2588 2798.900021309521
2589 2798.988355591646
2590 2798.899028300816
2591 2798.985188523437
2592 2798.907518242261
2593 2799.004110383038
2594 2798.899461889272
2595 2798.993907452333
2596 2798.913859058875
2597 2799.000414036863
2598 2798.914007175328
2599 2799.006014925631
2600 2798.905780464078
2601 2798.990971999845
2602 2798.911643328629
2603 2799.001033170341
2604 2798.917057863716
2605 2799.007649279085
2606 2798.911245463882
2607 2799.000454505559
2608 2798.907329766029
2609 2798.997122677435
2610 2798.909730757307
2611 2799.001373940424
2612 2798.896054643307
2613 2798.993915511593
2614 2798.909374262158
2615 2799.002239928473
2616 2798.925158114759
2617 2799.021355536152
2618 2798.919221497079
2619 2799.014850992721
2620 2798.919809921178
2621 2799.010446022914
2622 2798.929916901767
2623 2799.034945155015
2624 2798.929584134685
2625 2799.015686456734
2626 2798.927019193573
2627 2799.022520384457
2628 2798.930911705517
2629 2799.021106929553
2630 2798.9231140032
2631 2799.021411878633
2632 2798.933799963852
2633 2799.015460935548
2634 2798.934102194311
2635 2799.016187257548
2636 2798.916031850152
2637 2799.011472659997
2638 2798.922899054292
2639 2799.018458379105
2640 2798.935021644106
2641 2799.030404318722
2642 2798.933035598548
2643 2799.017971052977
2644 2798.930171534096
2645 2799.018919140949
2646 2798.934442868526
2647 2799.022014714346
2648 2798.919348553662
2649 2799.010908046783
2650 2798.929112557606
2651 2799.019803017648
2652 2798.939044618271
2653 2799.026246119483
2654 2798.929521429279
2655 2799.019894073807
2656 2798.931706336089
2657 2799.0120757252
2658 2798.933359406309
2659 2799.019481917479
2660 2798.912937669553
2661 2798.998599605561
2662 2798.917128431257
2663 2799.005416488559
2664 2798.928827933161
2665 2799.009068635845
2666 2798.909456232245
2667 2799.005220809884
2668 2798.912689856903
2669 2799.001542623332
2670 2798.918577138073
2671 2799.010387523066
2672 2798.909688365316
2673 2799.003417094478
2674 2798.911024074692
2675 2799.009339445858
2676 2798.923597716782
2677 2799.015720812946
2678 2798.910962430469
2679 2799.007595791109
2680 2798.908804530518
2681 2798.992066648192
2682 2798.91615172041
2683 2799.001448513452
2684 2798.902711856694
2685 2798.9883910528
2686 2798.91088446347
2687 2798.988198225807
2688 2798.910614154315
2689 2799.000372874577
2690 2798.9035154956
2691 2798.989253587094
2692 2798.91037068919
2693 2798.997827754363
2694 2798.911090438322
2695 2798.996422094933
2696 2798.903066186649
2697 2798.98119995159
2698 2798.908485289204
2699 2798.992836867769
2700 2798.908433458563
2701 2798.994183003728
2702 2798.904817597846
2703 2799.002439763542
2704 2798.914670737899
2705 2798.990531924355
2706 2798.915712001981
2707 2798.993989445654
2708 2798.897578552699
2709 2798.985277521002
2710 2798.90368519615
2711 2798.998267412433
2712 2798.925111646914
2713 2799.016847061574
2714 2798.909269311086
2715 2799.005189580049
2716 2798.922079159017
2717 2799.009587537967
2718 2798.924143564782
2719 2799.020289758786
2720 2798.911523251481
2721 2799.004257726951
2722 2798.920770092196
2723 2799.012803768574
2724 2798.927074922698
2725 2799.007998808708
2726 2798.904198863446
2727 2798.996318966457
2728 2798.902656199707
2729 2798.99250340625
2730 2798.901938181264
2731 2798.99392273562
2732 2798.885363278553
2733 2798.989591242524
2734 2798.895463901236
2735 2798.987574661197
2736 2798.910038183919
2737 2799.006617387564
2738 2798.905058089447
2739 2798.997125543853
2740 2798.908492638974
2741 2798.998958438837
2742 2798.913566965567
2743 2799.006174785869
2744 2798.900972954762
2745 2798.992999811755
2746 2798.911378459291
2747 2798.999138243323
2748 2798.912539603153
2749 2799.005468112917
2750 2798.902276424801
2751 2798.994086270894
2752 2798.901151551758
2753 2798.992216535313
2754 2798.905737847381
2755 2798.990218022344
2756 2798.887563115939
2757 2798.984579291789
2758 2798.903247411978
2759 2799.000815926261
2760 2798.917028736985
2761 2799.010758184396
2762 2798.916680417175
2763 2799.001763937821
2764 2798.915302193555
2765 2799.005374154004
2766 2798.912756468322
2767 2799.0087780913
2768 2798.899421423946
2769 2798.995149618099
2770 2798.913165575894
2771 2799.00365031692
2772 2798.917330357045
2773 2799.010710572692
2774 2798.90968228357
2775 2799.003059232541
2776 2798.913018761659
2777 2798.997840743358
2778 2798.912447657387
2779 2798.99671834335
2780 2798.898356972762
2781 2798.983965925634
2782 2798.903666054722
2783 2798.989509298729
2784 2798.919518182223
2785 2799.004334766077
2786 2798.919402979896
2787 2798.993669837981
2788 2798.918604600752
2789 2799.001592105385
2790 2798.918792612642
2791 2799.007539543486
2792 2798.912519705608
2793 2798.99993871908
2794 2798.919938911483
2795 2799.011075454404
2796 2798.934243570994
2797 2799.012344174875
2798 2798.923118421546
2799 2799.006258245232
2800 2798.917828181307
2801 2798.9985002122
2802 2798.916199779124
2803 2799.006840545932
2804 2798.893846281612
2805 2798.983403028274
2806 2798.899954279113
2807 2798.99459774293
2808 2798.914315981282
2809 2799.013469798985
2810 2798.907896725078
2811 2798.996496471633
2812 2798.911782832177
2813 2799.004855641772
2814 2798.919622288247
2815 2799.009980806028
2816 2798.911259090467
2817 2798.997571788795
2818 2798.913871320469
2819 2799.009504063986
2820 2798.924187257912
2821 2799.012897458652
2822 2798.914391811755
2823 2799.006571954416
2824 2798.909618347482
2825 2798.995521005286
2826 2798.913502773636
2827 2798.99431622472
2828 2798.890485535308
2829 2798.984003669343
2830 2798.900550224919
2831 2798.997246299226
2832 2798.918567649811
2833 2799.009622493985
2834 2798.910919470777
2835 2798.991085500482
2836 2798.907208568904
2837 2798.993943623298
2838 2798.913131578276
2839 2799.011156422664
2840 2798.907840738885
2841 2798.992171311914
2842 2798.910690663969
2843 2799.005509158387
2844 2798.923490943975
2845 2799.003463559355
2846 2798.90814590752
2847 2799.006815151382
2848 2798.91341672788
2849 2798.997878871826
2850 2798.910919726004
2851 2799.000399561998
2852 2798.898938051329
2853 2798.99946583421
2854 2798.909050371867
2855 2798.99896061304
2856 2798.914064936549
2857 2799.009857665167
2858 2798.915831532606
2859 2799.005513559534
2860 2798.911019561779
2861 2799.002056892522
2862 2798.915626150274
2863 2799.009875423103
2864 2798.907809701577
2865 2799.00126835799
2866 2798.918014665459
2867 2799.014199822583
2868 2798.925255024814
2869 2799.021128843791
2870 2798.914936368489
2871 2799.011615403648
2872 2798.922088524218
2873 2799.006350810105
2874 2798.916467071448
2875 2799.007985530788
2876 2798.899337407006
2877 2798.983011184503
2878 2798.912158180685
2879 2799.003620821861
2880 2798.925075360851
2881 2799.009794236684
2882 2798.907480494885
2883 2798.999869155573
2884 2798.909765814418
2885 2799.001552354246
2886 2798.911696282726
2887 2799.009017772658
2888 2798.897692224265
2889 2798.991642419396
2890 2798.903582436224
2891 2799.001594431568
2892 2798.916497578839
2893 2799.010986373369
2894 2798.909833438337
2895 2799.004806948742
2896 2798.904399280952
2897 2798.993029184689
2898 2798.907993368003
2899 2799.001751854365
2900 2798.890789702421
2901 2798.991947298371
2902 2798.901211101175
2903 2798.996920537027
2904 2798.914640703285
2905 2799.016322430738
2906 2798.910704801378
2907 2799.00079492008
2908 2798.910194759471
2909 2799.009731104922
2910 2798.914097992668
2911 2799.010545681262
2912 2798.90622885488
2913 2799.00034698593
2914 2798.911693055945
2915 2799.00383154344
2916 2798.929511866657
2917 2799.011942922925
2918 2798.915745645068
2919 2799.012539296388
2920 2798.923525015045
2921 2798.998591727793
2922 2798.915289287317
2923 2798.998540915038
2924 2798.894922661108
2925 2798.986760070205
2926 2798.897859605445
2927 2798.98998653829
2928 2798.913969616248
2929 2799.005461824098
2930 2798.897540714046
2931 2798.992687785337
2932 2798.908704713797
2933 2799.000857192586
2934 2798.907454615315
2935 2799.002326002467
2936 2798.905018345064
2937 2798.991834333562
2938 2798.905285986605
2939 2799.000232809439
2940 2798.914479852054
2941 2799.00141851101
2942 2798.901944879861
2943 2798.999614743484
2944 2798.90377736966
2945 2798.992983390165
2946 2798.903848294171
2947 2798.989739303704
2948 2798.88585772786
2949 2798.975547360971
2950 2798.884566784664
2951 2798.971105241844
2952 2798.89795578754
2953 2798.987998136681
2954 2798.882270234599
2955 2798.978625543359
2956 2798.892432043751
2957 2798.978907331364
2958 2798.905372675643
2959 2798.985295325112
2960 2798.886330244677
2961 2798.97427644839
2962 2798.893089758304
2963 2798.987892254037
2964 2798.901691396126
2965 2798.991374113773
2966 2798.895837361123
2967 2798.990464910332
2968 2798.887441128651
2969 2798.977151517434
2970 2798.890761413757
2971 2798.987058513377
2972 2798.886652047684
2973 2798.979538517646
2974 2798.900449961256
2975 2798.984268156582
2976 2798.907595014651
2977 2798.997606310386
2978 2798.904663355825
2979 2798.990306841974
2980 2798.910661681678
2981 2798.996533437013
2982 2798.905053568466
2983 2799.003480962212
2984 2798.898741481348
2985 2798.987667236393
2986 2798.89584509817
2987 2798.997717411588
2988 2798.909851897975
2989 2799.003898236875
2990 2798.895085341963
2991 2798.999102423873
2992 2798.912644029574
2993 2798.989382430421
2994 2798.902574178657
2995 2798.991806201015
2996 2798.896992144846
2997 2798.986346715366
2998 2798.901002837654
2999 2798.997381193848
3000 2798.920712360838
3001 2799.015148883119
3002 2798.912650453389
3003 2798.999785612338
3004 2798.920419728895
3005 2799.008061073228
3006 2798.918321135718
3007 2799.01189438179
3008 2798.900459433662
3009 2798.997852505647
3010 2798.906939661601
3011 2798.99655441133
3012 2798.916684860003
3013 2799.009834687728
3014 2798.910256562289
3015 2798.992146380764
3016 2798.905363281824
3017 2798.993739339949
3018 2798.912829264738
3019 2798.99850528889
3020 2798.891758823162
3021 2798.985653491418
3022 2798.903973303934
3023 2798.998902723456
3024 2798.916852459287
3025 2799.014850780688
3026 2798.913859864888
3027 2799.00653395886
3028 2798.919472685463
3029 2799.013197352395
3030 2798.915432697725
3031 2799.013014529
3032 2798.912180411533
3033 2799.005716775107
3034 2798.907791001482
3035 2799.004627085182
3036 2798.916588271244
3037 2799.015326939322
3038 2798.915600700876
3039 2799.010943857523
3040 2798.918220956999
3041 2799.005317754949
3042 2798.919301935982
3043 2799.009800855026
3044 2798.900724731795
3045 2798.999261774702
3046 2798.913119502089
3047 2799.003615816717
3048 2798.919358355273
3049 2799.024462779396
3050 2798.916906003207
3051 2799.017076649029
3052 2798.911845061853
3053 2799.015952990552
3054 2798.927880649403
3055 2799.025806991097
3056 2798.918981938929
3057 2799.005801646446
3058 2798.929991671831
3059 2799.021577682127
3060 2798.934426464987
3061 2799.028177593686
3062 2798.929647554796
3063 2799.02806840014
3064 2798.936416366372
3065 2799.016841564067
3066 2798.937691339268
3067 2799.02114922324
3068 2798.925849128779
3069 2799.009123731037
3070 2798.916696801861
3071 2799.012012135543
3072 2798.933343395695
3073 2799.03255628958
3074 2798.929778438813
3075 2799.019421118413
3076 2798.934511276118
3077 2799.0227758909
3078 2798.933291015964
3079 2799.030222172806
3080 2798.921950042169
3081 2799.01386045109
3082 2798.926616260669
3083 2799.02871415757
3084 2798.93797913704
3085 2799.027517575636
3086 2798.931492945983
3087 2799.015686469827
3088 2798.915356514539
3089 2799.011370158035
3090 2798.923170203564
3091 2799.002017576195
3092 2798.893384959666
3093 2798.994939318438
3094 2798.905165549295
3095 2798.992854593384
3096 2798.911860215001
3097 2799.001465740535
3098 2798.904078884887
3099 2799.003355856826
3100 2798.911744549989
3101 2799.005512946469
3102 2798.926213821672
3103 2799.015142133644
3104 2798.905385340258
3105 2798.996001123568
3106 2798.910128371674
3107 2799.008038033215
3108 2798.922383711833
3109 2799.016934013846
3110 2798.905669334514
3111 2799.003639147567
3112 2798.90651474143
3113 2799.000969506587
3114 2798.913096056348
3115 2799.002009643194
3116 2798.903826570649
3117 2798.99384612391
3118 2798.918913483546
3119 2799.000931933963
3120 2798.924253365542
3121 2799.017612718405
3122 2798.918485226182
3123 2799.007051396046
3124 2798.917552404935
3125 2799.01229199827
3126 2798.926155768509
3127 2799.012031729106
3128 2798.908213711607
3129 2798.990811434889
3130 2798.911772785513
3131 2798.995314294882
3132 2798.913531849482
3133 2799.006420261605
3134 2798.912920531664
3135 2799.008321099514
3136 2798.912713985006
3137 2798.995221604488
3138 2798.917771756936
3139 2799.0117530585
3140 2798.894797838187
3141 2798.988202617729
3142 2798.903957079139
3143 2799.000045684963
3144 2798.912778533808
3145 2799.008138708513
3146 2798.901455046743
3147 2799.001454351346
3148 2798.904073457704
3149 2799.009124436579
3150 2798.909787735236
3151 2799.010509040671
3152 2798.90110950798
3153 2798.995242292064
3154 2798.914677262306
3155 2799.007905184859
3156 2798.931806744885
3157 2799.006564964476
3158 2798.910847364604
3159 2799.005751593349
3160 2798.915890190528
3161 2798.996708205712
3162 2798.912688944146
3163 2799.000793089273
3164 2798.891437359373
3165 2798.987453306935
3166 2798.888590268818
3167 2798.98633635994
3168 2798.905248378318
3169 2799.002306206068
3170 2798.897740513744
3171 2798.995833670754
3172 2798.908668235442
3173 2798.999228259769
3174 2798.910573893821
3175 2798.998466070101
3176 2798.903030979817
3177 2798.990477903051
3178 2798.907477683453
3179 2799.001812026612
3180 2798.921717146671
3181 2799.008062365446
3182 2798.910838253451
3183 2799.001705438085
3184 2798.911907377907
3185 2798.989086281523
3186 2798.902138013648
3187 2798.988213343461
3188 2798.887390887031
3189 2798.980249211989
3190 2798.891348923952
3191 2798.982620657395
3192 2798.899801741549
3193 2798.997558091652
3194 2798.891354701424
3195 2798.979500725276
3196 2798.898356057152
3197 2798.99569146868
3198 2798.911581984116
3199 2799.006368274789
3200 2798.906546472605
3201 2798.991912182261
3202 2798.901173966439
3203 2798.997957865151
3204 2798.91329158512
3205 2799.000475332075
3206 2798.904802615969
3207 2798.993749325544
3208 2798.913314326825
3209 2798.991636884924
3210 2798.908022717583
3211 2798.994838021784
3212 2798.890921154397
3213 2798.989758451193
3214 2798.904207336336
3215 2798.998544836066
3216 2798.926763638949
3217 2799.014817187583
3218 2798.922605492388
3219 2799.005571091815
3220 2798.925125593814
3221 2799.00959912886
3222 2798.922270764076
3223 2799.01557600472
3224 2798.911620049664
3225 2799.000557386956
3226 2798.912194468395
3227 2799.003392423495
3228 2798.924845767281
3229 2799.009414662163
3230 2798.908958566152
3231 2799.002492477401
3232 2798.915182292983
3233 2799.000344740918
3234 2798.913998540515
3235 2799.000684449438
3236 2798.902421462959
3237 2798.987796621754
3238 2798.906898863889
3239 2798.993911036097
3240 2798.914793649929
3241 2799.000494630275
3242 2798.899715429078
3243 2798.984145722266
3244 2798.908091139614
3245 2798.983615994791
3246 2798.907264153949
3247 2798.986876518733
3248 2798.891126866089
3249 2798.982973963612
3250 2798.896632290967
3251 2798.987747437413
3252 2798.902188075378
3253 2798.996248601324
3254 2798.891513562432
3255 2798.986572941592
3256 2798.896318668795
3257 2798.979327397577
3258 2798.902984720901
3259 2798.990539129829
3260 2798.881052821382
3261 2798.972637128828
3262 2798.894740291031
3263 2798.981535617098
3264 2798.906070596027
3265 2798.991489441412
3266 2798.898935214111
3267 2798.982388512798
3268 2798.894816311318
3269 2798.985356341723
3270 2798.900179233088
3271 2798.99299216207
3272 2798.893430835959
3273 2798.979480645574
3274 2798.90928881846
3275 2798.995566606228
3276 2798.916192489857
3277 2798.994483219503
3278 2798.900906035271
3279 2799.001114933172
3280 2798.919307568523
3281 2798.990010996332
3282 2798.908413292706
3283 2798.993895808605
3284 2798.902613078657
3285 2798.984722650855
3286 2798.905668794045
3287 2798.986481203576
3288 2798.916812739345
3289 2799.005400794313
3290 2798.905623480386
3291 2798.995334417418
3292 2798.916766266575
3293 2799.008833464043
3294 2798.923613573711
3295 2799.01338136456
3296 2798.916940355977
3297 2799.004498560327
3298 2798.927795539864
3299 2799.016648404229
3300 2798.937729254821
3301 2799.022802752631
3302 2798.915475302875
3303 2799.006598728507
3304 2798.91289803669
3305 2799.005569664112
3306 2798.918551266005
3307 2799.009487564216
3308 2798.896620844577
3309 2798.991539118086
3310 2798.906156798984
3311 2799.001818921849
3312 2798.926077329817
3313 2799.019239456263
3314 2798.912825571456
3315 2799.01064734586
3316 2798.920464840617
3317 2799.016033147504
3318 2798.922529597571
3319 2799.016360125534
3320 2798.91752652331
3321 2799.005824363926
3322 2798.916710003994
3323 2799.01434348718
3324 2798.924539978846
3325 2799.005549800642
3326 2798.912207068918
3327 2799.003185506448
3328 2798.913794449639
3329 2798.993489657701
3330 2798.904654920686
3331 2798.992670066042
3332 2798.892658838277
3333 2798.992961432829
3334 2798.914733360267
3335 2799.000036980525
3336 2798.92587989142
3337 2799.01384105082
3338 2798.91463114745
3339 2799.009064962487
3340 2798.913770554079
3341 2799.010747686656
3342 2798.926082332516
3343 2799.019342703982
3344 2798.919432973462
3345 2799.004856363637
3346 2798.919947085233
3347 2799.006765090524
3348 2798.92423727149
3349 2799.015571166081
3350 2798.911082859646
3351 2799.016323211835
3352 2798.924335841434
3353 2799.003779504209
3354 2798.918784728332
3355 2799.007465226311
3356 2798.914852693088
3357 2798.999273825171
3358 2798.919866915754
3359 2799.008417589128
3360 2798.938464666282
3361 2799.023795349085
3362 2798.927586463063
3363 2799.019546171045
3364 2798.93019853333
3365 2799.025295523825
3366 2798.928374602902
3367 2799.018250980593
3368 2798.917190487627
3369 2799.009208090077
3370 2798.927044170824
3371 2799.02227753274
3372 2798.943057863437
3373 2799.030180153618
3374 2798.924013714518
3375 2799.021629184178
3376 2798.923721442912
3377 2799.008790951559
3378 2798.926892394804
3379 2799.022559809637
3380 2798.911840667718
3381 2799.004225427419
3382 2798.924299610346
3383 2799.008465893864
3384 2798.925814538012
3385 2799.010996198447
3386 2798.911041881496
3387 2799.0003114544
3388 2798.924906215967
3389 2799.001529128543
3390 2798.919680396516
3391 2799.003745719948
3392 2798.905074605682
3393 2798.993956035799
3394 2798.912698477203
3395 2799.004862304884
3396 2798.920255960685
3397 2799.005998738262
3398 2798.911394600302
3399 2799.002988819321
3400 2798.908108191457
3401 2798.983667371902
3402 2798.90625335323
3403 2798.992901228807
3404 2798.883856021051
3405 2798.977270551014
3406 2798.892643590452
3407 2798.981258874661
3408 2798.896737511486
3409 2798.99216266769
3410 2798.885764940283
3411 2798.984674376763
3412 2798.892669370614
3413 2798.987628853107
3414 2798.894437447569
3415 2798.987075348139
3416 2798.891037486489
3417 2798.973268742283
3418 2798.89829464769
3419 2798.993151573713
3420 2798.910956236617
3421 2798.991685906779
3422 2798.901126469488
3423 2798.992952395968
3424 2798.910548954015
3425 2798.982784735578
3426 2798.910991787509
3427 2798.989304198925
3428 2798.890645644893
3429 2798.983635937545
3430 2798.896552152946
3431 2798.982445613484
3432 2798.904515683937
3433 2799.002585497412
3434 2798.899824146366
3435 2798.988168408153
3436 2798.899968689451
3437 2798.99178081405
3438 2798.919386533314
3439 2799.006905842949
3440 2798.901342837945
3441 2798.989656297435
3442 2798.913329346369
3443 2798.998862201075
3444 2798.914215707969
3445 2799.003474319687
3446 2798.902032017888
3447 2798.998412511089
3448 2798.897171130744
3449 2798.984365389075
3450 2798.901518823782
3451 2798.995261673934
3452 2798.889598091572
3453 2798.984659851602
3454 2798.902176381049
3455 2798.989683733945
3456 2798.916239084752
3457 2799.003569479043
3458 2798.902858829668
3459 2799.003402476547
3460 2798.910876890012
3461 2799.003480494979
3462 2798.922263441223
3463 2799.010547003394
3464 2798.906259493193
3465 2798.993881574936
3466 2798.914553687065
3467 2799.004552089317
3468 2798.920511620282
3469 2799.012639007803
3470 2798.908440340583
3471 2799.003193399182
3472 2798.918390245497
3473 2799.000939818091
3474 2798.918268691323
3475 2798.999792486977
3476 2798.89440103646
3477 2798.982518525648
3478 2798.904618631233
3479 2798.988879984877
3480 2798.913596083182
3481 2799.003179095023
3482 2798.900471856752
3483 2798.989599662494
3484 2798.908905686166
3485 2798.994321539226
3486 2798.919121310153
3487 2799.010818091697
3488 2798.905533527941
3489 2798.994192498188
3490 2798.914781351546
3491 2799.009230067554
3492 2798.917233596743
3493 2799.006153766079
3494 2798.904494132794
3495 2799.003297332932
3496 2798.921064533088
3497 2798.990520784791
3498 2798.92204666106
3499 2798.99462119491
3500 2798.896015509245
3501 2798.986357073843
3502 2798.911077304267
3503 2798.998376130897
3504 2798.919814538203
3505 2799.014252973748
3506 2798.91493651475
3507 2799.006538506605
3508 2798.914968864791
3509 2799.011808600549
3510 2798.922827701375
3511 2799.020241960547
3512 2798.912832015841
3513 2799.006990811586
3514 2798.929657722343
3515 2799.017618320557
3516 2798.922462536468
3517 2799.015064009752
3518 2798.917227124432
3519 2799.013288231773
3520 2798.916060618524
3521 2799.00310343078
3522 2798.918097168262
3523 2799.010420546873
3524 2798.898249449534
3525 2798.988615187017
3526 2798.918523027564
3527 2799.005158000256
3528 2798.925764852156
3529 2799.023430335519
3530 2798.919143907839
3531 2799.026838364274
3532 2798.930710487638
3533 2799.020910563928
3534 2798.937448332663
3535 2799.031012292729
3536 2798.931480112446
3537 2799.009021497765
3538 2798.925258564865
3539 2799.017340921966
3540 2798.934266386357
3541 2799.014951975864
3542 2798.919347764537
3543 2799.016857150767
3544 2798.923621045318
3545 2799.001043331007
3546 2798.910110063679
3547 2799.000411678472
3548 2798.896107898219
3549 2798.984103059808
3550 2798.903794089351
3551 2798.984616009859
3552 2798.906357835009
3553 2799.008637785582
3554 2798.911196188094
3555 2798.997275932754
3556 2798.908116612849
3557 2798.988632091328
3558 2798.917638648837
3559 2799.003539725035
3560 2798.894685052001
3561 2798.985270101074
3562 2798.905279838102
3563 2798.998687507388
3564 2798.918123025396
3565 2798.996490143688
3566 2798.902607961807
3567 2798.997037194519
3568 2798.905036755564
3569 2798.985010214948
3570 2798.901220293679
3571 2798.989823321087
3572 2798.890800516331
3573 2798.982342362291
3574 2798.897765675213
3575 2798.987042790867
3576 2798.911208562729
3577 2799.00050063615
3578 2798.900459342232
3579 2798.998280488106
3580 2798.899626011485
3581 2798.992493744979
3582 2798.903176829235
3583 2799.001116294092
3584 2798.896137712927
3585 2798.985603290454
3586 2798.900790603132
3587 2798.99081653996
3588 2798.907171995169
3589 2798.995356033791
3590 2798.89722665882
3591 2798.989769931492
3592 2798.902259342728
3593 2798.986751424259
3594 2798.900137165247
3595 2798.985304456969
3596 2798.882460024399
3597 2798.973337510525
3598 2798.890861540546
3599 2798.978213298286
3600 2798.904822607587
3601 2798.995244345351
3602 2798.896774581592
3603 2798.987243437692
3604 2798.902015635743
3605 2798.987946398689
3606 2798.903919928227
3607 2798.994266879025
3608 2798.891296681553
3609 2798.988781092565
3610 2798.899783260533
3611 2798.997846726794
3612 2798.90888620157
3613 2799.006438064467
3614 2798.90963568332
3615 2798.99952464178
3616 2798.913949547821
3617 2798.993806367256
3618 2798.90686588225
3619 2798.997997941005
3620 2798.897947911303
3621 2798.986619629791
3622 2798.904691916027
3623 2798.993654041323
3624 2798.915194058642
3625 2799.001922356176
3626 2798.904196622303
3627 2798.989419112212
3628 2798.90121187874
3629 2798.988643887974
3630 2798.899166538756
3631 2798.994058292111
3632 2798.890955641461
3633 2798.989701175381
3634 2798.902730560691
3635 2798.993900192278
3636 2798.911905884922
3637 2798.999145634181
3638 2798.909960328106
3639 2798.999646194823
3640 2798.915057713434
3641 2798.993403589979
3642 2798.912822534081
3643 2798.991309762994
3644 2798.893728870131
3645 2798.976951650769
3646 2798.905757347736
3647 2798.989467885207
3648 2798.913401281117
3649 2799.013575312044
3650 2798.91380586138
3651 2799.000765811517
3652 2798.918641550194
3653 2799.002344409479
3654 2798.917082986415
3655 2799.004030086619
3656 2798.910952297489
3657 2798.996978032787
3658 2798.924107073596
3659 2799.014345367663
3660 2798.934678993758
3661 2799.012741948787
3662 2798.923533386583
3663 2799.012804366589
3664 2798.923737094366
3665 2799.01028522899
3666 2798.917061172011
3667 2799.004350162311
3668 2798.905485207931
3669 2798.99245213561
3670 2798.909828775561
3671 2798.999794339642
3672 2798.931470389643
3673 2799.024253830354
3674 2798.920146806556
3675 2799.017612108266
3676 2798.936720850692
3677 2799.016815885699
3678 2798.934086759432
3679 2799.022227811722
3680 2798.917473871987
3681 2799.009853815979
3682 2798.918298991809
3683 2799.013024534472
3684 2798.930653513707
3685 2799.01111732436
3686 2798.920793135526
3687 2799.004572422521
3688 2798.91840231069
3689 2798.99454228944
3690 2798.901161982214
3691 2798.995926308653
3692 2798.907471177722
3693 2798.996497213418
3694 2798.911796652816
3695 2799.003646457695
3696 2798.931497236852
3697 2799.017987932968
3698 2798.915768277207
3699 2799.009249255262
3700 2798.926759462174
3701 2799.013499552429
3702 2798.922308601861
3703 2799.013732754309
3704 2798.912659468675
3705 2798.999367213056
3706 2798.922250437008
3707 2799.006362198752
3708 2798.923802449596
3709 2799.007791084235
3710 2798.905417989657
3711 2799.014842162392
3712 2798.920246921482
3713 2799.00671979649
3714 2798.915326725554
3715 2799.006405915045
3716 2798.904175057346
3717 2798.993801616519
3718 2798.92202406198
3719 2798.999389256853
3720 2798.919593239497
3721 2799.005734875825
3722 2798.910267581232
3723 2798.997411445115
3724 2798.918120217159
3725 2799.003014861286
3726 2798.915037606435
3727 2799.003203718607
3728 2798.898837364418
3729 2799.003185975806
3730 2798.909347199176
3731 2799.002192394193
3732 2798.923083076362
3733 2799.015886916053
3734 2798.917868812464
3735 2799.007928234617
3736 2798.923315962121
3737 2798.996640729307
3738 2798.909816242417
3739 2799.004239385104
3740 2798.898432511035
3741 2798.986403969617
3742 2798.912627701581
3743 2799.00019212362
3744 2798.927553483843
3745 2799.011641074615
3746 2798.911131093726
3747 2798.996664089388
3748 2798.920459841531
3749 2799.002417289628
3750 2798.916331365321
3751 2799.002639853175
3752 2798.906605488224
3753 2798.997783100058
3754 2798.912807351483
3755 2799.003819350502
3756 2798.920979832717
3757 2799.010271153195
3758 2798.913811110955
3759 2799.006342583135
3760 2798.914064786023
3761 2798.990344480064
3762 2798.911285776527
3763 2799.005854798901
3764 2798.900799514444
3765 2798.991990493893
3766 2798.911910887499
3767 2799.006928567057
3768 2798.920701004209
3769 2799.022923362903
3770 2798.915729855067
3771 2799.014329719254
3772 2798.926079378798
3773 2799.018431308881
3774 2798.925723891917
3775 2799.018495154804
3776 2798.922686686196
3777 2799.008698169693
3778 2798.924630348715
3779 2799.02290790097
3780 2798.938604284312
3781 2799.022660739482
3782 2798.926389231462
3783 2799.020980831814
3784 2798.940797986946
3785 2799.021279249136
3786 2798.93808927636
3787 2799.020808481723
3788 2798.920950885704
3789 2799.013890712366
3790 2798.931369143489
3791 2799.020833651621
3792 2798.947800642012
3793 2799.044836830516
3794 2798.939664929374
3795 2799.027077301498
3796 2798.945059965771
3797 2799.030289857068
3798 2798.945191017447
3799 2799.034646436152
3800 2798.931889423806
3801 2799.02838818736
3802 2798.931655933708
3803 2799.026855489848
3804 2798.944852081046
3805 2799.031735295513
3806 2798.938615429537
3807 2799.025149865891
3808 2798.935405220166
3809 2799.026304007472
3810 2798.935760346128
3811 2799.025838182846
3812 2798.918572428916
3813 2799.012510705138
3814 2798.920678929805
3815 2799.012536325713
3816 2798.946313884807
3817 2799.024361497909
3818 2798.920259235488
3819 2799.016567753801
3820 2798.926628588761
3821 2799.012453712169
3822 2798.927808298427
3823 2799.02020976674
3824 2798.915140325382
3825 2799.006282818479
3826 2798.916226388992
3827 2799.006232837812
3828 2798.922088041453
3829 2799.018693414829
3830 2798.914380192338
3831 2799.007601268957
3832 2798.919500653632
3833 2799.006980190149
3834 2798.922554595943
3835 2799.006025629518
3836 2798.897445017622
3837 2798.987739023968
3838 2798.91136585349
3839 2799.001126944548
3840 2798.925382502035
3841 2799.017116798612
3842 2798.919087146768
3843 2799.000432308704
3844 2798.91636510438
3845 2798.999958489714
3846 2798.919275056284
3847 2799.009714568498
3848 2798.903860358447
3849 2798.997752363571
3850 2798.907932688564
3851 2799.006739709585
3852 2798.919748303214
3853 2799.008569156716
3854 2798.907585751005
3855 2799.00145443081
3856 2798.922339154878
3857 2798.994294006408
3858 2798.914040980503
3859 2798.996200623566
3860 2798.895301504957
3861 2798.984610464745
3862 2798.900546728426
3863 2798.984287682077
3864 2798.913111818057
3865 2799.001599063734
3866 2798.906177461378
3867 2798.989137350069
3868 2798.907268007688
3869 2798.993509952022
3870 2798.910356074071
3871 2798.995976263498
3872 2798.899740883887
3873 2798.990991852752
3874 2798.900783360349
3875 2798.993981897254
3876 2798.908159160733
3877 2798.992587796727
3878 2798.903744049805
3879 2798.99086558963
3880 2798.899722591701
3881 2798.979757041898
3882 2798.895711498512
3883 2798.990251542601
3884 2798.888587940801
3885 2798.973202482721
3886 2798.896177873296
3887 2798.973951879014
3888 2798.89665838529
3889 2798.988669760191
3890 2798.898971226109
3891 2798.987635405133
3892 2798.906594694879
3893 2798.990462328668
3894 2798.916749325808
3895 2798.991722773286
3896 2798.895937878661
3897 2798.978707605983
3898 2798.901162027761
3899 2798.996427028968
3900 2798.909335008937
3901 2798.996989331828
3902 2798.907362332072
3903 2798.994792739677
3904 2798.904136207522
3905 2798.985798590938
3906 2798.905369909745
3907 2798.990075081662
3908 2798.883131555418
3909 2798.98360317921
3910 2798.888034653218
3911 2798.984960044263
3912 2798.903489995542
3913 2799.010558995118
3914 2798.904276415137
3915 2798.990814126028
3916 2798.902560907056
3917 2798.99125214108
3918 2798.91255622427
3919 2798.997755485839
3920 2798.89611394044
3921 2798.987251389713
3922 2798.907929513966
3923 2798.996357857537
3924 2798.909911926293
3925 2798.996828075211
3926 2798.906426102868
3927 2799.003058410949
3928 2798.914161861554
3929 2799.001355142926
3930 2798.917505709388
3931 2799.00625512254
3932 2798.916276021302
3933 2798.995831788652
3934 2798.908324409927
3935 2798.991044086087
3936 2798.919118679974
3937 2799.013076568983
3938 2798.922585624994
3939 2799.013900179616
3940 2798.923567152895
3941 2799.006896220022
3942 2798.932593807454
3943 2799.012849322886
3944 2798.909792242937
3945 2799.000014856214
3946 2798.923986761253
3947 2799.016289943617
3948 2798.927605365332
3949 2799.018505956414
3950 2798.913662252665
3951 2799.010325978939
3952 2798.905595718084
3953 2798.994174062754
3954 2798.908397412009
3955 2799.003346549704
3956 2798.895387906245
3957 2798.987418221862
3958 2798.920461274184
3959 2798.996914445397
3960 2798.919667845493
3961 2799.002860590011
3962 2798.912463168374
3963 2799.006640012013
3964 2798.90907991221
3965 2798.997171171536
3966 2798.912876868012
3967 2799.003590843555
3968 2798.901202803646
3969 2798.988564420025
3970 2798.909891108065
3971 2798.992699550717
3972 2798.920071027514
3973 2799.004137612177
3974 2798.898284368958
3975 2798.999138606352
3976 2798.899700716693
3977 2798.983843295548
3978 2798.908173005045
3979 2798.999086668145
3980 2798.895298496924
3981 2798.980975091875
3982 2798.907072066683
3983 2798.997468903355
3984 2798.91981645819
3985 2799.002826353526
3986 2798.901760750574
3987 2798.990473499339
3988 2798.906388821914
3989 2798.987744257589
3990 2798.908034372731
3991 2798.997000659114
3992 2798.896789675999
3993 2798.98784700019
3994 2798.90624821178
3995 2798.997292588141
3996 2798.920046107709
3997 2799.000742327092
3998 2798.901535834655
3999 2799.004612442381
4000 2798.912581301329
4001 2798.990397527529
4002 2798.916614602104
4003 2798.998121290706
4004 2798.894064833467
4005 2798.979858957699
4006 2798.895599828415
4007 2798.982058809278
4008 2798.906917816622
4009 2799.000580852474
4010 2798.893008904729
4011 2798.98984602541
4012 2798.897391281265
4013 2798.991986027797
4014 2798.905807610686
4015 2799.002003028576
4016 2798.896753954119
4017 2798.985825536746
4018 2798.911800623354
4019 2799.001516804818
4020 2798.917007787546
4021 2799.00106672508
4022 2798.903184582708
4023 2799.00277869661
4024 2798.902341512936
4025 2798.979053531919
4026 2798.902093415848
4027 2798.990737342891
4028 2798.887982418772
4029 2798.978115716301
4030 2798.89433360273
4031 2798.987139398218
4032 2798.910879628606
4033 2799.005000721118
4034 2798.903996266441
4035 2798.995884225135
4036 2798.918213268771
4037 2798.999655844389
4038 2798.918998226632
4039 2799.004083997773
4040 2798.904750837201
4041 2798.991351384799
4042 2798.910424208148
4043 2799.000525460968
4044 2798.913258819646
4045 2799.003402643525
4046 2798.90040673953
4047 2798.985395150822
4048 2798.899385128809
4049 2798.98434982354
4050 2798.899643132376
4051 2798.985699639137
4052 2798.880295383589
4053 2798.983985938101
4054 2798.895395036986
4055 2798.97962559325
4056 2798.897957818161
4057 2798.993649021209
4058 2798.895846046393
4059 2798.981002425802
4060 2798.896892425533
4061 2798.985260217477
4062 2798.900960151043
4063 2798.991091830506
4064 2798.891572646063
4065 2798.978618079043
4066 2798.905765115184
4067 2798.991642842007
4068 2798.907010799337
4069 2798.997234479124
4070 2798.894670440507
4071 2798.991649970425
4072 2798.900908068275
4073 2798.986815381175
4074 2798.903657642843
4075 2798.992186834808
4076 2798.900592913575
4077 2798.985881327792
4078 2798.893874675433
4079 2798.988471585269
4080 2798.912832504976
4081 2799.012412585565
4082 2798.914976732721
4083 2798.998494340995
4084 2798.9186508526
4085 2799.003339139106
4086 2798.920341260986
4087 2799.010559669157
4088 2798.908576200922
4089 2799.000992208831
4090 2798.919731905773
4091 2799.014328419487
4092 2798.933235893084
4093 2799.021963054576
4094 2798.926707981422
4095 2799.00887530159
4096 2798.919006577485
4097 2798.997834325338
4098 2798.920504293326
4099 2799.00436251929
4100 2798.901426564766
4101 2798.991390045532
4102 2798.909706100957
4103 2798.998168346967
4104 2798.924724757572
4105 2798.999464129588
4106 2798.903432783476
4107 2798.998284179213
4108 2798.915725637471
4109 2799.002614417855
4110 2798.918610609841
4111 2799.009812564618
4112 2798.91366040507
4113 2798.9949175305
4114 2798.907551510526
4115 2798.999286741414
4116 2798.918049554083
4117 2799.000395076716
4118 2798.90584659092
4119 2798.997113821483
4120 2798.917235051242
4121 2798.985910207211
4122 2798.907851894069
4123 2798.994426870639
4124 2798.900748413719
4125 2798.988706740259
4126 2798.9035306944
4127 2798.990332015542
4128 2798.915130046332
4129 2799.008809319884
4130 2798.907468503524
4131 2798.995339364361
4132 2798.910985862302
4133 2798.996906009741
4134 2798.915503222368
4135 2799.000247272374
4136 2798.895186885737
4137 2798.986660915779
4138 2798.920963622041
4139 2799.001670671306
4140 2798.917974964907
4141 2799.004175961067
4142 2798.900493379648
4143 2799.004193308947
4144 2798.903523109994
4145 2798.984764297013
4146 2798.913004943144
4147 2798.997513799219
4148 2798.891649414589
4149 2798.983648028915
4150 2798.905141007926
4151 2798.990725153065
4152 2798.915249888759
4153 2799.003379405727
4154 2798.905798266483
4155 2798.993180873523
4156 2798.91283233467
4157 2798.997713661564
4158 2798.916643890019
4159 2799.010860567631
4160 2798.908591899254
4161 2798.991803348788
4162 2798.912006324696
4163 2799.012027290068
4164 2798.931845702875
4165 2799.009231604989
4166 2798.914700933116
4167 2799.010619255863
4168 2798.924227164031
4169 2799.001252650389
4170 2798.91446447
4171 2799.015186529833
4172 2798.912635830112
4173 2798.999719389959
4174 2798.91866169463
4175 2799.013115042982
4176 2798.934413271796
4177 2799.020679981843
4178 2798.915403855016
4179 2799.02052183748
4180 2798.92480467479
4181 2799.017126769426
4182 2798.932048276079
4183 2799.025782235401
4184 2798.929479652
4185 2799.012664699418
4186 2798.937441863565
4187 2799.018249973613
4188 2798.938056457939
4189 2799.028196056477
4190 2798.928625379503
4191 2799.026604274944
4192 2798.923053760461
4193 2799.014198580957
4194 2798.929962356745
4195 2799.017618604938
4196 2798.9165203263
4197 2799.006682867114
4198 2798.926841410795
4199 2799.015276526702
4200 2798.932750861128
4201 2799.02202322843
4202 2798.924737029461
4203 2799.013065395252
4204 2798.92775546642
4205 2799.012139601115
4206 2798.939508293774
4207 2799.023616026368
4208 2798.921695491097
4209 2799.004799236576
4210 2798.928853271646
4211 2799.015413012668
4212 2798.936409192931
4213 2799.017377209077
4214 2798.922374214706
4215 2799.014853245833
4216 2798.924561371376
4217 2799.008422650315
4218 2798.930488929569
4219 2799.004807252816
4220 2798.905348363895
4221 2798.993939729401
4222 2798.919100605742
4223 2799.009462205026
4224 2798.926525980264
4225 2799.019132271686
4226 2798.920646274857
4227 2799.010296393606
4228 2798.905635623302
4229 2799.010103683792
4230 2798.918972451253
4231 2799.02358285067
4232 2798.914851516563
4233 2799.012530777634
4234 2798.928698927037
4235 2799.021684919027
4236 2798.940888410077
4237 2799.027200801073
4238 2798.92198090249
4239 2799.019234140377
4240 2798.926349989975
4241 2799.012756145896
4242 2798.926106079211
4243 2799.018411066166
4244 2798.90974248714
4245 2799.003136515209
4246 2798.92453815664
4247 2799.015188795977
4248 2798.934943797688
4249 2799.027128738599
4250 2798.912603374102
4251 2799.008042327694
4252 2798.928450492307
4253 2799.015232691835
4254 2798.930383198013
4255 2799.019606807845
4256 2798.919549729746
4257 2799.003878002344
4258 2798.920202485464
4259 2799.019068047562
4260 2798.924622296035
4261 2799.020668413023
4262 2798.917991505493
4263 2799.014683080828
4264 2798.923178506383
4265 2799.011137094315
4266 2798.917042765474
4267 2799.004491919092
4268 2798.896284387331
4269 2798.992440213477
4270 2798.90026668923
4271 2798.992948488391
4272 2798.909968937153
4273 2799.013884944879
4274 2798.900529627436
4275 2798.995740354708
4276 2798.899118301971
4277 2798.985967012651
4278 2798.897013287033
4279 2799.003542116591
4280 2798.901231060359
4281 2798.989820367804
4282 2798.915189732883
4283 2799.005003306573
4284 2798.918662664808
4285 2798.998832095773
4286 2798.90910977976
4287 2798.991647200891
4288 2798.906402894356
4289 2798.99146476113
4290 2798.908430171802
4291 2798.989646837281
4292 2798.901384602183
4293 2798.983594367874
4294 2798.896193797887
4295 2798.980279649183
4296 2798.907956891182
4297 2798.999819580017
4298 2798.907854908212
4299 2798.99411601054
4300 2798.904033666457
4301 2798.996621778151
4302 2798.915748407679
4303 2798.99974058887
4304 2798.895116109221
4305 2798.986479793236
4306 2798.909344449509
4307 2798.998082873439
4308 2798.909688453769
4309 2799.002393354804
4310 2798.90270754861
4311 2798.984190682012
4312 2798.888483423281
4313 2798.98057067328
4314 2798.896360061955
4315 2798.987846478805
4316 2798.882019348382
4317 2798.977368491707
4318 2798.893687609285
4319 2798.985503986441
4320 2798.903580789378
4321 2798.998737081329
4322 2798.891813364135
4323 2798.983560189073
4324 2798.906977550548
4325 2798.997522946289
4326 2798.907401699417
4327 2799.004967504412
4328 2798.902082355145
4329 2798.995216871699
4330 2798.900309890238
4331 2799.005326621652
4332 2798.920256097365
4333 2799.011669422926
4334 2798.900693776785
4335 2799.000903633973
4336 2798.910219101612
4337 2798.995244814955
4338 2798.904534125412
4339 2798.997004499986
4340 2798.892814927955
4341 2798.988793071911
4342 2798.895341724649
4343 2798.995801478627
4344 2798.908243662374
4345 2798.999962529991
4346 2798.901613563492
4347 2798.99052635525
4348 2798.906789468343
4349 2798.996621283722
4350 2798.914511463797
4351 2799.003922911314
4352 2798.903541559532
4353 2799.002261624226
4354 2798.922055036688
4355 2799.001522149977
4356 2798.910675669684
4357 2799.000506996636
4358 2798.899452986311
4359 2798.996853875179
4360 2798.901349580557
4361 2798.988825384091
4362 2798.904248827283
4363 2798.986864474149
4364 2798.889255349242
4365 2798.981974693236
4366 2798.889181861125
4367 2798.981293466929
4368 2798.90587592114
4369 2799.006284541829
4370 2798.897963002043
4371 2798.991650226656
4372 2798.914531315165
4373 2799.002981361433
4374 2798.905420393361
4375 2799.00244874522
4376 2798.904324192974
4377 2798.988665848511
4378 2798.908961105246
4379 2799.005272359778
4380 2798.929744629107
4381 2799.00654879046
4382 2798.91129079738
4383 2799.001262146685
4384 2798.915659896883
4385 2798.991326347958
4386 2798.91341945904
4387 2799.000146636537
4388 2798.895391662878
4389 2798.980492986504
4390 2798.905357337756
4391 2798.994707080783
4392 2798.924930200239
4393 2799.011720037837
4394 2798.909885963911
4395 2798.995597555997
4396 2798.917108558886
4397 2799.003257876114
4398 2798.923991248968
4399 2799.010616860609
4400 2798.906120295187
4401 2798.998620431365
4402 2798.914038996684
4403 2799.002881693463
4404 2798.919285987644
4405 2799.005127610131
4406 2798.908922384796
4407 2798.997065990453
4408 2798.906172033106
4409 2798.997612419829
4410 2798.909287063439
4411 2798.990441167889
4412 2798.892252336098
4413 2798.988307392802
4414 2798.902493776454
4415 2798.988587784002
4416 2798.922235894281
4417 2798.998255465452
4418 2798.907774027478
4419 2798.983015187268
4420 2798.906104226721
4421 2798.987562865089
4422 2798.914648773632
4423 2798.997094095987
4424 2798.895039786929
4425 2798.990449777883
4426 2798.913196842531
4427 2798.999579838106
4428 2798.911113664125
4429 2798.998891294047
4430 2798.901731875929
4431 2799.002608408947
4432 2798.910801123867
4433 2798.994939005333
4434 2798.913149756725
4435 2798.999710243767
4436 2798.900326620635
4437 2798.987801313356
4438 2798.906723466981
4439 2798.990970186032
4440 2798.914304960536
4441 2799.002894474619
4442 2798.907492651671
4443 2798.994532175185
4444 2798.912340738765
4445 2798.999479204504
4446 2798.917477107585
4447 2799.006762641144
4448 2798.907347328275
4449 2798.993218013401
4450 2798.908932062692
4451 2799.001631098684
4452 2798.921172855835
4453 2799.003299355178
4454 2798.909335747952
4455 2798.994822488666
4456 2798.902438958316
4457 2798.980750323313
4458 2798.903483533411
4459 2798.995196525002
4460 2798.886787830721
4461 2798.981035515934
4462 2798.90376868082
4463 2798.992027750371
4464 2798.912675631667
4465 2799.001178333702
4466 2798.901207610341
4467 2798.992016324061
4468 2798.903258248499
4469 2798.994224699661
4470 2798.907811008643
4471 2799.001351169185
4472 2798.900264740403
4473 2798.992844344264
4474 2798.908687335032
4475 2798.995591596905
4476 2798.916122908414
4477 2799.000568231234
4478 2798.909708872336
4479 2798.995102917141
4480 2798.910602123035
4481 2798.991587112598
4482 2798.900580555589
4483 2798.995505698194
4484 2798.895299392375
4485 2798.982507277797
4486 2798.903620039196
4487 2798.992296916025
4488 2798.917052386673
4489 2799.014110839975
4490 2798.903829777129
4491 2798.997730046358
4492 2798.911876039324
4493 2799.001242724124
4494 2798.912521176369
4495 2799.005161266886
4496 2798.904572853539
4497 2798.990277633612
4498 2798.917062979726
4499 2799.005862507345
4500 2798.922305947578
4501 2799.004610240542
4502 2798.908260710299
4503 2799.007358432582
4504 2798.916342603295
4505 2799.001322562852
4506 2798.919912843858
4507 2799.000466626116
4508 2798.899394167453
4509 2798.986780106921
4510 2798.908004400078
4511 2798.995648284798
4512 2798.912697316074
4513 2799.010513578915
4514 2798.904205678327
4515 2798.996878554869
4516 2798.907535282367
4517 2799.002438894059
4518 2798.915217811379
4519 2799.017030477576
4520 2798.913267845609
4521 2799.004494800058
4522 2798.922197636697
4523 2799.022442592969
4524 2798.932117979399
4525 2799.013962039553
4526 2798.915048156174
4527 2799.013684081814
4528 2798.914074114767
4529 2798.998569521591
4530 2798.910777690827
4531 2799.005497755021
4532 2798.902049446834
4533 2798.995703532569
4534 2798.912564323999
4535 2799.000556577865
4536 2798.909895200117
4537 2799.000155941976
4538 2798.901368651887
4539 2799.001536738229
4540 2798.912711677454
4541 2799.002504086398
4542 2798.913866367679
4543 2799.011746578835
4544 2798.911654905066
4545 2799.004064529284
4546 2798.918079349671
4547 2799.006826151771
4548 2798.921264112209
4549 2799.011112369841
4550 2798.911752111388
4551 2799.006771037125
4552 2798.909317072286
4553 2799.003177244269
4554 2798.916438669681
4555 2799.001306586908
4556 2798.893517275025
4557 2798.987808855261
4558 2798.910978095344
4559 2798.9997567683
4560 2798.92353133918
4561 2799.006840359603
4562 2798.912774629732
4563 2798.996568599779
4564 2798.908133766646
4565 2798.997278848926
4566 2798.914893878097
4567 2799.005461922174
4568 2798.900311589935
4569 2798.995521139578
4570 2798.915346142827
4571 2799.009853613912
4572 2798.92827390315
4573 2799.012412476134
4574 2798.908526036774
4575 2799.006272273954
4576 2798.913853715947
4577 2799.002155909782
4578 2798.914448713444
4579 2799.00562897388
4580 2798.899718325561
4581 2798.991741116109
4582 2798.902165573477
4583 2799.000037186878
4584 2798.919179555457
4585 2799.014771534689
4586 2798.906733056755
4587 2799.003870184647
4588 2798.905908814701
4589 2799.001445791019
4590 2798.911169093079
4591 2799.009259242398
4592 2798.902324896737
4593 2799.001767912719
4594 2798.912787712478
4595 2799.014511082501
4596 2798.92794071261
4597 2799.017506061439
4598 2798.91107435547
4599 2799.013368071349
4600 2798.911421503125
4601 2798.998438239705
4602 2798.915135894445
4603 2799.003742253441
4604 2798.897662144058
4605 2798.989985293558
4606 2798.909380673374
4607 2799.001398233501
4608 2798.912363862696
4609 2799.011289189812
4610 2798.908716496747
4611 2799.0053608856
4612 2798.92135946255
4613 2799.015795177268
4614 2798.92706355498
4615 2799.018023963511
4616 2798.915786860878
4617 2799.001527927734
4618 2798.9260592487
4619 2799.017802097309
4620 2798.934536913692
4621 2799.019553870954
4622 2798.923312637698
4623 2799.017616063559
4624 2798.923309222682
4625 2799.014449889759
4626 2798.923498997779
4627 2799.017085056129
4628 2798.906484473224
4629 2799.005618328701
4630 2798.919652494256
4631 2799.015064878982
4632 2798.93327473413
4633 2799.030620746979
4634 2798.935557488814
4635 2799.023402262249
4636 2798.93350719129
4637 2799.028276981645
4638 2798.944885843744
4639 2799.043778549815
4640 2798.927882783076
4641 2799.022230002834
4642 2798.940140534964
4643 2799.028071707109
4644 2798.937183258997
4645 2799.02808382934
4646 2798.927895698535
4647 2799.020648439871
4648 2798.925893183776
4649 2799.021052542755
4650 2798.943718644754
4651 2799.016553813392
4652 2798.910726277075
4653 2799.009925171254
4654 2798.929891637835
4655 2799.022212687804
4656 2798.940802714686
4657 2799.039798872351
4658 2798.945219503567
4659 2799.032745449358
4660 2798.943377282581
4661 2799.029209703313
4662 2798.948992362803
4663 2799.036538841911
4664 2798.93338144764
4665 2799.020829514202
4666 2798.946855224286
4667 2799.035094570934
4668 2798.946783988762
4669 2799.036375798705
4670 2798.935816793629
4671 2799.030339113553
4672 2798.932120038231
4673 2799.02968515475
4674 2798.941255408631
4675 2799.027832285592
4676 2798.922234303952
4677 2799.011820176016
4678 2798.933724007499
4679 2799.023284737807
4680 2798.940491848578
4681 2799.029040523968
4682 2798.934496834629
4683 2799.021365322049
4684 2798.931338990194
4685 2799.025171803455
4686 2798.935173752293
4687 2799.022700315275
4688 2798.916614747507
4689 2799.010285203037
4690 2798.922252680283
4691 2799.015234164704
4692 2798.927365244781
4693 2799.022781235157
4694 2798.917972701683
4695 2799.006104256334
4696 2798.911668828621
4697 2799.002677935843
4698 2798.923149441695
4699 2799.003431537251
4700 2798.889520089254
4701 2798.984488003193
4702 2798.908513603953
4703 2798.999935131929
4704 2798.915533025266
4705 2799.002564575994
4706 2798.902430867875
4707 2798.989897614734
4708 2798.89211107192
4709 2798.985993205336
4710 2798.897446773528
4711 2798.997347884205
4712 2798.893352352655
4713 2798.985047426677
4714 2798.902789276562
4715 2798.994169345162
4716 2798.916072385628
4717 2798.98720532146
4718 2798.892489167315
4719 2798.985111677284
4720 2798.899661465554
4721 2798.97535568043
4722 2798.89869998472
4723 2798.975759223869
4724 2798.877973504176
4725 2798.963923250762
4726 2798.875064961444
4727 2798.966845771623
4728 2798.88830342415
4729 2798.991011028932
4730 2798.881333640546
4731 2798.977963722949
4732 2798.886872162927
4733 2798.9889398617
4734 2798.89172952553
4735 2798.988421242501
4736 2798.88746983807
4737 2798.977725249169
4738 2798.906685924944
4739 2798.997310543545
4740 2798.911348790308
4741 2798.996878305911
4742 2798.907459952688
4743 2798.997609077551
4744 2798.909559213684
4745 2798.992859368318
4746 2798.917076843597
4747 2798.995914156013
4748 2798.885663632443
4749 2798.980719489188
4750 2798.889624835836
4751 2798.992921212632
4752 2798.907745694554
4753 2799.011360382161
4754 2798.895585690655
4755 2798.997066565648
4756 2798.904870065359
4757 2798.987399012852
4758 2798.905413974598
4759 2798.995207472415
4760 2798.899090660639
4761 2798.979699975053
4762 2798.908574177622
4763 2798.999724307262
4764 2798.911685042191
4765 2798.993435929471
4766 2798.895612856581
4767 2798.988895220784
4768 2798.890631103606
4769 2798.981219310634
4770 2798.892740839903
4771 2798.988928342738
4772 2798.878208227703
4773 2798.975528858595
4774 2798.888037570749
4775 2798.985018613499
4776 2798.894685358931
4777 2798.99096235328
4778 2798.88931795607
4779 2798.990415485554
4780 2798.89230855597
4781 2798.989688081493
4782 2798.916316015231
4783 2798.990033001704
4784 2798.883784835633
4785 2798.972833904407
4786 2798.90580380108
4787 2798.989343385271
4788 2798.903457220979
4789 2798.989496203378
4790 2798.892874186149
4791 2798.988235900957
4792 2798.888575523089
4793 2798.981584573568
4794 2798.900338864738
4795 2798.990031836412
4796 2798.891191336096
4797 2798.976506320523
4798 2798.896696418905
4799 2798.984727680299
4800 2798.907686494758
4801 2798.994960146896
4802 2798.901253940288
4803 2798.994322991466
4804 2798.908577547008
4805 2799.006431301399
4806 2798.916030374752
4807 2799.015291175907
4808 2798.911334544362
4809 2799.008723692454
4810 2798.908118562227
4811 2799.011533274866
4812 2798.927253852941
4813 2799.027433714622
4814 2798.922868713876
4815 2799.019319819321
4816 2798.922385641075
4817 2799.009546632114
4818 2798.926442836659
4819 2799.014613795024
4820 2798.903804946926
4821 2798.998455241705
4822 2798.907997684978
4823 2799.005853432697
4824 2798.924604181269
4825 2799.01670707147
4826 2798.905444370888
4827 2798.993466159858
4828 2798.912842696691
4829 2799.010024071817
4830 2798.922821127718
4831 2799.01144254281
4832 2798.910615480347
4833 2798.997243187611
4834 2798.910425658478
4835 2799.004646729863
4836 2798.923883283088
4837 2799.012680818673
4838 2798.91551640971
4839 2799.014326824984
4840 2798.916892440324
4841 2799.006420670912
4842 2798.913981821884
4843 2799.00753369524
4844 2798.902983566112
4845 2798.991921503709
4846 2798.910585252713
4847 2799.00044327304
4848 2798.914611862516
4849 2799.012276149334
4850 2798.902983488082
4851 2798.994257936015
4852 2798.911627525712
4853 2799.004629144082
4854 2798.914410664641
4855 2798.999722778499
4856 2798.899434824314
4857 2798.987879930363
4858 2798.908815155888
4859 2799.009821515697
4860 2798.916108309686
4861 2799.005664329538
4862 2798.904496237748
4863 2799.003207858073
4864 2798.905258902091
4865 2798.99301783653
4866 2798.905124725961
4867 2798.990451953728
4868 2798.889483945389
4869 2798.97755551276
4870 2798.883075390168
4871 2798.978148223348
4872 2798.902791483825
4873 2798.999352623207
4874 2798.902982374897
4875 2798.990064703175
4876 2798.908196797199
4877 2798.995963283191
4878 2798.913393564918
4879 2799.009213072281
4880 2798.900042633621
4881 2798.989197247301
4882 2798.908644492346
4883 2799.006529642489
4884 2798.91292068464
4885 2799.008993105754
4886 2798.907492225152
4887 2799.000835204271
4888 2798.895813843631
4889 2798.993282390476
4890 2798.906694068046
4891 2798.998944101851
4892 2798.892100880728
4893 2798.98549677762
4894 2798.906560727231
4895 2798.996500952694
4896 2798.912739960155
4897 2799.008913274884
4898 2798.911449621378
4899 2799.012078951188
4900 2798.916779455056
4901 2799.008385134176
4902 2798.925553645572
4903 2799.025754587076
4904 2798.918557776452
4905 2799.009658640697
4906 2798.918025601866
4907 2799.008194208408
4908 2798.920689031263
4909 2799.016222685411
4910 2798.909074008754
4911 2799.01321754708
4912 2798.9238016606
4913 2799.011474935969
4914 2798.918734887319
4915 2799.012689166507
4916 2798.909027535464
4917 2798.998462682141
4918 2798.908888002782
4919 2799.013532152884
4920 2798.931105186037
4921 2799.015223005291
4922 2798.913983218122
4923 2799.007267677305
4924 2798.922459669961
4925 2799.013729753413
4926 2798.927097845513
4927 2799.014863263941
4928 2798.919496783097
4929 2798.992224661605
4930 2798.90901445838
4931 2799.000217428894
4932 2798.915916355259
4933 2799.00556472368
4934 2798.910765199549
4935 2799.005736978022
4936 2798.913064020944
4937 2798.995525972341
4938 2798.920801813374
4939 2799.002403454866
4940 2798.905011695549
4941 2798.994909953126
4942 2798.912386663445
4943 2799.006288800002
4944 2798.919687684051
4945 2799.022319886645
4946 2798.923985133139
4947 2799.012803774798
4948 2798.910657344602
4949 2799.016183171272
4950 2798.926058978098
4951 2799.020035436517
4952 2798.910068139584
4953 2799.006243107059
4954 2798.918372548642
4955 2799.014936893331
4956 2798.923967039324
4957 2799.014963105313
4958 2798.917702571855
4959 2799.012726940536
4960 2798.912311457138
4961 2799.004004486344
4962 2798.926467029147
4963 2799.003307657942
4964 2798.897948252517
4965 2798.993894198879
4966 2798.91914266435
4967 2799.004887807298
4968 2798.925278343857
4969 2799.020402734849
4970 2798.916232676289
4971 2799.008545036562
4972 2798.922291425233
4973 2799.015810904674
4974 2798.932401099562
4975 2799.016728844547
4976 2798.918735357553
4977 2799.003206729187
4978 2798.918345763189
4979 2799.01516097247
4980 2798.932609593716
4981 2799.020736089831
4982 2798.922764583874
4983 2799.015515833091
4984 2798.926930047448
4985 2799.01294600859
4986 2798.930752279376
4987 2799.011712860115
4988 2798.902182571382
4989 2799.002887626425
4990 2798.904159744777
4991 2798.999333374798
4992 2798.924306384794
4993 2799.02569355755
4994 2798.923645236498
4995 2799.005792358209
4996 2798.925582069387
4997 2799.015785737056
4998 2798.925667946475
4999 2799.024157262921
5000 2798.907999705965
5001 2798.999200168372
5002 2798.914345116105
5003 2799.014500464828
5004 2798.92707588841
5005 2799.010289067714
5006 2798.912547056471
5007 2799.006966520159
5008 2798.923837131266
5009 2799.004569477117
5010 2798.912297403678
5011 2799.001761461815
5012 2798.898521496831
5013 2798.993302315572
5014 2798.88780300577
5015 2798.982871033335
5016 2798.90718748455
5017 2799.005005835695
5018 2798.904472141614
5019 2799.000624288265
5020 2798.906075466331
5021 2798.999632618635
5022 2798.908738104919
5023 2799.001472363914
5024 2798.894008783981
5025 2798.985371712115
5026 2798.907046318169
5027 2798.997224299282
5028 2798.907057005348
5029 2799.00036603891
5030 2798.89827174179
5031 2798.991725118504
5032 2798.897296143935
5033 2798.989063150568
5034 2798.906801012612
5035 2798.989892494698
5036 2798.889729783006
5037 2798.977062688141
5038 2798.903188165512
5039 2798.99556342584
5040 2798.916679032402
5041 2799.007994408326
5042 2798.91421867293
5043 2799.006924896308
5044 2798.922623778786
5045 2799.010361173456
5046 2798.925321240447
5047 2799.012031678366
5048 2798.913163777011
5049 2798.999702357869
5050 2798.913517202208
5051 2799.009231966117
5052 2798.923581493209
5053 2799.010323462469
5054 2798.913260451633
5055 2799.001946822204
5056 2798.913114387459
5057 2799.00599021422
5058 2798.926976512762
5059 2799.015047134376
5060 2798.904219484443
5061 2798.999001795223
5062 2798.919252389575
5063 2799.010152203295
5064 2798.919472295927
5065 2799.01703634705
5066 2798.92337509114
5067 2799.007964948429
5068 2798.900838861863
5069 2799.000885948119
5070 2798.911654719245
5071 2799.016166937737
5072 2798.905896915662
5073 2799.003939901408
5074 2798.920987603751
5075 2799.00724098492
5076 2798.923295122037
5077 2799.014364092813
5078 2798.910518253158
5079 2799.011440569433
5080 2798.919725392989
5081 2799.006865377733
5082 2798.92418418562
5083 2799.015357081218
5084 2798.913810131095
5085 2798.999220102043
5086 2798.906878234471
5087 2799.003001000308
5088 2798.920617068909
5089 2799.018808196665
5090 2798.909778962067
5091 2799.001742687929
5092 2798.9164951516
5093 2799.012069328598
5094 2798.913899980825
5095 2799.008449625217
5096 2798.912198576515
5097 2799.003125620232
5098 2798.92226531418
5099 2799.020504406166
5100 2798.931973550184
5101 2799.021812924548
5102 2798.922394350492
5103 2799.016665766866
5104 2798.923640208897
5105 2799.011066582436
5106 2798.931635609784
5107 2799.012313550688
5108 2798.911101212153
5109 2799.000984425597
5110 2798.917172238176
5111 2798.998606684953
5112 2798.918383571622
5113 2799.015030581479
5114 2798.916344478132
5115 2799.011507987355
5116 2798.915151016867
5117 2799.007089214428
5118 2798.9261336341
5119 2799.021503706406
5120 2798.912806078458
5121 2799.003243836454
5122 2798.923626584674
5123 2799.016282830704
5124 2798.931044654584
5125 2799.015071158517
5126 2798.915249975584
5127 2799.004918834434
5128 2798.914106335348
5129 2799.007218577219
5130 2798.920355422366
5131 2799.012841147652
5132 2798.90109340894
5133 2799.001310743582
5134 2798.920438688469
5135 2799.003973297885
5136 2798.927013517961
5137 2799.017713915494
5138 2798.918609575811
5139 2799.011255861508
5140 2798.923640832507
5141 2799.010150847218
5142 2798.925887539136
5143 2799.015042787988
5144 2798.91155617503
5145 2798.995333706827
5146 2798.915546177969
5147 2799.001616436131
5148 2798.918159734319
5149 2799.001636175713
5150 2798.902080507413
5151 2798.99292773197
5152 2798.906322310591
5153 2798.992575670118
5154 2798.912753291293
5155 2798.993692978375
5156 2798.889571700934
5157 2798.982296634877
5158 2798.89712779425
5159 2798.988909356507
5160 2798.901050936071
5161 2799.002732992963
5162 2798.899638249587
5163 2798.991565580543
5164 2798.905590258817
5165 2798.983693233243
5166 2798.907775476628
5167 2798.987072902436
5168 2798.888232687706
5169 2798.983592148395
5170 2798.899913286282
5171 2798.9899542776
5172 2798.906958387122
5173 2798.991236674835
5174 2798.886237416743
5175 2798.979649348975
5176 2798.885885015723
5177 2798.969769594177
5178 2798.891010186819
5179 2798.980352278532
5180 2798.869819667056
5181 2798.964374354839
5182 2798.895314371061
5183 2798.976749885028
5184 2798.897469959184
5185 2798.983244624559
5186 2798.889200040568
5187 2798.975354715098
5188 2798.885952810688
5189 2798.973932298733
5190 2798.89946178494
5191 2798.977554174453
5192 2798.877594680991
5193 2798.970028352116
5194 2798.890777334188
5195 2798.978179763199
5196 2798.88834025098
5197 2798.979632171247
5198 2798.888142840866
5199 2798.98079377662
5200 2798.884453563094
5201 2798.970994751489
5202 2798.89092449788
5203 2798.985335479192
5204 2798.889947153986
5205 2798.964062695734
5206 2798.886206835695
5207 2798.977373840626
5208 2798.906868967556
5209 2798.988160815972
5210 2798.886522617292
5211 2798.979549045728
5212 2798.899885593864
5213 2798.984557944929
5214 2798.897419880529
5215 2798.988469156092
5216 2798.894049845728
5217 2798.982830382188
5218 2798.896427294188
5219 2798.996817730549
5220 2798.909643659773
5221 2798.992325702729
5222 2798.902946225022
5223 2798.996984031974
5224 2798.910915298651
5225 2798.987605016423
5226 2798.911811355194
5227 2798.988892057795
5228 2798.890174285918
5229 2798.97987115053
5230 2798.896435552453
5231 2798.986223238609
5232 2798.910879313972
5233 2799.005590892239
5234 2798.90130917633
5235 2798.99667283974
5236 2798.908520572718
5237 2799.005180945821
5238 2798.928303737444
5239 2799.016668683609
5240 2798.911290554473
5241 2798.993906748325
5242 2798.919857037927
5243 2799.012524227379
5244 2798.928810591502
5245 2799.011328102515
5246 2798.922922497982
5247 2799.008188257442
5248 2798.916808898669
5249 2799.002831076505
5250 2798.920941877571
5251 2798.998436959979
5252 2798.89306587387
5253 2798.992644340007
5254 2798.915988331265
5255 2798.999420414986
5256 2798.922214572111
5257 2799.017035045866
5258 2798.921877301067
5259 2799.010949734694
5260 2798.926330899906
5261 2799.011106082195
5262 2798.936757119809
5263 2799.023626234523
5264 2798.921644247356
5265 2799.007138951868
5266 2798.936125010436
5267 2799.012932908247
5268 2798.92718399031
5269 2799.008443510842
5270 2798.913165159481
5271 2798.997280863601
5272 2798.913468966437
5273 2799.006328833304
5274 2798.919490382858
5275 2799.003881517975
5276 2798.898682822969
5277 2798.987627195524
5278 2798.916198474514
5279 2799.009254884815
5280 2798.918871122798
5281 2799.023425889183
5282 2798.918843614678
5283 2799.010844513891
5284 2798.915761616453
5285 2799.002092817681
5286 2798.92124193548
5287 2799.016204834338
