"mz-rfile"
"Iteration" "mz"
("Iteration" "mz")
1 -982.9675361902081
2 -959.5687978041835
3 -834.7102743256793
4 -693.6084968855706
5 -538.5602076596745
6 -422.0015843389423
7 -275.6728800832938
8 -118.294733487266
9 87.5859853042673
10 275.1246189219879
11 429.6129093369028
12 526.775560100928
13 590.0788689220844
14 621.0857445654401
15 629.2897290808704
16 621.9351296030248
17 594.4798282388024
18 563.1399138272417
19 514.5431903904755
20 456.4146245056044
21 395.6656643610952
22 334.3443097142571
23 287.4634991734137
24 249.0041085115712
25 217.3728145362259
26 198.8481910961244
27 185.0667530625868
28 179.6669430831098
29 177.2620852433699
30 179.0391359405631
31 181.578499778628
32 188.3579644893476
33 196.7353677368921
34 206.9796599433905
35 218.3832309570701
36 228.2596069563971
37 236.7466899585898
38 244.9836189837604
39 251.1794860828015
40 256.1489868634914
41 258.9210967283863
42 261.6107995114273
43 262.9149640353294
44 264.4902471561378
45 265.3179593843988
46 265.9346564790269
47 265.8746144162087
48 265.5745223004693
49 264.8976182426395
50 264.0608798849474
51 263.0806881391877
52 262.0881661152671
53 260.8209473638227
54 259.9433352239924
55 258.9742753119705
56 258.1023662965814
57 257.1848816011802
58 256.6948222611796
59 256.1363729137321
60 255.7213997977723
61 255.2520359069647
62 254.9132241867108
63 254.501083939801
64 254.3642997857571
65 254.2546336146398
66 254.3073292727613
67 254.3832540840925
68 254.5900258689049
69 254.816100887719
70 255.1393059362241
71 255.4820146901715
72 255.9199872460559
73 256.3564756417334
74 256.8648338395241
75 257.3491469164386
76 257.8766818375424
77 258.3733632052418
78 258.8963129212343
79 259.3791444646949
80 259.8759974785145
81 260.3273724803998
82 260.7723840696459
83 261.161618250255
84 261.5461939669803
85 261.8732621839708
86 262.1832245739512
87 262.4452367164254
88 262.6876746296514
89 262.8892005437136
90 263.0857491709829
91 263.2310890702615
92 263.3757745006993
93 263.4805898212978
94 263.5988459606471
95 263.6847341107491
96 263.7817349439929
97 263.8514148097342
98 263.9405140220744
99 264.010371521216
100 264.1026366454503
101 264.1711417477918
102 264.2742528812234
103 264.3699891762938
104 264.4844943411364
105 264.5933258447927
106 264.7405527914573
107 264.8808336146229
108 265.0520006162304
109 265.2052063577593
110 265.3962117712285
111 265.5734692661096
112 265.7839363230083
113 265.9699510808048
114 266.190115613232
115 266.3885227617671
116 266.6168827326059
117 266.8277920744894
118 267.063076887408
119 267.2780343618994
120 267.5196664576191
121 267.7331451059506
122 267.9751685732207
123 268.1953954728901
124 268.4409861043613
125 268.6546184846037
126 268.8969304582544
127 269.1075680554765
128 269.342828816165
129 269.5563084441652
130 269.7886241935667
131 269.9969977748023
132 270.2294322381148
133 270.4335389133056
134 270.6731978079976
135 270.8819645365833
136 271.1154071646807
137 271.321019660911
138 271.5534202446676
139 271.7581006140217
140 271.9972719199098
141 272.2056952019831
142 272.4448257217436
143 272.6553704162143
144 272.896534462416
145 273.1095476068668
146 273.3549906539639
147 273.5718209702914
148 273.8290625680767
149 274.0606357089594
150 274.3236458156359
151 274.561394758346
152 274.8387091852355
153 275.0791796317752
154 275.3608822568397
155 275.6169852508947
156 275.9131301752678
157 276.1762848436318
158 276.4781595729116
159 276.74762159291
160 277.0568655572479
161 277.3287344134667
162 277.6420284219178
163 277.9233629577098
164 278.2414240205466
165 278.5214721204046
166 278.8425398548063
167 279.1207989283413
168 279.4456283388818
169 279.7314540270393
170 280.0563150056831
171 280.3427904710771
172 280.6697449014645
173 280.964088675114
174 281.2886950820963
175 281.5757921780494
176 281.8908338807227
177 282.1737742846147
178 282.4878366964538
179 282.7615209391818
180 283.0742652676355
181 283.3489236001382
182 283.6505568561635
183 283.9199187403659
184 284.2200566482926
185 284.4807817422667
186 284.7756236460448
187 285.0382528732877
188 285.3292005067976
189 285.5883494050483
190 285.8842596510759
191 286.1392194379196
192 286.4319198447949
193 286.6812517561206
194 286.9731219564105
195 287.2223646819278
196 287.5102267098347
197 287.7618204583347
198 288.0475128527679
199 288.3007119451913
200 288.5847995210033
201 288.8349069302752
202 289.1194162388158
203 289.3685511403007
204 289.6466343298219
205 289.8932661711252
206 290.1748914752125
207 290.4184991946977
208 290.6951173457394
209 290.9389545272206
210 291.2144189935305
211 291.4533312432262
212 291.7262164834015
213 291.9608837482522
214 292.2296709545036
215 292.4616874060288
216 292.723656651485
217 292.9481575873593
218 293.2046100351761
219 293.4222965592891
220 293.665787847041
221 293.8747276746356
222 294.1097354706234
223 294.3034888184766
224 294.5262726135473
225 294.70897750288
226 294.9151006521946
227 295.0803870853156
228 295.2715587294775
229 295.4226741134737
230 295.599627060704
231 295.7356011672508
232 295.8924715085407
233 296.0044921953536
234 296.1440178010786
235 296.2389537684037
236 296.3566188306682
237 296.4319414190973
238 296.5290301096941
239 296.5801630552264
240 296.6572147028777
241 296.691026009276
242 296.7523617952356
243 296.7653055699974
244 296.8073992522015
245 296.8023278560526
246 296.8263073020096
247 296.8025846374403
248 296.806748212644
249 296.7671073403025
250 296.7549346916431
251 296.7007977820258
252 296.6849565280288
253 296.6171504497038
254 296.5849419885191
255 296.5048484677736
256 296.4667616730865
257 296.3777954895277
258 296.3315809971221
259 296.2397483204444
260 296.1841457850617
261 296.0877009399126
262 296.0298824961428
263 295.9301972068034
264 295.8694195030988
265 295.7697116549535
266 295.7099894336584
267 295.6115621109014
268 295.5563324688508
269 295.461576554071
270 295.4072219634292
271 295.3174759159056
272 295.2689835668257
273 295.1833952542808
274 295.1453544732605
275 295.0699852878276
276 295.0368913051499
277 294.9666777613814
278 294.9418205644097
279 294.877187751807
280 294.8589251419768
281 294.8012301227537
282 294.7927067171224
283 294.7459746271128
284 294.7417632456173
285 294.7037821388594
286 294.7105690630688
287 294.678306216207
288 294.6923406506045
289 294.667256604906
290 294.686286299523
291 294.6692308009967
292 294.6899485351071
293 294.6731963170967
294 294.6964075605926
295 294.6821887896741
296 294.7102152249268
297 294.6975435117675
298 294.72847267157
299 294.7158068316861
300 294.7490488422184
301 294.741024066152
302 294.7766005396206
303 294.7742358269056
304 294.810910611913
305 294.8057138414965
306 294.8419196018394
307 294.833136302384
308 294.8678765255755
309 294.863864814759
310 294.8976950961685
311 294.8934507896856
312 294.926542272676
313 294.9196187473612
314 294.9514522726282
315 294.9408897417153
316 294.9693716087766
317 294.958438521452
318 294.9895732744388
319 294.979200817712
320 295.0076944024291
321 294.9953760822958
322 295.0261340476581
323 295.0101334343638
324 295.0319938128343
325 295.0180835689537
326 295.0403745473005
327 295.0212881125099
328 295.0424724425839
329 295.0224065256724
330 295.0439191232864
331 295.0214410839361
332 295.0413004111226
333 295.0176452016082
334 295.0342297184452
335 295.0092544406806
336 295.0260221294495
337 295.002532755523
338 295.0146174105668
339 294.9889862347005
340 294.9990935378464
341 294.9695602038587
342 294.9801045784695
343 294.952293498118
344 294.9645677466084
345 294.9341743738312
346 294.9435937319556
347 294.9103810772431
348 294.9182326586897
349 294.8810211683092
350 294.8917904099475
351 294.8529433774839
352 294.8589217055098
353 294.8210808375983
354 294.8201936384374
355 294.7794618851062
356 294.7799563051465
357 294.736942630021
358 294.7397322705128
359 294.6947293532369
360 294.6941028054783
361 294.6471433205791
362 294.6450976124925
363 294.605205753862
364 294.604822625402
365 294.5587766480253
366 294.5604413388301
367 294.5197734554266
368 294.5186727656989
369 294.471831729316
370 294.4687670352139
371 294.4241785948486
372 294.4191725277129
373 294.3729987310239
374 294.3670290873278
375 294.321831077373
376 294.3199482703091
377 294.2737111628292
378 294.272498340781
379 294.2260777573334
380 294.219572750305
381 294.1743964511503
382 294.1685753600826
383 294.1237353914945
384 294.1183792443167
385 294.0748443151539
386 294.0722859058155
387 294.031129657464
388 294.0274532802159
389 293.9812472062105
390 293.9807820141405
391 293.9369236467445
392 293.9382336232079
393 293.8946678373591
394 293.8922304625661
395 293.8515289055411
396 293.8506312766997
397 293.8099044594332
398 293.808545083697
399 293.7688194623606
400 293.7689805201186
401 293.7314698536387
402 293.7324494488416
403 293.6911606444389
404 293.6916036188964
405 293.6477849317475
406 293.6508469040153
407 293.6104721143677
408 293.6105751103312
409 293.5661454500932
410 293.5653333271757
411 293.5256324799409
412 293.5264798133386
413 293.4875418324385
414 293.4879057654009
415 293.4494847448203
416 293.4463330734241
417 293.4087552709686
418 293.4117177853384
419 293.3745651020379
420 293.3743786364404
421 293.3363224133557
422 293.3366056558915
423 293.2982884544112
424 293.3007463695884
425 293.2627514404625
426 293.2624564337287
427 293.2237978303025
428 293.2249023601546
429 293.1848180982103
430 293.1816675771715
431 293.1432528215336
432 293.1429533113269
433 293.1058968474138
434 293.104987221647
435 293.0657501920863
436 293.0657040309483
437 293.0262877639381
438 293.0277152393645
439 292.9894731172188
440 292.9901166618861
441 292.9526682008018
442 292.9527375191711
443 292.9158831487416
444 292.9187863037093
445 292.8832687270178
446 292.8865821586139
447 292.8510912369995
448 292.859755302389
449 292.8235493805491
450 292.8287859158254
451 292.7920921348074
452 292.7984938443337
453 292.762371657849
454 292.7689764270895
455 292.7304778396055
456 292.736942652211
457 292.7017309667241
458 292.7056525340249
459 292.6709675045906
460 292.6753800616103
461 292.6384846467035
462 292.6416857222246
463 292.6036881142316
464 292.6079123673965
465 292.5691035523932
466 292.5717948541625
467 292.5355719718283
468 292.5416117322623
469 292.5082929216499
470 292.5133842084007
471 292.4773004779078
472 292.4822639588912
473 292.4439499877739
474 292.4453108792055
475 292.4076363442276
476 292.4148562957987
477 292.3784262638448
478 292.3805670314083
479 292.3490584632095
480 292.3540553361573
481 292.3242516792145
482 292.331783749341
483 292.3029120960945
484 292.3106714134954
485 292.2825111230227
486 292.2907743204209
487 292.2627399016592
488 292.271642903889
489 292.2393914729966
490 292.2458468078995
491 292.2169677286197
492 292.226134297453
493 292.1962594606761
494 292.2043495976371
495 292.1746540835893
496 292.1821503668934
497 292.1525560435782
498 292.1569755000224
499 292.128964375297
500 292.1342354050009
501 292.1024430314539
502 292.1087525005813
503 292.077541549189
504 292.088268226311
505 292.0565396554205
506 292.0648957582027
507 292.0363809952129
508 292.045355359321
509 292.0109311309544
510 292.0215692109736
511 291.9895098146987
512 291.9956315513116
513 291.9662409796144
514 291.9765895232504
515 291.9480296633507
516 291.95968294415
517 291.9337105774958
518 291.943643491426
519 291.911237418656
520 291.9233066053791
521 291.894549528929
522 291.9053920816227
523 291.8760444975358
524 291.8868930725386
525 291.8570217913705
526 291.8720728798573
527 291.8460239273776
528 291.854938620954
529 291.8285262535334
530 291.8416276527988
531 291.8145733585399
532 291.8282030858209
533 291.8051169509939
534 291.8198927564633
535 291.7912316860231
536 291.8062159326184
537 291.7804200212464
538 291.7936760909277
539 291.7680965324247
540 291.7793937270906
541 291.7506442261283
542 291.7635647357312
543 291.7339210328456
544 291.7438926235712
545 291.7155404217711
546 291.7273309993004
547 291.6995840311253
548 291.7145886261368
549 291.6870560868263
550 291.7011785926202
551 291.6764033677626
552 291.6889045191713
553 291.6630789962187
554 291.6744103728644
555 291.6472029320174
556 291.6585088446835
557 291.6283505989052
558 291.6405219751035
559 291.6124632447501
560 291.6254913018452
561 291.5994321568522
562 291.6142232964862
563 291.5887609916866
564 291.6086650612844
565 291.5839310054544
566 291.5998730073583
567 291.5753526535605
568 291.5878526305173
569 291.561698980464
570 291.5744931180808
571 291.5470479616511
572 291.560965089583
573 291.5356954003431
574 291.5498856464098
575 291.5259663343111
576 291.5401119782234
577 291.5169571470683
578 291.5296152589256
579 291.5036107973522
580 291.5194264127117
581 291.4965691613684
582 291.5142414199123
583 291.49231690138
584 291.5088689091367
585 291.4877160389346
586 291.5020517966552
587 291.4790586962702
588 291.4937714124759
589 291.4720652210322
590 291.4865770981257
591 291.4589325475786
592 291.4722011431987
593 291.4484793305278
594 291.4654517799788
595 291.4433020346654
596 291.4579699806876
597 291.4358253414282
598 291.4538937205294
599 291.4295222839996
600 291.4426941379339
601 291.420934122452
602 291.4352168952744
603 291.4119160921076
604 291.4250456430609
605 291.40179182843
606 291.4181983645552
607 291.3988226122277
608 291.4140008586575
609 291.3914219011317
610 291.4065355780465
611 291.3868153178358
612 291.4048580494872
613 291.3847679494787
614 291.403859325234
615 291.3866650031505
616 291.405580050797
617 291.3845362646019
618 291.4011794804635
619 291.3779106476542
620 291.395116417232
621 291.3747446158012
622 291.3929762101736
623 291.3715051365443
624 291.3854145648519
625 291.3660733839427
626 291.3851232147184
627 291.363323821519
628 291.3803040327326
629 291.3577389146433
630 291.3736373952229
631 291.3473168470828
632 291.3634798593229
633 291.3340824907477
634 291.3504325372122
635 291.3249097156569
636 291.340004652421
637 291.3162300000341
638 291.3337972584216
639 291.3102989264078
640 291.3244861500797
641 291.3032993125364
642 291.3205131106855
643 291.2994512121355
644 291.3176514016054
645 291.2968080220596
646 291.3147478382156
647 291.2921366224081
648 291.3150507415347
649 291.2946648027222
650 291.3155765946835
651 291.2921900244359
652 291.3116773748929
653 291.2934010108221
654 291.3148172185109
655 291.2930939289314
656 291.3097868663723
657 291.2879511405935
658 291.3062166144023
659 291.2839742618843
660 291.3017861673611
661 291.2823650982178
662 291.299309298899
663 291.2804225032328
664 291.2970402044122
665 291.2761007320706
666 291.2950060704237
667 291.2749351663034
668 291.2948167731885
669 291.2765288758838
670 291.2935836702139
671 291.2744277900794
672 291.294564144788
673 291.2759734153601
674 291.2945474631989
675 291.272284607469
676 291.2858883972962
677 291.2696801652992
678 291.2824195623492
679 291.2647622346454
680 291.2828130897459
681 291.2606546047364
682 291.2780787240509
683 291.260040427132
684 291.2746739495873
685 291.2525703525707
686 291.2663062652147
687 291.2464945653645
688 291.2626328876347
689 291.2418064604158
690 291.2576693263313
691 291.2367197222086
692 291.2565201979305
693 291.236333790745
694 291.2547802533957
695 291.2333543782592
696 291.2563449735658
697 291.2401685025232
698 291.259761376294
699 291.2404412502697
700 291.2599527304832
701 291.239164061859
702 291.2556218190081
703 291.2354704139763
704 291.2569601392549
705 291.2357261639451
706 291.2553456213313
707 291.2320779703346
708 291.2528737383035
709 291.2281326652687
710 291.249813148625
711 291.2302222724758
712 291.2490054076443
713 291.2272758365588
714 291.2428891243842
715 291.2200324032979
716 291.2383280182298
717 291.2123601816006
718 291.2335191362988
719 291.2081660318473
720 291.2278109746587
721 291.2047829170301
722 291.2298032942601
723 291.2049830467966
724 291.2242289859394
725 291.2029217737536
726 291.2260230008691
727 291.2030528486977
728 291.224870139898
729 291.2042217115637
730 291.2234528745113
731 291.2031310128698
732 291.2198217648885
733 291.199118985753
734 291.2200476847549
735 291.2015028224525
736 291.2193935868137
737 291.2008335571047
738 291.2195455347904
739 291.1984939904525
740 291.2152735819401
741 291.1951169032144
742 291.2139314121629
743 291.1897519932033
744 291.2104279803328
745 291.1897787263441
746 291.2092576251065
747 291.192032964674
748 291.2160610235002
749 291.1962610357643
750 291.2148179138504
751 291.1966782263344
752 291.2189590902879
753 291.2014886586048
754 291.221543233319
755 291.205023541202
756 291.2224964876524
757 291.1998557168007
758 291.2161787327192
759 291.1930662031849
760 291.2111356721974
761 291.1893906360664
762 291.2033927679107
763 291.1806831929765
764 291.1980237241392
765 291.1753557345822
766 291.1913309646441
767 291.1693951920604
768 291.1902467026304
769 291.168656255521
770 291.1885125934274
771 291.1666678801392
772 291.1832338028192
773 291.1589500889276
774 291.1722178451881
775 291.1553402293619
776 291.1787140217091
777 291.1613577290811
778 291.1856188854799
779 291.1678669906403
780 291.1879536881754
781 291.1689863374172
782 291.1877865227575
783 291.1683246161591
784 291.1896052310582
785 291.1681289720054
786 291.1892357855823
787 291.1627498542425
788 291.1827877499011
789 291.1588569088395
790 291.1787104490873
791 291.1587985956976
792 291.1785608209496
793 291.1568126912986
794 291.1783197025252
795 291.1552936333625
796 291.176365050346
797 291.155764586914
798 291.1756468788212
799 291.1537607919016
800 291.1765405153545
801 291.1559747921631
802 291.1754798426782
803 291.1608032238827
804 291.1802956478242
805 291.1629865030439
806 291.1848231959452
807 291.1650752381588
808 291.1877233812064
809 291.1677719564196
810 291.1897707478442
811 291.1677441264036
812 291.1885843393001
813 291.1646148565734
814 291.1834411956378
815 291.1593134898751
816 291.1795308763466
817 291.1554747149069
818 291.1717462837915
819 291.1454028792274
820 291.1619021141249
821 291.1371287116168
822 291.1559386247685
823 291.1332415597237
824 291.1543688136731
825 291.1353842110595
826 291.1576436061344
827 291.1383375985932
828 291.1557978580032
829 291.1378828366783
830 291.1603631876425
831 291.143402611303
832 291.1621320829222
833 291.1436284423753
834 291.1631797754417
835 291.1431982317177
836 291.1625453672301
837 291.1455616043135
838 291.165405438153
839 291.1468430848152
840 291.1635915014291
841 291.1438375872621
842 291.1639330841065
843 291.1432990542543
844 291.1624861448547
845 291.1448859907164
846 291.1609617926204
847 291.1417681348416
848 291.1630791286536
849 291.142215830651
850 291.1563243568418
851 291.1354745909113
852 291.1543136721671
853 291.1344217258263
854 291.1554930608057
855 291.1338354012702
856 291.1567599585339
857 291.1400818750748
858 291.1569914959964
859 291.1399796058896
860 291.1612953700097
861 291.1441121903883
862 291.1653783793192
863 291.1484183118083
864 291.1687573487043
865 291.1437937449458
866 291.1614391314362
867 291.1384680152029
868 291.1596610923471
869 291.1332463485027
870 291.1480428958653
871 291.124033649259
872 291.1418118007389
873 291.1190608410476
874 291.1329111970269
875 291.1115423626334
876 291.1272324397211
877 291.1056759682673
878 291.1248673762266
879 291.1060868896843
880 291.1258624558141
881 291.1059390601238
882 291.1281034973444
883 291.1059466494747
884 291.127396139743
885 291.1046975646746
886 291.1267295661049
887 291.1104083989444
888 291.1328597070523
889 291.1165553334993
890 291.1390548421453
891 291.1206327442097
892 291.1452816055594
893 291.1240041387637
894 291.1479650236115
895 291.1270160077518
896 291.1466283450064
897 291.1259487930142
898 291.1429432685114
899 291.1188733052107
900 291.1376071170199
901 291.1150127070627
902 291.13577613104
903 291.1156762386599
904 291.1349124439899
905 291.1153442898957
906 291.1354837041363
907 291.1122030598656
908 291.1309142052252
909 291.1081094651066
910 291.1315196142239
911 291.1120553986234
912 291.1312751353773
913 291.108572264429
914 291.1290582552039
915 291.1070257107801
916 291.1262462212979
917 291.1081962202983
918 291.1294528148488
919 291.1095620918098
920 291.1315155978448
921 291.107652770939
922 291.1297721008679
923 291.111939627502
924 291.1300234568263
925 291.1099239186685
926 291.1266238532589
927 291.1089555530687
928 291.123774653809
929 291.1037808188776
930 291.1225692285407
931 291.1039859771861
932 291.1264692458761
933 291.1048874937631
934 291.1255641010868
935 291.1055305366716
936 291.1269969657668
937 291.1095951141596
938 291.1305561159529
939 291.1115687986596
940 291.1296877745527
941 291.1112986603102
942 291.1307104384163
943 291.1114186213222
944 291.1267000825267
945 291.1049722423623
946 291.1214149330067
947 291.1001948097107
948 291.121329514782
949 291.0995147387602
950 291.121311431179
951 291.1007863708659
952 291.1178554900305
953 291.0992951554231
954 291.1175234830943
955 291.100148620153
956 291.1189225944476
957 291.0988792248375
958 291.1180672871014
959 291.0972338042222
960 291.1160772999865
961 291.0939605384418
962 291.1109255047792
963 291.0892922471559
964 291.107275237739
965 291.0865981436717
966 291.1057142123717
967 291.0868070854867
968 291.111331477114
969 291.0910091114818
970 291.1119273897521
971 291.093391449836
972 291.1153668711753
973 291.0940813917904
974 291.1167061821417
975 291.0980685908249
976 291.1200801472341
977 291.1024041221304
978 291.1231144662293
979 291.1037895672281
980 291.1217129786854
981 291.1034003010487
982 291.1225983603756
983 291.1014539644662
984 291.1232049998196
985 291.102821424067
986 291.1224544670892
987 291.1002719420639
988 291.120424355437
989 291.096407623697
990 291.1171088642634
991 291.0886455721724
992 291.1066865035206
993 291.0859177426125
994 291.1081088177853
995 291.0837243794821
996 291.1056902838689
997 291.0855567755913
998 291.1087633125208
999 291.0880636556614
1000 291.1063867819469
1001 291.0877151790719
1002 291.1083220261012
1003 291.0938765897042
1004 291.1156181441726
1005 291.0979462003901
1006 291.1214774729285
1007 291.1045168279388
1008 291.1220027291131
1009 291.1033124351562
1010 291.1211127310274
1011 291.0992613632934
1012 291.1121895820773
1013 291.0905506675899
1014 291.1124095953236
1015 291.091230655329
1016 291.1081500661105
1017 291.0854835201803
1018 291.1048673467669
1019 291.0826572928774
1020 291.1018485884157
1021 291.0816678748984
1022 291.1011469916187
1023 291.0845011218643
1024 291.1046085414756
1025 291.0852518531144
1026 291.1072198085513
1027 291.0902602788277
1028 291.1101050713422
1029 291.0925987008384
1030 291.1100754688327
1031 291.0927458607737
1032 291.1109360181842
1033 291.0910661435639
1034 291.1117337003163
1035 291.0940902633608
1036 291.1156409023201
1037 291.0956632687407
1038 291.1142951822051
1039 291.095382335997
1040 291.1132303157611
1041 291.0944528205216
1042 291.1090387292568
1043 291.0884706890424
1044 291.1070867130117
1045 291.0868136313752
1046 291.1028712994589
1047 291.0827703194849
1048 291.1039226902511
1049 291.0838252806529
1050 291.1037093758205
1051 291.0844670415045
1052 291.1057172048204
1053 291.0854065332556
1054 291.1049232035986
1055 291.0844530115636
1056 291.1018650036153
1057 291.0786890615376
1058 291.0966648539427
1059 291.0780125877276
1060 291.0991120114779
1061 291.0814316194741
1062 291.0995637214674
1063 291.080629259938
1064 291.1037792198744
1065 291.085172144085
1066 291.105060811684
1067 291.091549778354
1068 291.1171468697675
1069 291.1008298646718
1070 291.1191933990571
1071 291.0988989409299
1072 291.1180093258708
1073 291.0974757617973
1074 291.1160458061298
1075 291.0949151859339
1076 291.109852104751
1077 291.0887147622499
1078 291.1089471167239
1079 291.0886169968484
1080 291.1073551246858
1081 291.0846987529222
1082 291.1050523215289
1083 291.0833220610029
1084 291.1043634932347
1085 291.0842476208627
1086 291.1024688659356
1087 291.0780599377225
1088 291.0954942233279
1089 291.0735960396894
1090 291.0884056107931
1091 291.0697917606976
1092 291.0880618928457
1093 291.0716123125143
1094 291.0904405261224
1095 291.0721506888618
1096 291.0938022123231
1097 291.0759535458456
1098 291.0986476345184
1099 291.0816233437944
1100 291.1042936712608
1101 291.0887722077915
1102 291.1095281381948
1103 291.0885857671224
1104 291.1074354845719
1105 291.0867969823939
1106 291.1075626781007
1107 291.0868802301711
1108 291.1050034049586
1109 291.0837149286172
1110 291.1048294459981
1111 291.0857721538621
1112 291.105768172207
1113 291.0851046660769
1114 291.1016498552867
1115 291.0835046303878
1116 291.1003434603592
1117 291.0791032792233
1118 291.0971382493692
1119 291.0782800426443
1120 291.0985808655939
1121 291.0808819014738
1122 291.1030896228116
1123 291.0836658515643
1124 291.102215215144
1125 291.0798165727431
1126 291.0954445275866
1127 291.075081035597
1128 291.0908796292898
1129 291.0720366758408
1130 291.0909431011577
1131 291.0734825188113
1132 291.0951418688921
1133 291.0762736173651
1134 291.1000497385091
1135 291.0805380548601
1136 291.0996473893557
1137 291.0800496041073
1138 291.1023359707312
1139 291.0837071436614
1140 291.1007956170169
1141 291.078941090616
1142 291.0989378610264
1143 291.0770431468928
1144 291.0957591342335
1145 291.0767238878896
1146 291.0978947824709
1147 291.0756795774195
1148 291.0940608709643
1149 291.0750635767876
1150 291.0967695323914
1151 291.0799441852818
1152 291.101038099743
1153 291.0830096484541
1154 291.1053955585136
1155 291.0851719147929
1156 291.1025330882999
1157 291.0835831179761
1158 291.1049888291303
1159 291.0837437876644
1160 291.1038633729101
1161 291.0831322072264
1162 291.1028139735691
1163 291.0836104360458
1164 291.1029417579355
1165 291.0830845886686
1166 291.1007158774245
1167 291.0792654712461
1168 291.1007873031695
1169 291.0801436620937
1170 291.0981659113817
1171 291.0788561141665
1172 291.0987244507741
1173 291.0784927149602
1174 291.0991655177577
1175 291.0798159570709
1176 291.0983237489246
1177 291.0820989015094
1178 291.0979001061813
1179 291.0749936605321
1180 291.0928819843901
1181 291.0725345384046
1182 291.0970713978771
1183 291.0777564982714
1184 291.0975849680511
1185 291.0759676997176
1186 291.0921737602815
1187 291.0749017175538
1188 291.0926148048135
1189 291.0751225723936
1190 291.0943286500387
1191 291.0748008715311
1192 291.0929322102504
1193 291.0742230664353
1194 291.0920161927097
1195 291.0711260844179
1196 291.0871472977649
1197 291.0671936931785
1198 291.0874840354546
1199 291.0702435675786
1200 291.089374120142
1201 291.0722679759695
1202 291.093986737436
1203 291.0755304196684
1204 291.0961712235364
1205 291.0774755224083
1206 291.0982888200291
1207 291.0804643354609
1208 291.1002969751401
1209 291.0810262798726
1210 291.1033633302015
1211 291.0833910342657
1212 291.1019220445068
1213 291.085083530463
1214 291.1065151488181
1215 291.0894442147083
1216 291.1100382037076
1217 291.0920187609742
1218 291.1124777332175
1219 291.0938149639219
1220 291.1109407183463
1221 291.086467413291
1222 291.1080727775755
1223 291.0851063606788
1224 291.1021829054794
1225 291.0801379069744
1226 291.0970840690945
1227 291.0779046812477
1228 291.0973103140663
1229 291.0750885075105
1230 291.0945635267283
1231 291.0743864868419
1232 291.0918033685287
1233 291.0724164142148
1234 291.0927684305965
1235 291.0715935437369
1236 291.0884099812761
1237 291.0666936649761
1238 291.0869066120326
1239 291.066837645396
1240 291.0881408701549
1241 291.0677627165215
1242 291.0900640630389
1243 291.0684217849249
1244 291.0858776524197
1245 291.0674069419132
1246 291.0894725772936
1247 291.0674847055394
1248 291.0904680502792
1249 291.0744323821668
1250 291.0971937615105
1251 291.0802857629511
1252 291.1043641758444
1253 291.0856230592077
1254 291.1035005810674
1255 291.0820355346817
1256 291.1057913389057
1257 291.0846525389934
1258 291.1041479660888
1259 291.0840300747612
1260 291.1036146925977
1261 291.0834804659605
1262 291.1039905341913
1263 291.082042526798
1264 291.1011334525703
1265 291.0818092908612
1266 291.1001102174484
1267 291.0806334227355
1268 291.0997936681687
1269 291.0763909378074
1270 291.0927261187043
1271 291.0730543912927
1272 291.0923038606289
1273 291.0748976885274
1274 291.0958193132616
1275 291.0759418664797
1276 291.0918691196155
1277 291.0736046925698
1278 291.0945766256638
1279 291.0729055303938
1280 291.0920561757217
1281 291.0731166472615
1282 291.0901673090355
1283 291.0744288074936
1284 291.092832528614
1285 291.0757034241546
1286 291.0972773524673
1287 291.0763381687575
1288 291.0936605186436
1289 291.0776439861683
1290 291.0979299084541
1291 291.0791741411957
1292 291.0999231216803
1293 291.0807919861888
1294 291.100209629863
1295 291.0762103874275
1296 291.0955207449044
1297 291.0772247034556
1298 291.0937201668622
1299 291.071469135037
1300 291.091344639069
1301 291.0716386615986
1302 291.0918379114627
1303 291.0712465247375
1304 291.0901806894482
1305 291.0723339077869
1306 291.0936781569478
1307 291.0750095250401
1308 291.0983545892836
1309 291.0793134122202
1310 291.0974454119529
1311 291.0797932057002
1312 291.1009548624883
1313 291.0835860045821
1314 291.1039625531935
1315 291.0836810335937
1316 291.1047320143432
1317 291.0803516289426
1318 291.1013869339907
1319 291.0765473689202
1320 291.0943998976417
1321 291.0727909086887
1322 291.0921102685224
1323 291.0708723322951
1324 291.0912495238043
1325 291.0723032034986
1326 291.0933230888791
1327 291.076204181141
1328 291.0961049722949
1329 291.078516792829
1330 291.1009543317759
1331 291.0804889498675
1332 291.0992351219404
1333 291.0769384778233
1334 291.0961073759312
1335 291.073097585059
1336 291.0935923231477
1337 291.0742394177651
1338 291.0944860534959
1339 291.0734417781843
1340 291.0990233533749
1341 291.0821479669431
1342 291.105708109943
1343 291.084811621989
1344 291.1080710891742
1345 291.0884844758567
1346 291.1054464590091
1347 291.0868374461488
1348 291.1091798208179
1349 291.0900872632415
1350 291.1103921263918
1351 291.0857389663432
1352 291.1014680100643
1353 291.0807821845196
1354 291.0955849008005
1355 291.0761493945374
1356 291.0935018385422
1357 291.0739242832933
1358 291.0929061304404
1359 291.0734893439645
1360 291.0919062699172
1361 291.0761841909921
1362 291.0947674239217
1363 291.074475934349
1364 291.0918216747194
1365 291.0718284606867
1366 291.08491356905
1367 291.0640962224071
1368 291.0864217925285
1369 291.0668206561419
1370 291.0866688412441
1371 291.070108792319
1372 291.0924756912511
1373 291.0741575146719
1374 291.091558780238
1375 291.0755428707956
1376 291.0973783652942
1377 291.0813465197591
1378 291.1026703343023
1379 291.0822690811653
1380 291.102226414439
1381 291.0835016042576
1382 291.1054317181793
1383 291.0815410323164
1384 291.0995762886282
1385 291.0808773725695
1386 291.0958153501294
1387 291.0772060814314
1388 291.0946064418088
1389 291.0749285569095
1390 291.0907074973695
1391 291.0707217366299
1392 291.089322762506
1393 291.0680779922298
1394 291.0879413878945
1395 291.0681424207145
1396 291.092900786492
1397 291.0734573759271
1398 291.0921365018464
1399 291.0763838546439
1400 291.0986198594998
1401 291.0794556483218
1402 291.1027180331952
1403 291.0851125288761
1404 291.109706376814
1405 291.091143887062
1406 291.1148169694038
1407 291.0915711514954
1408 291.116630895004
1409 291.0924023400357
1410 291.1112632341432
1411 291.0874053746999
1412 291.1046162308342
1413 291.0805511002987
1414 291.0976868718197
1415 291.0731071827041
1416 291.0917064249292
1417 291.0715743225573
1418 291.0905904854188
1419 291.0647399300533
1420 291.0835731601054
1421 291.0613733631295
1422 291.0826062611815
1423 291.0625139756413
1424 291.0843720686955
1425 291.0662606020353
1426 291.0904339158472
1427 291.0727007289138
1428 291.0930678170559
1429 291.0737705446022
1430 291.0948144974022
1431 291.0761542020566
1432 291.0965142653523
1433 291.0797139224276
1434 291.102383252015
1435 291.0819681758829
1436 291.103418046056
1437 291.0834673685865
1438 291.1037531480436
1439 291.0851677300729
1440 291.1020906166377
1441 291.0801992648597
1442 291.0991065786785
1443 291.0777160105088
1444 291.0932593980856
1445 291.0748758821803
1446 291.0939498568526
1447 291.0727401227438
1448 291.0914674865231
1449 291.0716408385465
1450 291.092314591969
1451 291.0745300731059
1452 291.0942426918252
1453 291.0765361275721
1454 291.0996196541496
1455 291.0747228622758
1456 291.0947847244896
1457 291.0762054839681
1458 291.0961732706089
1459 291.0751437859788
1460 291.089770252877
1461 291.0726813871908
1462 291.0893263055304
1463 291.0719733889437
1464 291.090707905735
1465 291.0739187930284
1466 291.0952299150615
1467 291.0783156762033
1468 291.0974962546344
1469 291.0799397715517
1470 291.0980499791496
1471 291.0798863921472
1472 291.1014340010852
1473 291.083704176074
1474 291.0995364925374
1475 291.0792612480634
1476 291.0970632106286
1477 291.0774562734489
1478 291.0989814421187
1479 291.0788350488933
1480 291.0961353590232
1481 291.0720415080267
1482 291.0912424504658
1483 291.0687578525117
1484 291.0877674500319
1485 291.0627897108077
1486 291.0881051951052
1487 291.0674439822449
1488 291.0920075231192
1489 291.0738023380546
1490 291.0953154080019
1491 291.0780209197862
1492 291.0996754196943
1493 291.0806335695938
1494 291.1051054491599
1495 291.0848529196636
1496 291.1090707221555
1497 291.0872368014904
1498 291.1070065952393
1499 291.0847073145669
1500 291.1018867649747
1501 291.0786719743336
1502 291.0954249219205
1503 291.0710864856762
1504 291.088461519224
1505 291.0671422122409
1506 291.0880901060884
1507 291.0646338274757
1508 291.0823774362491
1509 291.0610068147394
1510 291.0766748076882
1511 291.0565177304254
1512 291.0769033639543
1513 291.0574660772609
1514 291.0797302664074
1515 291.0609762053926
1516 291.0801008189755
1517 291.060754926828
1518 291.0823105055064
1519 291.0644978828637
1520 291.0858837153071
1521 291.069639834934
1522 291.0925057747888
1523 291.0798042495706
1524 291.1012867020464
1525 291.0861787363915
1526 291.1143333878397
1527 291.0972755622825
1528 291.1133644483097
1529 291.0950922727108
1530 291.1106377273387
1531 291.0936221954767
1532 291.1124627877244
1533 291.0889680717545
1534 291.104522778544
1535 291.0847823570625
1536 291.1021810140276
1537 291.0810474349985
1538 291.0972013099949
1539 291.0790904387349
1540 291.0989580934669
1541 291.0812422448043
1542 291.1022314230753
1543 291.0833848615269
1544 291.1011357203031
1545 291.0819199607637
1546 291.1017163921941
1547 291.081116526626
1548 291.0952151184563
1549 291.0752887293078
1550 291.0912445609633
1551 291.0707441649839
1552 291.0910668174503
1553 291.0720207829406
1554 291.0888675442593
1555 291.0675484030584
1556 291.0916233750573
1557 291.0701357288317
1558 291.0922625462429
1559 291.072698954487
1560 291.093006744137
1561 291.0783311123565
1562 291.0957732809451
1563 291.0773601534585
1564 291.0985093394032
1565 291.0798970118145
1566 291.1012285204965
1567 291.0828591732651
1568 291.1004074184514
1569 291.0837020245439
1570 291.1023547986911
1571 291.0825098983602
1572 291.1015871574999
1573 291.0782660428647
1574 291.0949496152124
1575 291.0732237960531
1576 291.0890849775595
1577 291.0666026587281
1578 291.0870439353137
1579 291.0656219375782
1580 291.0858298865726
1581 291.062395388913
1582 291.0842928829254
1583 291.0621112644833
1584 291.0844125994973
1585 291.0650295581061
1586 291.0838732586365
1587 291.0647057644532
1588 291.088546642759
1589 291.0690365118238
1590 291.0896140055869
1591 291.0662492806353
1592 291.0893548194853
1593 291.06719244344
1594 291.0917876038325
1595 291.0714297277858
1596 291.0942557043146
1597 291.0744712207393
1598 291.097321508322
1599 291.0772223086699
1600 291.0946491767502
1601 291.0746410311372
1602 291.0959427095007
1603 291.0775811597513
1604 291.0950378941139
1605 291.0751708640947
1606 291.0944660929486
1607 291.0720673972888
1608 291.0919772717248
1609 291.0712840980932
1610 291.0942724264271
1611 291.0807759455203
1612 291.0994957194661
1613 291.0819644311925
1614 291.0991365936758
1615 291.0805467598423
1616 291.0970494735948
1617 291.0785588974106
1618 291.0968846082607
1619 291.0800607884518
1620 291.0988242466362
1621 291.0813840455735
1622 291.0998234676459
1623 291.0823141595985
1624 291.1009888654166
1625 291.0815229347114
1626 291.1012927826338
1627 291.0835131346453
1628 291.1019576402741
1629 291.0804099938125
1630 291.1002849768135
1631 291.0783959148169
1632 291.0963274581399
1633 291.0727114457727
1634 291.0950129277413
1635 291.076399159674
1636 291.094410849494
1637 291.0696976418243
1638 291.090061230615
1639 291.0715131168711
1640 291.0898496334067
1641 291.0720954057172
1642 291.0945248466882
1643 291.0749531243978
1644 291.0900259906052
1645 291.0703646678888
1646 291.0933819138109
1647 291.0764552343786
1648 291.0932979224003
1649 291.0749481212088
1650 291.0987094304066
1651 291.0807281479499
1652 291.100522483247
1653 291.0798620829004
1654 291.1004504390993
1655 291.0787854284677
1656 291.0963389423521
1657 291.076671990142
1658 291.0956685262231
1659 291.0758614120247
1660 291.0955008278479
1661 291.0725919555687
1662 291.091154223526
1663 291.0701525516382
1664 291.0869114999959
1665 291.0655082699116
1666 291.0852245446342
1667 291.0664927881979
1668 291.091034421982
1669 291.0690492731077
1670 291.0888332815686
1671 291.0714676549669
1672 291.0898194800605
1673 291.0749009905717
1674 291.0925224232811
1675 291.075532054253
1676 291.0980023973963
1677 291.073609041417
1678 291.0961500370728
1679 291.0729894384502
1680 291.0967375615713
1681 291.0759395465307
1682 291.0969268280829
1683 291.0782149454809
1684 291.0986591407533
1685 291.0780784070158
1686 291.0937267212627
1687 291.0725572245735
1688 291.0916234892654
1689 291.0679701536681
1690 291.0885982163915
1691 291.067777952469
1692 291.0883530117885
1693 291.0676459456654
1694 291.0884135991462
1695 291.0688696653202
1696 291.0896272186166
1697 291.0697556029638
1698 291.0897180077577
1699 291.072420671204
1700 291.0956005943554
1701 291.0773218735597
1702 291.0959498211729
1703 291.0772510039345
1704 291.0993102480732
1705 291.0819638506572
1706 291.1022573137705
1707 291.0817383169802
1708 291.1025645475019
1709 291.0858419716949
1710 291.1043363291099
1711 291.0831231034468
1712 291.1021406534388
1713 291.0834263244784
1714 291.1019147544653
1715 291.0848272133885
1716 291.1044692203746
1717 291.0864724790023
1718 291.1033563746309
1719 291.0818100577958
1720 291.0986918935012
1721 291.0803953374622
1722 291.09743933919
1723 291.0752204908181
1724 291.0910642118005
1725 291.0683007693713
1726 291.088246530806
1727 291.0644328552931
1728 291.0849667479737
1729 291.0633433608035
1730 291.0835355328477
1731 291.0652962858669
1732 291.0874644542669
1733 291.0687017694769
1734 291.0910569380112
1735 291.0713535522959
1736 291.0941392626515
1737 291.0752263471688
1738 291.0945984050521
1739 291.0707642384116
1740 291.0941914549085
1741 291.0720700133745
1742 291.0911875781326
1743 291.0724102667166
1744 291.094045998182
1745 291.0737928198025
1746 291.0975728266739
1747 291.0794707104461
1748 291.0994189473386
1749 291.0806154019508
1750 291.1034333750285
1751 291.0837866822894
1752 291.0996123584576
1753 291.0806622992589
1754 291.0990126201781
1755 291.0792319659538
1756 291.100524352354
1757 291.0801128592266
1758 291.0975809759854
1759 291.0755512810817
1760 291.0945118152234
1761 291.0727815944172
1762 291.0932680491271
1763 291.0728831440359
1764 291.0901523181305
1765 291.0703120626042
1766 291.0924782873069
1767 291.0725448855241
1768 291.0928006925748
1769 291.0735444612449
1770 291.0974981127463
1771 291.0784448434408
1772 291.0964619333417
1773 291.0754525306183
1774 291.0941695576038
1775 291.0732447547379
1776 291.0962002233643
1777 291.0775279792963
1778 291.0994338064513
1779 291.0795507179423
1780 291.1028926179695
1781 291.0822054666286
1782 291.1024212074935
1783 291.0829211343453
1784 291.1032586700221
1785 291.0850977367149
1786 291.1042125859019
1787 291.0823986228151
1788 291.1013519391398
1789 291.0819768026303
1790 291.0998705571668
1791 291.0770346558512
1792 291.0940324264953
1793 291.0728638548806
1794 291.0902619624976
1795 291.0682543360484
1796 291.0859946229617
1797 291.0645175190057
1798 291.0819130196876
1799 291.0611573741597
1800 291.0789180851363
1801 291.0601639423982
1802 291.0771151189302
1803 291.0572239942954
1804 291.0791788608867
1805 291.0630544961474
1806 291.0826459903959
1807 291.0657587675612
1808 291.0871666989956
1809 291.0723406962479
1810 291.0946562104517
1811 291.0784552600322
1812 291.1000177669304
1813 291.0828669271161
1814 291.1018582588231
1815 291.0860207905491
1816 291.1021351996977
1817 291.0831965912946
1818 291.1006491661392
1819 291.0819244528888
1820 291.101276414847
1821 291.0776330005352
1822 291.09598946754
1823 291.0724708716688
1824 291.08976030319
1825 291.0693799144175
1826 291.0868250331907
1827 291.0666594337641
1828 291.083967488213
1829 291.0619450734656
1830 291.0791217664079
1831 291.0600554044256
1832 291.0799337674111
1833 291.0611393413596
1834 291.0809338431707
1835 291.0622500953945
1836 291.079882365355
1837 291.0650044081989
1838 291.0888314337381
1839 291.0699269060624
1840 291.0925109802898
1841 291.0785429732794
1842 291.0999746811722
1843 291.0832572704839
1844 291.1078703052421
1845 291.0897060455959
1846 291.109053009065
1847 291.0849214976479
1848 291.1030340260337
1849 291.0837770285633
1850 291.1033727224603
1851 291.0870905135441
1852 291.1073789150136
1853 291.0881162400377
1854 291.106788523931
1855 291.0890529199675
1856 291.110923565018
1857 291.0895944584764
1858 291.1091949020517
1859 291.0909966011067
1860 291.1075278374104
1861 291.0839191445623
1862 291.0990689275474
1863 291.0774121742365
1864 291.095361807726
1865 291.071418475869
1866 291.090175485202
1867 291.069045778572
1868 291.0881261309718
1869 291.068155880064
1870 291.0853944227443
1871 291.0646859959978
1872 291.087595744417
1873 291.0692735439218
1874 291.0862572875989
1875 291.0649617556398
1876 291.085171692442
1877 291.0667301161129
1878 291.0828330308197
1879 291.063130126652
1880 291.0827022516254
1881 291.0625188554886
1882 291.0810813094029
1883 291.0602727353827
1884 291.0839141643517
1885 291.0646087804457
1886 291.083536593442
1887 291.0646586421117
1888 291.0863531954695
1889 291.065904752679
1890 291.0868810898854
1891 291.0730504964795
1892 291.0994853478229
1893 291.0836297978145
1894 291.1069787724396
1895 291.0884692944644
1896 291.1089311395025
1897 291.089451565747
1898 291.1089844818374
1899 291.0878937191391
1900 291.1039098007271
1901 291.0802987696544
1902 291.0997861530057
1903 291.0782622958524
1904 291.0946626944656
1905 291.0766552067615
1906 291.096759229993
1907 291.0745684369716
1908 291.093696397699
1909 291.077627996022
1910 291.0962717979625
1911 291.0769449069609
1912 291.0948847740002
1913 291.0753451454334
1914 291.0959517316235
1915 291.0798800065735
1916 291.1002595693936
1917 291.0786062095899
1918 291.0983944806837
1919 291.0810561012941
1920 291.1039974655654
1921 291.0841639156018
1922 291.1056782793568
1923 291.0838185623257
1924 291.1044063867887
1925 291.0840033042416
1926 291.104138401453
1927 291.0830297443652
1928 291.0986573340474
1929 291.0748863104276
1930 291.0934577033696
1931 291.0713367718386
1932 291.0927891806727
1933 291.0709381078273
1934 291.087591648231
1935 291.0678765000909
1936 291.0896169967722
1937 291.0702538819692
1938 291.0950178885592
1939 291.0733684129006
1940 291.0943653403715
1941 291.0740173272519
1942 291.096015406841
1943 291.0758744473895
1944 291.0955133620989
1945 291.0757342699088
1946 291.0923437996009
1947 291.0732641117535
1948 291.0928252178446
1949 291.0734185518444
1950 291.0940638292169
1951 291.0742131093818
1952 291.0942296532158
1953 291.0756110133217
1954 291.0944101964758
1955 291.0764657226977
1956 291.0958745121385
1957 291.0738660508258
1958 291.0929045471216
1959 291.0753554779907
1960 291.0923595935186
1961 291.0756790005333
1962 291.0947384839906
1963 291.0754928595942
1964 291.0923403441794
1965 291.0710981221889
1966 291.0940585895816
1967 291.0713873078179
1968 291.0911242162177
1969 291.0718843135079
1970 291.0894238178919
1971 291.0700059889694
1972 291.0925189277312
1973 291.0726744785773
1974 291.094755500121
1975 291.0767425997902
1976 291.0954841429003
1977 291.0759484510027
1978 291.0958165166481
1979 291.0761994660409
1980 291.1004452277233
1981 291.0816870631704
1982 291.1007174631673
1983 291.0779479014473
1984 291.1011473561134
1985 291.0813880581457
1986 291.0989573739027
1987 291.0804922658105
1988 291.0973463982141
1989 291.078214385937
1990 291.0979249556202
1991 291.0766464552636
1992 291.0970642718788
1993 291.0781100967786
1994 291.0980291530775
1995 291.0782611110814
1996 291.0999314029581
1997 291.0782081699163
1998 291.092846124229
1999 291.0705990623244
2000 291.0894628478622
2001 291.0671742924169
2002 291.0841691056905
2003 291.0668696450468
2004 291.0895475763996
2005 291.0710627796799
2006 291.0912147287917
2007 291.0733170321085
2008 291.0976357288267
2009 291.0749985452667
2010 291.0943527195803
2011 291.0738121944806
2012 291.0925375633572
2013 291.070897421958
2014 291.0902217943341
2015 291.0723388348399
2016 291.0952115675519
2017 291.0768034979057
2018 291.0988369594094
2019 291.0811473730829
2020 291.1029659204406
2021 291.0786357140018
2022 291.1017390326568
2023 291.0742895674985
2024 291.0950213049031
2025 291.0721134590593
2026 291.0910286207355
2027 291.0720243032486
2028 291.0911480691545
2029 291.0690419205209
2030 291.0877235925428
2031 291.0662547216629
2032 291.0873564213769
2033 291.0700421947631
2034 291.0921849897751
2035 291.0735818030915
2036 291.0949849186117
2037 291.0765765390501
2038 291.0993116816103
2039 291.0794236043873
2040 291.1012934930877
2041 291.0817469534678
2042 291.1037857874276
2043 291.084112723591
2044 291.102896149712
2045 291.0807692633031
2046 291.0964098564534
2047 291.0760104690252
2048 291.0930562580762
2049 291.0713222732809
2050 291.0894268119694
2051 291.0703333924525
2052 291.0881837320182
2053 291.0682215924422
2054 291.0873130798395
2055 291.0649501653737
2056 291.0853044852457
2057 291.0736686721428
2058 291.0915589214665
2059 291.071535102233
2060 291.0907286376392
2061 291.0729383119018
2062 291.0928555881601
2063 291.0755469760788
2064 291.0962604505474
2065 291.0793202718697
2066 291.1036656132091
2067 291.086654978677
2068 291.1098360642256
2069 291.0866153145363
2070 291.1052707076373
2071 291.0832139612224
2072 291.102542891504
2073 291.0806873338439
2074 291.0942588530191
2075 291.0734050189999
2076 291.0937811973386
2077 291.0730301054988
2078 291.0847527939497
2079 291.0590195517765
2080 291.082718072692
2081 291.0602669391689
2082 291.0812715011943
2083 291.0623477184348
2084 291.0866618921808
2085 291.0682901387412
2086 291.0922724680956
2087 291.0717349493155
2088 291.0951442960195
2089 291.0758914994144
2090 291.1015731981487
2091 291.0818718985493
2092 291.1028737394617
2093 291.0816239084325
2094 291.1014343167008
2095 291.0792918290426
2096 291.0987480245091
2097 291.0755999758284
2098 291.0946878448609
2099 291.0736629555057
2100 291.0933353775121
2101 291.0719872678129
2102 291.0917935524303
2103 291.0678941054255
2104 291.0887198429606
2105 291.0700445337422
2106 291.0915498899643
2107 291.0712830372635
2108 291.0933865620999
2109 291.0708789982403
2110 291.0924981995892
2111 291.0727480797986
2112 291.096026517529
2113 291.0772582536854
2114 291.1010298099071
2115 291.081688426724
2116 291.1059929375677
2117 291.0860325402918
2118 291.1090853403181
2119 291.0900933183304
2120 291.1096582874363
2121 291.0897959058635
2122 291.1104661417348
2123 291.0927853978467
2124 291.1133115074232
2125 291.086547329477
2126 291.1055652432657
2127 291.0821389466104
2128 291.1031397550471
2129 291.0782674441572
2130 291.0957813651648
2131 291.0706676207459
2132 291.09121777249
2133 291.0727273009697
2134 291.0913103048695
2135 291.0722592532245
2136 291.088621995735
2137 291.070646756226
2138 291.0927316228519
2139 291.0761297506486
2140 291.0940792130913
2141 291.0734095866426
2142 291.0912497504581
2143 291.0696347212352
2144 291.0860181783633
2145 291.0666991448695
2146 291.084725783018
2147 291.0637131361939
2148 291.0808377855202
2149 291.0631144903372
2150 291.078065915875
2151 291.0630200784317
2152 291.082747384854
2153 291.0672513639732
2154 291.0881891232949
2155 291.0723180539341
2156 291.0955806308777
2157 291.0773689554634
2158 291.0952550352334
2159 291.0773100659909
2160 291.0987357418998
2161 291.0815718790452
2162 291.0992496451408
2163 291.0800468520002
2164 291.1026079808176
2165 291.0839719958508
2166 291.1028988866434
2167 291.0865765349243
2168 291.1077576023966
2169 291.0867820777655
2170 291.1096092602943
2171 291.0873930262049
2172 291.1068024684206
2173 291.0835621812629
2174 291.0986711684044
2175 291.0784036671191
2176 291.0976278359317
2177 291.0756269817826
2178 291.0907641118824
2179 291.0709821844273
2180 291.0912213887874
2181 291.0716598835382
2182 291.0905389937227
2183 291.0657896493437
2184 291.0857571103165
2185 291.0643355399514
2186 291.0822169646083
2187 291.0616751027109
2188 291.0810065655777
2189 291.0576556963407
2190 291.0768497301931
2191 291.0598121911398
2192 291.0798948132445
2193 291.0599858007377
2194 291.0804535493623
2195 291.0632343174303
2196 291.0852060801136
2197 291.0628896039823
2198 291.0880993027985
2199 291.0650940697936
2200 291.083796209872
2201 291.0678272378743
2202 291.0890122239729
2203 291.0710541608007
2204 291.093004201206
2205 291.0763272569468
2206 291.097924857346
2207 291.0814342091821
2208 291.1003189920905
2209 291.079330707278
2210 291.0997906970654
2211 291.0790834320642
2212 291.0983591103963
2213 291.077954158219
2214 291.099060489413
2215 291.0809711230662
2216 291.101572446424
2217 291.0837928077708
2218 291.1062322989067
2219 291.0860727836609
2220 291.103344495031
2221 291.0815570142636
2222 291.0994566153422
2223 291.0772587246666
2224 291.0940949267786
2225 291.0736500127647
2226 291.0951280269472
2227 291.0721163913411
2228 291.0920801478542
2229 291.0709451868432
2230 291.091127918735
2231 291.0708921632116
2232 291.0898403822686
2233 291.0680501099028
2234 291.084729955361
2235 291.0673368889806
2236 291.0846820051165
2237 291.0677873983713
2238 291.0864163870177
2239 291.0659400427556
2240 291.0836188001996
2241 291.0687618325045
2242 291.086011441865
2243 291.0684170972079
2244 291.0878352793336
2245 291.069678114819
2246 291.0891273951032
2247 291.0726446280557
2248 291.0914704729078
2249 291.0768847942193
2250 291.0978448786776
2251 291.0804267033337
2252 291.1008640746377
2253 291.0829820884122
2254 291.1063017424318
2255 291.0854414952196
2256 291.1059646631714
2257 291.0836968407012
2258 291.1023135906639
2259 291.0844123657048
2260 291.1038664085232
2261 291.0856561465473
2262 291.1007163954374
2263 291.0817216267004
2264 291.0996581663541
2265 291.0769207893798
2266 291.0978119088124
2267 291.0717000515735
2268 291.0909721105219
2269 291.0653029961546
2270 291.0830806055708
2271 291.0576834931828
2272 291.0783804409164
2273 291.0528869626093
2274 291.0736820490242
2275 291.0528629375728
2276 291.0736637426982
2277 291.0510184237302
2278 291.0718909391113
2279 291.0534875812135
2280 291.0768612759505
2281 291.0576250585821
2282 291.0805722229857
2283 291.063915667523
2284 291.0844855038546
2285 291.0655897603276
2286 291.0866340488031
2287 291.0696923274495
2288 291.0920238771794
2289 291.0754620483785
2290 291.0967539116197
2291 291.0788815730618
2292 291.102225213943
2293 291.0825929501699
2294 291.1020062837331
2295 291.0827217729908
2296 291.1059341936834
2297 291.0887023850365
2298 291.1064190577321
2299 291.0869686766572
2300 291.1035292807887
2301 291.0820299294633
2302 291.1002608764674
2303 291.081712637857
2304 291.1002176971715
2305 291.0788565719074
2306 291.0960605970674
2307 291.0762367165482
2308 291.0934298136891
2309 291.0726605453869
2310 291.0899681678151
2311 291.0686016603663
2312 291.0861829210247
2313 291.0652924416036
2314 291.0824597595951
2315 291.0647281297584
2316 291.0823459513347
2317 291.0646752272257
2318 291.0839153005284
2319 291.06403904144
2320 291.0861467693159
2321 291.0674140926719
2322 291.0898275773208
2323 291.0725442330318
2324 291.0891417707172
2325 291.0668909809381
2326 291.0858155088007
2327 291.0651966212372
2328 291.08342082395
2329 291.0662091253158
2330 291.0835952465
2331 291.0647469560389
2332 291.0876818437442
2333 291.0655188507974
2334 291.0867216955651
2335 291.0672525484482
2336 291.0907427278743
2337 291.0728531308497
2338 291.0941142352575
2339 291.0740398961963
2340 291.0951046270178
2341 291.0774858395921
2342 291.0984038947344
2343 291.0808079656478
2344 291.1020800769411
2345 291.0858234864037
2346 291.1064072123022
2347 291.087948905896
2348 291.1058570052645
2349 291.0843527311349
2350 291.0996469219926
2351 291.0763565098673
2352 291.0960325315602
2353 291.0757066471385
2354 291.0947112310305
2355 291.0728479671315
2356 291.0938461167329
2357 291.0735581110812
2358 291.0914991704657
2359 291.0697467538378
2360 291.0912566208373
2361 291.072670988225
2362 291.0897087382554
2363 291.0674471941577
2364 291.0867090855724
2365 291.0645911324577
2366 291.0848078825085
2367 291.0658249009571
2368 291.0851685556082
2369 291.065175797688
2370 291.0845070968552
2371 291.0648029722605
2372 291.0845943685036
2373 291.0615570100825
2374 291.0809099071815
2375 291.0594159662699
2376 291.0823423653555
2377 291.0602703384816
2378 291.0819299920439
2379 291.063303432958
2380 291.0829792790777
2381 291.0642698921773
2382 291.0872016661757
2383 291.06936722698
2384 291.0895828302038
2385 291.0697954493152
2386 291.0901742478032
2387 291.071162970722
2388 291.0935380553795
2389 291.0690916477888
2390 291.0897054755935
2391 291.0675886798912
2392 291.0899938529654
2393 291.072695406935
2394 291.096324443493
2395 291.0778246882539
2396 291.1012207042488
2397 291.0790706524061
2398 291.0995002575725
2399 291.0788884424156
2400 291.0984566694913
2401 291.079825274268
2402 291.0975921388404
2403 291.0769640297854
2404 291.095417625622
2405 291.0744358579411
2406 291.0920596432856
2407 291.0674019257154
2408 291.0898954673828
2409 291.0684074633952
2410 291.0859044601455
2411 291.067314366217
2412 291.0858298461426
2413 291.0678475090265
2414 291.0879862529204
2415 291.0701031253978
2416 291.0931636405526
2417 291.0778995796163
2418 291.0966258091837
2419 291.0774193093273
2420 291.0926662764926
2421 291.0751445960047
2422 291.0924623592475
2423 291.0718151793404
2424 291.0935964103205
2425 291.0734251425216
2426 291.0950504543063
2427 291.0759894855534
2428 291.0974407687986
2429 291.0758990319675
2430 291.0924672352864
2431 291.0702160010699
2432 291.0884153044559
2433 291.0688520114174
2434 291.086658450823
2435 291.0656970258236
2436 291.0843942516386
2437 291.0645012356358
2438 291.0860459787447
2439 291.0679424262614
2440 291.0857053600021
2441 291.0693193630423
2442 291.0906977688747
2443 291.0725036485009
2444 291.0937514955821
2445 291.0742030898454
2446 291.093965252954
2447 291.0757499121697
2448 291.0925011757568
2449 291.0768397672126
2450 291.0989519187003
2451 291.079037681248
2452 291.0984818642179
2453 291.0808679464224
2454 291.1003076607765
2455 291.0796993918859
2456 291.0995486015033
2457 291.0779873804602
2458 291.0975593262921
2459 291.0742629587399
2460 291.0929898651199
2461 291.069540575056
2462 291.0872415490783
2463 291.061371213296
2464 291.0821166848181
2465 291.0614306073516
2466 291.0803922174456
2467 291.0559642223842
2468 291.0734259909648
2469 291.0550858274096
2470 291.0767756733307
2471 291.0564187865568
2472 291.0781603686401
2473 291.0602691208933
2474 291.0815924396429
2475 291.0614916668139
2476 291.0858793786115
2477 291.0674083224411
2478 291.0908731200633
2479 291.0759752441668
2480 291.0968808760653
2481 291.0826520454094
2482 291.1071835891948
2483 291.0922969394865
2484 291.1122955292595
2485 291.0937821372893
2486 291.1133540952059
2487 291.0958377437892
2488 291.1152844879753
2489 291.0971247513385
2490 291.112822945423
2491 291.0945668519642
2492 291.108716362166
2493 291.0845603900922
2494 291.1022890422747
2495 291.0767584887446
2496 291.0920102534856
2497 291.0684376120553
2498 291.0867954990335
2499 291.0623079519498
2500 291.0812897166353
2501 291.0598003991495
2502 291.0758633186951
2503 291.0545059328891
2504 291.0745967332676
2505 291.0589606144461
2506 291.0774932829585
2507 291.0598282153431
2508 291.0826855734279
2509 291.061992830898
2510 291.0819210100032
2511 291.0604838752349
2512 291.0832030388997
2513 291.0653656320868
2514 291.0892317475711
2515 291.0678350508309
2516 291.0867990003669
2517 291.0671470390195
2518 291.0870187079436
2519 291.0672391469009
2520 291.0906937303454
2521 291.0696357909599
2522 291.092653193078
2523 291.0767757363056
2524 291.0924254830082
2525 291.0725535711528
2526 291.0966312068484
2527 291.0724095221535
2528 291.0905850967732
2529 291.0707107189776
2530 291.0907889369906
2531 291.0697474616646
2532 291.0919974303231
2533 291.072919280969
2534 291.0922491518808
2535 291.0722321935629
2536 291.0904297927717
2537 291.0736705866722
2538 291.0958951502747
2539 291.0772409507047
2540 291.099882181306
2541 291.0821129812033
2542 291.1022795421856
2543 291.0829589419721
2544 291.1055306967498
2545 291.0880630458529
2546 291.1025441086204
2547 291.081760418597
2548 291.0999939504283
2549 291.0813498448895
2550 291.0992396745309
2551 291.0796100442685
2552 291.0988584367074
2553 291.0776738322358
2554 291.0953342703072
2555 291.0736618558653
2556 291.092358018696
2557 291.0728258515902
2558 291.091085499598
2559 291.0710529333005
2560 291.0892052634975
2561 291.0743922811711
2562 291.097625870383
2563 291.0777548477377
2564 291.0940529070603
2565 291.0733002329004
2566 291.0922983014644
2567 291.0734938418873
2568 291.0951703448671
2569 291.0768029552892
2570 291.0929711266
2571 291.0735799597283
2572 291.0891986253259
2573 291.0681646157084
2574 291.0863455671975
2575 291.0656473466819
2576 291.084861439303
2577 291.0643460188419
2578 291.0822114858425
2579 291.0644955680828
2580 291.087890989619
2581 291.0705329687817
2582 291.0909255211051
2583 291.0707466229204
2584 291.0912617229374
2585 291.072844378108
2586 291.0870906408465
2587 291.069725050983
2588 291.089048358322
2589 291.0692981411078
2590 291.0844054729199
2591 291.0665013254172
2592 291.0882075481685
2593 291.0689041293739
2594 291.090381414581
2595 291.0698215215551
2596 291.0870200836768
2597 291.0654533823243
2598 291.0849218850982
2599 291.0662635762664
2600 291.0866058727499
2601 291.0699755698142
2602 291.0929481708762
2603 291.0756625599665
2604 291.0961198862994
2605 291.0781185615595
2606 291.0965729833951
2607 291.0726453715535
2608 291.0936323847591
2609 291.0738297182294
2610 291.0943966633202
2611 291.0769278677701
2612 291.0972168416019
2613 291.0817182740373
2614 291.0984423883499
2615 291.0788202235101
2616 291.1001376270521
2617 291.0799651143782
2618 291.1000657729089
2619 291.0817303551066
2620 291.0989465386575
2621 291.0768012222969
2622 291.0986206891577
2623 291.0723683411982
2624 291.0904242341105
2625 291.0687210029206
2626 291.0895007047552
2627 291.0684328760057
2628 291.0911251799172
2629 291.0693851136505
2630 291.0894512237488
2631 291.0689349319015
2632 291.0896687315156
2633 291.0717570225565
2634 291.0911282910981
2635 291.0703421765976
2636 291.0914887463313
2637 291.071867079307
2638 291.095100814916
2639 291.0745929314825
2640 291.0947757228228
2641 291.0772643179061
2642 291.1005189557869
2643 291.0814712948605
2644 291.10000769452
2645 291.0773923392649
2646 291.094484641973
2647 291.0726151499628
2648 291.089525084708
2649 291.0668424311692
2650 291.0829155522554
2651 291.0621304702068
2652 291.0811833096889
2653 291.0612608634333
2654 291.0782795076415
2655 291.0611186934942
2656 291.0839613874054
2657 291.066528923534
2658 291.0888532667026
2659 291.0669040954261
2660 291.0892338291596
2661 291.0731050189631
2662 291.0917935373
2663 291.0712991444057
2664 291.0886427017383
2665 291.0716817779575
2666 291.0849068186884
2667 291.0637738806508
2668 291.0843916142208
2669 291.0660293890608
2670 291.085702010305
2671 291.0665871777729
2672 291.0897077214414
2673 291.0745068520006
2674 291.0966394946761
2675 291.0797122246839
2676 291.1004754442832
2677 291.0834083442888
2678 291.103811009792
2679 291.0862592572266
2680 291.1042044254337
2681 291.0868447948455
2682 291.104318839562
2683 291.0874854453309
2684 291.107101148924
2685 291.0878664045692
2686 291.1064015968829
2687 291.0853929853167
2688 291.105391573511
2689 291.0829135476516
2690 291.1008030531168
2691 291.0797323824891
2692 291.0981350524352
2693 291.0774305155664
2694 291.0959810429011
2695 291.0761431388891
2696 291.0950394875254
2697 291.0749853976096
2698 291.0948675085591
2699 291.0727176774377
2700 291.0925582781587
2701 291.0714971393821
2702 291.0908493317802
2703 291.0704043466925
2704 291.0901418222163
2705 291.0690882098157
2706 291.0914757300037
2707 291.0705600154899
2708 291.0927471926289
2709 291.0731932609933
2710 291.0959551560367
2711 291.0749165659245
2712 291.0938149637836
2713 291.0704097674076
2714 291.0929138609831
2715 291.0674629422218
2716 291.0883165932077
2717 291.0634303845021
2718 291.0850147055711
2719 291.0619315340516
2720 291.0809175342919
2721 291.0596825058239
2722 291.0781660458361
2723 291.0571275295678
2724 291.0781560198844
2725 291.0582125120145
2726 291.0834539443358
2727 291.0615811369411
2728 291.0828561241389
2729 291.0683492290751
2730 291.092760257508
2731 291.076853283175
2732 291.1003694205023
2733 291.080921401249
2734 291.1019503397662
2735 291.0843333414576
2736 291.105920150463
2737 291.0867243897385
2738 291.1047318827524
2739 291.0863133864042
2740 291.1021459177544
2741 291.0853090185023
2742 291.1019938114229
2743 291.0818027041889
2744 291.101401531178
2745 291.0834699396255
2746 291.1022067448127
2747 291.0847794179584
2748 291.0989352220756
2749 291.0767024528446
2750 291.0935885502096
2751 291.0736600522884
2752 291.0889588000536
2753 291.0701274697579
2754 291.0888568951672
2755 291.0702222183455
2756 291.0865269343415
2757 291.0655808917704
2758 291.0827946162785
2759 291.0617255904787
2760 291.0803181434594
2761 291.0605991324698
2762 291.0810224769476
2763 291.0585027000423
2764 291.0825805128142
2765 291.0648963032174
2766 291.0837702540198
2767 291.0661397627655
2768 291.0881865495318
2769 291.0727080059337
2770 291.0930703396571
2771 291.0756694614433
2772 291.0942327342287
2773 291.0765125890454
2774 291.0991065982203
2775 291.0765507752206
2776 291.0968681402159
2777 291.0793640578629
2778 291.1010100789272
2779 291.0800712841091
2780 291.0991542809829
2781 291.0785951242503
2782 291.0964060546825
2783 291.0747541211862
2784 291.0937339164624
2785 291.0736526360745
2786 291.0944473186825
2787 291.072004269641
2788 291.0910021414871
2789 291.0694914230183
2790 291.0824838465622
2791 291.0630360812658
2792 291.0867313724541
2793 291.0689750105866
2794 291.0891397190709
2795 291.0720193229792
2796 291.0931216128772
2797 291.0726988813619
2798 291.0912264281706
2799 291.0728960258143
2800 291.0938240872284
2801 291.0748533979803
2802 291.0930917650912
2803 291.0731970974792
2804 291.0942423900512
2805 291.0755339932139
2806 291.0956976770523
2807 291.0765608339158
2808 291.0956869460516
2809 291.0776432271967
2810 291.0985626867207
2811 291.0759464768033
2812 291.0950784935078
2813 291.0742036631215
2814 291.0960895727499
2815 291.0727033556267
2816 291.0908940388777
2817 291.0685113298242
2818 291.0891121752003
2819 291.0677631514597
2820 291.0871019774478
2821 291.0648596127709
2822 291.0870285090587
2823 291.0663913860222
2824 291.0875722610638
2825 291.0669361910095
2826 291.0879265623429
2827 291.0671554578857
2828 291.0862601587358
2829 291.0647689447154
2830 291.0853472804707
2831 291.0662317491266
2832 291.087653966411
2833 291.0698361138698
2834 291.0869294277035
2835 291.067568605213
2836 291.0857054128114
2837 291.0674219938739
2838 291.0909125604996
2839 291.0714325467727
2840 291.0919466479439
2841 291.074711895162
2842 291.0934582797622
2843 291.0748991676648
2844 291.0987355920637
2845 291.0819746403741
2846 291.0991489235254
2847 291.0838726513001
2848 291.1022069275004
2849 291.0861042922996
2850 291.1033913950022
2851 291.0860813823537
2852 291.1054749189223
2853 291.09033035032
2854 291.1103035887232
2855 291.0922993859201
2856 291.1099143141034
2857 291.0910836582738
2858 291.1141137947729
2859 291.0929005173498
2860 291.1080222098244
2861 291.084664445636
2862 291.1029121230681
2863 291.0779931542404
2864 291.0931656723561
2865 291.0658416040289
2866 291.0843582020349
2867 291.0652258869084
2868 291.0823587645421
2869 291.0610745196528
2870 291.0790497280806
2871 291.0562186796531
2872 291.0787536783228
2873 291.0605901673032
2874 291.0785199998974
2875 291.0580867728561
2876 291.0831589030924
2877 291.0628203082226
2878 291.0818569984654
2879 291.0616840285863
2880 291.087508806616
2881 291.0675911474102
2882 291.0920687000918
2883 291.0778768403073
2884 291.0970383341515
2885 291.0786833307276
2886 291.0993125440752
2887 291.0802292137684
2888 291.1020895681689
2889 291.0801591881415
2890 291.0993958098102
2891 291.0800000266808
2892 291.103044670205
2893 291.0803371292679
2894 291.0995364007216
2895 291.0773450632119
2896 291.0955122958787
2897 291.0732921397743
2898 291.0897849368893
2899 291.0691596993237
2900 291.0898131175829
2901 291.0674711824468
2902 291.0835371834063
2903 291.0618717980485
2904 291.0773175703454
2905 291.0568827453438
2906 291.0776375105317
2907 291.0576001926216
2908 291.0798138862389
2909 291.0576434436051
2910 291.0831256500084
2911 291.0623187145409
2912 291.0810111904434
2913 291.0622821729973
2914 291.0855733349199
2915 291.0669040271194
2916 291.0862121837111
2917 291.0696398035012
2918 291.0856883234065
2919 291.0726125922952
2920 291.090454878956
2921 291.0752951218531
2922 291.0997290068446
2923 291.0801731498682
2924 291.1005334383172
2925 291.0806361569065
2926 291.1071565544555
2927 291.0876318430351
2928 291.1079450685982
2929 291.0918734809269
2930 291.1104938088114
2931 291.0927389567286
2932 291.1060694417835
2933 291.0856234525838
2934 291.1008696372103
2935 291.0773806996808
2936 291.0921012518305
2937 291.0704980359428
2938 291.0875507613599
2939 291.0655499704026
2940 291.0832669441671
2941 291.0622628512155
2942 291.0811813504525
2943 291.0647350434694
2944 291.0820598212412
2945 291.0643947107552
2946 291.0821850936961
2947 291.0658865536192
2948 291.0850056767495
2949 291.0666698292749
2950 291.0858416995799
2951 291.0655796797393
2952 291.0825571677553
2953 291.0669141407876
2954 291.0872719430966
2955 291.0705176025543
2956 291.0924372924802
2957 291.0746102962354
2958 291.092597735441
2959 291.071833387545
2960 291.0939803672587
2961 291.072822604325
2962 291.0913285025138
2963 291.0704542587512
2964 291.0903375852124
2965 291.0709583363989
2966 291.0910692837927
2967 291.0709461662543
2968 291.0953177173768
2969 291.0747609102897
2970 291.0969234259408
2971 291.0765508933205
2972 291.0947031855413
2973 291.0733415566554
2974 291.0937868671306
2975 291.0728181445135
2976 291.0946924166973
2977 291.0770680823335
2978 291.0960359396926
2979 291.0771166870827
2980 291.0961459826332
2981 291.073009757534
2982 291.0963227109503
2983 291.0748013486441
2984 291.0949582310489
2985 291.0747416141625
2986 291.0970831154243
2987 291.0771433830874
2988 291.0974774816081
2989 291.0795269158905
2990 291.1005418300477
2991 291.0793757776621
2992 291.1002012154985
2993 291.0814242124941
2994 291.102729959983
2995 291.082269137235
2996 291.1014050680844
2997 291.0792476936576
2998 291.0947539450696
2999 291.0739065471795
3000 291.0922404010856
3001 291.0703805611425
3002 291.0904563499436
3003 291.0664570915854
3004 291.0848199279847
3005 291.0643422375583
3006 291.0827509797765
3007 291.0654651176174
3008 291.0849276372171
3009 291.0663139893414
3010 291.0831485584621
3011 291.0658149895037
3012 291.0832888727937
3013 291.0619741015281
3014 291.0786242660924
3015 291.0600516197061
3016 291.0785466831884
3017 291.0636520721092
3018 291.0830786072206
3019 291.0664679295263
3020 291.0857876916438
3021 291.0716327579199
3022 291.0934721485581
3023 291.0768452901821
3024 291.0986486433951
3025 291.0809844890322
3026 291.1055719728709
3027 291.0880983872756
3028 291.1079576652372
3029 291.0897001079093
3030 291.1088120361034
3031 291.0871707435034
3032 291.1039310805306
3033 291.0858879264701
3034 291.0999782886691
3035 291.0807846892794
3036 291.0977484872325
3037 291.0744027996312
3038 291.0880172126906
3039 291.067238892864
3040 291.0847058843704
3041 291.0627330019582
3042 291.0765172425944
3043 291.0557309705366
3044 291.0742756133583
3045 291.0524311313303
3046 291.0721288625774
3047 291.0534290580264
3048 291.0746666426852
3049 291.0604762790579
3050 291.0825004341311
3051 291.0665712927867
3052 291.0899493367047
3053 291.0741828139549
3054 291.0980596947654
3055 291.0781707290843
3056 291.1001900259462
3057 291.0826348780416
3058 291.1046388578036
3059 291.0854566695738
3060 291.1028017310913
3061 291.0864300921636
3062 291.104770484679
3063 291.0813096475469
3064 291.1017454645061
3065 291.0821706674726
3066 291.0992054217481
3067 291.0775872501108
3068 291.0970099079972
3069 291.0754478173635
3070 291.0939778762401
3071 291.0709179060738
3072 291.0937800583862
3073 291.0723652349243
3074 291.092178680502
3075 291.070993195103
3076 291.0896274556043
3077 291.0706957165222
3078 291.0882221385181
3079 291.0662708055552
3080 291.0827770657861
3081 291.0614907801605
3082 291.0805081112247
3083 291.0579898922112
3084 291.0797003036652
3085 291.0598308606987
3086 291.0809725433666
3087 291.0580645307092
3088 291.083288953802
3089 291.0615252862356
3090 291.0829496095405
3091 291.0645488800449
3092 291.0873410601464
3093 291.0661887947325
3094 291.0871319271045
3095 291.0699359479825
3096 291.0898957941807
3097 291.0742891655784
3098 291.0924135107306
3099 291.0740487401308
3100 291.0950990105875
3101 291.0750912175517
3102 291.0954061390906
3103 291.076064083658
3104 291.0960142620087
3105 291.0780751265155
3106 291.0999255788795
3107 291.0832099099026
3108 291.1016248734201
3109 291.0828362509601
3110 291.1016052196233
3111 291.0827027627642
3112 291.0981438639544
3113 291.0796761211899
3114 291.0979967173421
3115 291.076690524944
3116 291.0944102376723
3117 291.0732507800411
3118 291.0926059155981
3119 291.0738087424447
3120 291.0917122134667
3121 291.0733752487367
3122 291.0940768089529
3123 291.0747884767825
3124 291.0930996627534
3125 291.0733074708898
3126 291.0919651561504
3127 291.0711254894333
3128 291.0923108936478
3129 291.0720630463137
3130 291.0918517108431
3131 291.0749013087603
3132 291.0959301853609
3133 291.0771650471667
3134 291.0975597365543
3135 291.0756672553946
3136 291.0947701214232
3137 291.0727374720137
3138 291.0880891469513
3139 291.0659764222343
3140 291.0823339663413
3141 291.059925369601
3142 291.0791121668149
3143 291.0619470186667
3144 291.0806485418307
3145 291.0581834033969
3146 291.0750794851083
3147 291.0567250001492
3148 291.0751570383699
3149 291.0552653515463
3150 291.0782333509558
3151 291.0609382728036
3152 291.0836355103248
3153 291.0679525950214
3154 291.0895290741453
3155 291.0711384774246
3156 291.0939057951784
3157 291.0754617555642
3158 291.0950459972541
3159 291.0761818228759
3160 291.1030281344196
3161 291.0846162631863
3162 291.1023484266036
3163 291.0812691136611
3164 291.1048786253876
3165 291.0844131201904
3166 291.1055543575907
3167 291.0828682444845
3168 291.1004940834535
3169 291.0821398170675
3170 291.0991896230414
3171 291.0775761253138
3172 291.0947770395242
3173 291.0741824447364
3174 291.0895398956939
3175 291.0663343331897
3176 291.0838466101987
3177 291.0663577011038
3178 291.0798758322999
3179 291.0592727548221
3180 291.0780887418837
3181 291.0591625849015
3182 291.0779687484849
3183 291.0557490202866
3184 291.0745779265951
3185 291.0546501498444
3186 291.0739094148588
3187 291.0555707948229
3188 291.0786137036344
3189 291.0614905768725
3190 291.0831188538278
3191 291.067740812818
3192 291.0925768654302
3193 291.0783508743064
3194 291.0971966025662
3195 291.0771614896603
3196 291.0974361327341
3197 291.0797815639037
3198 291.0982374881403
3199 291.0829212737725
3200 291.1030034725235
3201 291.0856975617734
3202 291.1088727575471
3203 291.0879828129368
3204 291.1064574291949
3205 291.0883354893019
3206 291.105766119474
3207 291.0893511513644
3208 291.1112415115243
3209 291.0907075263176
3210 291.1090400687498
3211 291.0870720776553
3212 291.1058565889985
3213 291.082222740669
3214 291.102825532767
3215 291.0795651632951
3216 291.0905361904138
3217 291.0671541738645
3218 291.0865790746741
3219 291.0664010999496
3220 291.0842323407618
3221 291.0624040600688
3222 291.0813315158879
3223 291.0602446798966
3224 291.0755227344405
3225 291.0555988852893
3226 291.0795473158897
3227 291.0575224254741
3228 291.0798133543343
3229 291.0613687028395
3230 291.0870938471146
3231 291.0683946953661
3232 291.0876573524417
3233 291.0694417049124
3234 291.0923157976556
3235 291.0742311061052
3236 291.0953455145903
3237 291.0741765769671
3238 291.0946575539267
3239 291.0763631278778
3240 291.0958242163703
3241 291.0785158928758
3242 291.0968248577548
3243 291.0766802513451
3244 291.0948002378083
3245 291.0703655309244
3246 291.0888534008258
3247 291.0681292310036
3248 291.0870578013072
3249 291.0679948756723
3250 291.085523721307
3251 291.0660411610172
3252 291.0860163258945
3253 291.0654147020315
3254 291.0871281912295
3255 291.067217528219
3256 291.0874635575482
3257 291.0650628823818
3258 291.08505999906
3259 291.0687705433079
3260 291.0923231929214
3261 291.0756683218723
3262 291.0945278971381
3263 291.078635939906
3264 291.0975652220267
3265 291.0804900495299
3266 291.0986867170272
3267 291.0821676048115
3268 291.1023170800229
3269 291.0829089873112
3270 291.1044838657082
3271 291.0852722958231
3272 291.1059907373765
3273 291.0870905971109
3274 291.1045410102894
3275 291.0837009771145
3276 291.1022309654424
3277 291.0810211622852
3278 291.0960603530904
3279 291.0774004036493
3280 291.0975039680724
3281 291.0746511807243
3282 291.0906735017236
3283 291.071264007655
3284 291.087910836876
3285 291.0626160308967
3286 291.0799386625697
3287 291.0598119096169
3288 291.0774000032457
3289 291.0561606454231
3290 291.0777577295892
3291 291.06204090314
3292 291.0826572293486
3293 291.0680157568532
3294 291.0919200924435
3295 291.074882983988
3296 291.0958404626475
3297 291.0786850499365
3298 291.1018515374265
3299 291.0827786971581
3300 291.1031413640557
3301 291.0815841265646
3302 291.1022647751476
3303 291.0819360251998
3304 291.0999421116713
3305 291.0802339199503
3306 291.0986438100031
3307 291.0745963359393
3308 291.0941335581182
3309 291.069341841342
3310 291.0894403740322
3311 291.0705920846829
3312 291.0896152668447
3313 291.0657657445029
3314 291.0860253426505
3315 291.064485181128
3316 291.0867983293231
3317 291.0632668014821
3318 291.0860664290446
3319 291.0673041462182
3320 291.0885538882411
3321 291.0698703401787
3322 291.0883115724984
3323 291.0729548897582
3324 291.0932501277257
3325 291.0734115374573
3326 291.0912796721665
3327 291.072896801643
3328 291.0937081162986
3329 291.0745513088714
3330 291.0964776043159
3331 291.0764231725916
3332 291.0952954711968
3333 291.0762703041335
3334 291.0955866311966
3335 291.0721222018458
3336 291.0911649295052
3337 291.0690570127962
3338 291.088010417215
3339 291.068739889167
3340 291.086828046994
3341 291.066527392029
3342 291.0848023088944
3343 291.0657096248387
3344 291.0866661658802
3345 291.0688421427917
3346 291.0896759147344
3347 291.0714264456628
3348 291.0932390155179
3349 291.0736255552108
3350 291.090354644831
3351 291.0698223791551
3352 291.087596549295
3353 291.071808168404
3354 291.0881112381346
3355 291.0682514747817
3356 291.0885830245767
3357 291.0681673472558
3358 291.0830091174248
3359 291.0585342975371
3360 291.0775918738725
3361 291.0579882486506
3362 291.0786096049691
3363 291.0635922379768
3364 291.08455200245
3365 291.0656224581793
3366 291.0885866727107
3367 291.0713975824978
3368 291.0927547227927
3369 291.0763547428533
3370 291.0997784908373
3371 291.0841694732286
3372 291.1033038099228
3373 291.0854797212244
3374 291.1047872804979
3375 291.0858516675135
3376 291.1045906656997
3377 291.0872670299565
3378 291.1017447544722
3379 291.0846443403612
3380 291.1036456736071
3381 291.0834686277057
3382 291.0968086491079
3383 291.0739854570299
3384 291.0920030141032
3385 291.0708957035329
3386 291.0893531645527
3387 291.0696857886496
3388 291.08857472178
3389 291.0691711020659
3390 291.0871661617185
3391 291.0686521541966
3392 291.0864627670018
3393 291.0659909085036
3394 291.0857011671027
3395 291.0686793155779
3396 291.0861774002956
3397 291.0648865234386
3398 291.0836425045674
3399 291.0610816884634
3400 291.0809809174453
3401 291.0634887440578
3402 291.0866022847406
3403 291.0685173470629
3404 291.0926031605588
3405 291.0717832507206
3406 291.0944864734943
3407 291.0746177644521
3408 291.0958703844209
3409 291.0746205885619
3410 291.0974770606675
3411 291.0773399723917
3412 291.0975251523299
3413 291.0768132325185
3414 291.1016739446827
3415 291.0782451258081
3416 291.100005478379
3417 291.0788678801126
3418 291.0985911179761
3419 291.0796108800803
3420 291.1001767512832
3421 291.0769104924902
3422 291.0993034965626
3423 291.0772916193857
3424 291.0961610028746
3425 291.0759992653518
3426 291.0983217578863
3427 291.0758967981131
3428 291.0910599026131
3429 291.0700511781309
3430 291.0890673373034
3431 291.0700294255656
3432 291.084532930505
3433 291.0666658392868
3434 291.0863939492364
3435 291.0657897255523
3436 291.0853349077239
3437 291.0654075861547
3438 291.0846515222278
3439 291.0686291557952
3440 291.0900321712824
3441 291.0716740088885
3442 291.089964322837
3443 291.0743275209208
3444 291.095748415175
3445 291.0794645403431
3446 291.0986549466055
3447 291.0817847998198
3448 291.1004293524073
3449 291.0803531005383
3450 291.0989129218081
3451 291.0811528635057
3452 291.0977796200883
3453 291.0738366474001
3454 291.0886765292627
3455 291.0672527444424
3456 291.0868563793138
3457 291.0693437215721
3458 291.0902877268411
3459 291.0709242452206
3460 291.0903001980678
3461 291.0709552098788
3462 291.0923707442814
3463 291.071694634563
3464 291.0892412247488
3465 291.0715086304106
3466 291.0887139465688
3467 291.0712299577555
3468 291.0916167641427
3469 291.071889825708
3470 291.0948045872409
3471 291.0752615418298
3472 291.0961656357375
3473 291.0768224851913
3474 291.094898545401
3475 291.0778886731075
3476 291.0948834644787
3477 291.0759906230888
3478 291.0958882686602
3479 291.075298829853
3480 291.094375253104
3481 291.0734533819956
3482 291.0917358134012
3483 291.070475397526
3484 291.0895991493478
3485 291.0700790605887
3486 291.089552158394
3487 291.0725978456121
3488 291.0893982066245
3489 291.06773259334
3490 291.086905547023
3491 291.0675789718819
3492 291.0897620029636
3493 291.0721616332901
3494 291.0941741023632
3495 291.0755344326689
3496 291.0952824337037
3497 291.0732588496624
3498 291.0961734280988
3499 291.0730451149929
3500 291.094889030111
3501 291.0747991722478
3502 291.09376120023
3503 291.0726633340164
3504 291.0905446283596
3505 291.0689044943317
3506 291.0876274070326
3507 291.0669176224368
3508 291.0885883315036
3509 291.0650984103322
3510 291.0867570986613
3511 291.0659242807973
3512 291.0866615193383
3513 291.0680166442643
3514 291.0892846067691
3515 291.0699297364283
3516 291.089490135767
3517 291.0730607152589
3518 291.0929710887339
3519 291.0772066594591
3520 291.1018301370947
3521 291.084412133085
3522 291.1031184118907
3523 291.0825136670906
3524 291.0993926988661
3525 291.0822931743186
3526 291.0992088977566
3527 291.0788960827819
3528 291.0979814906265
3529 291.0795383596808
3530 291.0948286336194
3531 291.0751620413205
3532 291.0963390167428
3533 291.0779683422697
3534 291.0944544350258
3535 291.0726028554903
3536 291.0903780464085
3537 291.0672712055763
3538 291.0855639869558
3539 291.0655720868497
3540 291.0837611828181
3541 291.0675283282442
3542 291.0848739265548
3543 291.0685428866759
3544 291.0862816791969
3545 291.0647152110508
3546 291.0816362807049
3547 291.0643470950246
3548 291.0843550023182
3549 291.0638388668446
3550 291.0846794481232
3551 291.0679279478439
3552 291.090238741108
3553 291.0669719674913
3554 291.0886547192864
3555 291.0748416410612
3556 291.0908266634685
3557 291.0697056726716
3558 291.0887751113056
3559 291.0681822164192
3560 291.0905236095072
3561 291.0707013426065
3562 291.0901185730119
3563 291.0700281242176
3564 291.0871875846321
3565 291.0679678604428
3566 291.0852273707816
3567 291.0654068510277
3568 291.0845830287518
3569 291.0681101647911
3570 291.0885405142539
3571 291.0672371888323
3572 291.091648433592
3573 291.0711647859661
3574 291.0939131842671
3575 291.0783692782251
3576 291.1001532060191
3577 291.0798872396626
3578 291.0997398521368
3579 291.0796075887567
3580 291.1013065262453
3581 291.0806010588923
3582 291.0993809761156
3583 291.080153692017
3584 291.0966962154939
3585 291.0744718449575
3586 291.092618036178
3587 291.0714296350799
3588 291.0906060479987
3589 291.0718491937095
3590 291.0921449213177
3591 291.0734569209368
3592 291.0936513459467
3593 291.0738606288522
3594 291.0921311025537
3595 291.0712247183068
3596 291.0895583608997
3597 291.0688143195239
3598 291.0876367721365
3599 291.0649642795428
3600 291.0861651425677
3601 291.0648063260398
3602 291.0845878357441
3603 291.0674954261947
3604 291.0858256890454
3605 291.0683401773686
3606 291.0866591033679
3607 291.0663109454579
3608 291.0856118733235
3609 291.0648191807711
3610 291.0877584907096
3611 291.0702200296705
3612 291.0878025158476
3613 291.0679230900441
3614 291.087485333126
3615 291.0690323767033
3616 291.0872842178048
3617 291.0678133927826
3618 291.086013853645
3619 291.0693017927279
3620 291.0912693728015
3621 291.0730947767469
3622 291.0925839020563
3623 291.0745565722241
3624 291.0920634529193
3625 291.0750897980367
3626 291.0904174332159
3627 291.073715523801
3628 291.0926563612958
3629 291.0734001714724
3630 291.0937015173495
3631 291.0787614848495
3632 291.0978342813506
3633 291.0794225543092
3634 291.0978424543731
3635 291.0798955616908
3636 291.0975870864266
3637 291.078110267629
3638 291.0935005276217
3639 291.0727323417604
3640 291.0904667860449
3641 291.0701745294996
3642 291.0864758103053
3643 291.0678272406671
3644 291.0877578449875
3645 291.0681889378007
3646 291.087804291869
3647 291.0667542193976
3648 291.0855540463735
3649 291.0662189440779
3650 291.0879216193011
3651 291.0681692508751
3652 291.087602618014
3653 291.065275430215
3654 291.0854012958483
3655 291.0667565167233
3656 291.0893969684666
3657 291.0678591573193
3658 291.0848591528446
3659 291.0650328820523
3660 291.0865376681602
3661 291.0671207906332
3662 291.0842968576981
3663 291.0671476796998
3664 291.0890804411464
3665 291.0695790937943
3666 291.0904826244994
3667 291.0723381632292
3668 291.0932274585433
3669 291.0719093370592
3670 291.0917121686168
3671 291.0664852411118
3672 291.0865801293801
3673 291.0655594046729
3674 291.0855324779383
3675 291.0656267506691
3676 291.0860671979898
3677 291.0663204726365
3678 291.0856439021336
3679 291.0652745150123
3680 291.0879393475754
3681 291.069355517801
3682 291.0907290530721
3683 291.071111538633
3684 291.0959724645518
3685 291.0723945512763
3686 291.0926594693976
3687 291.0729929098363
3688 291.0944688030295
3689 291.0760478372207
3690 291.0959607121495
3691 291.0767689707315
3692 291.093576503966
3693 291.073876405826
3694 291.0923112133784
3695 291.0718326765686
3696 291.091225225072
3697 291.0777739089545
3698 291.0981617505482
3699 291.0776185139588
3700 291.0969982073067
3701 291.0796673819663
3702 291.096422988672
3703 291.0766699779501
3704 291.0985858491732
3705 291.0790626438051
3706 291.0962657520942
3707 291.0722300503954
3708 291.0908957079728
3709 291.0685586604648
3710 291.0870952807622
3711 291.0682218106089
3712 291.0848041595328
3713 291.0663190759232
3714 291.0837198716901
3715 291.0652531897115
3716 291.0831007858629
3717 291.0679002234652
3718 291.0880379669379
3719 291.06708194437
3720 291.0892624714828
3721 291.0680825707042
3722 291.0866853837806
3723 291.0661896756901
3724 291.0872910593804
3725 291.0683560488689
3726 291.084037427894
3727 291.0636666379891
3728 291.0816024964013
3729 291.0631832711993
3730 291.0818990924741
3731 291.0610979762109
3732 291.0808218449262
3733 291.0612466239088
3734 291.0840710648284
3735 291.0674296099637
3736 291.0871316599939
3737 291.0688143350008
3738 291.0895153893773
3739 291.0712092192765
3740 291.0911307301787
3741 291.0725572291166
3742 291.0949042365364
3743 291.0752409225094
3744 291.0972474089827
3745 291.0796894382995
3746 291.1009931037819
3747 291.0840274931065
3748 291.1059909374156
3749 291.0862681582985
3750 291.1072994406001
3751 291.0849119222029
3752 291.1031966210515
3753 291.0807251918902
3754 291.1009005781684
3755 291.0733122661403
3756 291.0933133290306
3757 291.0706495342655
3758 291.0915944984295
3759 291.0677897444695
3760 291.0885474088506
3761 291.069752294291
3762 291.0882076073442
3763 291.0637067160663
3764 291.0878625399194
3765 291.0640618043973
3766 291.0849284168779
3767 291.0630550922151
3768 291.0826462939521
3769 291.0650978973367
3770 291.0839551080041
3771 291.064047629141
3772 291.0880068081659
3773 291.0677896951296
3774 291.0898468861792
3775 291.0682048823213
3776 291.0900807060136
3777 291.0705048960389
3778 291.0866244749416
3779 291.0691734150856
3780 291.0867341806662
3781 291.0686039214761
3782 291.0890698410363
3783 291.068686840234
3784 291.0866054931206
3785 291.0685156106969
3786 291.0895295243013
3787 291.0731372652696
3788 291.0911577734631
3789 291.0722499284658
3790 291.0909985204082
3791 291.0742380713808
3792 291.0945377009127
3793 291.078638791442
3794 291.0963014262977
3795 291.0769407061526
3796 291.0948518645803
3797 291.0756267936209
3798 291.0952616369836
3799 291.0760159950592
3800 291.0985100660554
3801 291.0764605685968
3802 291.0945133222842
3803 291.0744682341033
3804 291.0936824137565
3805 291.0760014241076
3806 291.0963368979532
3807 291.0769695945345
3808 291.0936354054023
3809 291.0742221498524
3810 291.0926373894585
3811 291.0711101615958
3812 291.0909630003023
3813 291.0724185264622
3814 291.0907611255307
3815 291.0722404545443
3816 291.0890506370226
3817 291.0701409853609
3818 291.0907106148154
3819 291.0701819041318
3820 291.0883182868142
3821 291.0650802246077
3822 291.0826703934689
3823 291.0628416890644
3824 291.0819603878894
3825 291.0634283204481
3826 291.0851440606909
3827 291.0650950174264
3828 291.0827109292931
3829 291.0649300339835
3830 291.0869719219903
3831 291.0701525768686
3832 291.0913908967438
3833 291.0759833429567
3834 291.0958225725512
3835 291.0792275023086
3836 291.100098043649
3837 291.0839023277485
3838 291.104102236002
3839 291.0843865317655
3840 291.1019145258852
3841 291.0802384525146
3842 291.099513511997
3843 291.0782695067452
3844 291.097433576694
3845 291.0748359018885
3846 291.0963568751328
3847 291.0728113088072
3848 291.0910329389662
3849 291.0660279731753
3850 291.0851336374113
3851 291.0599057107453
3852 291.0816822424555
3853 291.0645653429735
3854 291.0865367293657
3855 291.0625852809355
3856 291.0844861320435
3857 291.0642003467711
3858 291.0831483950263
3859 291.0651406395452
3860 291.0877109515848
3861 291.0695117858853
3862 291.0922639853214
3863 291.071091686711
3864 291.0940674225101
3865 291.0767395742528
3866 291.0956284584704
3867 291.0787626431382
3868 291.0999038069501
3869 291.0831047725276
3870 291.1006401793909
3871 291.0825750146423
3872 291.1012266850395
3873 291.0796882245539
3874 291.0948657055986
3875 291.0729039476876
3876 291.088813092246
3877 291.0697196157415
3878 291.0865395604095
3879 291.0675384944768
3880 291.088142579419
