"x-rfile"
"Iteration" "x"
("Iteration" "x")
1 3504.358378259091
2 3126.472797897036
3 2217.160283778251
4 1742.600338918253
5 1325.386314665079
6 1067.368847452597
7 830.0925569341066
8 641.2679936942832
9 476.2414868402307
10 344.4620790399342
11 239.1542567914995
12 166.3509727035355
13 111.2472420609673
14 77.16355588603847
15 53.36549477199213
16 41.33812507616601
17 33.63331117313829
18 32.39910137197441
19 34.0454479943652
20 39.67212313129259
21 45.86958699998369
22 54.72763128933326
23 61.86987374742014
24 70.11674839314847
25 76.90776014791361
26 83.17943604916339
27 88.29869654983898
28 92.96820256219537
29 95.69484078556869
30 99.02058957262412
31 101.2387005316881
32 104.6458152220826
33 107.0886408105421
34 109.5468183083036
35 110.6544527293379
36 111.6820086213072
37 111.2454234426502
38 111.22033608663
39 109.9700926937525
40 109.4863290792086
41 108.1177273360349
42 107.4288062549282
43 106.0896175151067
44 105.1716661829925
45 103.4942354882624
46 102.6325425624547
47 101.0294665855013
48 100.067968201078
49 98.66828027493894
50 97.95598551110859
51 96.74623443929435
52 96.38701249991395
53 95.31354115414165
54 95.20482141053029
55 94.3609107099083
56 94.27744894740252
57 93.48564193708967
58 93.51144631768155
59 92.8549400185083
60 92.84245242222613
61 92.21363762750296
62 92.19389640411184
63 91.50493434483521
64 91.49020250873083
65 90.86036204434238
66 90.80234779965366
67 90.17403568768854
68 90.14372008882403
69 89.5314742959862
70 89.49132845396015
71 88.88575354919982
72 88.85554075017833
73 88.26883957549886
74 88.24067332703979
75 87.66414872828321
76 87.63821833364675
77 87.07219991980405
78 87.04614390226064
79 86.47639909402105
80 86.45536454187439
81 85.89329799452067
82 85.86254676892483
83 85.30562784790457
84 85.26627424041637
85 84.70522818351853
86 84.65797618932345
87 84.08533139080316
88 84.03159209908029
89 83.4494017783344
90 83.38992535114193
91 82.79561283368193
92 82.72972852939212
93 82.1290692639667
94 82.05543934289625
95 81.45361774194316
96 81.38890340910785
97 80.79940039646453
98 80.72403194625002
99 80.14114220073827
100 80.07777650920292
101 79.51168841760159
102 79.45610030603243
103 78.89808429920605
104 78.86615944359073
105 78.32421346905852
106 78.31403924436077
107 77.78958227301284
108 77.80162186333669
109 77.2950746449267
110 77.31737154417502
111 76.8344400778133
112 76.86959351767841
113 76.40650389762173
114 76.45792644836385
115 76.00607129121583
116 76.08027036140584
117 75.64894313194537
118 75.73361300858839
119 75.31048268445055
120 75.40539509858513
121 74.99742708705024
122 75.10273831777499
123 74.69619578886376
124 74.81937328392814
125 74.42496904998885
126 74.55819270934111
127 74.17457709461833
128 74.31073815189234
129 73.93469990812682
130 74.07451928270007
131 73.70695912187703
132 73.85586478722753
133 73.49101372313943
134 73.6425420885588
135 73.27843465633171
136 73.43992386436912
137 73.08018231870496
138 73.25052270535483
139 72.89556917052943
140 73.06609559067496
141 72.72372927503743
142 72.8942334957818
143 72.54682674647216
144 72.7291136928355
145 72.38421041357904
146 72.57053306261447
147 72.22497800231393
148 72.41042266421542
149 72.07677695208629
150 72.27189257981601
151 71.92936900682095
152 72.12694145009783
153 71.79576345878478
154 71.99392918571424
155 71.66848707669581
156 71.87283331354034
157 71.56128103641576
158 71.76525440262809
159 71.44355638136922
160 71.65172319409155
161 71.3434288500756
162 71.55361732655435
163 71.24236775818366
164 71.45399315805965
165 71.14542248860971
166 71.3613114032845
167 71.05800223710176
168 71.28240692311822
169 70.98671489499979
170 71.21496553748203
171 70.91090114429674
172 71.1472346738109
173 70.85800562117907
174 71.08294440373471
175 70.80054761575022
176 71.03319506660998
177 70.75701439522079
178 70.98654381070148
179 70.71052989818898
180 70.9467325901412
181 70.67301026865206
182 70.91390518846019
183 70.63692670381838
184 70.88540098353434
185 70.61303605180164
186 70.86095832286176
187 70.59521731002047
188 70.8371218967409
189 70.57949468833877
190 70.8243101948438
191 70.56519923069173
192 70.81470223030837
193 70.55051306608974
194 70.8103972189711
195 70.54081742058503
196 70.8048328964159
197 70.53717785636293
198 70.79385095729086
199 70.52482703774706
200 70.78587417119833
201 70.52307702505571
202 70.77922903306153
203 70.52037728934141
204 70.77212552290555
205 70.50769457255724
206 70.76666418528671
207 70.49810989338152
208 70.75878643378701
209 70.49214818477191
210 70.74920502726228
211 70.47305909050222
212 70.7279271032083
213 70.46687095782735
214 70.71472568841213
215 70.4522077545559
216 70.70807476788194
217 70.44130201594015
218 70.69281203530306
219 70.42426117295302
220 70.68094435837301
221 70.41465107146324
222 70.66988938662841
223 70.39684673664208
224 70.65174642259969
225 70.38412369788898
226 70.63366424995226
227 70.37134693982497
228 70.62557163279
229 70.35928381883576
230 70.61549957489842
231 70.34420678036429
232 70.60534867644039
233 70.33759123494823
234 70.58769841036941
235 70.32242149663904
236 70.5715595811149
237 70.30732540294444
238 70.5536820654624
239 70.28403295848653
240 70.53553037124136
241 70.26703748108446
242 70.51656202978052
243 70.24212301176594
244 70.49573090644994
245 70.22245487675318
246 70.48068294519412
247 70.20675857623858
248 70.45647424424855
249 70.19113181505412
250 70.440442415261
251 70.1692226383288
252 70.41958892689105
253 70.15157583032349
254 70.40287556334449
255 70.12747600458827
256 70.38685133161513
257 70.1168988603947
258 70.37121907234197
259 70.09453775610704
260 70.34872968304101
261 70.0809049741743
262 70.33081988032521
263 70.06714949466894
264 70.31123426348644
265 70.04565973278073
266 70.28959417169938
267 70.021197469911
268 70.266154712719
269 69.99999282602917
270 70.24564514254659
271 69.97301488103123
272 70.22353783276064
273 69.96142657862821
274 70.21304050132971
275 69.94151243621722
276 70.18892626214843
277 69.93362794972981
278 70.17369071251174
279 69.90972680546029
280 70.15778058050178
281 69.89368005619276
282 70.14173770301018
283 69.87553185994319
284 70.12192629414271
285 69.85790710629152
286 70.10876388535476
287 69.84602122430967
288 70.09330890836799
289 69.82614609255984
290 70.07603665124302
291 69.81081821378187
292 70.0597945264378
293 69.80060854118373
294 70.04836489096112
295 69.77939481746144
296 70.02808952309354
297 69.7701032895141
298 70.01740507376734
299 69.75234148152549
300 69.99912148796561
301 69.73463006041348
302 69.98540198024138
303 69.71927228734187
304 69.97465047953114
305 69.71197311974828
306 69.96592365200904
307 69.69912302050118
308 69.95233921183524
309 69.69157187050193
310 69.93633622591834
311 69.67334068167317
312 69.92254278977576
313 69.65983551429997
314 69.91112703635098
315 69.64463589159301
316 69.90181283440742
317 69.6385097260322
318 69.89196324901722
319 69.62488486553703
320 69.88749184423311
321 69.63139342179062
322 69.8845094218039
323 69.62976544397027
324 69.88588986147336
325 69.62788643832833
326 69.88040012602535
327 69.62327276626158
328 69.8836042098022
329 69.62809167316334
330 69.88403912215688
331 69.62472362838861
332 69.88545470305978
333 69.63594794917738
334 69.885481498019
335 69.62557215454426
336 69.88399022290939
337 69.63362868738979
338 69.88420972043734
339 69.62346666376665
340 69.87399229886435
341 69.61565203035462
342 69.86625785007385
343 69.60580162358129
344 69.85776639968734
345 69.59766314758384
346 69.84986134344024
347 69.57932249841274
348 69.8337369062089
349 69.57349401725898
350 69.8249064992673
351 69.55987872681844
352 69.80906248808688
353 69.55498277713609
354 69.79671140312362
355 69.53965348041321
356 69.78655963243015
357 69.53238088234829
358 69.77907946354243
359 69.5134827027788
360 69.76794049992505
361 69.50861230823965
362 69.75972615862005
363 69.49077951683383
364 69.73831876539887
365 69.47423586318746
366 69.72355606698784
367 69.4663493885125
368 69.71146760615443
369 69.45435122807343
370 69.70297022777997
371 69.43738714867659
372 69.69521542835277
373 69.43280374237575
374 69.6883878599985
375 69.42929325273556
376 69.68217784174658
377 69.42293754968256
378 69.67809897968534
379 69.41605188987266
380 69.67298570970935
381 69.42139399542792
382 69.67802768991751
383 69.42680730250318
384 69.68805884562892
385 69.43214139613035
386 69.69488119696378
387 69.44469832659155
388 69.70326490660662
389 69.44520786555981
390 69.70912271012067
391 69.4511375894251
392 69.70587073180552
393 69.45363111477204
394 69.7101884056145
395 69.4474037966409
396 69.70978066053281
397 69.45062736172747
398 69.70035103054272
399 69.44003676565528
400 69.6986899392739
401 69.43548316081963
402 69.69708763731566
403 69.43196297316005
404 69.69177520081941
405 69.43020490672045
406 69.6914278320094
407 69.42246726736329
408 69.68843927556887
409 69.42847471235217
410 69.69059080117827
411 69.43182533107485
412 69.6945655962936
413 69.43016077168625
414 69.68519665254212
415 69.42123191354298
416 69.67609341699774
417 69.41396260247396
418 69.66955005648383
419 69.40411333304546
420 69.66302972610846
421 69.39794991755464
422 69.65624711907169
423 69.38356893411063
424 69.64381451926964
425 69.38106437808162
426 69.63478225786518
427 69.37281312037011
428 69.62216679154534
429 69.36515437950304
430 69.6194356191973
431 69.36000236790086
432 69.61277799276854
433 69.35342403335667
434 69.60952948314666
435 69.34382849752551
436 69.60304327621377
437 69.34165812776055
438 69.59459794776326
439 69.33920157452918
440 69.59678171785745
441 69.33570714941733
442 69.59378180207804
443 69.33906955240494
444 69.59499435568762
445 69.33619049774782
446 69.59502796205022
447 69.3361342537671
448 69.59639966128893
449 69.33878768107817
450 69.59460979059834
451 69.33595207284081
452 69.59731782529099
453 69.33249555038317
454 69.5958447386482
455 69.33645672077191
456 69.59427502239403
457 69.33876343059725
458 69.59850065731671
459 69.33515316099853
460 69.59550595808106
461 69.33247912697097
462 69.58850406977768
463 69.3332216896613
464 69.58857570654116
465 69.3332951986867
466 69.58953319284494
467 69.3336238909738
468 69.59069388324603
469 69.33224415619632
470 69.59151202117796
471 69.32984557685739
472 69.59319747265671
473 69.33638040051555
474 69.5893430809555
475 69.33839412986669
476 69.59353965017873
477 69.33933969649438
478 69.60097842922521
479 69.34808930105233
480 69.60897852772386
481 69.34833017328597
482 69.6082163729167
483 69.34800242764828
484 69.60717809816114
485 69.34007694376771
486 69.59381600727939
487 69.33652940716587
488 69.5800633047311
489 69.32145055300646
490 69.57123219809313
491 69.30819859215703
492 69.55983971800131
493 69.29692217086156
494 69.55012290135994
495 69.28468573437367
496 69.54846583804671
497 69.27805744393393
498 69.53606220836024
499 69.27038901394805
500 69.53428622541466
501 69.26931064871793
502 69.52797721135013
503 69.26990921292746
504 69.52885002937467
505 69.26835665964096
506 69.52792794039162
507 69.26156573094381
508 69.52398017676261
509 69.26020207643974
510 69.52116887290283
511 69.25825814831362
512 69.51882396662033
513 69.25548823707493
514 69.51779729006444
515 69.24978069580612
516 69.51426384125712
517 69.25774238784653
518 69.51178593474708
519 69.25616038779336
520 69.51596106405955
521 69.26043162795401
522 69.51980179503136
523 69.25991769424719
524 69.52486438518805
525 69.26905698423244
526 69.52913033117498
527 69.27480881839125
528 69.53868699009034
529 69.27997707394633
530 69.5470039494726
531 69.28579882647729
532 69.55255258247885
533 69.29688934979855
534 69.55242912869545
535 69.29978355330539
536 69.55729735052438
537 69.30415672994013
538 69.55993126624656
539 69.30307718004698
540 69.56350444314249
541 69.30807038913278
542 69.56721398887439
543 69.306774462763
544 69.56794406123828
545 69.31044164906957
546 69.57294386091014
547 69.31480717640062
548 69.57121661331277
549 69.30857649538765
550 69.56814347055514
551 69.30600677922729
552 69.56456607366405
553 69.29955294648931
554 69.55609998098095
555 69.29321060148335
556 69.54866300358023
557 69.28660018006543
558 69.53655234630216
559 69.26969444872748
560 69.52560381028296
561 69.25931915086552
562 69.50666173832454
563 69.25050103044801
564 69.49793618120061
565 69.23675457796561
566 69.48455806449395
567 69.22470171358668
568 69.47774381532481
569 69.22090921046353
570 69.4783846659241
571 69.21356310729192
572 69.47491532405233
573 69.21526776458066
574 69.47380022978321
575 69.21138942875206
576 69.47446532161361
577 69.22350315509843
578 69.48392872707984
579 69.22721664705911
580 69.49436439234765
581 69.24351356677047
582 69.50580539995379
583 69.25219833547226
584 69.51537520165198
585 69.26289545693655
586 69.521097391615
587 69.25816125108554
588 69.5219200990386
589 69.26074234692923
590 69.52354875836005
591 69.26135373595946
592 69.52867276138385
593 69.26896830222073
594 69.52833131248003
595 69.27269966192448
596 69.53358429297086
597 69.27348961216927
598 69.53575122306471
599 69.2736611335169
600 69.54154934721109
601 69.28015588138747
602 69.54056456684293
603 69.27394139979813
604 69.54079023215736
605 69.27802471334448
606 69.53638761790226
607 69.2771430294101
608 69.53645963249082
609 69.27921512079635
610 69.53158764989411
611 69.26349142446837
612 69.52505242461937
613 69.26049005886121
614 69.51437178238329
615 69.24922562766548
616 69.50960420692144
617 69.24699237180781
618 69.49759478825295
619 69.23871606837265
620 69.49758490416401
621 69.23084860609886
622 69.48733993062675
623 69.23090112224139
624 69.48501239531389
625 69.22701326822066
626 69.48330532018066
627 69.22466487195481
628 69.48714609750679
629 69.22774657375706
630 69.4887229190726
631 69.23283064465473
632 69.49729136541175
633 69.23479227851952
634 69.49571785872519
635 69.23849640155875
636 69.50280023189784
637 69.24149228482685
638 69.50031295324226
639 69.24681190624797
640 69.50423798254064
641 69.24782927702267
642 69.4998621693663
643 69.24045878565094
644 69.50161129047714
645 69.2384741999478
646 69.4932863738847
647 69.23350968320648
648 69.49271486533739
649 69.22712430302315
650 69.48782932080846
651 69.22688479195591
652 69.49030450824792
653 69.23587593641038
654 69.48739970304158
655 69.23428282369531
656 69.49243321850237
657 69.2369104146197
658 69.49187562972965
659 69.23319678810202
660 69.49336522229193
661 69.22952355268927
662 69.49147460990902
663 69.23254733718746
664 69.4911106351875
665 69.23441908685987
666 69.48810532640567
667 69.23452496353046
668 69.49197753114224
669 69.23572724635943
670 69.49273459172252
671 69.24339394853139
672 69.50373945589989
673 69.253063634049
674 69.50689883554389
675 69.25035664721051
676 69.51119452831719
677 69.25602445144042
678 69.51465291455037
679 69.25729988624991
680 69.51969332312511
681 69.25821648080048
682 69.5170862583945
683 69.25503827896925
684 69.51703379676546
685 69.25627042029208
686 69.51158287369945
687 69.2546522162918
688 69.51643312614628
689 69.25193454911911
690 69.5074343742522
691 69.24320173872287
692 69.49920041947027
693 69.23402944346437
694 69.48994527577801
695 69.22508531658082
696 69.48135358002668
697 69.22287229142432
698 69.4699029927538
699 69.20717590347851
700 69.46686101106097
701 69.2046364842699
702 69.45645332718986
703 69.20302814280348
704 69.46386527965605
705 69.20764269453502
706 69.46356307962361
707 69.20346275454308
708 69.46529739397742
709 69.20492772480091
710 69.46355089151128
711 69.20913366044547
712 69.47218663391222
713 69.22030887551702
714 69.47747113570762
715 69.22405144560746
716 69.49157432243214
717 69.23460781228435
718 69.49491868977775
719 69.23805081400087
720 69.50328134488295
721 69.24871226982383
722 69.50711165748814
723 69.24801555353342
724 69.50781170728278
725 69.24600050701041
726 69.50853273398737
727 69.2559242885938
728 69.51451455548046
729 69.25984261847033
730 69.51220935944683
731 69.25972386210947
732 69.51569358604921
733 69.256865980954
734 69.51278481871817
735 69.25594284213378
736 69.51405143430628
737 69.25351196918066
738 69.51235498995578
739 69.25187079742309
740 69.50901862421094
741 69.25595003018262
742 69.50655401206707
743 69.25354924230284
744 69.50500998645796
745 69.24877468553585
746 69.49691519586212
747 69.23403847324374
748 69.48951834376879
749 69.22727527248935
750 69.47851723766713
751 69.2164480105844
752 69.46794065506384
753 69.20706822602001
754 69.45990662199164
755 69.20302856712559
756 69.46217357364469
757 69.20264614605327
758 69.45775744433814
759 69.20555263561641
760 69.46475864840471
761 69.20756042617863
762 69.46500404111633
763 69.20905501342351
764 69.47099959498465
765 69.21152909383518
766 69.4686816621069
767 69.22120935312813
768 69.48437223391772
769 69.22990299152471
770 69.48970084786401
771 69.23426913601448
772 69.49922338934005
773 69.24593557595618
774 69.50113103788409
775 69.24773946743962
776 69.50610583321037
777 69.24871335437675
778 69.50086094851626
779 69.24524584853226
780 69.50027605377562
781 69.24075369603271
782 69.50115890554316
783 69.24021404134854
784 69.50366166801814
785 69.24256596897324
786 69.50109952258465
787 69.24155309666617
788 69.50310777308256
789 69.24447749028887
790 69.50106250753765
791 69.24589642512703
792 69.50332327905916
793 69.24116329912536
794 69.49996781065934
795 69.23976926617648
796 69.50025359429189
797 69.23745571447195
798 69.49081428850441
799 69.23119646706047
800 69.49101127984703
801 69.23441146874231
802 69.48864512691725
803 69.23702424009487
804 69.48782620359086
805 69.23114262949693
806 69.48375404580828
807 69.23023429354517
808 69.48444980830695
809 69.22621119512067
810 69.47491325126973
811 69.21300939862402
812 69.46884661621584
813 69.21290332176596
814 69.46774371887943
815 69.21222507814834
816 69.46541259328983
817 69.21003451700443
818 69.46308006275211
819 69.20835161640349
820 69.46360078979029
821 69.2115277917397
822 69.46205816989911
823 69.20462632496606
824 69.46697461365613
825 69.21068928956834
826 69.4735561845295
827 69.21433021708377
828 69.48062148939613
829 69.21956945218963
830 69.48380058351972
831 69.22284646843673
832 69.48715779347542
833 69.23393985128288
834 69.48840417916927
835 69.22783489038743
836 69.49013285645961
837 69.23488454494749
838 69.48865998388423
839 69.23159865729077
840 69.49306352392328
841 69.23197813658059
842 69.48931646310972
843 69.23036119810483
844 69.48809652043663
845 69.23002056322063
846 69.48573003922668
847 69.23380128961281
848 69.48894020751538
849 69.23857664000703
850 69.49528170891973
851 69.24017447999587
852 69.49768380931603
853 69.2443880931645
854 69.50193984140139
855 69.24965036353063
856 69.50633254250326
857 69.25689286569114
858 69.51329076422529
859 69.25129717001916
860 69.51473736806514
861 69.25782602133229
862 69.51453610633851
863 69.25929355123624
864 69.51194742523349
865 69.25993627501863
866 69.50867813347175
867 69.25229193872499
868 69.49942349586262
869 69.24310337802093
870 69.49450802526698
871 69.22853455222777
872 69.48202263061103
873 69.22030056114286
874 69.4726267392614
875 69.20699461264199
876 69.46341411342559
877 69.20528714360997
878 69.45430218327343
879 69.19496392985776
880 69.45138720715222
881 69.19387203960477
882 69.44568344544936
883 69.18717234573508
884 69.44464585852373
885 69.1862692050388
886 69.43881991848544
887 69.17986671780777
888 69.4380196503772
889 69.18396960522854
890 69.44394276651146
891 69.18538958047071
892 69.45111435260192
893 69.1996614012634
894 69.46057787903656
895 69.20970527043224
896 69.46889520566137
897 69.21964263562772
898 69.47871167447151
899 69.2222634123567
900 69.48717829375309
901 69.23604108595671
902 69.4976550841417
903 69.24519577081701
904 69.5059210718388
905 69.25040164836156
906 69.51036367100353
907 69.25795547033681
908 69.51556396053421
909 69.26703407303066
910 69.52278659581694
911 69.2692192802234
912 69.53252798721591
913 69.27150669044838
914 69.52992256844554
915 69.26939978102052
916 69.5260676876465
917 69.25615769969419
918 69.51245199092483
919 69.25013430667637
920 69.51225573433787
921 69.24885989446551
922 69.5072829573261
923 69.24222886894067
924 69.5001010156535
925 69.2449054136568
926 69.49760684087146
927 69.24406694039307
928 69.50024481168992
929 69.23491196398804
930 69.49568116939707
931 69.22760474459166
932 69.4898227910698
933 69.22098097693465
934 69.48091788014662
935 69.21154998961609
936 69.47514173156569
937 69.21625362074695
938 69.46991936717797
939 69.20686291975386
940 69.46536019625145
941 69.20744555336252
942 69.45983195152495
943 69.20126602964389
944 69.45796605638166
945 69.19828488593984
946 69.45617475649617
947 69.19478243338907
948 69.44975631549119
949 69.19282853502862
950 69.44768991666551
951 69.19258963168267
952 69.44984951114222
953 69.20255377892586
954 69.4555083917792
955 69.20340623109564
956 69.46646225574992
957 69.21352628604862
958 69.47014429360472
959 69.21510649925271
960 69.4705359247895
961 69.21948969013886
962 69.47244827226672
963 69.21970477791008
964 69.47708563265563
965 69.2242198088566
966 69.48338234571038
967 69.23172420889928
968 69.48972112870366
969 69.23301551540143
970 69.48659709005346
971 69.22996985637947
972 69.49213899296657
973 69.23679145792114
974 69.49357074440871
975 69.23240144680393
976 69.49583324755227
977 69.23688650057701
978 69.49528926666649
979 69.23607636367365
980 69.50189046082005
981 69.23954016620694
982 69.50081382779371
983 69.25006971731359
984 69.50577247996083
985 69.24984639360456
986 69.4996242958394
987 69.24042050606691
988 69.50311362384198
989 69.24400511675567
990 69.50455454501498
991 69.25176305503783
992 69.50950773413157
993 69.24761509187897
994 69.50643960335456
995 69.24772280317893
996 69.50992912466647
997 69.25233587190174
998 69.50238042796472
999 69.25015102861201
1000 69.50769570320529
1001 69.24977394266756
1002 69.50446496191357
1003 69.2426879553301
1004 69.50134161823595
1005 69.23765008587728
1006 69.49232472800752
1007 69.23111137338503
1008 69.49041437192012
1009 69.22066027805361
1010 69.47433879357214
1011 69.20600940811683
1012 69.46943210097096
1013 69.20470687446173
1014 69.45447868967798
1015 69.1915041269896
1016 69.447582854535
1017 69.19108206729022
1018 69.44454183155028
1019 69.1828092433605
1020 69.44102742208065
1021 69.17847850133424
1022 69.43987127033822
1023 69.18059101032595
1024 69.44593320911048
1025 69.18673430370447
1026 69.44790669082352
1027 69.1890472699301
1028 69.44991907570918
1029 69.19528957703051
1030 69.45308690283329
1031 69.20130109058404
1032 69.46729478374752
1033 69.20664795989548
1034 69.47472537818585
1035 69.21239710300254
1036 69.48707569865985
1037 69.22912954707272
1038 69.49003173785827
1039 69.23401083390453
1040 69.49929876123089
1041 69.24695322416166
1042 69.50384651863685
1043 69.24910755154343
1044 69.51174035408835
1045 69.2507109615993
1046 69.50958338109281
1047 69.25397315478114
1048 69.51767756898705
1049 69.25954043826063
1050 69.51342900630543
1051 69.25574696548294
1052 69.52058863649799
1053 69.26254665899152
1054 69.51777122936974
1055 69.26083899352895
1056 69.52119780461611
1057 69.26530200774344
1058 69.51527839432218
1059 69.2588813613594
1060 69.51226553821016
1061 69.25188312392176
1062 69.50042577203244
1063 69.24629275853351
1064 69.49670190233236
1065 69.23375780044049
1066 69.48049154310878
1067 69.22021364588775
1068 69.477645300478
1069 69.2151860149669
1070 69.47048670459202
1071 69.21243659238027
1072 69.47036945316671
1073 69.20885970742385
1074 69.45679758738892
1075 69.2046429196096
1076 69.4584361999853
1077 69.19880708817449
1078 69.45565836220736
1079 69.20178065454537
1080 69.46161432960899
1081 69.19675918115695
1082 69.45632022892718
1083 69.19262962638605
1084 69.45381080922728
1085 69.19362218444464
1086 69.45368823540186
1087 69.20577439213858
1088 69.46215803736968
1089 69.20404496794399
1090 69.45971534281857
1091 69.20150662625124
1092 69.46212277121231
1093 69.20275789357196
1094 69.46727690047106
1095 69.20545152964542
1096 69.46291579968837
1097 69.20184502911418
1098 69.4585284715822
1099 69.20050220818678
1100 69.46534657351202
1101 69.20557061119327
1102 69.4681266930742
1103 69.21351580456377
1104 69.47522961248015
1105 69.21950916263523
1106 69.47730861640045
1107 69.22248844523133
1108 69.48749334392005
1109 69.230360726398
1110 69.49097699759952
1111 69.23432861458353
1112 69.50119691946122
1113 69.24182920124352
1114 69.50216723080972
1115 69.24101232235319
1116 69.50705118826437
1117 69.24945903633098
1118 69.50488271403007
1119 69.2529090145091
1120 69.51762860472056
1121 69.25755751386764
1122 69.51192153930661
1123 69.25458817607216
1124 69.51480063731975
1125 69.25515416596598
1126 69.5089691970138
1127 69.2533374005373
1128 69.51481153665566
1129 69.25653249507856
1130 69.5082400657178
1131 69.25452564292151
1132 69.51608058635182
1133 69.26293197285763
1134 69.50897503502409
1135 69.25269951403538
1136 69.50693401273649
1137 69.24875740670028
1138 69.49428571516917
1139 69.23659630215263
1140 69.49283334090211
1141 69.23091191720466
1142 69.47678746058747
1143 69.21567369528427
1144 69.46875552236718
1145 69.20271954044574
1146 69.45665790835724
1147 69.192323989408
1148 69.44346358177096
1149 69.18528954457122
1150 69.43478295346814
1151 69.17675778775252
1152 69.42903760108543
1153 69.17575215377536
1154 69.4278196899142
1155 69.1718543930677
1156 69.43215545653803
1157 69.18024798575561
1158 69.43467970689744
1159 69.17776764939033
1160 69.44086052178021
1161 69.18603527172797
1162 69.4466649860791
1163 69.1929755138669
1164 69.44971146955294
1165 69.20035555591186
1166 69.45813628758516
1167 69.21005002785182
1168 69.47540671716899
1169 69.2222876231402
1170 69.48410216970993
1171 69.23051084680588
1172 69.49753440337042
1173 69.23868441179083
1174 69.5064850444402
1175 69.24921067691443
1176 69.51609322549821
1177 69.26488988518129
1178 69.52334411771619
1179 69.27070729020815
1180 69.53332361399222
1181 69.27641008055977
1182 69.53603627625051
1183 69.27359095776792
1184 69.53913389751015
1185 69.27437292650635
1186 69.53439910108614
1187 69.26648262398986
1188 69.52664005740223
1189 69.26289178906592
1190 69.51990193396078
1191 69.25761542753932
1192 69.51852856366325
1193 69.26057605407051
1194 69.51152930687884
1195 69.25055103567101
1196 69.50923553355145
1197 69.23993973917501
1198 69.49199896291422
1199 69.22913881802697
1200 69.48340981184086
1201 69.21910448759184
1202 69.46588048949214
1203 69.20444216761851
1204 69.45555666711908
1205 69.18982383397885
1206 69.44282249041646
1207 69.18219481387187
1208 69.43906455757011
1209 69.17852121215236
1210 69.43042482957527
1211 69.179202853799
1212 69.43394616761265
1213 69.18004790871065
1214 69.43489986324521
1215 69.17537535601829
1216 69.44061829941367
1217 69.18515987663851
1218 69.44805006194893
1219 69.1866062174428
1220 69.45286259211248
1221 69.19706032974408
1222 69.46246224522291
1223 69.20800947719903
1224 69.46799677782687
1225 69.21756735832062
1226 69.47726785410042
1227 69.2224406427739
1228 69.48429981977239
1229 69.22877438685769
1230 69.49115739017024
1231 69.22629658706521
1232 69.49339810087029
1233 69.2326487089471
1234 69.49222053465444
1235 69.22804458808501
1236 69.48440052778929
1237 69.22709412832208
1238 69.4793119009953
1239 69.22970717851034
1240 69.48759076744101
1241 69.23491335265545
1242 69.49540515562464
1243 69.23521455893295
1244 69.49773610677299
1245 69.24170980456601
1246 69.49922282205485
1247 69.24682575324155
1248 69.50302900669716
1249 69.24690159355097
1250 69.50325529007415
1251 69.24576923703061
1252 69.50578723150375
1253 69.25062155035188
1254 69.5003715597629
1255 69.24608527036108
1256 69.50250363221973
1257 69.25071702886586
1258 69.50168865710428
1259 69.24287677661192
1260 69.50128661198815
1261 69.24153426886905
1262 69.50035440118504
1263 69.24366961765733
1264 69.50062031682238
1265 69.23930360794606
1266 69.4929500134426
1267 69.23467062218353
1268 69.48860586203574
1269 69.23353733914809
1270 69.48416426178844
1271 69.22406441830124
1272 69.48300932162586
1273 69.22504223713386
1274 69.48118411332445
1275 69.22120609613609
1276 69.4740314484979
1277 69.21303016401457
1278 69.46715019774499
1279 69.20792623260621
1280 69.46864006422835
1281 69.2067374264811
1282 69.46427937074868
1283 69.20560752340967
1284 69.45708279783921
1285 69.20055951781252
1286 69.45303989448173
1287 69.19766053606104
1288 69.45309900907915
1289 69.19978186629454
1290 69.45194909566884
1291 69.19586155816756
1292 69.44797141715523
1293 69.18873443709349
1294 69.44718394343577
1295 69.19002410186954
1296 69.45167238971075
1297 69.20675039041485
1298 69.4625146009686
1299 69.2131088243398
1300 69.47523360336064
1301 69.22410582417116
1302 69.48174530982142
1303 69.22979897744749
1304 69.49046800185516
1305 69.23473319248208
1306 69.49649210863073
1307 69.23756662561379
1308 69.50069686253791
1309 69.24691439703166
1310 69.50508796022159
1311 69.25091810307065
1312 69.51083383806275
1313 69.26606073976683
1314 69.51444500139542
1315 69.26543061329305
1316 69.52454439687531
1317 69.27021745538686
1318 69.52658378124511
1319 69.26778881318504
1320 69.52455331664413
1321 69.26574329254035
1322 69.51690989654769
1323 69.25937452639704
1324 69.50991666945585
1325 69.24673656575558
1326 69.49697850719222
1327 69.23852144278362
1328 69.4886466043482
1329 69.22871310850982
1330 69.4787715358264
1331 69.21672193607554
1332 69.46559355867616
1333 69.20716834618486
1334 69.45887729740218
1335 69.20126456308297
1336 69.45172732606622
1337 69.19283904929326
1338 69.44304514410523
1339 69.18430562768945
1340 69.44349877776246
1341 69.18458091479863
1342 69.44437485449336
1343 69.19016171721326
1344 69.44859090079383
1345 69.19709656927245
1346 69.45101646323754
1347 69.19833557100637
1348 69.45383496977246
1349 69.19982492340581
1350 69.45849773519411
1351 69.20044350663882
1352 69.46532542937744
1353 69.20756960239157
1354 69.46331295513978
1355 69.20654131025799
1356 69.46851547740421
1357 69.21885455534579
1358 69.4756310626547
1359 69.22200116699526
1360 69.48496037651735
1361 69.2310296654514
1362 69.49148510804974
1363 69.23508187565365
1364 69.49695638817001
1365 69.24318449494554
1366 69.50089438651533
1367 69.23980013428745
1368 69.50207967155001
1369 69.24629694294896
1370 69.50595031099645
1371 69.24780726035478
1372 69.50193637425372
1373 69.24669435647318
1374 69.50048149600264
1375 69.24129160468409
1376 69.50068829757429
1377 69.23887087694756
1378 69.49794792690679
1379 69.23941091194918
1380 69.49696210285384
1381 69.23394304136598
1382 69.49045722632189
1383 69.23237995823264
1384 69.4872685278513
1385 69.23199674075298
1386 69.48280761173784
1387 69.23383977648588
1388 69.48378290026136
1389 69.23047522087788
1390 69.48221787571039
1391 69.22792425098334
1392 69.48137693805685
1393 69.22516232443147
1394 69.47828134584996
1395 69.21565101558039
1396 69.47352259842262
1397 69.21550833529862
1398 69.47089678127968
1399 69.21341989664165
1400 69.4675675881337
1401 69.21148951814311
1402 69.46529438586329
1403 69.214268915682
1404 69.46691687313371
1405 69.21679482742479
1406 69.4712368398865
1407 69.21392969019138
1408 69.4743723667316
1409 69.22226601977006
1410 69.47764368748436
1411 69.21838748593503
1412 69.47509703667782
1413 69.21385590886763
1414 69.47656886001468
1415 69.21601013578228
1416 69.47720115361129
1417 69.22272679198308
1418 69.47538489649958
1419 69.22149877429887
1420 69.47625467474472
1421 69.22048130449771
1422 69.47424510991053
1423 69.21591389799032
1424 69.47513418471557
1425 69.21673860198464
1426 69.46978367186124
1427 69.20944159470362
1428 69.46468803425738
1429 69.20837143926622
1430 69.46916810974919
1431 69.21093799978726
1432 69.47229096111343
1433 69.21701603314246
1434 69.46940979690407
1435 69.21000869202466
1436 69.47385397123554
1437 69.21451249930696
1438 69.47651513364031
1439 69.2172016002241
1440 69.47791468048145
1441 69.22385446453001
1442 69.48755566717105
1443 69.22860646915557
1444 69.49195960939038
1445 69.23406688014677
1446 69.49818767982603
1447 69.23627432128471
1448 69.49965528575629
1449 69.24481534346722
1450 69.50244038847238
1451 69.24180423835243
1452 69.49804853826272
1453 69.24173664462539
1454 69.50283359924526
1455 69.24452846321374
1456 69.50390883304793
1457 69.2509242284312
1458 69.50828777347397
1459 69.24213058000521
1460 69.50220058308733
1461 69.24316123007198
1462 69.5032105063099
1463 69.24689735054856
1464 69.49553878597848
1465 69.24270075940731
1466 69.49059327030147
1467 69.23219373691289
1468 69.47915869423822
1469 69.2181637529838
1470 69.46819361689897
1471 69.20088136890433
1472 69.45953667140779
1473 69.19878396452086
1474 69.45279190201067
1475 69.19184913937212
1476 69.44752228678685
1477 69.19667980568325
1478 69.44735330411572
1479 69.19597020743244
1480 69.45151607605392
1481 69.20061586017479
1482 69.45826718101191
1483 69.19497843948002
1484 69.45891896246633
1485 69.19951456215325
1486 69.45882308807359
1487 69.20161961599537
1488 69.46355023157163
1489 69.20775976315572
1490 69.46982861452328
1491 69.21403635260845
1492 69.47762151319979
1493 69.22464592971531
1494 69.48575109629893
1495 69.23266677185771
1496 69.4909099086946
1497 69.24036828643153
1498 69.49440445006574
1499 69.23386752198955
1500 69.49502690461388
1501 69.23551596134281
1502 69.49559877619964
1503 69.2354533493105
1504 69.49842530756612
1505 69.2367752210715
1506 69.49765113995139
1507 69.23897605685208
1508 69.49696970260941
1509 69.24021345008143
1510 69.49356100202687
1511 69.23496902841484
1512 69.4946737116117
1513 69.23405993051256
1514 69.49101066232009
1515 69.22907998632191
1516 69.49006580473565
1517 69.22861562973905
1518 69.48822911416913
1519 69.22949224567702
1520 69.49122185118658
1521 69.23486073019512
1522 69.48841748019429
1523 69.22994280087762
1524 69.48732681849617
1525 69.22370459467673
1526 69.47940056061937
1527 69.21913165652218
1528 69.47461896529757
1529 69.21564861314832
1530 69.47564052666606
1531 69.21550646772495
1532 69.47551806701165
1533 69.21399158841567
1534 69.47474705448627
1535 69.2129110611473
1536 69.47271929923201
1537 69.22389226276184
1538 69.47733248273553
1539 69.21833830382428
1540 69.47498981102525
1541 69.2181400617131
1542 69.47472664841816
1543 69.21832830249471
1544 69.47653518638595
1545 69.2214305135778
1546 69.47991190181484
1547 69.21692883943751
1548 69.47569658437428
1549 69.21679783055014
1550 69.47477800614853
1551 69.21890787289063
1552 69.47527796476817
1553 69.22131205956211
1554 69.47323093308808
1555 69.2166817856027
1556 69.47124341184859
1557 69.21329918015246
1558 69.45641792210994
1559 69.20195795163053
1560 69.45487311008675
1561 69.19708517286247
1562 69.45315676999461
1563 69.19708735494791
1564 69.45703553116537
1565 69.20001771449884
1566 69.45983785889257
1567 69.20547822623735
1568 69.46685701333816
1569 69.21796940810786
1570 69.47510041619324
1571 69.22204915980831
1572 69.48104579970091
1573 69.22989666807972
1574 69.48658188892603
1575 69.23103097470155
1576 69.48882389268181
1577 69.23697460866846
1578 69.49451358027443
1579 69.23671772487836
1580 69.50036641482276
1581 69.24561663930761
1582 69.50642436077003
1583 69.25028302129948
1584 69.50668553021724
1585 69.25854530535975
1586 69.51097193327243
1587 69.25542279231466
1588 69.51096705948862
1589 69.25146392896919
1590 69.51206431008684
1591 69.25167940037841
1592 69.51357599101208
1593 69.25341861188033
1594 69.50840157584265
1595 69.24188575217801
1596 69.49701999445129
1597 69.23892649785132
1598 69.48963407192214
1599 69.22924951296503
1600 69.48483640374407
1601 69.22510644885689
1602 69.480229573209
1603 69.21533939125563
1604 69.46760178811884
1605 69.20783078591693
1606 69.45903719934851
1607 69.19492220593375
1608 69.45041736274118
1609 69.19499131576282
1610 69.44829965668417
1611 69.18553021213664
1612 69.44709337952978
1613 69.18820646415858
1614 69.442234167856
1615 69.18720114180465
1616 69.4431939098189
1617 69.1951821497112
1618 69.44924209406543
1619 69.1942265438815
1620 69.45872579655588
1621 69.20175935166051
1622 69.46121797731585
1623 69.21061738469849
1624 69.47811337922239
1625 69.22291003984144
1626 69.48781093271475
1627 69.23119120637372
1628 69.4873853360605
1629 69.23625545029951
1630 69.49851054801941
1631 69.24218578227048
1632 69.50717662641922
1633 69.25354673700754
1634 69.51019133788543
1635 69.25066146851033
1636 69.51112578784412
1637 69.24764237681427
1638 69.50913778774097
1639 69.24823272757791
1640 69.50967735725528
1641 69.25026259273956
1642 69.50638916179579
1643 69.25035830776204
1644 69.50151500609536
1645 69.24373488142452
1646 69.49096266451045
1647 69.23177408961196
1648 69.48559989804889
1649 69.22548895627273
1650 69.47839945232239
1651 69.21406393781876
1652 69.46453922393215
1653 69.21298524957832
1654 69.46381357897644
1655 69.21324496300626
1656 69.46438178774061
1657 69.21643106525342
1658 69.4682616438994
1659 69.21452130557196
1660 69.47089916331399
1661 69.21850479517279
1662 69.4748723661267
1663 69.21618859978251
1664 69.47476225583651
1665 69.22138947151144
1666 69.47502235276721
1667 69.2213144318017
1668 69.47880521349191
1669 69.21796743680711
1670 69.48235468425004
1671 69.2259427666589
1672 69.48726648005149
1673 69.23376830495422
1674 69.48399646652648
1675 69.22807528213251
1676 69.48716287187474
1677 69.22921320183701
1678 69.48294218560946
1679 69.219927905105
1680 69.48004678716822
1681 69.218418070052
1682 69.47868691137222
1683 69.22186757538302
1684 69.48005098148552
1685 69.22009889685796
1686 69.47662576348147
1687 69.22091711389518
1688 69.47974965430942
1689 69.22555966199261
1690 69.48010189005193
1691 69.22159897865411
1692 69.47877155160108
1693 69.22090933470938
1694 69.48206561152884
1695 69.21642072444358
1696 69.4838860316313
1697 69.22037706989555
1698 69.47677233692623
1699 69.21188974322301
1700 69.47592311181373
1701 69.21230686795649
1702 69.46954844379013
1703 69.21021351219018
1704 69.46940641146554
1705 69.20775888778556
1706 69.4685760627646
1707 69.20745222960433
1708 69.47334665124563
1709 69.21251627553798
1710 69.47039311858029
1711 69.21026598567269
1712 69.47956933072837
1713 69.22211641339563
1714 69.48200443050094
1715 69.22399691337807
1716 69.48752842162374
1717 69.23248717080448
1718 69.49097697424233
1719 69.23843518486636
1720 69.49809407604873
1721 69.24427767036306
1722 69.49589024827529
1723 69.24204239437911
1724 69.49991767934662
1725 69.24212334447485
1726 69.49579144634436
1727 69.23862296140152
1728 69.49906651565182
1729 69.24198305738369
1730 69.49271866452412
1731 69.23348262961179
1732 69.48850120694365
1733 69.22909197532645
1734 69.47502960747561
1735 69.22004452720294
1736 69.47472364790013
1737 69.22093607317234
1738 69.46922318207561
1739 69.20450854652135
1740 69.46333718592297
1741 69.20466851706551
1742 69.45822433397358
1743 69.19433900183083
1744 69.45497013091551
1745 69.20002328460365
1746 69.45762975806284
1747 69.20435819785354
1748 69.45690029610931
1749 69.20604130782391
1750 69.45434426904944
1751 69.19370250310348
1752 69.45391159831442
1753 69.20255272995119
1754 69.45671104236945
1755 69.20369963341977
1756 69.46693303336336
1757 69.20632421412283
1758 69.47091341859263
1759 69.21616226952708
1760 69.48173421958423
1761 69.22659548035281
1762 69.48544141837959
1763 69.23873849960731
1764 69.4924751796207
1765 69.2413155875731
1766 69.50260722457476
1767 69.24378912737834
1768 69.50740749643353
1769 69.24916015421229
1770 69.51127647642983
1771 69.25586145483665
1772 69.51651307169523
1773 69.25647120123986
1774 69.51642477941459
1775 69.26040169114727
1776 69.5190969300251
1777 69.26529261723921
1778 69.51776301700242
1779 69.2534415261543
1780 69.50728873311407
1781 69.24984426261015
1782 69.50300978128456
1783 69.23514494508771
1784 69.49202227680694
1785 69.2289432190415
1786 69.48271576446328
1787 69.22141153632718
1788 69.47956585322824
1789 69.21755983435008
1790 69.47387251315803
1791 69.20615631259153
1792 69.46799095021706
1793 69.20847907763381
1794 69.46122415141438
1795 69.20044470323067
1796 69.45420862007838
1797 69.19145569091614
1798 69.44617890969199
1799 69.19065606039879
1800 69.44889873058523
1801 69.1909755488437
1802 69.44922800978765
1803 69.18433136693801
1804 69.45133574979522
1805 69.18753624641778
1806 69.44495615235871
1807 69.19470052861567
1808 69.44806756423135
1809 69.19172501679788
1810 69.44661813016521
1811 69.19646885543106
1812 69.45478775233889
1813 69.19849399892072
1814 69.45877209649504
1815 69.21046716702607
1816 69.47928091879007
1817 69.22397259065245
1818 69.48106027164818
1819 69.22528085484072
1820 69.4900728934895
1821 69.23377789725501
1822 69.48794612567981
1823 69.23867087429761
1824 69.49266250933441
1825 69.24304841940152
1826 69.49863374863531
1827 69.24027570337989
1828 69.50046915244133
1829 69.24445658160083
1830 69.50070553704128
1831 69.24111352821592
1832 69.50062740326447
1833 69.24446422207691
1834 69.49607112321623
1835 69.24362772216422
1836 69.49675048930717
1837 69.24097487547006
1838 69.48780696167141
1839 69.23897032616749
1840 69.49149306432888
1841 69.23563642361201
1842 69.49204746814917
1843 69.23899082643426
1844 69.50081329213995
1845 69.24380991094883
1846 69.49529906654298
1847 69.24417139478318
1848 69.49890587361017
1849 69.23965609336389
1850 69.49735529184009
1851 69.2439399224231
1852 69.5016112784231
1853 69.2424679054689
1854 69.49389913497774
1855 69.23684513452581
1856 69.49704490363453
1857 69.23577125486359
1858 69.48880080075814
1859 69.23197603837635
1860 69.49032125154048
1861 69.22721003101212
1862 69.48746653952904
1863 69.22509471226033
1864 69.48360544161977
1865 69.21884093473273
1866 69.47383945367562
1867 69.21495208498871
1868 69.46931809038847
1869 69.20743128474881
1870 69.45876600412167
1871 69.19561991701291
1872 69.4579731398715
1873 69.18671143702102
1874 69.44808977810412
1875 69.1817014345222
1876 69.4454266688701
1877 69.18205650366967
1878 69.44115275994905
1879 69.175277674887
1880 69.44378036305939
1881 69.18319461545936
1882 69.44729123446143
1883 69.19469174803534
1884 69.46010937596382
1885 69.20471893155252
1886 69.45911568154021
1887 69.20777009406979
1888 69.46636644152167
1889 69.21064214109575
1890 69.47244616780206
1891 69.21599403412527
1892 69.48312750645323
1893 69.21918711619581
1894 69.48634256697899
1895 69.22701121457709
1896 69.49463987529954
1897 69.23932605831921
1898 69.49644813622066
1899 69.24195975052865
1900 69.50393540408604
1901 69.24580625919965
1902 69.50557190998261
1903 69.25383465200582
1904 69.51761638248949
1905 69.25782452705353
1906 69.51785796383076
1907 69.25563136268103
1908 69.51412899365144
1909 69.25395104587081
1910 69.51266655561844
1911 69.25848110415643
1912 69.51362343431155
1913 69.25987128030553
1914 69.50670053927055
1915 69.2529025652515
1916 69.50712546210039
1917 69.24469505143782
1918 69.49590440531674
1919 69.2340041718949
1920 69.48714883330332
1921 69.22567617503776
1922 69.47341038331517
1923 69.2179158990682
1924 69.46729259537263
1925 69.20775225176547
1926 69.45883875678685
1927 69.20300237940957
1928 69.4582939279089
1929 69.20183601436057
1930 69.45485588438204
1931 69.20190852134465
1932 69.45491320271488
1933 69.19829100876781
1934 69.44581640982474
1935 69.19384016327986
1936 69.44905317431908
1937 69.19156652318826
1938 69.44634831092995
1939 69.19475062781983
1940 69.45614733052949
1941 69.19661006703103
1942 69.45895497106073
1943 69.20779703566328
1944 69.47171628641345
1945 69.21890157538327
1946 69.47368461277385
1947 69.21926730712407
1948 69.48064241137094
1949 69.21563735625767
1950 69.47871832991085
1951 69.22074768685529
1952 69.48469768771525
1953 69.2247134844545
1954 69.48397757816113
1955 69.22519157872287
1956 69.48908160376736
1957 69.23635627851719
1958 69.4886542647135
1959 69.23609027655345
1960 69.49428226579714
1961 69.23519760818624
1962 69.49237932909877
1963 69.23231703448928
1964 69.49024071622081
1965 69.2271855724167
1966 69.48763989680528
1967 69.2258082185859
1968 69.49358952881934
1969 69.23155218583393
1970 69.49246807202853
1971 69.22698873402767
1972 69.49276576656872
1973 69.23361386101593
1974 69.48968538784867
1975 69.23170939074284
1976 69.4919077398187
1977 69.23063026701513
1978 69.48569403176317
1979 69.22733488436312
1980 69.48827893549377
1981 69.22969426345243
1982 69.49183978826335
1983 69.22966258283176
1984 69.49617043686082
1985 69.23457187851469
1986 69.49661128662487
1987 69.23839411580583
1988 69.49912175526039
1989 69.24285176159226
1990 69.49718063519471
1991 69.2408256132493
1992 69.50246292839081
1993 69.24109322590479
1994 69.49833291669896
1995 69.23483173986439
1996 69.49321196393572
1997 69.22984053090701
1998 69.48781861519818
1999 69.22626712810779
2000 69.48236160730592
2001 69.22423073168416
2002 69.47322617548258
2003 69.21492483025247
2004 69.46439112120652
2005 69.20030289741756
2006 69.45225525564841
2007 69.19080517971662
2008 69.44742038244371
2009 69.189238558303
2010 69.43900446046831
2011 69.18018792223405
2012 69.43292370357993
2013 69.17980021580239
2014 69.4316941714181
2015 69.18119029018455
2016 69.44383539675469
2017 69.18972558703216
2018 69.44612400737385
2019 69.1921265205134
2020 69.45424832022996
2021 69.19676028533353
2022 69.45315335112039
2023 69.20019265284735
2024 69.4659407221916
2025 69.22043714933386
2026 69.47555175844074
2027 69.22346962834811
2028 69.48766611774957
2029 69.23033669513721
2030 69.49508330728999
2031 69.24302205764562
2032 69.50659820367761
2033 69.25593893323864
2034 69.50764716827342
2035 69.25233748538386
2036 69.511101234216
2037 69.25335107492306
2038 69.51383090012445
2039 69.25477354790149
2040 69.51784603890987
2041 69.26535280007043
2042 69.52199724060279
2043 69.26339016804505
2044 69.5248890342328
2045 69.26108117197842
2046 69.51832470612031
2047 69.26351092951717
2048 69.52159613076196
2049 69.26773742002371
2050 69.51774834259913
2051 69.2555804898374
2052 69.50777382604768
2053 69.24738923882185
2054 69.50001587670037
2055 69.24045381507928
2056 69.49815009173508
2057 69.23514716026017
2058 69.48569561126331
2059 69.21899608182318
2060 69.47217464191783
2061 69.20573993491472
2062 69.45606743154927
2063 69.19244245010748
2064 69.43853929344179
2065 69.18317397582501
2066 69.4299443429075
2067 69.17614727721653
2068 69.4301183727036
2069 69.16821414610179
2070 69.42921399292993
2071 69.17287333149891
2072 69.43674177927288
2073 69.17902743803644
2074 69.44330757663896
2075 69.18669862899699
2076 69.45024663192127
2077 69.19433289896968
2078 69.45167447375609
2079 69.20535392270905
2080 69.46831730419514
2081 69.21465112789789
2082 69.47376209451721
2083 69.21502634536816
2084 69.48038260108692
2085 69.22596014422585
2086 69.48531256094442
2087 69.22645749812096
2088 69.49044269736773
2089 69.23834503805251
2090 69.49728007502775
2091 69.24314185392173
2092 69.50430244502216
2093 69.243404768948
2094 69.49840182651073
2095 69.24225208148188
2096 69.50347297450848
2097 69.24698239218634
2098 69.50638342762481
2099 69.24804196116901
2100 69.50746600108525
2101 69.24947281368208
2102 69.50123618907416
2103 69.24169875472452
2104 69.50311576951793
2105 69.24216427871774
2106 69.5006821904343
2107 69.24414327797894
2108 69.50010106199753
2109 69.23611474044719
2110 69.4874597778238
2111 69.23485357168202
2112 69.48737262029007
2113 69.22736722318244
2114 69.47636663202108
2115 69.21613179093511
2116 69.46813873998472
2117 69.20705402377729
2118 69.45973155769968
2119 69.20000086309297
2120 69.4589604836659
2121 69.20019904571814
2122 69.45497540828762
2123 69.20283134871266
2124 69.46069248167387
2125 69.20104298482858
2126 69.45915293478934
2127 69.20486577243716
2128 69.46510979646519
2129 69.21377496741475
2130 69.46859546028493
2131 69.20834987334189
2132 69.47114661249996
2133 69.20304086549815
2134 69.46205141612873
2135 69.20174313241908
2136 69.46813565834665
2137 69.20967075272965
2138 69.46182896198026
2139 69.20585262984625
2140 69.46202469564899
2141 69.2044887421159
2142 69.46186293869984
2143 69.2053189803743
2144 69.46591650701383
2145 69.21462744395488
2146 69.46786453623044
2147 69.20553889351153
2148 69.46721653784287
2149 69.20950024659571
2150 69.4662390534496
2151 69.21047758875714
2152 69.46841854845432
2153 69.22083125880192
2154 69.47631840675733
2155 69.22212806044159
2156 69.47935588666627
2157 69.22736701508201
2158 69.48631685357228
2159 69.22442398296029
2160 69.4881246416885
2161 69.2361546715975
2162 69.49055027507885
2163 69.23520843021718
2164 69.49604109734358
2165 69.23976200327157
2166 69.49807327930201
2167 69.2458782320941
2168 69.4989387308194
2169 69.24960299249484
2170 69.50539716815874
2171 69.24309484741444
2172 69.50311801193182
2173 69.24370349646711
2174 69.49912713759123
2175 69.2400480626068
2176 69.497222567149
2177 69.24272645261928
2178 69.49329487341392
2179 69.23261591273813
2180 69.49073156300226
2181 69.23072283263735
2182 69.48796166914023
2183 69.22931763871861
2184 69.47979673544148
2185 69.2283731245147
2186 69.47405814083629
2187 69.21782632997224
2188 69.46607996321583
2189 69.21439899278911
2190 69.46204184129535
2191 69.2017414130313
2192 69.46075929751166
2193 69.19987862374542
2194 69.45680665007984
2195 69.19854483806469
2196 69.45728619451712
2197 69.20794634961933
2198 69.45574639996023
2199 69.20431633603853
2200 69.45961875063374
2201 69.20572932901938
2202 69.45908040983811
2203 69.20438589220076
2204 69.46066721363388
2205 69.20140156784132
2206 69.46006893026629
2207 69.20127470337977
2208 69.46519860544693
2209 69.21049080100011
2210 69.46943776646042
2211 69.21261658580909
2212 69.47490344411331
2213 69.22753542850552
2214 69.48330318895067
2215 69.23391411257765
2216 69.49295975323031
2217 69.23708808272221
2218 69.49973991505239
2219 69.23888760062518
2220 69.50035015966887
2221 69.24593213675972
2222 69.50660462029089
2223 69.24313780458284
2224 69.50763136200021
2225 69.24788508594705
2226 69.50763845508878
2227 69.25045231797552
2228 69.50541104774378
2229 69.2508522081003
2230 69.50668652763854
2231 69.25027770265979
2232 69.51036200632508
2233 69.25183340533857
2234 69.50616870374644
2235 69.24632856334198
2236 69.50096886304136
2237 69.23544871944108
2238 69.49000026382876
2239 69.22970562994099
2240 69.48387403356081
2241 69.22556369785171
2242 69.47588103335349
2243 69.21594131380242
2244 69.46944791902864
2245 69.21387773038778
2246 69.46295272570431
2247 69.20268214560186
2248 69.45997376235617
2249 69.2019247083627
2250 69.45845136683722
2251 69.19597296224948
2252 69.44994207956991
2253 69.19622538327697
2254 69.45134200029025
2255 69.19283493059937
2256 69.45651589707403
2257 69.21052052936653
2258 69.4618222639882
2259 69.20663333728956
2260 69.46688473983995
2261 69.2082672343449
2262 69.4704609409242
2263 69.21588740544577
2264 69.47697843987815
2265 69.23127809066278
2266 69.48323212085742
2267 69.22428089714337
2268 69.48777857483536
2269 69.23085236110876
2270 69.49125872372532
2271 69.23646797406261
2272 69.49713635843636
2273 69.2413834368237
2274 69.48787978599829
2275 69.23539395771148
2276 69.48945108594184
2277 69.23555946463429
2278 69.48973668621808
2279 69.2376176591205
2280 69.49850798608685
2281 69.24265629425626
2282 69.4951718883557
2283 69.2337019612885
2284 69.49259044106006
2285 69.23020112076559
2286 69.4846286474129
2287 69.23143381356397
2288 69.48205899718504
2289 69.2277101224301
2290 69.48087301627035
2291 69.22453971040012
2292 69.48375788935002
2293 69.22684355908441
2294 69.48440699690119
2295 69.22073129371734
2296 69.47804844765976
2297 69.21956071400228
2298 69.47546794118968
2299 69.21482841044329
2300 69.4714937717609
2301 69.21383047630775
2302 69.47007333172485
2303 69.21454922946646
2304 69.47247860589441
2305 69.21579689698505
2306 69.47184386660764
2307 69.20739554436528
2308 69.46740441030059
2309 69.2087424328782
2310 69.46752642064142
2311 69.20968299662916
2312 69.47228466324357
2313 69.21059006630664
2314 69.46767633012698
2315 69.2058835967664
2316 69.46721356693715
2317 69.20995414548909
2318 69.4718275186125
2319 69.21128782625129
2320 69.47428275569509
2321 69.21996673920778
2322 69.47633152043281
2323 69.21870769385096
2324 69.4783150146861
2325 69.21452691483451
2326 69.47076915843989
2327 69.21773663087313
2328 69.4799619707711
2329 69.22264741695713
2330 69.4784166297368
2331 69.21651410534663
2332 69.47903579153545
2333 69.22169927090124
2334 69.47804070571652
2335 69.22682016498885
2336 69.48807363601605
2337 69.22958036711033
2338 69.48602362384004
2339 69.23000569248471
2340 69.49141007655589
2341 69.23279241991686
2342 69.48624149081181
2343 69.23217509831632
2344 69.49157135799705
2345 69.23137342298152
2346 69.48543897727158
2347 69.23569853998843
2348 69.49398171455304
2349 69.23778587479006
2350 69.49703670660091
2351 69.24500143422239
2352 69.50722276355025
2353 69.24623280199872
2354 69.50532333567493
2355 69.24574738228068
2356 69.50413531869879
2357 69.2393516852031
2358 69.49704737139081
2359 69.24086300958561
2360 69.49997214063221
2361 69.23842295947537
2362 69.4929027031922
2363 69.23808958107183
2364 69.48890411900423
2365 69.23128209782939
2366 69.47931091465981
2367 69.22629971043155
2368 69.47841312181815
2369 69.21867812555307
2370 69.46460601643757
2371 69.20286947631837
2372 69.45569828173807
2373 69.19267156419305
2374 69.44969899842575
2375 69.19403077189445
2376 69.45135610922117
2377 69.19645727809444
2378 69.44533538200588
2379 69.19586668009315
2380 69.44704406531912
2381 69.19459527379352
2382 69.44750469600524
2383 69.19269512562563
2384 69.45622321983386
2385 69.19509498590823
2386 69.45894725357589
2387 69.19897984792289
2388 69.46276143793493
2389 69.20505927023765
2390 69.46900638330459
2391 69.2154068952831
2392 69.48212179192282
2393 69.23158915325246
2394 69.48785423770788
2395 69.22978376330282
2396 69.4961927538853
2397 69.23828995004411
2398 69.49800242762434
2399 69.2445763772301
2400 69.5082588163036
2401 69.24983104824756
2402 69.51353533999841
2403 69.25291212605431
2404 69.52225045825264
2405 69.25695770621542
2406 69.52135349342231
2407 69.26493064269327
2408 69.52921648702248
2409 69.27087541611938
2410 69.52740016766714
2411 69.26528864225547
2412 69.52553884772514
2413 69.25861772338925
2414 69.51278187296303
2415 69.24992749334923
2416 69.51225357348201
2417 69.2459342306787
2418 69.49838195608353
2419 69.23888722451453
2420 69.49785143976086
2421 69.23421077590105
2422 69.48796499671451
2423 69.22641657852135
2424 69.48019639411271
2425 69.21945329241528
2426 69.46873083426523
2427 69.20454428703547
2428 69.45965540390632
2429 69.19229495356031
2430 69.44863947299004
2431 69.1878124458169
2432 69.44320589015781
2433 69.18695431820956
2434 69.43769686180011
2435 69.17918623368955
2436 69.4382982665265
2437 69.18696135393472
2438 69.43651513699905
2439 69.18824209649883
2440 69.4385768315427
2441 69.19032870688098
2442 69.44214272199734
2443 69.18958138682392
2444 69.44925432665536
2445 69.19661942874744
2446 69.45348044015324
2447 69.20065705782076
2448 69.46512904401104
2449 69.20942686154679
2450 69.46936248783977
2451 69.21396307748184
2452 69.47690779984237
2453 69.22744113294679
2454 69.48455127910174
2455 69.23982315566036
2456 69.4995191783687
2457 69.24783048539159
2458 69.50199768880269
2459 69.2437573710117
2460 69.50383164960529
2461 69.24427927453304
2462 69.50333806482243
2463 69.24232769291486
2464 69.50613289826791
2465 69.24385545489885
2466 69.505142170338
2467 69.24821422735718
2468 69.50811018639091
2469 69.24579570028817
2470 69.50284913826377
2471 69.24501843015388
2472 69.5073867096751
2473 69.24708465164969
2474 69.50203990481447
2475 69.24250864829828
2476 69.50322202255961
2477 69.23971697869085
2478 69.49382291431354
2479 69.23582671348774
2480 69.49001054938029
2481 69.23277585831704
2482 69.48627534306804
2483 69.22796865855102
2484 69.48699410742383
2485 69.2295768911472
2486 69.48028957495681
2487 69.223264553313
2488 69.48116489029566
2489 69.22798889593682
2490 69.47670839891857
2491 69.21956967635015
2492 69.47505752969833
2493 69.2163336239944
2494 69.47236643565873
2495 69.2072448859353
2496 69.46595954717239
2497 69.20814631928299
2498 69.45629780813485
2499 69.19368541803935
2500 69.45209542961399
2501 69.19846661980719
2502 69.45429718588134
2503 69.19608076169229
2504 69.45445528886346
2505 69.19415493579733
2506 69.45778799140292
2507 69.19443502870665
2508 69.45729490588541
2509 69.19678402329333
2510 69.45558497522001
2511 69.19395600349684
2512 69.45801664805784
2513 69.20338914845109
2514 69.45881745038758
2515 69.20118821412321
2516 69.46204832339279
2517 69.20174898672414
2518 69.46523481372343
2519 69.20752063357767
2520 69.47082712340811
2521 69.21525654680465
2522 69.46953415051021
2523 69.20855531518959
2524 69.47044269647463
2525 69.21998446408702
2526 69.47774318284377
2527 69.23524907358392
2528 69.49036424593841
2529 69.23813259682878
2530 69.49585972226326
2531 69.24336411427767
2532 69.50294701175227
2533 69.24728681035785
2534 69.50548992866074
2535 69.25258364683883
2536 69.51177624027108
2537 69.26134438549805
2538 69.51855249563184
2539 69.25881626588371
2540 69.51992752722758
2541 69.25969279014588
2542 69.52076505653061
2543 69.26688414519518
2544 69.52129804722163
2545 69.26638707782769
2546 69.51976408245918
2547 69.26076769675247
2548 69.51676199622116
2549 69.25508792357768
2550 69.50932975258915
2551 69.24846551995091
2552 69.5028696028081
2553 69.23826945185398
2554 69.48874875289644
2555 69.22503486441788
2556 69.4735427415695
2557 69.21303131006518
2558 69.45824305441494
2559 69.19746610112098
2560 69.45148765026983
2561 69.18780847555591
2562 69.43956719836103
2563 69.17477816726313
2564 69.43598158870896
2565 69.16907558242171
2566 69.42764988712254
2567 69.16657197664782
2568 69.42623748940593
2569 69.1646777999881
2570 69.42435144026602
2571 69.16774524078042
2572 69.43149872326055
2573 69.17539872147792
2574 69.4351191782912
2575 69.1794427176908
2576 69.44743869692212
2577 69.19294650646881
2578 69.45600910778553
2579 69.19748811355318
2580 69.46711760420121
2581 69.20559690880037
2582 69.47348627501258
2583 69.22057035004633
2584 69.48843214223994
2585 69.23553025957236
2586 69.49970879108373
2587 69.24056517363195
2588 69.50704164182847
2589 69.25069613775098
2590 69.51380318653814
2591 69.25717737741124
2592 69.51791149194192
2593 69.25949660509146
2594 69.51821142969291
2595 69.25854257556664
2596 69.51572415670559
2597 69.25883989532419
2598 69.51688967863858
2599 69.25873832309861
2600 69.521962797246
2601 69.25897554902402
2602 69.51753292986244
2603 69.25558352052333
2604 69.51136942066417
2605 69.25319971586137
2606 69.50760876397283
2607 69.25342540944038
2608 69.50848629916059
2609 69.25008166601602
2610 69.50071464297541
2611 69.24056094782598
2612 69.49866126029747
2613 69.23336533355683
2614 69.48498881938544
2615 69.22773480116332
2616 69.4839463504308
2617 69.23167814598423
2618 69.47383961832128
2619 69.21639738747299
2620 69.46995023764624
2621 69.21081777978958
2622 69.45983693203985
2623 69.21157874151798
2624 69.46534345188367
2625 69.20873815223965
2626 69.45927267776747
2627 69.19986541686144
2628 69.46001608737109
2629 69.20118581626554
2630 69.45890769315488
2631 69.19975314348505
2632 69.46172016667354
2633 69.21081192240921
2634 69.45840322527575
2635 69.20754643481051
2636 69.46223261532614
2637 69.20017105302703
2638 69.45793779707508
2639 69.20235314869112
2640 69.465530045782
2641 69.20422463029891
2642 69.46101199455347
2643 69.20298476200696
2644 69.4672017054595
2645 69.20554292166011
2646 69.4611662052157
2647 69.21146551801452
2648 69.46607441972152
2649 69.20880005557235
2650 69.46721623291155
2651 69.21126859002815
2652 69.47649118702313
2653 69.21154902816643
2654 69.4731163025407
2655 69.2124398216268
2656 69.48131449417366
2657 69.22135468304184
2658 69.48527015387631
2659 69.22686622902684
2660 69.49282358720215
2661 69.23062080166109
2662 69.49666366256889
2663 69.24016835553157
2664 69.50486237767825
2665 69.24463895218187
2666 69.50296559081642
2667 69.24608819197492
2668 69.50733156807972
2669 69.25307482227872
2670 69.51279029832361
2671 69.25642379657238
2672 69.51512392033895
2673 69.26019555393819
2674 69.51527796961325
2675 69.251979801896
2676 69.51466166978247
2677 69.25467600663585
2678 69.50851504313233
2679 69.25292178918262
2680 69.50960858755082
2681 69.25035219583943
2682 69.5045009315282
2683 69.24034789571806
2684 69.49704907557131
2685 69.23104359606612
2686 69.48212039529473
2687 69.22061494335448
2688 69.47509229817386
2689 69.20501868978798
2690 69.45798143823036
2691 69.19599984297926
2692 69.4537361450373
2693 69.19144892082889
2694 69.44335773774515
2695 69.18532248417003
2696 69.44327595119299
2697 69.18374015366179
2698 69.4354217714876
2699 69.17736095622791
2700 69.43568628539158
2701 69.17695738350757
2702 69.43603237857923
2703 69.18061267079837
2704 69.44557585808334
2705 69.18886858580547
2706 69.45110755105094
2707 69.19609402488899
2708 69.46683909770377
2709 69.2114024048465
2710 69.47014508690663
2711 69.21708960329869
2712 69.48100819598351
2713 69.22616215376175
2714 69.48555382307961
2715 69.23166547330165
2716 69.49468979080434
2717 69.23841336396154
2718 69.49958471578736
2719 69.24361781024521
2720 69.50947880024589
2721 69.25248431326924
2722 69.5082486037051
2723 69.25281995410731
2724 69.50956305722637
2725 69.25479009795261
2726 69.51425099187688
2727 69.25936492837805
2728 69.51655923617936
2729 69.25961600166839
2730 69.51577825083022
2731 69.25235347950367
2732 69.51363545918696
2733 69.25208308771586
2734 69.50093485366182
2735 69.23887463168344
2736 69.49861081148822
2737 69.24377428673382
2738 69.49178286910616
2739 69.23327932708089
2740 69.48818351850817
2741 69.22642399176134
2742 69.47991898456458
2743 69.21403826815872
2744 69.47216185598629
2745 69.20731715871722
2746 69.46056763955823
2747 69.19600084532161
2748 69.45553348555335
2749 69.19600712643144
2750 69.45050012118912
2751 69.19169929915518
2752 69.45481573104341
2753 69.19538904213442
2754 69.45544599884816
2755 69.1940202254679
2756 69.45728650574438
2757 69.20203859185956
2758 69.46492522068711
2759 69.20424459113755
2760 69.46842201345621
2761 69.21315394154102
2762 69.4738072820942
2763 69.20945738786627
2764 69.47704192879247
2765 69.21243511008345
2766 69.48179352459
2767 69.22651830460411
2768 69.47924862964607
2769 69.22395906428284
2770 69.48225788582805
2771 69.22272861365352
2772 69.48501255988987
2773 69.22395665008325
2774 69.48857621899818
2775 69.23060364908373
2776 69.49246968473436
2777 69.23138298746814
2778 69.48956097989038
2779 69.2310910426836
2780 69.49177627516772
2781 69.23368056785213
2782 69.48762228864486
2783 69.23518195761508
2784 69.48938136353708
2785 69.23272079247077
2786 69.48609315347699
2787 69.23215913799832
2788 69.48744096230016
2789 69.22675481638231
2790 69.48105777455868
2791 69.22661149639876
2792 69.48401557252105
2793 69.22212080919151
2794 69.47793194806631
2795 69.21846076387146
2796 69.47873463829644
2797 69.22336228762953
2798 69.47803290792461
2799 69.2214603624125
2800 69.47896123481532
2801 69.22855510481214
2802 69.48413683087895
2803 69.23011655973009
2804 69.48545872888873
2805 69.22630681767319
2806 69.48439490838723
2807 69.22810713511788
2808 69.48370379399141
2809 69.22732169489167
2810 69.48049937215008
2811 69.21904707296758
2812 69.47711545618145
2813 69.22278742510129
2814 69.47269039638792
2815 69.21943836297675
2816 69.47383863318925
2817 69.22182393073635
2818 69.47649399761167
2819 69.21914043688058
2820 69.47573609988194
2821 69.21801258316069
2822 69.4752965513421
2823 69.21311036860882
2824 69.47440900355446
2825 69.2184560243316
2826 69.47362525651351
2827 69.22427962664938
2828 69.47408468613531
2829 69.22103622568672
2830 69.47572481982617
2831 69.2173455805205
2832 69.47886629147698
2833 69.22147510361148
2834 69.48070846137642
2835 69.21329745611976
2836 69.47323256496452
2837 69.21604019883635
2838 69.46963434412015
2839 69.21072640929097
2840 69.47184531032619
2841 69.21163372808716
2842 69.47330528522316
2843 69.21874124201699
2844 69.47716981570973
2845 69.22083580154164
2846 69.47589361603855
2847 69.22488309237112
2848 69.48631473559499
2849 69.23545341159675
2850 69.49035387567803
2851 69.23790430015248
2852 69.5010818737445
2853 69.2406982131086
2854 69.50398809400005
2855 69.24432918310534
2856 69.50766302793667
2857 69.25292730137197
2858 69.50573610380992
2859 69.24607007423462
2860 69.50320845095777
2861 69.24666805155515
2862 69.50194376846079
2863 69.24556317136219
2864 69.50130402948784
2865 69.24087779860496
2866 69.501988731046
2867 69.23675710242939
2868 69.49479875554781
2869 69.2262394145588
2870 69.48478241625034
2871 69.22321798668457
2872 69.48253948513006
2873 69.22926195776485
2874 69.47720709708632
2875 69.21564530955592
2876 69.47210293752113
2877 69.21163899826112
2878 69.46661736425771
2879 69.20279429569551
2880 69.46429877564431
2881 69.2014162228609
2882 69.46092933903542
2883 69.19500474643112
2884 69.45376442395322
2885 69.19271073390733
2886 69.44897448682293
2887 69.19043962372882
2888 69.4506649728352
2889 69.19620617580682
2890 69.45440831941947
2891 69.19991157624156
2892 69.45451921519506
2893 69.20008035904452
2894 69.46331859043194
2895 69.21157069135374
2896 69.47047304628774
2897 69.21891118378862
2898 69.4820584904114
2899 69.2225789987987
2900 69.48811881693828
2901 69.2304458977874
2902 69.4902181276105
2903 69.23903915579432
2904 69.49894302443919
2905 69.24087322956643
2906 69.5027200725885
2907 69.24049846582461
2908 69.50079525982412
2909 69.23809329115721
2910 69.49426774965438
2911 69.23308077853922
2912 69.49859133033529
2913 69.24311486082658
2914 69.49759719972865
2915 69.23894678261868
2916 69.49648065030968
2917 69.24305328392897
2918 69.4965038841962
2919 69.23935015722049
2920 69.4991956284166
2921 69.23772683382138
2922 69.48954680429448
2923 69.23015818956807
2924 69.48733363466688
2925 69.22854897624755
2926 69.48266808118706
2927 69.22247459992137
2928 69.4827421477691
2929 69.22432543446737
2930 69.48273330065014
2931 69.21589278184251
2932 69.47534054927117
2933 69.21601359736216
2934 69.46784813663002
2935 69.21170944092097
2936 69.46667456837017
2937 69.21383226401903
2938 69.4633190668229
2939 69.2020963928139
2940 69.45861670491094
2941 69.20099838259461
2942 69.46118007023667
2943 69.20352822661403
2944 69.46269371480057
2945 69.20151367476556
2946 69.45835280650574
2947 69.20383783895709
2948 69.4621060718993
2949 69.20919394010723
2950 69.46564998003815
2951 69.21637504083954
2952 69.47451260055632
2953 69.22156453110608
2954 69.47815394186527
2955 69.22160009569372
2956 69.48278404554287
2957 69.2211291161216
2958 69.48108514907865
2959 69.2267828195465
2960 69.48640401025891
2961 69.23199731963886
2962 69.48585986137078
2963 69.2317608340568
2964 69.4860001846385
2965 69.2306081198424
2966 69.48635595683234
2967 69.23277161109317
2968 69.49585204969088
2969 69.23451303834851
2970 69.49219617473432
2971 69.23498015183063
2972 69.4911524209723
2973 69.23492278964363
2974 69.49282122184019
2975 69.23049947329567
2976 69.49552749972939
2977 69.24358066526658
2978 69.49678118007681
2979 69.23496121155777
2980 69.49294240068211
2981 69.23389391073515
2982 69.49432258528552
2983 69.23502042436247
2984 69.49181168662909
2985 69.23587806178379
2986 69.49200633280644
2987 69.23002804574746
2988 69.49133410301026
2989 69.23572391781849
2990 69.49160825379337
2991 69.2354974982362
2992 69.49223612341412
2993 69.23552107727106
2994 69.48820216534901
2995 69.22889544541795
2996 69.48314761437446
2997 69.21985554074973
2998 69.47580257260535
2999 69.21440702778185
3000 69.47093980677043
3001 69.21395093100911
3002 69.4667169696619
3003 69.20664437879
3004 69.46342175478074
3005 69.20438047046858
3006 69.46252950505553
3007 69.20591842830186
3008 69.46013558078619
3009 69.20464749201483
3010 69.45651386445783
3011 69.19911264033672
3012 69.45324713007004
3013 69.19337688811791
3014 69.44844467692418
3015 69.18572720896763
3016 69.45332689121281
3017 69.19204306658766
3018 69.45025245167217
3019 69.18815522303854
3020 69.45210863289697
3021 69.18963138420528
3022 69.45315119029188
3023 69.20119850480388
3024 69.46390104527433
3025 69.21155087437702
3026 69.46894935654524
3027 69.21437434832661
3028 69.47789000947149
3029 69.22404033091436
3030 69.48444860766337
3031 69.22651590923935
3032 69.49052257462112
3033 69.23473968146834
3034 69.49873282824413
3035 69.24014749056849
3036 69.50022513708252
3037 69.24940176617481
3038 69.50577722104302
3039 69.25663882627168
3040 69.5158829134985
3041 69.2608190854143
3042 69.52177040011318
3043 69.26285995616031
3044 69.52077504261608
3045 69.26575022382123
3046 69.5192322498394
3047 69.26010755650319
3048 69.51525768249464
3049 69.25598829953277
3050 69.511266085052
3051 69.24850401350405
3052 69.50821583980854
3053 69.25189822723998
3054 69.5001673093273
3055 69.24357699307308
3056 69.49677159130476
3057 69.24062029343827
3058 69.48977597718476
3059 69.22332121958988
3060 69.47662308806264
3061 69.21506702637824
3062 69.46883367293648
3063 69.2021894552131
3064 69.45833974550156
3065 69.18855814896736
3066 69.44361104335944
3067 69.18200667323597
3068 69.43548776842245
3069 69.18258014228955
3070 69.43504757065689
3071 69.17605077681644
3072 69.43468223280749
3073 69.18089340867327
3074 69.44072332794173
3075 69.1797760709488
3076 69.44921159725328
3077 69.19207898916946
3078 69.45498306617878
3079 69.19998921751149
3080 69.46254696526974
3081 69.20741214165778
3082 69.46625220426812
3083 69.2123873201926
3084 69.47030137325798
3085 69.21687432211658
3086 69.47888767872857
3087 69.2211671780193
3088 69.48700345350926
3089 69.23102609394391
3090 69.48843871475185
3091 69.23199399099589
3092 69.49327853357208
3093 69.23170200758065
3094 69.49629687612749
3095 69.22978946560342
3096 69.4997968403658
3097 69.24220040379792
3098 69.49883082212011
3099 69.23800945869159
3100 69.49684491139759
3101 69.24313408562925
3102 69.50231822729883
3103 69.244786506105
3104 69.507828210653
3105 69.25136371142833
3106 69.5124525649228
3107 69.24597842867152
3108 69.50947378163204
3109 69.24206459962959
3110 69.50496505344491
3111 69.24057698133846
3112 69.5004441199882
3113 69.2496138090269
3114 69.49939878333173
3115 69.24268786781289
3116 69.49681710178163
3117 69.24027794808607
3118 69.49519072662726
3119 69.23813170692813
3120 69.49622697616327
3121 69.23640205542098
3122 69.48976672921127
3123 69.22537115194484
3124 69.4821439926574
3125 69.22534727287577
3126 69.47814756920641
3127 69.22801118206777
3128 69.47356276865226
3129 69.21890694279652
3130 69.4689527695474
3131 69.21090841971314
3132 69.46885851167616
3133 69.20799490904099
3134 69.46011308755455
3135 69.19939014796653
3136 69.45756964520636
3137 69.20181856449422
3138 69.4523629106138
3139 69.19342505853719
3140 69.45142854296783
3141 69.19572387297988
3142 69.45185283541157
3143 69.19337664247944
3144 69.44916561975597
3145 69.19437161047856
3146 69.4500927343024
3147 69.19568756602126
3148 69.45452776617888
3149 69.19712916718946
3150 69.45251479267866
3151 69.19538462708029
3152 69.45814372377103
3153 69.19740935846235
3154 69.46043666892967
3155 69.19964600195912
3156 69.46326894163596
3157 69.20985962252776
3158 69.46447164884442
3159 69.21065750969429
3160 69.47715149229613
3161 69.22110395426699
3162 69.48138906965021
3163 69.2306241641635
3164 69.49764223887468
3165 69.23945606749072
3166 69.50046719082228
3167 69.24726177052565
3168 69.51087618835909
3169 69.25470118112604
3170 69.51419379870462
3171 69.25839106367899
3172 69.52054457859336
3173 69.26360212960539
3174 69.52315897384935
3175 69.26561810202136
3176 69.52889990032658
3177 69.26916670497882
3178 69.52346590107422
3179 69.2702775960783
3180 69.52763978693386
3181 69.26459810311071
3182 69.52113085849119
3183 69.2616529615304
3184 69.52023621137982
3185 69.25521573493094
3186 69.51149422692255
3187 69.24564902513781
3188 69.49977936259981
3189 69.23306942679497
3190 69.48378383185791
3191 69.22133194103331
3192 69.47370705357409
3193 69.21497991774871
3194 69.46175770687917
3195 69.2009186187836
3196 69.44961293381749
3197 69.18400901183372
3198 69.44013304911086
3199 69.17663314909883
3200 69.4367612794407
3201 69.17731924726827
3202 69.4315768907593
3203 69.17774776526467
3204 69.43117136933311
3205 69.17564511620139
3206 69.43027532725615
3207 69.1744910845696
3208 69.43725831733786
3209 69.17856328388528
3210 69.44265851716003
3211 69.18709689208235
3212 69.44829530203977
3213 69.19160046970043
3214 69.45246189449665
3215 69.19867987089046
3216 69.46304926133426
3217 69.21404716258392
3218 69.47219244115207
3219 69.21698675009229
3220 69.47982243854993
3221 69.22441343870916
3222 69.4836546112965
3223 69.2251958066895
3224 69.48676504237969
3225 69.23070015489554
3226 69.48690890321403
3227 69.23273401388391
3228 69.49532767828698
3229 69.23468883890781
3230 69.49240049885806
3231 69.23541529204651
3232 69.50245621193709
3233 69.25062967540063
3234 69.50555010300485
3235 69.25133273404207
3236 69.50567243598032
3237 69.25098616184148
3238 69.50537382528324
3239 69.25180104702622
3240 69.50609746001545
3241 69.25108085633016
3242 69.50732850002964
3243 69.24507364485574
3244 69.50302832179662
3245 69.24400268695183
3246 69.49970176846013
3247 69.24318866693116
3248 69.49539944393163
3249 69.24113783343613
3250 69.49457984159019
3251 69.23746002264082
3252 69.496669622467
3253 69.23535166857812
3254 69.49622586479121
3255 69.23636312845288
3256 69.49331646868438
3257 69.23033021374501
3258 69.4846771778393
3259 69.2222376887013
3260 69.48236902321953
3261 69.21953722873356
3262 69.47450842284601
3263 69.21894146547791
3264 69.47208301888995
3265 69.21394726082588
3266 69.4654964525148
3267 69.2125474114808
3268 69.4678338003658
3269 69.20573018393014
3270 69.46398228293953
3271 69.20425211336811
3272 69.4681360359301
3273 69.20414348772661
3274 69.46197933738807
3275 69.19310042715739
3276 69.45539959296859
3277 69.19547217610945
3278 69.448203997033
3279 69.19225883705494
3280 69.4551867941066
3281 69.19466366405672
3282 69.452184532114
3283 69.19104801864174
3284 69.45248858608339
3285 69.18782691220548
3286 69.44975673528288
3287 69.18724436549995
3288 69.45221815398234
3289 69.19418551334012
3290 69.45532986094274
3291 69.19363795643363
3292 69.46077308482405
3293 69.2006561369198
3294 69.4600574118318
3295 69.20594846120071
3296 69.47407222269624
3297 69.21843503036577
3298 69.47600132591408
3299 69.21655885223721
3300 69.48292148199259
3301 69.23060643488554
3302 69.48869468989221
3303 69.23896210336517
3304 69.50165795327902
3305 69.24648993518366
3306 69.50587918085925
3307 69.25717962684294
3308 69.5167902517005
3309 69.25858089182665
3310 69.51324396958427
3311 69.26031551964483
3312 69.52118894722122
3313 69.26821650190234
3314 69.51881694528697
3315 69.26361424327175
3316 69.5231675077919
3317 69.26442612323235
3318 69.51907691601906
3319 69.26226173073063
3320 69.52317544770328
3321 69.26376169270813
3322 69.51353114305661
3323 69.26319520182837
3324 69.51138086665476
3325 69.25344831642948
3326 69.50041583251387
3327 69.24707333365254
3328 69.49951029438169
3329 69.2368129364837
3330 69.48424760302419
3331 69.22331207187004
3332 69.47760612051292
3333 69.21195975864076
3334 69.45812810461204
3335 69.1998368712089
3336 69.45465455755054
3337 69.19984382101079
3338 69.44481803413889
3339 69.19402678105821
3340 69.44293848649639
3341 69.18557905078949
3342 69.43650781682781
3343 69.18070027262914
3344 69.44265641690579
3345 69.18459558896443
3346 69.43550923984259
3347 69.17955755127697
3348 69.44457902226679
3349 69.18572606096399
3350 69.44606622570339
3351 69.19351393581783
3352 69.45825485783733
3353 69.20476045959538
3354 69.46221227201259
3355 69.2109301853088
3356 69.47114977788719
3357 69.2171110571266
3358 69.47254849385114
3359 69.2151505182253
3360 69.47851938726541
3361 69.22121141338559
3362 69.47930890890912
3363 69.21813480521611
3364 69.4849040058195
3365 69.21811839157449
3366 69.48865626782157
3367 69.22874057363536
3368 69.49262518479428
3369 69.2427227086897
3370 69.50150326589159
3371 69.23947586012287
3372 69.50017448581421
3373 69.24242152752738
3374 69.50104049810022
3375 69.24399778646848
3376 69.50588406055309
3377 69.24466961721591
3378 69.505889367734
3379 69.24363364980591
3380 69.50382775092451
3381 69.24623307912816
3382 69.50799306845811
3383 69.24968292213764
3384 69.50397046170598
3385 69.24982847238255
3386 69.5047281137916
3387 69.24644337215005
3388 69.50243527957807
3389 69.24105550272175
3390 69.49730462462206
3391 69.24148113008177
3392 69.49625601310817
3393 69.23682919030134
3394 69.49340773608685
3395 69.23423437259247
3396 69.48953606419354
3397 69.23667543099715
3398 69.48856997236945
3399 69.23317032704972
3400 69.487420019589
3401 69.22834136797418
3402 69.48041597001229
3403 69.21606966063085
3404 69.47234884138312
3405 69.21250803340642
3406 69.46676024947581
3407 69.20833826191209
3408 69.46237043941149
3409 69.20400509955053
3410 69.46197992257326
3411 69.20303996006056
3412 69.46081715184397
3413 69.20423737049539
3414 69.45428402505568
3415 69.19734614257159
3416 69.45349403144033
3417 69.2003453995105
3418 69.45047903390019
3419 69.19226389179883
3420 69.44750051826544
3421 69.18629498519915
3422 69.44670745696638
3423 69.18781001807457
3424 69.44684045186611
3425 69.19076512859434
3426 69.44851389096439
3427 69.18991850942585
3428 69.4510521507848
3429 69.19871495887557
3430 69.45769813389204
3431 69.20188498735372
3432 69.46206255248154
3433 69.21075550061049
3434 69.46564110281744
3435 69.21341625688237
3436 69.4732165453884
3437 69.21724093213894
3438 69.4773500809026
3439 69.22203053222889
3440 69.49227834294004
3441 69.23625126736979
3442 69.49687158632469
3443 69.24209213879365
3444 69.50648940797603
3445 69.25407242084401
3446 69.51413579519345
3447 69.26242889367559
3448 69.51977131944358
3449 69.262352766189
3450 69.52473079718843
3451 69.2629437902601
3452 69.52605851482596
3453 69.26322038883259
3454 69.52746411230206
3455 69.2628395464547
3456 69.52435611942046
3457 69.26973269862837
3458 69.52266431744742
3459 69.26284979040945
3460 69.51358287133657
3461 69.25147720857656
3462 69.50814583107824
3463 69.24590909943321
3464 69.50352934196381
3465 69.24300791431195
3466 69.49247316216994
3467 69.23072862354802
3468 69.48231558086239
3469 69.22103705147313
3470 69.46844568023941
3471 69.20716190310291
3472 69.45679391773979
3473 69.19892274665632
3474 69.45078792625505
3475 69.18933718121062
3476 69.44573970287738
3477 69.18441599763644
3478 69.44091191749122
3479 69.17904919633513
3480 69.44035437066998
3481 69.1834587555342
3482 69.44211237961794
3483 69.18234085840835
3484 69.44214267754677
3485 69.18496060936842
3486 69.44788682771427
3487 69.19476724792331
3488 69.44716933136166
3489 69.20004639845536
3490 69.45534749246018
3491 69.20331438138271
3492 69.46375496545895
3493 69.20885207819427
3494 69.46763580582605
3495 69.21306327826473
3496 69.47361676348373
3497 69.21751894491462
3498 69.48263947087011
3499 69.22633615468699
3500 69.48870886953439
3501 69.2295908085522
3502 69.48926530263228
3503 69.23849171137675
3504 69.49845480081838
3505 69.24811257298229
3506 69.50284434469842
3507 69.25033127977343
3508 69.51009899701305
3509 69.25046970634712
3510 69.50638716528378
3511 69.24595193303257
3512 69.50693683133417
3513 69.24606770534545
3514 69.4991048121703
3515 69.24298800167939
3516 69.5028970855234
3517 69.245616645775
3518 69.49713264615966
3519 69.23619286317759
3520 69.49923305532519
3521 69.24098782357993
3522 69.49627868377574
3523 69.23842593394805
3524 69.49904330951829
3525 69.23733228919909
3526 69.49394274808485
3527 69.2366809659117
3528 69.50050116401476
3529 69.23814357188233
3530 69.49573387346358
3531 69.23299908979794
3532 69.49751848696476
3533 69.23682829379197
3534 69.48656999472729
3535 69.23382964655946
3536 69.48836426938828
3537 69.22730137094341
3538 69.4774192878056
3539 69.21555686202039
3540 69.47285741489783
3541 69.20738883735002
3542 69.46455282327244
3543 69.20429255720754
3544 69.47242878353516
3545 69.20849216473663
3546 69.46588880872859
3547 69.20639555877874
3548 69.46458461129282
3549 69.2027592506948
3550 69.4609553395066
3551 69.20121603686755
3552 69.4628386611043
3553 69.20040577512721
3554 69.4642132766745
3555 69.19738645427839
3556 69.46447398936365
3557 69.19790214101128
3558 69.45479724496397
3559 69.19679543108666
3560 69.45833380692196
3561 69.19686792525522
3562 69.45477657109068
3563 69.20477874882444
3564 69.45843308144359
3565 69.19854898759688
3566 69.45734609191476
3567 69.20336825111063
3568 69.46782540405306
3569 69.20798292625896
3570 69.46753127131686
3571 69.20986587725054
3572 69.47705980685888
3573 69.21884193568646
3574 69.48124831162477
3575 69.22863860763535
3576 69.49278966447692
3577 69.23985823422005
3578 69.50061021851486
3579 69.24899734596377
3580 69.51151644663037
3581 69.25810442702736
3582 69.51356323868737
3583 69.26150110766025
3584 69.52228892844764
3585 69.2662623530054
3586 69.52162466549339
3587 69.26470130167046
3588 69.5252263632552
3589 69.26437416551509
3590 69.52064857978583
3591 69.26361297468338
3592 69.52147506439881
3593 69.26250651191704
3594 69.51062946139689
3595 69.24911997833011
3596 69.50385972740575
3597 69.24445739167776
3598 69.4942606883028
3599 69.2367116343587
3600 69.49031317647702
3601 69.22919052988833
3602 69.48134990304759
3603 69.22077826043004
3604 69.46942094801317
3605 69.20753756382459
3606 69.45539754185374
3607 69.20061722124568
3608 69.44929485105922
3609 69.1910103548022
3610 69.43850998982181
3611 69.18281633615742
3612 69.43858894272351
3613 69.17993784704166
3614 69.4358331091004
3615 69.17996556179291
3616 69.44366047534935
3617 69.18949365655997
3618 69.45181553666956
3619 69.19271785002547
3620 69.45944304547923
3621 69.20193010560122
3622 69.46359174946299
3623 69.21350760361749
3624 69.47348168217042
3625 69.21795715502026
3626 69.47332797528071
3627 69.22341043227929
3628 69.48156151885374
3629 69.22900713551164
3630 69.48447908729612
3631 69.23087351713754
3632 69.49693434298065
3633 69.23943874442008
3634 69.49861951059324
3635 69.23828355651079
3636 69.50414919439461
3637 69.24650046110175
3638 69.50169046453587
3639 69.24861433800065
3640 69.50874399236972
3641 69.25246046730165
3642 69.50814971742469
3643 69.24424625641571
3644 69.50780357173269
3645 69.24354622159719
3646 69.50131203310339
3647 69.24093211165025
3648 69.50258568532438
3649 69.2371528158758
3650 69.49352110372166
3651 69.23725464488774
3652 69.49877737664559
3653 69.23781010096025
3654 69.49063987259539
3655 69.23508339203416
3656 69.49006527967605
3657 69.23044926239776
3658 69.48479443766058
3659 69.22017175365863
3660 69.47419470802414
3661 69.21866862157086
3662 69.47169347129223
3663 69.21452708019875
3664 69.47127372537612
3665 69.20818922198809
3666 69.46860361462819
3667 69.21158087352001
3668 69.47120844490772
3669 69.21444379515654
3670 69.46878100033484
3671 69.21338895376243
3672 69.4711033091137
3673 69.21572923229711
3674 69.47159573060561
3675 69.21002080745953
3676 69.47505882094718
3677 69.21544990777466
3678 69.47668418529368
3679 69.21489817612299
3680 69.47790345220554
3681 69.21975410408295
3682 69.47491490316696
3683 69.22053716066836
3684 69.47324026849529
3685 69.22325764688959
3686 69.47651374373011
3687 69.22117207052648
3688 69.47758325226145
3689 69.21531837432882
3690 69.47688669883171
3691 69.21747291179196
3692 69.47747269602247
3693 69.21378947940008
3694 69.47078282285652
3695 69.208812037695
3696 69.46845672739727
3697 69.21493997604203
3698 69.46595837184061
3699 69.21389440612784
3700 69.46904991306631
3701 69.20903129853231
3702 69.47533606083516
3703 69.21277558950949
3704 69.47978992063983
3705 69.21786710997696
3706 69.48062332257325
3707 69.22067050783653
3708 69.48449372787724
3709 69.22714005016007
3710 69.48614483803897
3711 69.22847095514622
3712 69.49142344247547
3713 69.24655144594465
3714 69.50079429872054
3715 69.25108578995822
3716 69.50315773745125
3717 69.25106539237225
3718 69.50461796765383
3719 69.25147008117447
3720 69.50476506971218
3721 69.24809707445013
3722 69.49856217352837
3723 69.24025944416559
3724 69.49531907951213
3725 69.23786960441785
3726 69.49007362482303
3727 69.23674620115521
3728 69.48624811554107
3729 69.23009153923714
3730 69.47919522075631
3731 69.22362779172593
3732 69.47524183279961
3733 69.21727592226782
3734 69.46621328607914
3735 69.20897082406245
3736 69.46484756955113
3737 69.20362242659037
3738 69.45631562160187
3739 69.19621589346322
3740 69.45368985773074
3741 69.19713066760333
3742 69.45369804272569
3743 69.20468735625977
3744 69.45853131111339
3745 69.20611448187563
3746 69.46296930849756
3747 69.2030573983676
3748 69.46403278667009
3749 69.20618128214174
3750 69.46582150633333
3751 69.20571352988591
3752 69.46577395586056
3753 69.20561962429321
3754 69.4659728470686
3755 69.20722753439044
3756 69.46982809847293
3757 69.21558102889786
3758 69.47175341923162
3759 69.21595112163277
3760 69.4778464844633
3761 69.22788484459267
3762 69.48586123616084
3763 69.23470561196626
3764 69.49374309904717
3765 69.24004820362813
3766 69.50132356531752
3767 69.24509882812607
3768 69.50413281815642
3769 69.24755877847436
3770 69.509836124724
3771 69.24243797386173
3772 69.50610547906719
3773 69.24929014779229
3774 69.50109830943946
3775 69.24498266280258
3776 69.50316013756648
3777 69.24530541472426
3778 69.5020054208485
3779 69.24252202533863
3780 69.50045539947958
3781 69.23670504407919
3782 69.49089433902665
3783 69.22628542048368
3784 69.48636860875708
3785 69.22680245840436
3786 69.47803839538685
3787 69.22694179105137
3788 69.47784682844892
3789 69.21910248350292
3790 69.46959072673141
3791 69.21182175055965
3792 69.46701834245577
3793 69.20804002941989
3794 69.46466649044891
3795 69.19790325299823
3796 69.46202951773427
3797 69.20066807809957
3798 69.455494873644
3799 69.19430045376838
3800 69.44972571051944
3801 69.19265162243164
3802 69.45120144302588
3803 69.20085047727153
3804 69.45861484236065
3805 69.20481981707442
3806 69.46812305166968
3807 69.21142131232705
3808 69.47298705805373
3809 69.21908355716175
3810 69.47997308520698
3811 69.22699490366033
3812 69.48924940648932
3813 69.23141813143334
3814 69.48781282121165
3815 69.23282910459912
3816 69.49582448102561
3817 69.23731682973403
3818 69.4938726353696
3819 69.23890593522293
3820 69.49507672442653
3821 69.23360751855019
3822 69.48856028066447
3823 69.22740631507585
3824 69.48795649340791
3825 69.22722845254265
3826 69.48471432341847
3827 69.22520120183169
3828 69.48607824574023
3829 69.21963506338135
3830 69.47859212004971
3831 69.22050331448764
3832 69.47937779722038
3833 69.22400044515445
3834 69.47274247104011
3835 69.21999781844666
3836 69.47658860484488
3837 69.22171082837082
3838 69.47460572877313
3839 69.22051222615299
3840 69.47986847258649
3841 69.2202038108083
3842 69.4779035430908
3843 69.22030182055576
3844 69.48358091804329
3845 69.22207747438858
3846 69.47971377816587
3847 69.22235307534277
3848 69.48185309764146
3849 69.22782055429994
3850 69.4837826123925
3851 69.22995736521526
3852 69.49036309323188
3853 69.23330359577683
3854 69.49024525212931
3855 69.23263851307674
3856 69.49640160809507
3857 69.24460943848163
3858 69.50243986294576
3859 69.24266589469471
3860 69.5046404441716
3861 69.24924625734049
3862 69.50422700451776
3863 69.24362280160722
3864 69.49480544982613
3865 69.23878971435263
3866 69.48889879049831
3867 69.22859221957738
3868 69.4803245496507
3869 69.21754944441463
3870 69.46957908763419
3871 69.20483506494401
3872 69.46448296983792
3873 69.20071301592893
3874 69.45772600174152
3875 69.19255547411689
3876 69.44835970467803
3877 69.19758030585325
3878 69.44941103699102
3879 69.19398038147946
3880 69.4502896299466
