"y-rfile"
"Iteration" "y"
("Iteration" "y")
1 -4982.206458967275
2 -4703.417114049576
3 -3926.010429489098
4 -3323.871523324855
5 -2714.494890575395
6 -2274.576106790826
7 -1767.351312575247
8 -1279.654845785372
9 -745.4890052362499
10 -268.480620845319
11 130.5960496523577
12 392.5793506572383
13 565.1442749491088
14 657.870501486366
15 687.1613681347661
16 679.5262394772662
17 621.075872298432
18 555.2995867832566
19 449.4909460995353
20 326.7446386519482
21 196.5954232171156
22 66.28155668403973
23 -35.52885936572163
24 -119.3457983552577
25 -190.2426777059162
26 -232.6655467869793
27 -267.129756855841
28 -283.0299649291148
29 -292.9620639190934
30 -294.0184388220846
31 -294.2947739838301
32 -286.4894230390951
33 -276.480779182728
34 -260.8811101662006
35 -243.6506752002387
36 -226.7447484882108
37 -212.5444249587252
38 -197.0214987676938
39 -185.7171439814669
40 -175.2189094138126
41 -169.763076296952
42 -163.0140835395457
43 -160.1019398009044
44 -154.984667323703
45 -152.3426719432176
46 -148.8476619956167
47 -147.9221363960191
48 -145.784050714956
49 -146.1754671002144
50 -145.2977623594059
51 -146.5760367718073
52 -146.6263986833609
53 -148.6043113548934
54 -148.825376180398
55 -150.6102078984763
56 -150.9390018893826
57 -152.7111919581937
58 -152.600298709049
59 -153.8970394952646
60 -153.7082736545678
61 -154.8073069713645
62 -154.4756133375751
63 -155.266680600532
64 -154.5511693803371
65 -154.9529604941576
66 -153.6593641847152
67 -153.7252718632237
68 -152.3644237984722
69 -152.0993333117969
70 -150.5559465555114
71 -150.0773604992083
72 -148.3085637205822
73 -147.6499278179639
74 -145.7942375112676
75 -145.0635435222274
76 -143.1977984339895
77 -142.4222964193155
78 -140.577246363817
79 -139.8478945525575
80 -138.0873148978646
81 -137.4102973406514
82 -135.7676361333503
83 -135.222745819873
84 -133.7016199184347
85 -133.2683822487485
86 -131.9160246179427
87 -131.6164251243594
88 -130.3834316212047
89 -130.2054722843482
90 -129.0479548075273
91 -129.0114703150589
92 -127.9561210208382
93 -128.0016999109583
94 -126.9964741589694
95 -127.0966371032449
96 -126.1430405490773
97 -126.2712488123379
98 -125.3619436149696
99 -125.5046541969856
100 -124.6133431157434
101 -124.771661042998
102 -123.8809162344849
103 -124.0100751293781
104 -123.1128936412365
105 -123.2469083929225
106 -122.2859219174766
107 -122.3905542826582
108 -121.4010572959052
109 -121.4820667448633
110 -120.4928402003216
111 -120.5503686009028
112 -119.559404824445
113 -119.5814238281039
114 -118.5704819825293
115 -118.5843643565141
116 -117.5719931776773
117 -117.5735708033352
118 -116.5648850871844
119 -116.5679607027196
120 -115.5560007907893
121 -115.5601208303093
122 -114.5605924906484
123 -114.5411148406465
124 -113.5135985409001
125 -113.5054366787473
126 -112.4837687414627
127 -112.4812707687379
128 -111.4937662442499
129 -111.4898630218514
130 -110.5175331024186
131 -110.5169186182438
132 -109.5408351051376
133 -109.5648912482623
134 -108.5652946202771
135 -108.5744993239443
136 -107.5858828774372
137 -107.6071626775699
138 -106.6295669957811
139 -106.658141975408
140 -105.6737676704321
141 -105.6975737980355
142 -104.7323340068316
143 -104.7670849802978
144 -103.7864007210799
145 -103.8395116128158
146 -102.8658494916307
147 -102.9352388031278
148 -101.9317940356479
149 -101.9636185617308
150 -100.9682068334704
151 -101.008235302073
152 -99.98162365629892
153 -100.0231843216845
154 -99.00328060435541
155 -99.00587698858413
156 -97.9525945074443
157 -97.948400933938
158 -96.90644587881853
159 -96.92066412218824
160 -95.86913133774864
161 -95.87758675570551
162 -94.83709128873014
163 -94.83308089653137
164 -93.7799605691925
165 -93.78700468864595
166 -92.72583679991575
167 -92.72744373598212
168 -91.64402822993974
169 -91.63046452824037
170 -90.5592945787735
171 -90.5583623197289
172 -89.47078553797986
173 -89.4259332003069
174 -88.37613764787476
175 -88.35247471121767
176 -87.29618794481379
177 -87.26500863719279
178 -86.22868641144591
179 -86.22769986115412
180 -85.16837875131935
181 -85.14538400944964
182 -84.11749091291586
183 -84.12526024164271
184 -83.07593079461525
185 -83.08912930875495
186 -82.07013086009002
187 -82.07324726439073
188 -81.06650359870314
189 -81.06751729709836
190 -80.03505933967875
191 -80.05571424419438
192 -79.04764444597068
193 -79.10222992310884
194 -78.04888045099671
195 -78.09593576261632
196 -77.05289541998046
197 -77.09362378826789
198 -76.07796279297746
199 -76.10567492774678
200 -75.09003351463775
201 -75.1253489354048
202 -74.10872621557273
203 -74.14594305648795
204 -73.17979769658469
205 -73.23496655292018
206 -72.21433093156458
207 -72.2833536760685
208 -71.28639298887818
209 -71.34253788312377
210 -70.35356679165895
211 -70.43124571050242
212 -69.44403150110591
213 -69.51475700039114
214 -68.53434810981383
215 -68.58719806677767
216 -67.62346672966567
217 -67.70051322149401
218 -66.72931637691042
219 -66.81007048862166
220 -65.87627454039723
221 -65.96483890838456
222 -65.03309078148014
223 -65.17255893199687
224 -64.27325406924358
225 -64.39276902664149
226 -63.50695939657398
227 -63.64223639440097
228 -62.76910856970011
229 -62.92905508373313
230 -62.05373130133568
231 -62.22784218413605
232 -61.37573404186749
233 -61.57172338188218
234 -60.74643901490609
235 -60.97203420979833
236 -60.18810724669242
237 -60.43073028409867
238 -59.67401970705414
239 -59.95834734939286
240 -59.22506012103612
241 -59.52437683934819
242 -58.78842804538622
243 -59.11662381384887
244 -58.41421308824763
245 -58.76485119006806
246 -58.08401794651722
247 -58.48269272631645
248 -57.8476696664179
249 -58.25278395552323
250 -57.63852229862324
251 -58.06897307395503
252 -57.44276719211631
253 -57.90842071491604
254 -57.3123422372105
255 -57.81213383625224
256 -57.20620140629507
257 -57.72141286822873
258 -57.15581263424809
259 -57.68179220167297
260 -57.14410424898189
261 -57.68866676392551
262 -57.17406568519891
263 -57.7264841935881
264 -57.23909218777178
265 -57.80440738904012
266 -57.30953110646349
267 -57.86128334814192
268 -57.36163875625154
269 -57.92949699004105
270 -57.45056196938921
271 -58.02232685121935
272 -57.53317100191773
273 -58.09971614988338
274 -57.59099491648475
275 -58.14715149080249
276 -57.64795848168262
277 -58.2034655333864
278 -57.71450954761337
279 -58.28048480243972
280 -57.78207456857307
281 -58.34770788779247
282 -57.83802109677335
283 -58.38338684242103
284 -57.89197936728638
285 -58.42202492202542
286 -57.89481648508843
287 -58.42370478809645
288 -57.90009660673971
289 -58.42981283468343
290 -57.88814969776589
291 -58.40288462894746
292 -57.87764356310004
293 -58.40292252426157
294 -57.88385600923241
295 -58.42368133862545
296 -57.88483703685041
297 -58.40598796597862
298 -57.86149201711098
299 -58.39704690143476
300 -57.8567071636007
301 -58.37521001464781
302 -57.811324632355
303 -58.31387106865027
304 -57.75038414706098
305 -58.26621569546188
306 -57.70643647737813
307 -58.2444109909706
308 -57.69315068181903
309 -58.19385533552877
310 -57.65674256466938
311 -58.1570656296483
312 -57.62383721655376
313 -58.12664959395443
314 -57.58673969071857
315 -58.10886295137053
316 -57.57868063905032
317 -58.09365944992343
318 -57.54926649483475
319 -58.06150945056268
320 -57.51130383942796
321 -58.01166701225416
322 -57.46339606467679
323 -57.97885936215413
324 -57.46319055319756
325 -57.96394663400812
326 -57.43972486869405
327 -57.94731165493187
328 -57.40842312245086
329 -57.92338745800622
330 -57.39478142970125
331 -57.92381653024826
332 -57.3787657371771
333 -57.89424776955718
334 -57.37182107336377
335 -57.89730306503972
336 -57.36289916177126
337 -57.86355337146361
338 -57.34739206848461
339 -57.86367115116212
340 -57.35791963876166
341 -57.88366596402402
342 -57.36455757946713
343 -57.88512216524993
344 -57.35134929248311
345 -57.87591929458945
346 -57.34208166772321
347 -57.88501596579312
348 -57.35531382739351
349 -57.90219543739615
350 -57.35941030244213
351 -57.91756817583497
352 -57.39961269693742
353 -57.93877587276275
354 -57.46362530175308
355 -58.00576441870503
356 -57.49408072492936
357 -58.05404344759427
358 -57.54489181916946
359 -58.12089180247175
360 -57.6068583791272
361 -58.18730284399259
362 -57.67239246762406
363 -58.2111251189253
364 -57.70012246658799
365 -58.27516572177991
366 -57.75201767395663
367 -58.29590019408381
368 -57.80188771760648
369 -58.37498830673013
370 -57.88233925288019
371 -58.4421703958326
372 -57.94918188807268
373 -58.52788478638429
374 -58.04173757436476
375 -58.6044420460882
376 -58.10477707466649
377 -58.68110577316838
378 -58.18467186393801
379 -58.74858926794412
380 -58.27917038096649
381 -58.83620221004151
382 -58.35814173777415
383 -58.91208578987054
384 -58.42428487802902
385 -58.9880195003747
386 -58.50832400556769
387 -59.04798156332726
388 -58.58344142598241
389 -59.16271871366642
390 -58.67358921856528
391 -59.2441656524978
392 -58.74432626602662
393 -59.32287084328438
394 -58.84855254705982
395 -59.40302980678274
396 -58.91805227922544
397 -59.48083155736762
398 -58.99318934074538
399 -59.55360904864078
400 -59.05848627750422
401 -59.6075932537676
402 -59.11251427686868
403 -59.69105526745779
404 -59.20579115561599
405 -59.78983111577311
406 -59.2722150371146
407 -59.8537393098383
408 -59.35161870717057
409 -59.94167696849137
410 -59.45743096306823
411 -60.00841757980697
412 -59.51536075682274
413 -60.07820086863404
414 -59.59605621811851
415 -60.16343213033473
416 -59.70443738820378
417 -60.26264748052998
418 -59.75959462244673
419 -60.31322942167714
420 -59.82491214488316
421 -60.39613654663682
422 -59.89684281549997
423 -60.46073891897559
424 -59.96083036691955
425 -60.5243169683818
426 -60.04299243494087
427 -60.6041739097965
428 -60.13019290858006
429 -60.69501125958255
430 -60.21919377490851
431 -60.7757227608933
432 -60.29492855072672
433 -60.84791659877366
434 -60.36458124958826
435 -60.93526465459759
436 -60.45323977821515
437 -61.02216248918121
438 -60.54125172299314
439 -61.10195818291709
440 -60.61467505826798
441 -61.17799219815853
442 -60.69804890162165
443 -61.25232242676557
444 -60.77580322746996
445 -61.33388899159301
446 -60.84347665836486
447 -61.40914096819196
448 -60.88872152363012
449 -61.45904523726003
450 -60.97668733954226
451 -61.53665678136879
452 -61.03419273077217
453 -61.59802685445541
454 -61.08554295497429
455 -61.65499702002785
456 -61.15047993857717
457 -61.70677715386911
458 -61.20659652707084
459 -61.75762549558571
460 -61.26533784713899
461 -61.83775487765195
462 -61.35956895821266
463 -61.93544346473211
464 -61.44438737074208
465 -62.00744179204177
466 -61.52546515693539
467 -62.07057981347469
468 -61.57610443382303
469 -62.11860446578131
470 -61.62107042776851
471 -62.19189822150679
472 -61.69846679320143
473 -62.25712351368978
474 -61.81181495949033
475 -62.35786113916875
476 -61.86497358775587
477 -62.42252200260167
478 -61.95563322144017
479 -62.48366773207155
480 -62.00211308500741
481 -62.52868108055863
482 -62.03395049821599
483 -62.55503235491629
484 -62.07471022239139
485 -62.59734338844558
486 -62.12573496944863
487 -62.64074362655592
488 -62.16388907272102
489 -62.70415196159089
490 -62.23573001874296
491 -62.75827094090978
492 -62.2565769377489
493 -62.79261811575813
494 -62.3038908892397
495 -62.83836304980552
496 -62.33845920477742
497 -62.88627186974478
498 -62.40912987639439
499 -62.94073931156823
500 -62.45639800814835
501 -63.01347213463151
502 -62.52632399813881
503 -63.07097683270286
504 -62.56221796186895
505 -63.11934216269555
506 -62.62406117353477
507 -63.16612177340212
508 -62.66504448702275
509 -63.23655655852921
510 -62.72098814465567
511 -63.29243297245621
512 -62.80784973591742
513 -63.35918058882262
514 -62.85070167652891
515 -63.39271790520823
516 -62.88204292513389
517 -63.41692986884144
518 -62.9201397898386
519 -63.48906948537957
520 -62.98452866230983
521 -63.5231171627681
522 -63.02398001213512
523 -63.56742756312536
524 -63.06103713671063
525 -63.61690664140641
526 -63.07775655162301
527 -63.61561362202123
528 -63.12852396219585
529 -63.67161481347654
530 -63.15387810572803
531 -63.69855709248536
532 -63.1762250813739
533 -63.70177605215976
534 -63.18533013262571
535 -63.73604273147667
536 -63.21001413039569
537 -63.75583678809252
538 -63.25014074513388
539 -63.78133491176855
540 -63.29625986807199
541 -63.85607822487064
542 -63.34733352335878
543 -63.90942928763315
544 -63.40450633598027
545 -63.95372634302088
546 -63.44460081924245
547 -63.98278625835049
548 -63.46314554145827
549 -64.00220446763099
550 -63.47180334533868
551 -64.00033094814158
552 -63.4951948338541
553 -64.03998705499284
554 -63.53769096781743
555 -64.07791063283628
556 -63.57472773500159
557 -64.13470118526782
558 -63.63459114344568
559 -64.17336141609712
560 -63.65773197364116
561 -64.19200293003865
562 -63.68737954872809
563 -64.21517081371432
564 -63.70017061764307
565 -64.23139458159149
566 -63.7293780084408
567 -64.24486876996924
568 -63.75117592770422
569 -64.28258233793913
570 -63.79558023577765
571 -64.33922062611447
572 -63.83290173958718
573 -64.36315639625751
574 -63.86544502715934
575 -64.36859248260367
576 -63.87947009638852
577 -64.38512839002942
578 -63.90831339735553
579 -64.43839222176263
580 -63.92715880536585
581 -64.44014001023194
582 -63.93998404079628
583 -64.45053715927797
584 -63.94026951944075
585 -64.44763329236574
586 -63.96305105436841
587 -64.48894578322903
588 -63.9956671576785
589 -64.52589140504239
590 -64.01964669087042
591 -64.57489895264308
592 -64.06871098743817
593 -64.59416275017698
594 -64.08435652833835
595 -64.60812632386167
596 -64.10446591908052
597 -64.62561668892278
598 -64.10160399176841
599 -64.63088085031468
600 -64.13553229899169
601 -64.65951834828405
602 -64.14980926664356
603 -64.68502808898339
604 -64.18318522139646
605 -64.71482441651897
606 -64.20036086297571
607 -64.70831560895026
608 -64.20446573630655
609 -64.73388339605633
610 -64.23638923781891
611 -64.75993267345255
612 -64.24343510650057
613 -64.76725658631344
614 -64.25564457985985
615 -64.76479619262
616 -64.24754757439338
617 -64.77067803674909
618 -64.26928036519708
619 -64.79385018780214
620 -64.2688208478356
621 -64.79772876647898
622 -64.26824648898642
623 -64.77057910285374
624 -64.27896600105504
625 -64.78842343530876
626 -64.27082226567771
627 -64.7908531403323
628 -64.27758213541746
629 -64.80636132518356
630 -64.28786047952852
631 -64.82928519255719
632 -64.30781463874652
633 -64.8730912325431
634 -64.34614017307078
635 -64.87702397305152
636 -64.37025743569552
637 -64.91405890891471
638 -64.40154938815189
639 -64.93191264664134
640 -64.4468511741099
641 -64.96141303331514
642 -64.46557838616673
643 -64.9867891691767
644 -64.46742297406281
645 -64.99916838024163
646 -64.48708271552054
647 -65.00375483073408
648 -64.46973484085909
649 -64.98476117296576
650 -64.46925103082621
651 -65.00004835465829
652 -64.47472634225608
653 -64.98202339599837
654 -64.4810304037786
655 -64.99652562753448
656 -64.50332990248026
657 -65.01940138412753
658 -64.52321228623221
659 -65.03834234349546
660 -64.5313420864894
661 -65.04605230346526
662 -64.54445938806259
663 -65.04196388435581
664 -64.55494955765094
665 -65.04974473678543
666 -64.5617546596997
667 -65.05307919581797
668 -64.54638625687868
669 -65.0397673001852
670 -64.55000261673636
671 -65.02308049474451
672 -64.52685868247877
673 -65.0154106744007
674 -64.52999450782121
675 -65.04205627227157
676 -64.5631730568808
677 -65.04974027332098
678 -64.57650171876986
679 -65.06555992614243
680 -64.55011340839754
681 -65.07143717052297
682 -64.57388735391248
683 -65.07988977533358
684 -64.58866386115888
685 -65.12385792308615
686 -64.63571931355567
687 -65.14417532058891
688 -64.62652321552602
689 -65.14613515178984
690 -64.65107583227801
691 -65.17429405461941
692 -64.64356567159167
693 -65.169075991852
694 -64.63922249279784
695 -65.17147421094737
696 -64.62835716440817
697 -65.12664934840957
698 -64.61899634514327
699 -65.13961293157693
700 -64.61814766590457
701 -65.15756531584552
702 -64.66206396970222
703 -65.17397456619753
704 -64.64261582429988
705 -65.17079771958635
706 -64.65000508572435
707 -65.19000880072834
708 -64.65703451744042
709 -65.20653475276988
710 -64.65657483440962
711 -65.17991479847923
712 -64.65863609679107
713 -65.1775386320958
714 -64.68660810446417
715 -65.21774062838836
716 -64.68887395116924
717 -65.24476220255603
718 -64.70280069590726
719 -65.25218683584555
720 -64.72160102157645
721 -65.24760483710024
722 -64.68912685201371
723 -65.23058345604109
724 -64.70640272308154
725 -65.24100200776832
726 -64.70367544075613
727 -65.23289298041678
728 -64.70856730987508
729 -65.22925771922597
730 -64.72130923722725
731 -65.23547310418893
732 -64.73887673014686
733 -65.2695095512118
734 -64.74340026535411
735 -65.24849295741308
736 -64.73936702699739
737 -65.25414239270914
738 -64.73846389309101
739 -65.26082576067758
740 -64.76715437835969
741 -65.27360704817833
742 -64.77463123862465
743 -65.29342043828112
744 -64.78716861171773
745 -65.30316606306496
746 -64.79629393030784
747 -65.29742302400138
748 -64.76176037134397
749 -65.2653138780574
750 -64.77153284083349
751 -65.2751615901003
752 -64.75752041192884
753 -65.25447075592631
754 -64.74690970923538
755 -65.22851666685672
756 -64.72356765662946
757 -65.25001367137055
758 -64.75768192023732
759 -65.26739702762372
760 -64.76630474606047
761 -65.27508432789601
762 -64.79741868328411
763 -65.30612698470273
764 -64.79757609007906
765 -65.32469166219414
766 -64.83866205141517
767 -65.33669457892216
768 -64.81790507247314
769 -65.32834776748875
770 -64.81629686880869
771 -65.32714541051507
772 -64.82781501376051
773 -65.36015452834408
774 -64.8910149003179
775 -65.3875382430559
776 -64.85027418482392
777 -65.34214162323453
778 -64.81864072463256
779 -65.32003188230533
780 -64.8147919043701
781 -65.33528686815087
782 -64.81419141066731
783 -65.32954158343493
784 -64.79373784538689
785 -65.32376175046731
786 -64.81020826708043
787 -65.36921230158528
788 -64.84454414365734
789 -65.39192004122182
790 -64.87397728487754
791 -65.3907651720567
792 -64.86829695313099
793 -65.40396539694228
794 -64.86494919230772
795 -65.40513094385423
796 -64.87325380396378
797 -65.41051985028339
798 -64.89065698733852
799 -65.41108137683531
800 -64.87310598055085
801 -65.39088622729645
802 -64.87004846471366
803 -65.35344355658967
804 -64.8390785066112
805 -65.34544585083152
806 -64.80070536235502
807 -65.31674434738906
808 -64.78812985102908
809 -65.3179522557231
810 -64.80438484393099
811 -65.34981699372503
812 -64.81885868903298
813 -65.35994817826477
814 -64.83850835586512
815 -65.37010827228107
816 -64.85244444049069
817 -65.38028075067724
818 -64.87320289836947
819 -65.40822123344262
820 -64.90354013749997
821 -65.43557142694914
822 -64.92316028064606
823 -65.45073171934777
824 -64.92343461513336
825 -65.43518717376229
826 -64.89186154978003
827 -65.40790888304183
828 -64.89298741181423
829 -65.41533281776111
830 -64.8765654128205
831 -65.39431474213215
832 -64.88394305032482
833 -65.39868166282443
834 -64.90072349070782
835 -65.42376823858943
836 -64.91158026235767
837 -65.41079830046895
838 -64.90873418112427
839 -65.41092043431686
840 -64.92190588414368
841 -65.44147865777506
842 -64.92485027130024
843 -65.4393716396164
844 -64.92653692587481
845 -65.4206425754448
846 -64.92986286489894
847 -65.42961373279454
848 -64.90933643849546
849 -65.41620360814262
850 -64.92826698926362
851 -65.43545716069995
852 -64.92767439042467
853 -65.43575333001817
854 -64.90991771681702
855 -65.41880010035143
856 -64.89265412130392
857 -65.37888967830541
858 -64.88482948886976
859 -65.38641916591487
860 -64.86629969325959
861 -65.36394760887305
862 -64.8520349105644
863 -65.34765897214635
864 -64.84639381023342
865 -65.37022310292819
866 -64.88116908900633
867 -65.39406199292536
868 -64.88485546040172
869 -65.41857274347029
870 -64.93084269683011
871 -65.45154219452175
872 -64.94532940985277
873 -65.4672260236687
874 -64.98072045882887
875 -65.48620123430216
876 -64.98135358429518
877 -65.49690131510194
878 -64.97732948852766
879 -65.49001543730475
880 -64.96305486382082
881 -65.4736562654975
882 -64.94436448441843
883 -65.48337680377816
884 -64.94604473711127
885 -65.49847082888259
886 -64.9801319057847
887 -65.49790221451255
888 -64.97566938020506
889 -65.48894624583514
890 -64.95894994239431
891 -65.47904181638556
892 -64.9333361637879
893 -65.46442971304435
894 -64.9317815040509
895 -65.45305681281569
896 -64.9378378339722
897 -65.46375449628661
898 -64.95851872962508
899 -65.49212320170963
900 -64.97338475730947
901 -65.50093073706955
902 -64.95910508106817
903 -65.46654188833369
904 -64.95155983303856
905 -65.46858141041912
906 -64.9600959053673
907 -65.49597671720275
908 -64.98376543679254
909 -65.50452463635924
910 -64.96764049473803
911 -65.47664527808598
912 -64.95948853045861
913 -65.49868524043043
914 -64.97707889225651
915 -65.49952463418244
916 -64.97903131315931
917 -65.4930421167527
918 -64.96246222911556
919 -65.47684802457256
920 -64.95449919568979
921 -65.50296326807255
922 -64.97549324504351
923 -65.48674564128767
924 -64.98548244724891
925 -65.49526358219059
926 -64.99684219223869
927 -65.49426764321154
928 -65.00447548501633
929 -65.52577146346803
930 -65.0131316992054
931 -65.52674531461696
932 -64.98914163296753
933 -65.51323625607384
934 -64.97998024579981
935 -65.49489550956649
936 -64.98025687531178
937 -65.48758871754129
938 -64.96190166718976
939 -65.46728892122628
940 -64.97152598755478
941 -65.47649060578014
942 -64.96867347730239
943 -65.47290744452813
944 -64.97684514546394
945 -65.49474029989076
946 -64.99776061899688
947 -65.51377535693749
948 -64.9970914391874
949 -65.51446465412479
950 -64.98569302541654
951 -65.49439963608813
952 -64.99519387777039
953 -65.4915440291191
954 -64.99806917436003
955 -65.49504541470473
956 -64.97525281223874
957 -65.48820933600854
958 -64.98617537741309
959 -65.4998660699877
960 -65.00647866466467
961 -65.52955186346333
962 -65.03748155688027
963 -65.545228533817
964 -65.04563413313788
965 -65.55319284805185
966 -65.05479667534524
967 -65.55394461114706
968 -65.02554582524159
969 -65.53852290371762
970 -65.04028989002401
971 -65.54963512121576
972 -65.02571959373654
973 -65.54723075415147
974 -65.02152004199472
975 -65.53526859220256
976 -65.00176096546116
977 -65.50813542263366
978 -64.9924656557784
979 -65.50700758838884
980 -64.99186310517725
981 -65.51028491852681
982 -64.98708848926805
983 -65.50826083702701
984 -64.98299232151534
985 -65.50766422384207
986 -64.99206375829012
987 -65.52664434095767
988 -64.9938264185281
989 -65.52731069986568
990 -64.99431963841231
991 -65.54334193087379
992 -65.02629714664745
993 -65.55947761410006
994 -65.02613769443889
995 -65.554316678644
996 -65.03190482579907
997 -65.5566987375891
998 -65.02695977553076
999 -65.53712766612848
1000 -65.03073481078211
1001 -65.53830715916567
1002 -65.02386430663466
1003 -65.5193177858221
1004 -64.99350776134902
1005 -65.50567416529007
1006 -64.97520735377813
1007 -65.48333776123138
1008 -64.9803638501986
1009 -65.5016507116091
1010 -64.99592263578444
1011 -65.5230674224795
1012 -65.02944275281544
1013 -65.54374405400857
1014 -65.02347308425701
1015 -65.54383078400973
1016 -65.03661275781481
1017 -65.55590217345545
1018 -65.03758910935517
1019 -65.5607961917235
1020 -65.05562478997902
1021 -65.57710595506067
1022 -65.05213274211715
1023 -65.55070745090086
1024 -65.02451753464749
1025 -65.53933158628888
1026 -65.01675634987072
1027 -65.5238358937018
1028 -65.01487235822933
1029 -65.52376115909883
1030 -65.01896732433357
1031 -65.5172856986534
1032 -65.0115530469246
1033 -65.53432421028047
1034 -65.00441496035587
1035 -65.52651095187822
1036 -64.98953180500386
1037 -65.51641029406032
1038 -65.01483279053085
1039 -65.5248022858306
1040 -65.01906612811251
1041 -65.52040692851624
1042 -65.03677685052828
1043 -65.55017139734602
1044 -65.03997836462138
1045 -65.56095581788722
1046 -65.06667718905196
1047 -65.57875287126645
1048 -65.04867962134206
1049 -65.56351668273355
1050 -65.05283709915122
1051 -65.57230256890323
1052 -65.03057332400633
1053 -65.54887366370635
1054 -65.03812113006562
1055 -65.55541038252042
1056 -65.0346299143124
1057 -65.56343747465969
1058 -65.06470308229314
1059 -65.57479393225154
1060 -65.05562067645873
1061 -65.56375000691419
1062 -65.0722789798657
1063 -65.57668818085102
1064 -65.04567577628831
1065 -65.55215744709815
1066 -65.04862661462248
1067 -65.53239265912644
1068 -64.99398219419557
1069 -65.49463619023278
1070 -64.989865252817
1071 -65.5067832595675
1072 -64.99147537241973
1073 -65.51319115309184
1074 -65.02344800032262
1075 -65.53204564538575
1076 -65.0348733591813
1077 -65.55576588870444
1078 -65.01999803600604
1079 -65.5218850627719
1080 -65.00229356793477
1081 -65.54228087828857
1082 -65.01138457499101
1083 -65.54069692120831
1084 -65.00520037209627
1085 -65.53594464828164
1086 -65.02331503934566
1087 -65.55299299650326
1088 -65.04331647422273
1089 -65.57373341645292
1090 -65.08664811672799
1091 -65.5956286639976
1092 -65.08148201503386
1093 -65.58623179645244
1094 -65.0593081452691
1095 -65.57358678527871
1096 -65.06213876274155
1097 -65.57343781850872
1098 -65.06056531465478
1099 -65.56523534331237
1100 -65.02662081751457
1101 -65.52043903997402
1102 -64.99836743585691
1103 -65.50749771933069
1104 -65.01138927909068
1105 -65.54134423912664
1106 -65.02674468294275
1107 -65.55454324333736
1108 -65.04538599284292
1109 -65.57359286347987
1110 -65.05137771733074
1111 -65.56944637940019
1112 -65.04524120810029
1113 -65.57177664941251
1114 -65.06578394843061
1115 -65.57773671900935
1116 -65.07209466016225
1117 -65.5932280413832
1118 -65.0709972872376
1119 -65.57198814247636
1120 -65.03279157086084
1121 -65.53671140758119
1122 -65.01033050961286
1123 -65.52861368857985
1124 -65.01461487362803
1125 -65.54606390060194
1126 -65.04559748471581
1127 -65.56542727422855
1128 -65.06067516229778
1129 -65.56354016046251
1130 -65.05808504695561
1131 -65.54846527434113
1132 -65.02732657772638
1133 -65.54178494260555
1134 -65.03083956795837
1135 -65.55464302093169
1136 -65.04936353920471
1137 -65.56426620318291
1138 -65.04782402419177
1139 -65.55943151929461
1140 -65.06046010403304
1141 -65.58933126484386
1142 -65.06629460241078
1143 -65.59498552917259
1144 -65.06467066658833
1145 -65.58439744233712
1146 -65.05308380120846
1147 -65.58084081794172
1148 -65.06625473375253
1149 -65.5821057425735
1150 -65.05100793142121
1151 -65.55134849460379
1152 -65.03468775216658
1153 -65.53827107075469
1154 -65.01974735088568
1155 -65.53955594645686
1156 -65.03160068083812
1157 -65.54830918035412
1158 -65.03458948304167
1159 -65.55145122945403
1160 -65.03127143397269
1161 -65.54300252127611
1162 -65.0376959318754
1163 -65.54113419270918
1164 -65.04046345610192
1165 -65.55422457331782
1166 -65.05316092165191
1167 -65.56035459081123
1168 -65.03754577608299
1169 -65.54845278295488
1170 -65.05799051122125
1171 -65.55969274127409
1172 -65.04325037815345
1173 -65.55605177581151
1174 -65.03295550221904
1175 -65.54315363767705
1176 -65.03634042659441
1177 -65.53645814786746
1178 -65.05309590935187
1179 -65.57137366401096
1180 -65.06115062174631
1181 -65.59055592282759
1182 -65.04938257922825
1183 -65.57550804018965
1184 -65.04682589496942
1185 -65.57245020816438
1186 -65.07819485939504
1187 -65.5847097115017
1188 -65.07433914373054
1189 -65.58603617086884
1190 -65.06572931516494
1191 -65.5762884668037
1192 -65.0565542186641
1193 -65.55553670888982
1194 -65.05826147377505
1195 -65.57731774406807
1196 -65.07354071573
1197 -65.60582642428857
1198 -65.08639480332512
1199 -65.59754435328391
1200 -65.08679161087025
1201 -65.59625565943387
1202 -65.07960940178047
1203 -65.58302888261792
1204 -65.06822676944898
1205 -65.58004197117454
1206 -65.05887674921617
1207 -65.56983652126418
1208 -65.05185758559054
1209 -65.57200757985639
1210 -65.05299707873931
1211 -65.54942748491642
1212 -65.0488954622728
1213 -65.54625814594888
1214 -65.0239518241616
1215 -65.53290034902176
1216 -65.00494754362971
1217 -65.51229175287899
1218 -64.98110658102159
1219 -65.504052023754
1220 -64.99029518434043
1221 -65.52711444467262
1222 -64.99379094330112
1223 -65.53228929989729
1224 -65.03790898618514
1225 -65.55668025099355
1226 -65.0515406417797
1227 -65.56389542519072
1228 -65.04471765749405
1229 -65.57640402085811
1230 -65.05543245906993
1231 -65.58918900561403
1232 -65.0604951540687
1233 -65.58397879424523
1234 -65.05362203195402
1235 -65.58290240057339
1236 -65.09295370628863
1237 -65.62014040183743
1238 -65.09579951209756
1239 -65.6053403998401
1240 -65.07607120246001
1241 -65.59281254882841
1242 -65.0689967928388
1243 -65.59928686416153
1244 -65.09135014073227
1245 -65.61056555178399
1246 -65.08062851579815
1247 -65.60548060796529
1248 -65.07659776921305
1249 -65.57751729196798
1250 -65.05629238916325
1251 -65.5590201724771
1252 -65.01973915271952
1253 -65.53383908906777
1254 -65.04478805245591
1255 -65.56071354056756
1256 -65.03642202049623
1257 -65.5414239025192
1258 -65.03783286782334
1259 -65.53725603316117
1260 -65.03354453103024
1261 -65.54526912023299
1262 -65.03315344265539
1263 -65.54121436579975
1264 -65.04226786517438
1265 -65.53787809593312
1266 -65.0467475269697
1267 -65.54188059138032
1268 -65.04013737178074
1269 -65.55596159936911
1270 -65.07161729735057
1271 -65.57679185336639
1272 -65.0730716818321
1273 -65.56552287162809
1274 -65.05631364175194
1275 -65.56325515450075
1276 -65.08267940549608
1277 -65.5928728727644
1278 -65.07586369643388
1279 -65.59075762063512
1280 -65.0707943450832
1281 -65.58303508783969
1282 -65.07460998285397
1283 -65.56568314391819
1284 -65.063302822542
1285 -65.57260594674392
1286 -65.05458550716166
1287 -65.56432254312456
1288 -65.06216521440194
1289 -65.56246458215274
1290 -65.0561428151847
1291 -65.56836858335558
1292 -65.0559171711477
1293 -65.57288779406532
1294 -65.05971367046882
1295 -65.58507310897281
1296 -65.07760116106641
1297 -65.57034505770663
1298 -65.07149886407092
1299 -65.58469936534945
1300 -65.07762739063087
1301 -65.59147960902381
1302 -65.08181367788356
1303 -65.59952065106512
1304 -65.08080498397412
1305 -65.58243037412841
1306 -65.0492569303953
1307 -65.56559302658543
1308 -65.03240918517047
1309 -65.5536204614577
1310 -65.04248490736863
1311 -65.55435052886311
1312 -65.03650136021795
1313 -65.53154946251658
1314 -65.02880213518978
1315 -65.54480238045392
1316 -65.02288321101372
1317 -65.56153470062588
1318 -65.03633133916999
1319 -65.57548040165273
1320 -65.07364557263074
1321 -65.60246246528399
1322 -65.08795199296094
1323 -65.61302381590129
1324 -65.09279622114293
1325 -65.61028513043287
1326 -65.08399631242023
1327 -65.58916322151173
1328 -65.06917184317905
1329 -65.57498628537272
1330 -65.04923776915992
1331 -65.57350229758582
1332 -65.07611084888218
1333 -65.60215424776207
1334 -65.07814514887141
1335 -65.60500086660616
1336 -65.08235588708128
1337 -65.59306224955141
1338 -65.07687763791304
1339 -65.58728953861987
1340 -65.03698742041136
1341 -65.54166713987048
1342 -64.9984192004792
1343 -65.52248346334332
1344 -65.00065374397919
1345 -65.52282203711064
1346 -65.0278014873833
1347 -65.53117293678741
1348 -65.00983905098968
1349 -65.51885615707971
1350 -65.01645527832972
1351 -65.55165708768314
1352 -65.04986272814001
1353 -65.55199218278374
1354 -65.07169881452919
1355 -65.5686143047411
1356 -65.07196314814553
1357 -65.56743025427377
1358 -65.07277931505091
1359 -65.57212414605968
1360 -65.06967536415316
1361 -65.54361540835619
1362 -65.06193662340672
1363 -65.56788954949891
1364 -65.07906155753967
1365 -65.58346872197352
1366 -65.11215204828663
1367 -65.62882329612121
1368 -65.09979776212819
1369 -65.59836856553957
1370 -65.09054320843043
1371 -65.57809578642663
1372 -65.06986925794483
1373 -65.5712773434965
1374 -65.08469148124253
1375 -65.57800775925199
1376 -65.05225466893141
1377 -65.55123108720888
1378 -65.02059015132234
1379 -65.54106252104654
1380 -65.02111805054285
1381 -65.55293159492663
1382 -65.02735354497963
1383 -65.56336141532682
1384 -65.05788570216376
1385 -65.56114804220613
1386 -65.08550970423073
1387 -65.58082088872003
1388 -65.08939207185337
1389 -65.60074470766348
1390 -65.1060109377441
1391 -65.61204188780033
1392 -65.1016802932027
1393 -65.62167993227307
1394 -65.09414661910901
1395 -65.61436098238829
1396 -65.06672544936062
1397 -65.59036101675132
1398 -65.06457331046879
1399 -65.56537230211519
1400 -65.03991975526918
1401 -65.55032151580203
1402 -65.02269448342821
1403 -65.52083101439077
1404 -65.00458508273675
1405 -65.51970107347134
1406 -64.98913175999741
1407 -65.53476821658332
1408 -64.99706691015147
1409 -65.52628824136251
1410 -65.01341276221318
1411 -65.54731768025852
1412 -65.04117373294534
1413 -65.57468270486402
1414 -65.05230840394819
1415 -65.5842002120734
1416 -65.07178176271692
1417 -65.58364550178386
1418 -65.07013219771096
1419 -65.60702350037275
1420 -65.09159237391312
1421 -65.61363886339446
1422 -65.08340245972613
1423 -65.60151055149581
1424 -65.07504966485115
1425 -65.58791544030414
1426 -65.06641185111592
1427 -65.57538222634433
1428 -65.07689537794727
1429 -65.59792713354332
1430 -65.0759532955216
1431 -65.58806750011144
1432 -65.07391532271888
1433 -65.56367528049566
1434 -65.05172151595391
1435 -65.566078101613
1436 -65.03959984144626
1437 -65.56354461984245
1438 -65.03776217075026
1439 -65.5422340222233
1440 -65.05743080328298
1441 -65.56875424404876
1442 -65.05620679745482
1443 -65.56460716306401
1444 -65.06835121311518
1445 -65.56923436118225
1446 -65.05478430617397
1447 -65.57679338648846
1448 -65.06205133942919
1449 -65.56683570726373
1450 -65.06094968012995
1451 -65.55680197933141
1452 -65.06591526891644
1453 -65.57666378783203
1454 -65.04455785425016
1455 -65.58022856883834
1456 -65.07487583973092
1457 -65.56638506569797
1458 -65.06931976027471
1459 -65.58061424185686
1460 -65.10368516776951
1461 -65.59570926687147
1462 -65.09642190881554
1463 -65.58329844580307
1464 -65.1003580791412
1465 -65.57810322703467
1466 -65.07280158783919
1467 -65.55689890528662
1468 -65.0598263452586
1469 -65.55559723220235
1470 -65.06569495825526
1471 -65.57651167680054
1472 -65.05541817430448
1473 -65.5471810656327
1474 -65.05795134805379
1475 -65.56616508918304
1476 -65.06297428534185
1477 -65.57158029150158
1478 -65.05632210671109
1479 -65.56235809387788
1480 -65.05997598696206
1481 -65.58498922136368
1482 -65.06828536893346
1483 -65.6071252251392
1484 -65.07162085487067
1485 -65.61695863268574
1486 -65.06455729437221
1487 -65.59480938911479
1488 -65.05131788619288
1489 -65.56137917942847
1490 -65.0295999116401
1491 -65.54603454962984
1492 -65.02391368837993
1493 -65.5460373582704
1494 -65.01160651698885
1495 -65.54425150903791
1496 -65.00975469813403
1497 -65.53192263372185
1498 -65.02329128791466
1499 -65.55448371285128
1500 -65.04786271659545
1501 -65.59346317710596
1502 -65.06401792598292
1503 -65.61005617928468
1504 -65.08832249673132
1505 -65.61472976984571
1506 -65.0834048182804
1507 -65.60951560240343
1508 -65.09995145397134
1509 -65.62490853993751
1510 -65.13002045832877
1511 -65.63628143395799
1512 -65.10949964386705
1513 -65.61940316506031
1514 -65.09285256540706
1515 -65.60168294190599
1516 -65.09518764449714
1517 -65.6166046038378
1518 -65.09427464398753
1519 -65.61225582603088
1520 -65.09340932088695
1521 -65.59814084052753
1522 -65.08433672400565
1523 -65.57256205470402
1524 -65.06076389066291
1525 -65.55596201997183
1526 -65.01106156366708
1527 -65.5111479031884
1528 -65.03229461048922
1529 -65.53292278883261
1530 -65.04672887327877
1531 -65.54308245950925
1532 -65.03521365204136
1533 -65.5619975167692
1534 -65.05989226540497
1535 -65.56291650219326
1536 -65.06806802999408
1537 -65.56344371003794
1538 -65.07164794733573
1539 -65.56339775779776
1540 -65.06037279576158
1541 -65.55840922149547
1542 -65.03442245949495
1543 -65.54230461194059
1544 -65.02672974168507
1545 -65.53097468460726
1546 -65.01804818038029
1547 -65.54054236982802
1548 -65.06329855755487
1549 -65.58128374343512
1550 -65.09015462005273
1551 -65.60023506468661
1552 -65.08594820537714
1553 -65.58437225553567
1554 -65.09967824785323
1555 -65.60748376968704
1556 -65.08071520717874
1557 -65.5967299475124
1558 -65.09714082205369
1559 -65.58548707799774
1560 -65.08698717587225
1561 -65.56841182233725
1562 -65.07138841645317
1563 -65.56041829349304
1564 -65.04208489569638
1565 -65.54725042909227
1566 -65.03223849321284
1567 -65.54381629260705
1568 -65.04268555771056
1569 -65.5405584091765
1570 -65.03775944979414
1571 -65.55074829754923
1572 -65.03740795700462
1573 -65.5743515703262
1574 -65.06828649053223
1575 -65.58834931700977
1576 -65.07928511089727
1577 -65.59222659006831
1578 -65.06671756399432
1579 -65.58243363149998
1580 -65.04921298934347
1581 -65.59318661026508
1582 -65.05168611396061
1583 -65.58205662968128
1584 -65.0701058941272
1585 -65.5806311275464
1586 -65.07404171105615
1587 -65.58797070555363
1588 -65.05007807498698
1589 -65.57423350011686
1590 -65.05575091313833
1591 -65.59531926260766
1592 -65.0630550514752
1593 -65.59416015192835
1594 -65.06353664902755
1595 -65.59645848870409
1596 -65.07174625894051
1597 -65.59695762428187
1598 -65.06705553845055
1599 -65.59308799558588
1600 -65.08115978780697
1601 -65.59486710469474
1602 -65.0721714305518
1603 -65.59498359050893
1604 -65.09635642110624
1605 -65.61825680627405
1606 -65.09717113261756
1607 -65.61912742839641
1608 -65.1039104710359
1609 -65.60313617850544
1610 -65.06987552944517
1611 -65.54810006466788
1612 -65.04297977075927
1613 -65.54545525894676
1614 -65.05039811224276
1615 -65.55128359812365
1616 -65.0677626262416
1617 -65.56339445333437
1618 -65.06533424370649
1619 -65.55803222274982
1620 -65.05317849584812
1621 -65.56714272262165
1622 -65.05013924511077
1623 -65.54094944782231
1624 -65.03316160058178
1625 -65.53471773320604
1626 -65.02815986172924
1627 -65.54240509571345
1628 -65.05033934579973
1629 -65.57428227692321
1630 -65.06006435917325
1631 -65.58523300655516
1632 -65.08278197547584
1633 -65.60620183500443
1634 -65.07883548561263
1635 -65.58164444618046
1636 -65.07568572353767
1637 -65.61689713977017
1638 -65.09085926774337
1639 -65.59565535216684
1640 -65.08259735753482
1641 -65.5789951708707
1642 -65.04352681721198
1643 -65.54388840378071
1644 -65.06727969992606
1645 -65.58510170154804
1646 -65.05932907152923
1647 -65.55251100327463
1648 -65.05937869877836
1649 -65.56118997355414
1650 -65.04650045116119
1651 -65.54808773887565
1652 -65.04582030656745
1653 -65.55105179230428
1654 -65.04652289589465
1655 -65.54908419431386
1656 -65.06340462805586
1657 -65.55632263222952
1658 -65.05790370828936
1659 -65.56469440298454
1660 -65.04970806593298
1661 -65.57073095890928
1662 -65.07239958532058
1663 -65.5914332293916
1664 -65.08924043027888
1665 -65.59533111045587
1666 -65.08847095754956
1667 -65.58634440700459
1668 -65.05134040514187
1669 -65.58893165077039
1670 -65.06833465515616
1671 -65.56924296328852
1672 -65.06055521120793
1673 -65.54411024953625
1674 -65.061527253337
1675 -65.56480508859048
1676 -65.02950160343997
1677 -65.5805271265512
1678 -65.05440149397522
1679 -65.59936008399158
1680 -65.05074140669595
1681 -65.58405346736157
1682 -65.05979490510725
1683 -65.56554836789786
1684 -65.05190348411296
1685 -65.57805342984116
1686 -65.08001131646895
1687 -65.6013843185778
1688 -65.08019056293659
1689 -65.60551470676961
1690 -65.08403690879459
1691 -65.60806020912186
1692 -65.08830386458217
1693 -65.614394318837
1694 -65.07883480500571
1695 -65.60902298141285
1696 -65.07632185240578
1697 -65.59793899360669
1698 -65.0889521047072
1699 -65.59227950154093
1700 -65.06413859436007
1701 -65.58354544538219
1702 -65.0811502459625
1703 -65.58598077260268
1704 -65.06971062900563
1705 -65.57592644772386
1706 -65.0654737968305
1707 -65.58001721706377
1708 -65.05530753942099
1709 -65.55510115216074
1710 -65.05320387146989
1711 -65.57103132625417
1712 -65.05400820858172
1713 -65.55553842810976
1714 -65.04426101062764
1715 -65.53340335216633
1716 -65.0219704808884
1717 -65.52595394389354
1718 -65.02347370286225
1719 -65.54242227751993
1720 -65.05053264490498
1721 -65.54700061445079
1722 -65.05742957059269
1723 -65.56994530767008
1724 -65.0782487254161
1725 -65.60492837660868
1726 -65.08592332075678
1727 -65.61202337462034
1728 -65.08674300051185
1729 -65.59551205285813
1730 -65.07770383299696
1731 -65.57652829689252
1732 -65.06381117515501
1733 -65.57920499774644
1734 -65.07266674581155
1735 -65.5846260269002
1736 -65.05168543829615
1737 -65.55776005588308
1738 -65.05895813504463
1739 -65.58979053118205
1740 -65.0622579806985
1741 -65.59285266623772
1742 -65.08087580357677
1743 -65.60061671236434
1744 -65.07162846594548
1745 -65.58393561257664
1746 -65.05589229682623
1747 -65.56459222100239
1748 -65.06402775197627
1749 -65.57107091830373
1750 -65.04769845399115
1751 -65.57063173302379
1752 -65.08038558184468
1753 -65.58145995744658
1754 -65.08093215132243
1755 -65.58573416131048
1756 -65.05076569421662
1757 -65.5704972523942
1758 -65.06367714835952
1759 -65.58817531798027
1760 -65.06757811538529
1761 -65.58998463810903
1762 -65.08024367853777
1763 -65.57420865888403
1764 -65.08761137159449
1765 -65.59577054891524
1766 -65.06976883423758
1767 -65.58128743739773
1768 -65.05335732011811
1769 -65.57283645438051
1770 -65.0451007424208
1771 -65.55388726369939
1772 -65.04597405902345
1773 -65.58211112135739
1774 -65.06888456731065
1775 -65.59328613765182
1776 -65.06107262449169
1777 -65.57047503784997
1778 -65.04535472998674
1779 -65.56693412632666
1780 -65.03840348479868
1781 -65.55790781399058
1782 -65.03999293540195
1783 -65.55903702340005
1784 -65.03151760799672
1785 -65.53933087814337
1786 -65.0304058277096
1787 -65.54860307499607
1788 -65.03652848484292
1789 -65.54575996065994
1790 -65.03347987200583
1791 -65.55921256862284
1792 -65.05378926414853
1793 -65.56596527022913
1794 -65.0637508273
1795 -65.58397368633051
1796 -65.0755841671116
1797 -65.59550966193787
1798 -65.09555949971102
1799 -65.60227134963023
1800 -65.0980080235703
1801 -65.60749449509493
1802 -65.09587868895328
1803 -65.61862714755955
1804 -65.07786660437979
1805 -65.59352407852197
1806 -65.08476493536787
1807 -65.57625591417937
1808 -65.07499100498067
1809 -65.57015752857096
1810 -65.0543028370432
1811 -65.54588010622859
1812 -65.03526456842921
1813 -65.54368955631527
1814 -65.0299078462573
1815 -65.52394043412822
1816 -65.01785630200173
1817 -65.54404518451696
1818 -65.04715868326404
1819 -65.56147326679014
1820 -65.04561645598677
1821 -65.58667705675916
1822 -65.0805949709314
1823 -65.59995962044582
1824 -65.09903010431471
1825 -65.61313079831922
1826 -65.10058199939625
1827 -65.61198550025553
1828 -65.10624714309273
1829 -65.62523100474648
1830 -65.12448547899895
1831 -65.63891534901104
1832 -65.11537859742843
1833 -65.62196956113974
1834 -65.10319272875805
1835 -65.6028530398962
1836 -65.11057335787368
1837 -65.59596342281895
1838 -65.06684477105901
1839 -65.56824831386334
1840 -65.06068464477642
1841 -65.55487537729233
1842 -65.04284395315163
1843 -65.55085709794456
1844 -65.01261213553327
1845 -65.53964885694165
1846 -65.04395202359262
1847 -65.57520896505852
1848 -65.07848181782849
1849 -65.58452754174117
1850 -65.07472981775173
1851 -65.55880363827123
1852 -65.0429907383724
1853 -65.54102566107943
1854 -65.03996923287391
1855 -65.52860568343336
1856 -64.99414820585021
1857 -65.52304796264347
1858 -65.01602884534144
1859 -65.50848389409927
1860 -65.00841313762341
1861 -65.53801427154397
1862 -65.03646006973106
1863 -65.55556997001885
1864 -65.04412165055791
1865 -65.57228266270442
1866 -65.06691079495607
1867 -65.5763262407764
1868 -65.06935693072568
1869 -65.57865390761904
1870 -65.08405805889221
1871 -65.59341707263962
1872 -65.06665939596583
1873 -65.59170517735559
1874 -65.07724606408422
1875 -65.60679117269679
1876 -65.08345254972234
1877 -65.60005133134365
1878 -65.10580580237389
1879 -65.62584027601271
1880 -65.09191143012481
1881 -65.60781959170431
1882 -65.09478828323999
1883 -65.61041389975385
1884 -65.07844884585435
1885 -65.58814758407703
1886 -65.09296724963896
1887 -65.60125866474901
1888 -65.08696681902248
1889 -65.60710882968966
1890 -65.09855763783946
1891 -65.58712986649847
1892 -65.03249060336536
1893 -65.54526709246269
1894 -65.00537958252379
1895 -65.52729400005404
1896 -65.00541235214125
1897 -65.52650865958105
1898 -65.0383408682099
1899 -65.56413068412721
1900 -65.07330822574485
1901 -65.60448757808003
1902 -65.09425470903652
1903 -65.59986977208263
1904 -65.08847853926004
1905 -65.59405323043839
1906 -65.07959065358941
1907 -65.59780955121953
1908 -65.08608033045604
1909 -65.58414474932738
1910 -65.05907776052142
1911 -65.56159597871981
1912 -65.05905447156245
1913 -65.56502494314137
1914 -65.06595962014319
1915 -65.5493066207198
1916 -65.03594528253768
1917 -65.5632391167124
1918 -65.0539767071421
1919 -65.55759607135856
1920 -65.03879468528693
1921 -65.55303163541157
1922 -65.03488521337097
1923 -65.55310441571666
1924 -65.04027525340121
1925 -65.552728701647
1926 -65.03482636809521
1927 -65.55386395190087
1928 -65.06473152503371
1929 -65.59125178764496
1930 -65.06947690686977
1931 -65.5791424310665
1932 -65.05858761624283
1933 -65.5736977310584
1934 -65.08622383094134
1935 -65.58110162871391
1936 -65.06771782882737
1937 -65.56929685765559
1938 -65.0433938908227
1939 -65.55602267462282
1940 -65.03374397620162
1941 -65.56027446934706
1942 -65.03346962701011
1943 -65.55010313096282
1944 -65.0382913600758
1945 -65.55166684248033
1946 -65.05941626205342
1947 -65.56267592449355
1948 -65.05870877719667
1949 -65.58301505915226
1950 -65.0699778487233
1951 -65.57815346174689
1952 -65.06313989176206
1953 -65.56375635611886
1954 -65.06337834675321
1955 -65.55996579591016
1956 -65.05850239445202
1957 -65.57281285690843
1958 -65.0897938265212
1959 -65.57759827270607
1960 -65.08809918140587
1961 -65.57154342383018
1962 -65.08170143228473
1963 -65.58274863159136
1964 -65.09775745965321
1965 -65.62467108546041
1966 -65.101207791077
1967 -65.62464146395946
1968 -65.09828300348924
1969 -65.60368945612809
1970 -65.09637319149434
1971 -65.60416917078884
1972 -65.06041539720184
1973 -65.5746359454931
1974 -65.06256390122249
1975 -65.57278972454081
1976 -65.06130244438341
1977 -65.57149621853122
1978 -65.06117692794342
1979 -65.57122889368642
1980 -65.03132478778114
1981 -65.54930849525853
1982 -65.03512437742611
1983 -65.55936530970091
1984 -65.02850748805356
1985 -65.54156218657577
1986 -65.04353330320529
1987 -65.5505276068392
1988 -65.05029745695609
1989 -65.56735292800391
1990 -65.05319113785426
1991 -65.5662604640403
1992 -65.03762970659214
1993 -65.55865397493427
1994 -65.03554297489912
1995 -65.55379790633164
1996 -65.02977647766328
1997 -65.56377564075606
1998 -65.07460680898461
1999 -65.59666683795732
2000 -65.08565644708786
2001 -65.60491244323377
2002 -65.10846543173679
2003 -65.59842470972741
2004 -65.07406208514219
2005 -65.58675459343424
2006 -65.05434311053946
2007 -65.56311971984979
2008 -65.02261819950157
2009 -65.56127151069992
2010 -65.05334111775676
2011 -65.57420756193213
2012 -65.07323297387009
2013 -65.60275710190886
2014 -65.08707080231689
2015 -65.58248337191041
2016 -65.0504553405721
2017 -65.56533807170136
2018 -65.03500106808741
2019 -65.53694043845135
2020 -65.01993504486848
2021 -65.56338141781708
2022 -65.04588555409124
2023 -65.6028918573263
2024 -65.08251238565877
2025 -65.60317407374572
2026 -65.09037531748201
2027 -65.59554705057836
2028 -65.08444556862138
2029 -65.616915676804
2030 -65.09691624015714
2031 -65.61703099364149
2032 -65.0916352203746
2033 -65.58524028057953
2034 -65.06942210870508
2035 -65.57516909934526
2036 -65.04821290901046
2037 -65.56797120530763
2038 -65.03749315711855
2039 -65.5598316890007
2040 -65.03908067259285
2041 -65.54379790048387
2042 -65.02350974721446
2043 -65.53266385228955
2044 -65.02429226789283
2045 -65.55266500912738
2046 -65.06248087669273
2047 -65.56728458150158
2048 -65.07402304009706
2049 -65.57038149386516
2050 -65.09019185919566
2051 -65.58582295094016
2052 -65.09956896937166
2053 -65.60222527159691
2054 -65.1046148408094
2055 -65.60817951531565
2056 -65.0942471576205
2057 -65.55460625030589
2058 -65.06788625696821
2059 -65.56248669503086
2060 -65.06345101700811
2061 -65.55999305067446
2062 -65.05995660496723
2063 -65.54604923797937
2064 -65.04832350324743
2065 -65.53858745769813
2066 -65.01821898250563
2067 -65.49711329348287
2068 -64.98189528675316
2069 -65.52216681384731
2070 -65.01641464638917
2071 -65.54252794356145
2072 -65.03039435284558
2073 -65.56231629179777
2074 -65.07140013803826
2075 -65.5828121565292
2076 -65.05421544655798
2077 -65.58215167235502
2078 -65.0995829803794
2079 -65.63214671544338
2080 -65.09409176084505
2081 -65.62144129224193
2082 -65.09996755750552
2083 -65.61270361109153
2084 -65.07364516587445
2085 -65.5952738942145
2086 -65.06545220606526
2087 -65.59708661820675
2088 -65.06278440901757
2089 -65.57954170318314
2090 -65.03849576516555
2091 -65.5464150560894
2092 -65.03003910531378
2093 -65.56851592971886
2094 -65.05405261179244
2095 -65.58917651166587
2096 -65.06554023013206
2097 -65.59600444693608
2098 -65.08152068416435
2099 -65.5933982555778
2100 -65.08100056072693
2101 -65.61376679156201
2102 -65.09940280653259
2103 -65.63472320974491
2104 -65.10195745114977
2105 -65.61057965597543
2106 -65.07675798679598
2107 -65.59591087671562
2108 -65.07278274558898
2109 -65.61212706539918
2110 -65.08507949914875
2111 -65.58711323188768
2112 -65.0647358180202
2113 -65.57457239944949
2114 -65.04716098412911
2115 -65.55328827560645
2116 -65.02074337415984
2117 -65.5403834434715
2118 -65.00911067266298
2119 -65.52342961130395
2120 -65.01443751275626
2121 -65.52756998882978
2122 -65.02038572763588
2123 -65.50781238030397
2124 -64.99618926150212
2125 -65.54050722542762
2126 -65.03094278049079
2127 -65.54875866867394
2128 -65.03727024705296
2129 -65.55893482134989
2130 -65.06179318943771
2131 -65.59087870899359
2132 -65.07002536193505
2133 -65.57861242931229
2134 -65.06784962839166
2135 -65.56809837828887
2136 -65.06734301879091
2137 -65.56138774667919
2138 -65.04789135434122
2139 -65.53453175111642
2140 -65.04703385781032
2141 -65.56177493289638
2142 -65.06529541669244
2143 -65.58294795312931
2144 -65.09766368274013
2145 -65.59165210134701
2146 -65.10701655332126
2147 -65.61018363342642
2148 -65.12709796561865
2149 -65.62343080919231
2150 -65.15405468320924
2151 -65.62885740083242
2152 -65.12742853486212
2153 -65.59243109257589
2154 -65.09497221688545
2155 -65.57323114586164
2156 -65.05756472751425
2157 -65.55110606346949
2158 -65.05243749359867
2159 -65.55092733524044
2160 -65.04885300168662
2161 -65.54003432401001
2162 -65.05117140626936
2163 -65.55099456667391
2164 -65.03066886347044
2165 -65.52856491056664
2166 -65.0301244136534
2167 -65.52252679633469
2168 -65.01449913110926
2169 -65.52568554503732
2170 -64.99635642741607
2171 -65.53740048507902
2172 -65.02437298916843
2173 -65.56076463238836
2174 -65.05394555462831
2175 -65.57407572725288
2176 -65.04421729354939
2177 -65.5648712018358
2178 -65.0774779650194
2179 -65.5758655489755
2180 -65.04594463201322
2181 -65.56027143500849
2182 -65.03673584376324
2183 -65.57383789776671
2184 -65.05781815018464
2185 -65.57615572210054
2186 -65.07570332906968
2187 -65.58765539085229
2188 -65.0825199990899
2189 -65.61294675381416
2190 -65.11215716074096
2191 -65.62325258624649
2192 -65.08857516785058
2193 -65.61338565502058
2194 -65.08864502471054
2195 -65.59285165950362
2196 -65.07068893708868
2197 -65.60193441497387
2198 -65.08525399120674
2199 -65.61308658031506
2200 -65.11451872124942
2201 -65.61214510778824
2202 -65.09953617037344
2203 -65.60365041657199
2204 -65.08191239989499
2205 -65.59233226740922
2206 -65.06794410732455
2207 -65.57220255592844
2208 -65.0572731743856
2209 -65.57039767232297
2210 -65.04461320379764
2211 -65.56461071294099
2212 -65.05065339609826
2213 -65.55767580939111
2214 -65.03903282411264
2215 -65.53742794883658
2216 -65.02162097959969
2217 -65.52629136714874
2218 -64.9988707275616
2219 -65.5234658552156
2220 -65.03592364846034
2221 -65.56035371134173
2222 -65.04560456566068
2223 -65.57351542129291
2224 -65.06259110823434
2225 -65.57350165468007
2226 -65.04424483883196
2227 -65.56785014999291
2228 -65.06615002753055
2229 -65.58115502572221
2230 -65.0636279127944
2231 -65.57436081972972
2232 -65.06279047178492
2233 -65.57581307832253
2234 -65.08291069354875
2235 -65.5810993510492
2236 -65.08782122205895
2237 -65.58982085267755
2238 -65.09084499227664
2239 -65.59960711682471
2240 -65.11398703320481
2241 -65.59626981874092
2242 -65.10247294436248
2243 -65.5964180802347
2244 -65.10771974772453
2245 -65.6080849626882
2246 -65.10178951659545
2247 -65.5877075757913
2248 -65.08591437646224
2249 -65.56719381547089
2250 -65.06427958062118
2251 -65.55900035137815
2252 -65.05023927641695
2253 -65.54330624809278
2254 -65.02362430124258
2255 -65.53234510432658
2256 -65.01340301891909
2257 -65.52164039580038
2258 -65.02596201037458
2259 -65.52300634958797
2260 -65.01452096254107
2261 -65.52043567766307
2262 -65.02746987525292
2263 -65.54052917442756
2264 -65.02866057283447
2265 -65.54814736551025
2266 -65.03217838678925
2267 -65.5870640154305
2268 -65.06559226262357
2269 -65.61458788816904
2270 -65.09117512494812
2271 -65.63420834510895
2272 -65.09673886913247
2273 -65.6353755914694
2274 -65.1286584311275
2275 -65.63632124623567
2276 -65.11442600038004
2277 -65.64664658062624
2278 -65.12648131223791
2279 -65.6377528586891
2280 -65.09875858112635
2281 -65.61381275565851
2282 -65.0874774953334
2283 -65.59700372558527
2284 -65.07602881348195
2285 -65.59992336232287
2286 -65.08716190675281
2287 -65.58484296859849
2288 -65.06819239494888
2289 -65.56871833005268
2290 -65.05621078241623
2291 -65.56095873592635
2292 -65.02756879895729
2293 -65.56117628605014
2294 -65.04048100167429
2295 -65.56292782668245
2296 -65.03927441241107
2297 -65.54371543944461
2298 -65.041034078921
2299 -65.54584918462274
2300 -65.04453837061978
2301 -65.56085092189822
2302 -65.05288103411463
2303 -65.54129167008833
2304 -65.03428346378753
2305 -65.54134137121731
2306 -65.04305200141022
2307 -65.55520440295298
2308 -65.05795602877016
2309 -65.57011164040014
2310 -65.07309979938306
2311 -65.58212110599852
2312 -65.07618942152874
2313 -65.57864871276593
2314 -65.09124406493088
2315 -65.57472662937228
2316 -65.07642347614781
2317 -65.58371849526469
2318 -65.07245975631447
2319 -65.59502516558584
2320 -65.08146964884037
2321 -65.58433223754885
2322 -65.06307854826083
2323 -65.56537499064346
2324 -65.08182484105441
2325 -65.61307350202028
2326 -65.11466185515665
2327 -65.61704519014194
2328 -65.11634442820707
2329 -65.60892420014976
2330 -65.11884341326602
2331 -65.61539038413871
2332 -65.08496550976798
2333 -65.60471234960799
2334 -65.09003051463016
2335 -65.59201026431131
2336 -65.06441407449712
2337 -65.56658311158141
2338 -65.04926605684128
2339 -65.5553409005761
2340 -65.04707146871583
2341 -65.5641204768404
2342 -65.05661581493582
2343 -65.55955798055004
2344 -65.05568466991804
2345 -65.54458805279684
2346 -65.04254339656136
2347 -65.52721560703161
2348 -65.02840750053538
2349 -65.54275961378264
2350 -65.05461686736912
2351 -65.56284391895275
2352 -65.05014102006324
2353 -65.56156358451977
2354 -65.05091071563258
2355 -65.56804179665949
2356 -65.04723618994687
2357 -65.56522599773417
2358 -65.05241546376892
2359 -65.55951530529468
2360 -65.02742701686718
2361 -65.53657704870214
2362 -65.03876575506942
2363 -65.54795357623799
2364 -65.0463593473586
2365 -65.57921009238808
2366 -65.0673572310227
2367 -65.57581282045713
2368 -65.06282491332705
2369 -65.58954571906509
2370 -65.08692566161726
2371 -65.60641842291811
2372 -65.0828463307511
2373 -65.6168147420465
2374 -65.09318943982559
2375 -65.60779516062308
2376 -65.07585159586817
2377 -65.60572853501549
2378 -65.10572427731725
2379 -65.61293404797198
2380 -65.09706898486836
2381 -65.61361536375841
2382 -65.08819140079852
2383 -65.5909333822997
2384 -65.06600475744013
2385 -65.59045259503677
2386 -65.06734471958195
2387 -65.58169498009146
2388 -65.06028467570617
2389 -65.59844565097596
2390 -65.07963897191225
2391 -65.59698838972005
2392 -65.0740056505521
2393 -65.57179324530641
2394 -65.05491785666317
2395 -65.56566747110037
2396 -65.02641835349749
2397 -65.56680712911003
2398 -65.05911015263068
2399 -65.56864929628568
2400 -65.05278367472602
2401 -65.55877753651642
2402 -65.05216587515201
2403 -65.5704287736456
2404 -65.06357014404158
2405 -65.58923680422407
2406 -65.07727938216284
2407 -65.60698942062116
2408 -65.07473292067655
2409 -65.59415966453264
2410 -65.08433157402752
2411 -65.58983780625714
2412 -65.07940670158423
2413 -65.59897589509069
2414 -65.08341989128036
2415 -65.5890028621544
2416 -65.0476142841591
2417 -65.54993361607946
2418 -65.05318360030171
2419 -65.5555514772184
2420 -65.06849954648881
2421 -65.57529383755127
2422 -65.07181975794975
2423 -65.57151166237601
2424 -65.05031122282293
2425 -65.56609231837494
2426 -65.04795925160535
2427 -65.5591012416551
2428 -65.03402583594287
2429 -65.56784904202104
2430 -65.06102336034769
2431 -65.58422907852579
2432 -65.07662030451542
2433 -65.58525178024068
2434 -65.08120237161134
2435 -65.58099233153415
2436 -65.07897988421037
2437 -65.58766843585404
2438 -65.0721204770805
2439 -65.56305886675224
2440 -65.08748734367627
2441 -65.57435756503067
2442 -65.07031223066004
2443 -65.57416580596896
2444 -65.0561722610845
2445 -65.5699360727837
2446 -65.06706847302364
2447 -65.56025107204908
2448 -65.07182488014479
2449 -65.56151470834301
2450 -65.03717439078873
2451 -65.54600755731792
2452 -65.04125199396319
2453 -65.53800975349812
2454 -65.03874306579354
2455 -65.54401270919089
2456 -65.03184891266309
2457 -65.54670296442511
2458 -65.05102148661055
2459 -65.57298545458382
2460 -65.06123205443261
2461 -65.59893037020561
2462 -65.08068103217386
2463 -65.61825755392276
2464 -65.09319790328524
2465 -65.6198768843666
2466 -65.10374768293187
2467 -65.63723412105566
2468 -65.12321892746556
2469 -65.6519262073447
2470 -65.11915742930512
2471 -65.63214779325057
2472 -65.10758812015668
2473 -65.62248777719965
2474 -65.10702679321579
2475 -65.62408096714148
2476 -65.08000554971719
2477 -65.60107947615815
2478 -65.0886387172585
2479 -65.57289842866967
2480 -65.06438138982216
2481 -65.54437683451131
2482 -65.01451686725292
2483 -65.50396782285536
2484 -64.9939653253152
2485 -65.49989913792285
2486 -64.99759844629313
2487 -65.49069757309201
2488 -64.977800184169
2489 -65.47100686392744
2490 -64.99973473946373
2491 -65.49259722566205
2492 -65.00294767238412
2493 -65.53333514903956
2494 -65.02426381127418
2495 -65.55114668856544
2496 -65.05432869284053
2497 -65.57802503960428
2498 -65.08236770887507
2499 -65.60768354777194
2500 -65.09171282853443
2501 -65.59998042360533
2502 -65.10956247174956
2503 -65.61098422998535
2504 -65.10150378898231
2505 -65.59030373309466
2506 -65.07382416022895
2507 -65.58516862054175
2508 -65.0588963059475
2509 -65.58915369525785
2510 -65.0680320593509
2511 -65.60170205236867
2512 -65.07082816202076
2513 -65.58478170427585
2514 -65.06023647335778
2515 -65.5908841558243
2516 -65.09134121410786
2517 -65.61601033047162
2518 -65.09184543454469
2519 -65.61102556351911
2520 -65.08382587170233
2521 -65.60896603184729
2522 -65.08912163147971
2523 -65.59213865305095
2524 -65.08773180050531
2525 -65.60082979383218
2526 -65.06675713471198
2527 -65.58806283815881
2528 -65.08831945533812
2529 -65.59381848507614
2530 -65.07259370133492
2531 -65.58936110163759
2532 -65.06509131717856
2533 -65.58414826584689
2534 -65.07033437347349
2535 -65.58318878712588
2536 -65.08071735324272
2537 -65.57375538253481
2538 -65.05057883659964
2539 -65.56203780850166
2540 -65.03710581644845
2541 -65.54416220706426
2542 -65.03041602377229
2543 -65.52968342799819
2544 -65.02303727870336
2545 -65.52708467793182
2546 -65.05112488440179
2547 -65.56121550959004
2548 -65.07514369971044
2549 -65.58052167351488
2550 -65.07218870845598
2551 -65.57430286192144
2552 -65.06204713147474
2553 -65.56832884787138
2554 -65.06792941550434
2555 -65.57181907500136
2556 -65.06247816557526
2557 -65.56639800628264
2558 -65.07013795767112
2559 -65.5827663004452
2560 -65.06848736780792
2561 -65.55429691911657
2562 -65.03744290303504
2563 -65.54933861326322
2564 -65.03841536603288
2565 -65.56519748768459
2566 -65.05218298548419
2567 -65.55851814621484
2568 -65.03436204588853
2569 -65.5427596335151
2570 -65.04151137606753
2571 -65.55507867861934
2572 -65.05310188725396
2573 -65.57658682535623
2574 -65.07145341594162
2575 -65.58273056464965
2576 -65.06456483225577
2577 -65.58484230937975
2578 -65.07979884308645
2579 -65.58763326514168
2580 -65.05444610571416
2581 -65.5852166421496
2582 -65.06322498455253
2583 -65.57599573898821
2584 -65.05881566027176
2585 -65.56007318196531
2586 -65.07713083271926
2587 -65.57829003267011
2588 -65.06651771600424
2589 -65.58989231486287
2590 -65.09499964724618
2591 -65.59765939661166
2592 -65.07482104310479
2593 -65.59378217374476
2594 -65.06902351767992
2595 -65.58973798826037
2596 -65.09497639177546
2597 -65.61928354226005
2598 -65.10728908164364
2599 -65.60763857934582
2600 -65.08316885840311
2601 -65.58682912711728
2602 -65.05992099664032
2603 -65.55900896263961
2604 -65.04909158313909
2605 -65.56702104287093
2606 -65.05874513031877
2607 -65.58195241527837
2608 -65.06612139779229
2609 -65.57785716820109
2610 -65.06692061118666
2611 -65.57758948963372
2612 -65.05496011794664
2613 -65.55890800181338
2614 -65.05687990122846
2615 -65.56642943800625
2616 -65.03533812686861
2617 -65.53932458874931
2618 -65.03678235028519
2619 -65.5450856553788
2620 -65.03846467916155
2621 -65.57085127518386
2622 -65.05471341210337
2623 -65.58988358297469
2624 -65.08982801147135
2625 -65.60635143716237
2626 -65.08841882500722
2627 -65.59979995716547
2628 -65.06386735831774
2629 -65.58368593613753
2630 -65.05317979895014
2631 -65.57203266537779
2632 -65.048614882449
2633 -65.55114485609705
2634 -65.04841333508257
2635 -65.5643894412915
2636 -65.04777356781112
2637 -65.57046952999232
2638 -65.03790559317572
2639 -65.54709975415933
2640 -65.04073695196115
2641 -65.5398307174928
2642 -65.01028031118041
2643 -65.51850412070986
2644 -65.01876752698067
2645 -65.55364507059147
2646 -65.06020915530218
2647 -65.56386694923378
2648 -65.08063096364646
2649 -65.59892540878059
2650 -65.11738072243671
2651 -65.61939168947795
2652 -65.10948721944709
2653 -65.62669810710157
2654 -65.12816431772048
2655 -65.62819574999561
2656 -65.09212401286703
2657 -65.59514798132113
2658 -65.07377919520665
2659 -65.60279151061845
2660 -65.0789779654251
2661 -65.59006496319162
2662 -65.07932670731535
2663 -65.58670372641055
2664 -65.08132621223118
2665 -65.5872074926932
2666 -65.10333185095392
2667 -65.62378911449333
2668 -65.10081498193556
2669 -65.60259705471668
2670 -65.09414272234015
2671 -65.60470230768193
2672 -65.08090774172382
2673 -65.5711306210675
2674 -65.05677971234014
2675 -65.56166276437301
2676 -65.04397380656945
2677 -65.56014712506651
2678 -65.05333981283943
2679 -65.56103714905284
2680 -65.05478438309336
2681 -65.55405686845673
2682 -65.05874470725855
2683 -65.55886379312652
2684 -65.03287234203476
2685 -65.54824546823605
2686 -65.03484398964837
2687 -65.54689432489671
2688 -65.02123866796499
2689 -65.55663178715061
2690 -65.04317536073519
2691 -65.55771459701715
2692 -65.0388953165192
2693 -65.56895523298435
2694 -65.06022583555459
2695 -65.56838099311129
2696 -65.0410392484889
2697 -65.5591656986583
2698 -65.05308711347227
2699 -65.57897102197278
2700 -65.06248043503716
2701 -65.58382535415204
2702 -65.06168627850475
2703 -65.57772907638669
2704 -65.04860778751352
2705 -65.58203221551898
2706 -65.04232656323664
2707 -65.56979427359839
2708 -65.02566287802135
2709 -65.55888962900694
2710 -65.02515562975972
2711 -65.55063352672293
2712 -65.04381836730698
2713 -65.58167883161687
2714 -65.05140354630643
2715 -65.59538036661498
2716 -65.07232048506197
2717 -65.62194316073455
2718 -65.09129351391228
2719 -65.61933059039838
2720 -65.10286581701938
2721 -65.62290581306661
2722 -65.11450187940819
2723 -65.63355491631864
2724 -65.1213731031327
2725 -65.63222817366461
2726 -65.07876605527663
2727 -65.60255435881005
2728 -65.09017074636706
2729 -65.58364505121691
2730 -65.05755206372289
2731 -65.56156695392428
2732 -65.02563108180067
2733 -65.54363524017874
2734 -65.04273481353046
2735 -65.5407007576397
2736 -65.03067157740999
2737 -65.53767644315219
2738 -65.05128017729565
2739 -65.54298246922521
2740 -65.05869033281756
2741 -65.54601548855797
2742 -65.05024947307118
2743 -65.56048946404455
2744 -65.05577241662886
2745 -65.56152384543657
2746 -65.05156752135738
2747 -65.54359424860107
2748 -65.06549712219157
2749 -65.5679515287745
2750 -65.07394488886096
2751 -65.55885386211061
2752 -65.06357946773876
2753 -65.54664861009596
2754 -65.04607588346109
2755 -65.54522894764078
2756 -65.05464289099835
2757 -65.57529531072002
2758 -65.075717968265
2759 -65.59922997153465
2760 -65.09784965565184
2761 -65.61594272376445
2762 -65.09246322180891
2763 -65.63740280920477
2764 -65.0860040830248
2765 -65.60640987346792
2766 -65.08718107409909
2767 -65.58913061429364
2768 -65.0755591442839
2769 -65.57331293495896
2770 -65.06125621300575
2771 -65.56258030938994
2772 -65.05644795912228
2773 -65.57571492887234
2774 -65.03563070206509
2775 -65.56394047566042
2776 -65.04372928296216
2777 -65.55446429621378
2778 -65.03533434070231
2779 -65.55970969455542
2780 -65.03835628036144
2781 -65.55992867974351
2782 -65.05957732045331
2783 -65.57700730625804
2784 -65.06148210589083
2785 -65.57968439472158
2786 -65.06305001630609
2787 -65.58480498817589
2788 -65.06924562106323
2789 -65.59665148628932
2790 -65.11081885049865
2791 -65.61764113404894
2792 -65.07193930556254
2793 -65.58601905931889
2794 -65.06936881203026
2795 -65.57678522959037
2796 -65.0479446553806
2797 -65.57074626169278
2798 -65.06146004641879
2799 -65.57637692405289
2800 -65.04710674867216
2801 -65.55652517185244
2802 -65.05180007591235
2803 -65.55757818934084
2804 -65.04328283063153
2805 -65.56953854483454
2806 -65.04096464197836
2807 -65.55318075225429
2808 -65.05128235132061
2809 -65.55129065883919
2810 -65.03414161898648
2811 -65.56541124877793
2812 -65.06224541217553
2813 -65.57295882628897
2814 -65.05304886577069
2815 -65.57607237634691
2816 -65.06598744749179
2817 -65.57572911286707
2818 -65.06109509678154
2819 -65.57719426553417
2820 -65.07153577632339
2821 -65.59369623957448
2822 -65.06389718983327
2823 -65.58539459300053
2824 -65.06966621676719
2825 -65.59092688158591
2826 -65.08348173623695
2827 -65.59048913245564
2828 -65.10742647806509
2829 -65.61993236417659
2830 -65.10952572152701
2831 -65.61441935226402
2832 -65.09762434378408
2833 -65.59815793760013
2834 -65.10178466906898
2835 -65.6081690685992
2836 -65.11431124502987
2837 -65.61147423878487
2838 -65.09509273806883
2839 -65.60077856814787
2840 -65.09067105441947
2841 -65.58316761091241
2842 -65.08067931474295
2843 -65.57140492880848
2844 -65.05839278810397
2845 -65.55305887928837
2846 -65.06513523912645
2847 -65.53737307921612
2848 -65.04976835853638
2849 -65.53045229628349
2850 -65.0454790197662
2851 -65.53847675047223
2852 -65.02560470566327
2853 -65.51433932498803
2854 -64.99707567521415
2855 -65.50076173937903
2856 -64.99799754012155
2857 -65.50881492047546
2858 -64.99257986680713
2859 -65.50640680799427
2860 -65.01584582723075
2861 -65.55171543793966
2862 -65.03900348181648
2863 -65.57380601422503
2864 -65.07288532982206
2865 -65.62008675943611
2866 -65.10440603997901
2867 -65.61211148269462
2868 -65.09434919204762
2869 -65.61935192871236
2870 -65.09401575058747
2871 -65.61535539274753
2872 -65.08085069293845
2873 -65.58030780678851
2874 -65.09397343305935
2875 -65.6171866575089
2876 -65.06994079164146
2877 -65.59809796251308
2878 -65.08731989881464
2879 -65.61392678416284
2880 -65.0664480071877
2881 -65.59658131954585
2882 -65.05678308647913
2883 -65.55880005325737
2884 -65.04591049531263
2885 -65.5613829610904
2886 -65.04648234773877
2887 -65.5623201902236
2888 -65.02880263912594
2889 -65.55796899396174
2890 -65.03937527826433
2891 -65.53837955572097
2892 -65.01187164011192
2893 -65.55048727356468
2894 -65.02887609693252
2895 -65.55239068180322
2896 -65.05116924682694
2897 -65.56788519822886
2898 -65.06960702034119
2899 -65.58146845500629
2900 -65.04893521365642
2901 -65.5783658787262
2902 -65.08289689875781
2903 -65.59947027290951
2904 -65.1163775514727
2905 -65.6365783048215
2906 -65.1049158234316
2907 -65.62209285515904
2908 -65.09914678701199
2909 -65.63087756844045
2910 -65.09564404815443
2911 -65.62047223687239
2912 -65.11322642520183
2913 -65.60790184453849
2914 -65.09352196487247
2915 -65.58631007540242
2916 -65.09579664486768
2917 -65.57634239562432
2918 -65.08532879412412
2919 -65.56055954156884
2920 -65.07440022883154
2921 -65.56673841749227
2922 -65.05411815810778
2923 -65.55518022186874
2924 -65.05376834207983
2925 -65.56100154743595
2926 -65.02480749429805
2927 -65.52767691588329
2928 -65.0205413810971
2929 -65.49897797886464
2930 -64.98241573775005
2931 -65.48739100492094
2932 -65.01276014325244
2933 -65.52368487147487
2934 -65.0495480554826
2935 -65.56516343946296
2936 -65.08860030855887
2937 -65.58390115755542
2938 -65.08737840754556
2939 -65.59300028752835
2940 -65.09991669275369
2941 -65.60824369706042
2942 -65.0854061344719
2943 -65.57502967725273
2944 -65.08201901708706
2945 -65.57231193916164
2946 -65.07857934090403
2947 -65.56631644467664
2948 -65.07433238838419
2949 -65.58338271923297
2950 -65.08044373650172
2951 -65.57992006925173
2952 -65.09567746932774
2953 -65.58248484922946
2954 -65.07648259021445
2955 -65.58229407781653
2956 -65.05024498655425
2957 -65.56966158633787
2958 -65.05910289374566
2959 -65.58935887505181
2960 -65.05687638778539
2961 -65.57881030115706
2962 -65.07847579598055
2963 -65.58926337287539
2964 -65.07793794596994
2965 -65.59730084319447
2966 -65.07242978773094
2967 -65.59641358772622
2968 -65.04260045432281
2969 -65.57568178687168
2970 -65.05606740170785
2971 -65.58025131672022
2972 -65.07288209660075
2973 -65.59887737406964
2974 -65.08051674241223
2975 -65.60794120070537
2976 -65.07123034537062
2977 -65.57534036438909
2978 -65.06204739549692
2979 -65.58119896282578
2980 -65.06286550618481
2981 -65.59315590186444
2982 -65.05488005605181
2983 -65.58227569094134
2984 -65.06715527904028
2985 -65.57676469399465
2986 -65.05122865285141
2987 -65.56112907421323
2988 -65.04352501684677
2989 -65.55033082004199
2990 -65.03685850454822
2991 -65.55286474575088
2992 -65.03709632669987
2993 -65.53569897077263
2994 -65.02079377152543
2995 -65.52956244398713
2996 -65.01861421007985
2997 -65.54869390264794
2998 -65.04566473393584
2999 -65.56172692816335
3000 -65.06041765715692
3001 -65.57407682532103
3002 -65.05970922722025
3003 -65.57787088668239
3004 -65.0763117708666
3005 -65.58816606344055
3006 -65.07946578769938
3007 -65.57207381652232
3008 -65.07725562010891
3009 -65.57501393118604
3010 -65.08857200120161
3011 -65.58068307772992
3012 -65.09973328297097
3013 -65.62142653260588
3014 -65.12181504964023
3015 -65.62480575070295
3016 -65.10728732951733
3017 -65.6018966415368
3018 -65.10041477206262
3019 -65.60213796049389
3020 -65.09452309703917
3021 -65.58690544411654
3022 -65.0587916279929
3023 -65.54634261573582
3024 -65.03470617765119
3025 -65.53614432111398
3026 -65.01507477550913
3027 -65.51064978036554
3028 -65.00545146353861
3029 -65.51792954704601
3030 -65.01369273584655
3031 -65.53713063095032
3032 -65.04618057418807
3033 -65.54771849266587
3034 -65.052418381735
3035 -65.54526728348809
3036 -65.05775862466723
3037 -65.56863285923423
3038 -65.09163773780649
3039 -65.58471252829651
3040 -65.09390536622439
3041 -65.604276586578
3042 -65.1171254000738
3043 -65.62865495953083
3044 -65.12885696870728
3045 -65.64321627675801
3046 -65.13469993435142
3047 -65.6359010834426
3048 -65.1198715876972
3049 -65.598803315975
3050 -65.07198022910318
3051 -65.57054605910727
3052 -65.04530731447676
3053 -65.54752612913842
3054 -65.02040018023341
3055 -65.54798883340135
3056 -65.0196900212097
3057 -65.53249388188955
3058 -65.012085396111
3059 -65.54533315357567
3060 -65.04954781279866
3061 -65.55637602629041
3062 -65.03453002251047
3063 -65.57621797418341
3064 -65.04781056264844
3065 -65.57279324462304
3066 -65.05970261991692
3067 -65.58071537144598
3068 -65.051563179418
3069 -65.56765972727435
3070 -65.04881612949164
3071 -65.57425732132397
3072 -65.0384597066132
3073 -65.55019697268631
3074 -65.03141837490152
3075 -65.55520091215813
3076 -65.03301998087287
3077 -65.55059966244514
3078 -65.05310129930648
3079 -65.57605563260158
3080 -65.07256445447997
3081 -65.59079551603163
3082 -65.08283412729189
3083 -65.60219960819322
3084 -65.08755001713681
3085 -65.60723966699972
3086 -65.1038784852017
3087 -65.63481740434337
3088 -65.10339055285776
3089 -65.61612304751749
3090 -65.11623294864938
3091 -65.62656293488379
3092 -65.0903833927335
3093 -65.61129105609226
3094 -65.08634625453395
3095 -65.5880165937198
3096 -65.06234556655096
3097 -65.55705356096774
3098 -65.0607414885651
3099 -65.57539331674339
3100 -65.06662957662319
3101 -65.58291324179972
3102 -65.07842062535475
3103 -65.59277241656447
3104 -65.08364915713706
3105 -65.58374101667398
3106 -65.06281247286331
3107 -65.55840636224407
3108 -65.05319692318794
3109 -65.5709112600201
3110 -65.05179030020494
3111 -65.55273721961373
3112 -65.06631094030611
3113 -65.54753334121537
3114 -65.05653457743027
3115 -65.56220445243898
3116 -65.0697647302264
3117 -65.57359688453522
3118 -65.05596828443028
3119 -65.55236341619941
3120 -65.05162424754867
3121 -65.5427695581573
3122 -65.02930500141839
3123 -65.54146566661991
3124 -65.04202460097007
3125 -65.54323231761423
3126 -65.04962632230632
3127 -65.55235058616726
3128 -65.06158640906264
3129 -65.55749888245299
3130 -65.0570434673516
3131 -65.5476893202695
3132 -65.03725849827809
3133 -65.54829770750163
3134 -65.03317882286552
3135 -65.55676542210459
3136 -65.04715104740271
3137 -65.55684456288887
3138 -65.07451424934025
3139 -65.58336927168887
3140 -65.08596047431185
3141 -65.59834191193148
3142 -65.08898996718089
3143 -65.59181922622059
3144 -65.09478247553281
3145 -65.61465377684773
3146 -65.12131124593394
3147 -65.62133562648029
3148 -65.11739867078677
3149 -65.63895365171059
3150 -65.10921634017076
3151 -65.62223957055291
3152 -65.08477362505676
3153 -65.59470610337698
3154 -65.0712086013752
3155 -65.58916785701031
3156 -65.05901897587032
3157 -65.57666659797417
3158 -65.07088823724176
3159 -65.58590553422144
3160 -65.02902647018226
3161 -65.54612069306015
3162 -65.04943139128187
3163 -65.56480190953954
3164 -65.0153080772654
3165 -65.54312545222956
3166 -65.01397885471678
3167 -65.54644749764716
3168 -65.03648148095954
3169 -65.54310629520349
3170 -65.03714363942792
3171 -65.5530843387363
3172 -65.04247816049705
3173 -65.56130255563316
3174 -65.06996224417443
3175 -65.59708162859945
3176 -65.09429543206038
3177 -65.58954287178716
3178 -65.11309744129527
3179 -65.60934484614145
3180 -65.10504085410072
3181 -65.61610580850751
3182 -65.11035971961587
3183 -65.62414081923002
3184 -65.11244179470054
3185 -65.62601787035914
3186 -65.12203509755793
3187 -65.62398352615347
3188 -65.10438499263525
3189 -65.61873691378452
3190 -65.10522161052813
3191 -65.59324739970032
3192 -65.05897042694569
3193 -65.54820552856022
3194 -65.0547251075178
3195 -65.56723608024299
3196 -65.06099680242387
3197 -65.57031780317976
3198 -65.06197494207379
3199 -65.55873267735795
3200 -65.04410950270224
3201 -65.54006412836932
3202 -65.0194667282997
3203 -65.53118163427229
3204 -65.03157049957474
3205 -65.53613822244139
3206 -65.03419311163444
3207 -65.53095140529202
3208 -64.998947749877
3209 -65.51518493583559
3210 -65.0041513029967
3211 -65.51728932662911
3212 -65.01080879363407
3213 -65.54136395624073
3214 -65.01052304277485
3215 -65.53444538012738
3216 -65.06428922884677
3217 -65.58202313108319
3218 -65.06160538277514
3219 -65.56969814447918
3220 -65.06094927545205
3221 -65.59057389123126
3222 -65.07889047774449
3223 -65.60723092939729
3224 -65.10860268144042
3225 -65.62876362951003
3226 -65.1059100253316
3227 -65.62077504138045
3228 -65.10024137909936
3229 -65.61415483163566
3230 -65.0703314371742
3231 -65.57779154926897
3232 -65.06939370045907
3233 -65.56485933430984
3234 -65.05885502065327
3235 -65.5571629533344
3236 -65.06245908458975
3237 -65.58276861488397
3238 -65.06497277050163
3239 -65.56341051083689
3240 -65.06439668117294
3241 -65.5581527127456
3242 -65.04388343866634
3243 -65.5578307984585
3244 -65.0602033458502
3245 -65.58889781169252
3246 -65.08870900594015
3247 -65.59679601068059
3248 -65.1025007459355
3249 -65.59916109215831
3250 -65.09920018285968
3251 -65.59757209401535
3252 -65.08257983404459
3253 -65.6032059477234
3254 -65.07225036264587
3255 -65.5920513362547
3256 -65.07535747989297
3257 -65.60462118012988
3258 -65.09480615838969
3259 -65.59103360804843
3260 -65.0535820300518
3261 -65.56819239947438
3262 -65.06717611430921
3263 -65.55798655776277
3264 -65.062744436855
3265 -65.55912771444075
3266 -65.06240304836898
3267 -65.54214802118867
3268 -65.03215867029269
3269 -65.54281413152897
3270 -65.0235479871443
3271 -65.53569568676136
3272 -65.00879139072016
3273 -65.52096398888567
3274 -65.01995681886129
3275 -65.54238437181145
3276 -65.03502024130525
3277 -65.55946900966326
3278 -65.06466275366029
3279 -65.5639311137365
3280 -65.03545368271708
3281 -65.56460207477322
3282 -65.06906290948132
3283 -65.57723553682266
3284 -65.06798513118433
3285 -65.61879727793364
3286 -65.11111388081896
3287 -65.62912799732776
3288 -65.12824833087541
3289 -65.64098501187024
3290 -65.12019571010627
3291 -65.60797041383296
3292 -65.08603816578454
3293 -65.57824448160422
3294 -65.05288559989091
3295 -65.56313718028889
3296 -65.0383520983529
3297 -65.54104106928997
3298 -65.01960142262178
3299 -65.54132281159912
3300 -65.02126487961907
3301 -65.55259710896091
3302 -65.04294980223227
3303 -65.55512743519681
3304 -65.04744475045406
3305 -65.5497311400644
3306 -65.03363657173398
3307 -65.55577289679954
3308 -65.04447434455669
3309 -65.5876080385497
3310 -65.07250499072347
3311 -65.57477408788213
3312 -65.05958597387648
3313 -65.58780527616986
3314 -65.0694922268995
3315 -65.58540596711768
3316 -65.05393630974268
3317 -65.59390254269205
3318 -65.0621946633194
3319 -65.57827086852285
3320 -65.06260136814757
3321 -65.56220175661323
3322 -65.0750251573847
3323 -65.55095453251887
3324 -65.05342499521956
3325 -65.56800174080891
3326 -65.0682724440809
3327 -65.57279071686823
3328 -65.05960240629419
3329 -65.56593439025285
3330 -65.05720980136064
3331 -65.564393271895
3332 -65.05238882760547
3333 -65.56360054504744
3334 -65.05941596340396
3335 -65.57192103905824
3336 -65.07437728424752
3337 -65.57718098081494
3338 -65.0829970062838
3339 -65.57500612280822
3340 -65.08053192457801
3341 -65.57698000810697
3342 -65.07896414985342
3343 -65.57417202658263
3344 -65.05482088970621
3345 -65.54736122925777
3346 -65.05426442268524
3347 -65.54887591562404
3348 -65.03074327029753
3349 -65.54196454412283
3350 -65.05009539435952
3351 -65.563868840092
3352 -65.06816407216009
3353 -65.55170707116291
3354 -65.06890416125478
3355 -65.57545452161007
3356 -65.06906924207455
3357 -65.58810252148091
3358 -65.11254118214791
3359 -65.64217143835337
3360 -65.1364160479957
3361 -65.64436409156619
3362 -65.12795476337706
3363 -65.60975064270669
3364 -65.08411452838624
3365 -65.59945980393626
3366 -65.06669150407714
3367 -65.57872349093311
3368 -65.0568862876717
3369 -65.55726332956647
3370 -65.03115743880072
3371 -65.53186163869034
3372 -65.03131878141396
3373 -65.54571083196882
3374 -65.03411575244155
3375 -65.54213862871323
3376 -65.02574620070222
3377 -65.53242728679581
3378 -65.0435297829042
3379 -65.54457952755568
3380 -65.0399673135686
3381 -65.5603694948947
3382 -65.06120674070293
3383 -65.58940626766704
3384 -65.08137745458598
3385 -65.59293463359677
3386 -65.08160895984906
3387 -65.58254576499635
3388 -65.07331826131119
3389 -65.58776785100682
3390 -65.08252729581986
3391 -65.5816659140276
3392 -65.07254277842851
3393 -65.59268720952052
3394 -65.07610543409713
3395 -65.57030178961739
3396 -65.07053643036302
3397 -65.59573814566684
3398 -65.08867780823996
3399 -65.6057113696056
3400 -65.0923352337381
3401 -65.59352429924839
3402 -65.08069427852979
3403 -65.58133632821819
3404 -65.04524150748624
3405 -65.56524721072587
3406 -65.0368392733901
3407 -65.5592651111767
3408 -65.03997873941657
3409 -65.55805906440449
3410 -65.0231372627441
3411 -65.53610165423399
3412 -65.03137902018619
3413 -65.54367621351581
3414 -65.02011026050803
3415 -65.55916745878694
3416 -65.03848410765519
3417 -65.54602468864154
3418 -65.04310125927921
3419 -65.55899510020357
3420 -65.04829793287526
3421 -65.58254835528285
3422 -65.05123110198909
3423 -65.57211463757517
3424 -65.06431163932714
3425 -65.5665121655871
3426 -65.04533950948338
3427 -65.57415995391302
3428 -65.09442110725462
3429 -65.60082857108121
3430 -65.0953770175351
3431 -65.59937599326214
3432 -65.12092572748668
3433 -65.60303060275865
3434 -65.1032754153776
3435 -65.60252932721193
3436 -65.09431086646839
3437 -65.58796389140501
3438 -65.08796182248081
3439 -65.56487999985073
3440 -65.0633776901249
3441 -65.55258661817244
3442 -65.06574551842095
3443 -65.54682849025292
3444 -65.04263526204456
3445 -65.53985428041
3446 -65.03455057019679
3447 -65.52804589705725
3448 -65.0286414666438
3449 -65.53356498917401
3450 -65.03412859203316
3451 -65.53943439453496
3452 -65.04300124538055
3453 -65.57974687313985
3454 -65.0857456491226
3455 -65.60695194333121
3456 -65.0942476885984
3457 -65.59191640629317
3458 -65.06750880484601
3459 -65.57782858455583
3460 -65.07109158678537
3461 -65.58567139233178
3462 -65.05992489590814
3463 -65.58557827107295
3464 -65.07411665200621
3465 -65.57963543981286
3466 -65.08485825318172
3467 -65.58467642149365
3468 -65.07309216614279
3469 -65.58942737594545
3470 -65.06877993991273
3471 -65.57411884781244
3472 -65.06391377857237
3473 -65.5617082779296
3474 -65.05808323779468
3475 -65.55490358468599
3476 -65.04653855834351
3477 -65.56295389618069
3478 -65.04829040455441
3479 -65.57285516098798
3480 -65.04837463501012
3481 -65.56818453741835
3482 -65.05688829901615
3483 -65.58712380094606
3484 -65.06467091085636
3485 -65.57653125536778
3486 -65.05624733602171
3487 -65.55013655094105
3488 -65.06165162081403
3489 -65.58163254846028
3490 -65.07329616476491
3491 -65.58350557016803
3492 -65.0553047324485
3493 -65.57045716641383
3494 -65.04535001787337
3495 -65.56633244868051
3496 -65.05573532627375
3497 -65.59096953270935
3498 -65.04974468610645
3499 -65.57995637543412
3500 -65.05427958527811
3501 -65.58411929695951
3502 -65.07052751651077
3503 -65.58458182973754
3504 -65.07668593473458
3505 -65.58800889359871
3506 -65.08423610924864
3507 -65.58858582768961
3508 -65.06606075809479
3509 -65.59718681573958
3510 -65.08250052126101
3511 -65.61296704629945
3512 -65.09304668027859
3513 -65.60045111819716
3514 -65.0904254622413
3515 -65.58762475231991
3516 -65.07424371243573
3517 -65.57008027968541
3518 -65.06159296891524
3519 -65.55427040939438
3520 -65.02003147674162
3521 -65.51963767797309
3522 -65.03228313617177
3523 -65.54369143798473
3524 -65.0603332159417
3525 -65.56036364915401
3526 -65.06959969417747
3527 -65.56859951273157
3528 -65.06741529797115
3529 -65.55471997233349
3530 -65.07299784048679
3531 -65.56372854709538
3532 -65.04547639189732
3533 -65.53578002120071
3534 -65.05853944391113
3535 -65.54765963798252
3536 -65.06007331019285
3537 -65.56979401034747
3538 -65.08915789895887
3539 -65.57861374319272
3540 -65.08308336994608
3541 -65.57460550775549
3542 -65.07758216573636
3543 -65.56974999465071
3544 -65.05654566378986
3545 -65.57425118664207
3546 -65.08744755642518
3547 -65.58208937385551
3548 -65.07374055405788
3549 -65.58747436707891
3550 -65.06870770306887
3551 -65.56692297098292
3552 -65.04329482194166
3553 -65.58637913024886
3554 -65.05212418848964
3555 -65.55221818110768
3556 -65.05178906478915
3557 -65.59333273028119
3558 -65.09004689177564
3559 -65.6126739403047
3560 -65.07561400249641
3561 -65.59653794245708
3562 -65.08500155481158
3563 -65.59247230295097
3564 -65.09865719063259
3565 -65.61203591589144
3566 -65.09439410895543
3567 -65.61047215152846
3568 -65.08585191058464
3569 -65.60170966042537
3570 -65.08803046795093
3571 -65.61831602780343
3572 -65.06155783768195
3573 -65.58924596434966
3574 -65.05596583753672
3575 -65.54486883452383
3576 -65.02424286304348
3577 -65.55100947068108
3578 -65.03941875816101
3579 -65.55679000485775
3580 -65.03117401156078
3581 -65.55399642976127
3582 -65.05446315435462
3583 -65.56326477847472
3584 -65.05777185899255
3585 -65.59217306487021
3586 -65.08545554169434
3587 -65.59905924077671
3588 -65.0752821367017
3589 -65.57864747410557
3590 -65.06056318345674
3591 -65.56312067898413
3592 -65.04649196485133
3593 -65.55700009155233
3594 -65.06044464326727
3595 -65.58075806197726
3596 -65.06367168236731
3597 -65.57695844130814
3598 -65.06731509596059
3599 -65.58975400064307
3600 -65.06841880598668
3601 -65.58782758801604
3602 -65.07959609627522
3603 -65.57384425705558
3604 -65.07763833421946
3605 -65.57199098165133
3606 -65.08885074231864
3607 -65.58898545659613
3608 -65.0967920780474
3609 -65.60155911989173
3610 -65.09690406388977
3611 -65.58241822993615
3612 -65.09477070030977
3613 -65.59659040579724
3614 -65.08628228770289
3615 -65.58523395738452
3616 -65.07413195672606
3617 -65.57929943762002
3618 -65.0737821205142
3619 -65.57341590395922
3620 -65.05381761703968
3621 -65.55874330005612
3622 -65.05163628763525
3623 -65.54305128599671
3624 -65.06097108862805
3625 -65.55423171704687
3626 -65.07488695053054
3627 -65.56305913659624
3628 -65.06301434470657
3629 -65.56481822535028
3630 -65.0675408592797
3631 -65.55319279885587
3632 -65.04881790048101
3633 -65.55050596655059
3634 -65.05661305349727
3635 -65.55733533542912
3636 -65.06861428717755
3637 -65.57414336225253
3638 -65.09897185951624
3639 -65.59919161045407
3640 -65.09174401722531
3641 -65.59388739238753
3642 -65.08400951931465
3643 -65.58977281108885
3644 -65.06024617981669
3645 -65.57748648964561
3646 -65.05411404675876
3647 -65.5756454476475
3648 -65.0571265722165
3649 -65.58404905090389
3650 -65.0591088613688
3651 -65.57800092709087
3652 -65.06283985370439
3653 -65.59732436041365
3654 -65.07966249964207
3655 -65.59440821629157
3656 -65.06243816021787
3657 -65.60000035045799
3658 -65.09457694694294
3659 -65.61498004483732
3660 -65.08959454033993
3661 -65.60066024628269
3662 -65.09178255540085
3663 -65.58943928959583
3664 -65.05137177940672
3665 -65.57133668583035
3666 -65.04716285737135
3667 -65.5613632056901
3668 -65.03377630502654
3669 -65.56655869266228
3670 -65.05522669335757
3671 -65.58363387413928
3672 -65.07100090100813
3673 -65.59673496716503
3674 -65.08775974783842
3675 -65.61429832868683
3676 -65.08195931745546
3677 -65.60505844224156
3678 -65.09042080465977
3679 -65.61258917301147
3680 -65.06920824278154
3681 -65.58091105621531
3682 -65.06588425573851
3683 -65.57835179642547
3684 -65.05793904819552
3685 -65.5839777326762
3686 -65.07544228105064
3687 -65.58347497585112
3688 -65.0588150617081
3689 -65.56485715971367
3690 -65.0516587174299
3691 -65.56318926012158
3692 -65.05609709299299
3693 -65.58003657140922
3694 -65.07084888499372
3695 -65.59257522624021
3696 -65.09007497430082
3697 -65.56532925811757
3698 -65.06233569715994
3699 -65.56887471655305
3700 -65.06922085549908
3701 -65.56636355503316
3702 -65.06071200237911
3703 -65.56789764924598
3704 -65.03136086453208
3705 -65.54601054233983
3706 -65.04015561090959
3707 -65.56749777868546
3708 -65.05261256391103
3709 -65.57511991698587
3710 -65.07571051081467
3711 -65.57498038549285
3712 -65.08505063053271
3713 -65.56874787877236
3714 -65.0698445400743
3715 -65.55829065436669
3716 -65.07852400669685
3717 -65.55887154585891
3718 -65.0480406924184
3719 -65.55017914665186
3720 -65.05867567899701
3721 -65.58078484530149
3722 -65.07678426269329
3723 -65.58184290404427
3724 -65.07163704413753
3725 -65.57965859613903
3726 -65.09723933945752
3727 -65.59787660464774
3728 -65.10657465970003
3729 -65.5994665506403
3730 -65.10119788334757
3731 -65.60418310218417
3732 -65.10756450010149
3733 -65.60736725560405
3734 -65.08734017766332
3735 -65.57207725672956
3736 -65.06919835862787
3737 -65.58397077944207
3738 -65.07928086895238
3739 -65.57971967150107
3740 -65.07557207100274
3741 -65.58429395635855
3742 -65.05921437676226
3743 -65.56559309016171
3744 -65.05289657166271
3745 -65.56444304996847
3746 -65.03618267664086
3747 -65.54245772854001
3748 -65.01402537805045
3749 -65.54918740072897
3750 -65.0229220488648
3751 -65.56346071574961
3752 -65.05066337224059
3753 -65.59317237710488
3754 -65.04917102082909
3755 -65.59473797498083
3756 -65.06096905449425
3757 -65.58111956434321
3758 -65.05155716816353
3759 -65.58785106065767
3760 -65.0660083612043
3761 -65.57581432129601
3762 -65.06886256310324
3763 -65.59957024444799
3764 -65.06174773739042
3765 -65.59121080200038
3766 -65.07175632247333
3767 -65.59493060752813
3768 -65.07773962870088
3769 -65.58254226487261
3770 -65.06686801894283
3771 -65.58950632820141
3772 -65.06019901145032
3773 -65.57129164585325
3774 -65.05811422359793
3775 -65.58611306075606
3776 -65.06119453652749
3777 -65.57056232449332
3778 -65.08508009487799
3779 -65.59395080976645
3780 -65.09550983447721
3781 -65.6055829443422
3782 -65.09006868145515
3783 -65.59426643108199
3784 -65.09572224833497
3785 -65.58490863183073
3786 -65.0805192265869
3787 -65.55798568581255
3788 -65.06490757329257
3789 -65.56384838414347
3790 -65.06852066126446
3791 -65.56195337487456
3792 -65.05139636539252
3793 -65.5451641971419
3794 -65.043029936764
3795 -65.56033925792062
3796 -65.04902734881739
3797 -65.56482915646644
3798 -65.06199333450817
3799 -65.56788842525441
3800 -65.05141185008027
3801 -65.56910133098479
3802 -65.06370602814991
3803 -65.55178932807853
3804 -65.05067236349026
3805 -65.54665126901162
3806 -65.03063498361476
3807 -65.53813759514324
3808 -65.05024368379645
3809 -65.55946255453456
3810 -65.05778022706349
3811 -65.57071805452075
3812 -65.05767747547129
3813 -65.56704079908317
3814 -65.06569925804884
3815 -65.56736465583667
3816 -65.06879263600503
3817 -65.58479999393262
3818 -65.07816707416289
3819 -65.58286168295649
3820 -65.0874129503443
3821 -65.6136567006977
3822 -65.11219322881922
3823 -65.61656341842155
3824 -65.1065866117106
3825 -65.61508140851527
3826 -65.09634844585347
3827 -65.60315712557477
3828 -65.10231334992741
3829 -65.61232784062418
3830 -65.08700128389646
3831 -65.58052113795127
3832 -65.06066964732754
3833 -65.55328275829007
3834 -65.06691480427435
3835 -65.55650541603114
3836 -65.0480939391451
3837 -65.53492893815262
3838 -65.02311265174019
3839 -65.52976450017459
3840 -65.03521707634491
3841 -65.5521283001429
3842 -65.03325754205549
3843 -65.55987387474694
3844 -65.04131761241879
3845 -65.56629418186687
3846 -65.03815702391934
3847 -65.56805770074857
3848 -65.05087661599534
3849 -65.58771334764708
3850 -65.06727776182474
3851 -65.60128305133462
3852 -65.07852512889738
3853 -65.58451690882117
3854 -65.05494970437883
3855 -65.59427511197595
3856 -65.06794840701961
3857 -65.5811982972147
3858 -65.08067661097164
3859 -65.59848011571319
3860 -65.07309660516043
3861 -65.56961415491401
3862 -65.05530169388054
3863 -65.58262101069833
3864 -65.06651024155079
3865 -65.55860578741776
3866 -65.067305793354
3867 -65.56342687161329
3868 -65.05098332690605
3869 -65.54938629800317
3870 -65.05783903086808
3871 -65.5590636034603
3872 -65.04548163246049
3873 -65.56928760651552
3874 -65.08158439664602
3875 -65.5996186130365
3876 -65.11102478021586
3877 -65.60206514179735
3878 -65.10393328158901
3879 -65.59958287783027
3880 -65.07127297196534
