"cx-rfile"
"Iteration" "cx"
("Iteration" "cx")
1 1.910224758167399
2 1.722393858262915
3 1.319020526422755
4 1.043838180852355
5 0.7443966668517458
6 0.4984466300844759
7 0.3363238116981203
8 0.2528770982534592
9 0.1628824917630649
10 0.0714387037672873
11 -0.0003449605632919731
12 -0.05366518928432716
13 -0.0923834369527549
14 -0.1172491142394679
15 -0.1303761823526351
16 -0.1377065414286014
17 -0.1406159066244131
18 -0.1407256362274782
19 -0.1392174327719483
20 -0.1371407361107188
21 -0.1351603089628549
22 -0.1328468389608073
23 -0.1315938421741743
24 -0.1307323828770586
25 -0.1309589430123712
26 -0.1323119764939132
27 -0.1346215072591908
28 -0.1375921306954853
29 -0.1412386046507237
30 -0.1449517842112752
31 -0.1492519339994642
32 -0.1532163834390343
33 -0.1576723457728976
34 -0.1615262930366039
35 -0.1658222985686942
36 -0.1709961450725117
37 -0.1758994923582366
38 -0.181200035534762
39 -0.1860150315387099
40 -0.1909886092140454
41 -0.1949585395656937
42 -0.1989316033449218
43 -0.2028868894156176
44 -0.2068023797204313
45 -0.2102227428912201
46 -0.2138542605462242
47 -0.2170323800192045
48 -0.2205065820020004
49 -0.2234431132002779
50 -0.2266994868605134
51 -0.2301910958822956
52 -0.2337469351915409
53 -0.2373921282608778
54 -0.2419086916309607
55 -0.2451908875818863
56 -0.2494030777792357
57 -0.2532026378666961
58 -0.2567102320775759
59 -0.2600318912761647
60 -0.2631437154442143
61 -0.2661319562712886
62 -0.2690071850738256
63 -0.2712617527157305
64 -0.2742446888005206
65 -0.2764930942068198
66 -0.2788520007480958
67 -0.2812725952347959
68 -0.2836945500004652
69 -0.2861189640136786
70 -0.2884998557023423
71 -0.2908672300026285
72 -0.2931503585687448
73 -0.2954050337184734
74 -0.2975638408264336
75 -0.299676561863318
76 -0.3017037192960081
77 -0.3036846943278665
78 -0.3055599492269446
79 -0.3074103005276945
80 -0.3091483320149882
81 -0.3108702481678735
82 -0.3120182270518174
83 -0.3137920419027726
84 -0.3149215235424014
85 -0.3166500401886638
86 -0.3177271313569833
87 -0.3193934648834171
88 -0.3203977108349748
89 -0.3219788376518832
90 -0.3229148395967728
91 -0.3239748637541429
92 -0.3253784938295841
93 -0.3263357050937092
94 -0.3272456402385769
95 -0.328213955622974
96 -0.3294933607267487
97 -0.3303365825359794
98 -0.3311422373149206
99 -0.332322475676839
100 -0.3330249763239185
101 -0.333789391104568
102 -0.3347949690018449
103 -0.335467968024774
104 -0.3360990741007549
105 -0.3367848243984907
106 -0.3374161589670203
107 -0.3383598421785354
108 -0.3389019597855471
109 -0.3395063241249003
110 -0.3400492748552363
111 -0.3406510232715784
112 -0.3411889884331475
113 -0.3417785638807145
114 -0.3422923955804256
115 -0.3428653366827882
116 -0.3433603041166102
117 -0.343907895250753
118 -0.3443762520072904
119 -0.3449062335262733
120 -0.3453509522510627
121 -0.3458539505193565
122 -0.346276126064187
123 -0.346754994685167
124 -0.347151573541403
125 -0.3475982771266622
126 -0.3479734008331243
127 -0.3483956231135714
128 -0.3487454050256082
129 -0.349140774033561
130 -0.3494725810038222
131 -0.3498462938461692
132 -0.3501511869428965
133 -0.3505019567489482
134 -0.3507880241073383
135 -0.3511140806340671
136 -0.3513768430681366
137 -0.3516797517506667
138 -0.3519267706023927
139 -0.3522063904928939
140 -0.3524392095377384
141 -0.3526923550255728
142 -0.3529033945021599
143 -0.3531366545058458
144 -0.3533325573707947
145 -0.3535427422742456
146 -0.3537180316709643
147 -0.3539168014840387
148 -0.3540704056868134
149 -0.3542489185943449
150 -0.3543949839842053
151 -0.3545558516175987
152 -0.3546823661244465
153 -0.354826860024845
154 -0.3549860569684428
155 -0.3550908604837248
156 -0.3551968517784737
157 -0.3552807365630596
158 -0.3553565731348624
159 -0.3554212664323846
160 -0.3554613584011363
161 -0.3555151647861943
162 -0.3555015189020361
163 -0.3555194876537968
164 -0.355477390703483
165 -0.3554694220058058
166 -0.3553999381869195
167 -0.3553734346718813
168 -0.3552723986268114
169 -0.3552079217885293
170 -0.355090136957674
171 -0.3550288799373399
172 -0.3548897625239399
173 -0.3547906283538104
174 -0.3546290922443218
175 -0.3545162686567388
176 -0.3543431864042759
177 -0.354165827868467
178 -0.3539850807741389
179 -0.3538606212455874
180 -0.3536321744603005
181 -0.353504778518198
182 -0.3533488897734222
183 -0.3532261927678226
184 -0.3530162985700604
185 -0.3529057539946936
186 -0.3527456615160289
187 -0.3526474447883662
188 -0.3524507630304666
189 -0.3523607000933025
190 -0.352233049786011
191 -0.3521565222196772
192 -0.352047521688082
193 -0.3519903040763241
194 -0.3519090589098576
195 -0.3518423630877719
196 -0.3517646896482622
197 -0.3517387738706415
198 -0.3516889687416939
199 -0.3516956125954498
200 -0.3516686948695009
201 -0.3516943071450404
202 -0.3516858361569053
203 -0.3517306065772734
204 -0.3517459983232347
205 -0.351817172228529
206 -0.3518602423874556
207 -0.3519558090146281
208 -0.3520216824658808
209 -0.3521517430603559
210 -0.352233148927977
211 -0.3523896204198432
212 -0.3525088425265012
213 -0.3526897712681829
214 -0.3528298520001926
215 -0.3530472080711519
216 -0.3532332925823192
217 -0.3534781535797969
218 -0.3536819941551529
219 -0.3539587833709831
220 -0.354195420792228
221 -0.3544934111680678
222 -0.3547695028027939
223 -0.3550866445634129
224 -0.3553814376529058
225 -0.3557202947817039
226 -0.3561259648903672
227 -0.3564576296482252
228 -0.3568538866533714
229 -0.3571771831310792
230 -0.3575658195234663
231 -0.3578842795105213
232 -0.3582489572030038
233 -0.3586356105518568
234 -0.3589692501056769
235 -0.359301734533539
236 -0.3595803666302205
237 -0.3598746617492661
238 -0.360108123843471
239 -0.3603550777382383
240 -0.3605407995946514
241 -0.3607458664768498
242 -0.3608814132409189
243 -0.361029059706361
244 -0.3611083228046824
245 -0.3612020305330842
246 -0.3612317215030095
247 -0.3612697275590581
248 -0.361249270501582
249 -0.3612442471682147
250 -0.3611723069593413
251 -0.3611012869559784
252 -0.3609836062577146
253 -0.3608987982379483
254 -0.3607268251839152
255 -0.3606097807289914
256 -0.3603945192035011
257 -0.3602447052731185
258 -0.3600380779865975
259 -0.3598428544527769
260 -0.3596112911302339
261 -0.359384853835541
262 -0.3591319218628521
263 -0.3588906884914413
264 -0.3586340169663693
265 -0.3583895365510966
266 -0.3581205131777238
267 -0.3578783186817137
268 -0.3576226298509549
269 -0.3574526049745609
270 -0.3571646213185931
271 -0.3569975298261692
272 -0.3567807617576286
273 -0.3565104247218067
274 -0.3563145410012675
275 -0.3561374078064811
276 -0.3559320360229257
277 -0.3557580144566462
278 -0.3555544987147958
279 -0.3553936911874509
280 -0.3552061783844357
281 -0.3550653821670414
282 -0.3548942819077486
283 -0.3547759013717076
284 -0.3546162615956331
285 -0.3545229021845125
286 -0.3543843144616518
287 -0.3543067342283108
288 -0.3541808050524053
289 -0.3541214405441298
290 -0.3540088926911794
291 -0.3539597016507084
292 -0.3538552989389722
293 -0.3538162543392838
294 -0.3537195073880506
295 -0.3536876909381034
296 -0.353594614575277
297 -0.3535584042874222
298 -0.3534661393151448
299 -0.3534272281128068
300 -0.3533398021044575
301 -0.3532894275372205
302 -0.3531955260987513
303 -0.3531474307479229
304 -0.3530512814883427
305 -0.3529980382160627
306 -0.3529010038451997
307 -0.3528489554892848
308 -0.3527510433823273
309 -0.3526914305625039
310 -0.3525989617606473
311 -0.3525386848739814
312 -0.3524504664189625
313 -0.3523952498910309
314 -0.3523073481805148
315 -0.3522559820626515
316 -0.3521795512094151
317 -0.3521218598096374
318 -0.3520614929080748
319 -0.3520419091565496
320 -0.3519905218996859
321 -0.3519673649638405
322 -0.3519373264560689
323 -0.3519361605436838
324 -0.3519222710015858
325 -0.3519364059684045
326 -0.3519326600538679
327 -0.3519749098922356
328 -0.3519790386200523
329 -0.3520239560338915
330 -0.3520614678871602
331 -0.3521177833116515
332 -0.352149099282079
333 -0.3522171418088249
334 -0.352286192736363
335 -0.3523557615094216
336 -0.3524118765694106
337 -0.3524892353024969
338 -0.3525515109113337
339 -0.3526417029434997
340 -0.352709407410243
341 -0.3528024829530509
342 -0.352875149751248
343 -0.3529710678789358
344 -0.3530394606904309
345 -0.3531463398400514
346 -0.3532139645917364
347 -0.3533190799270572
348 -0.3533892078480099
349 -0.3534918992613456
350 -0.3535582156781492
351 -0.3536639349801514
352 -0.353730459468231
353 -0.3538348172653779
354 -0.3539454254026026
355 -0.3540389266803961
356 -0.3541054174780458
357 -0.3542057411757296
358 -0.3543163785968786
359 -0.3544051774350304
360 -0.3544775560373709
361 -0.3546189977157914
362 -0.3546869798730917
363 -0.3547908472305248
364 -0.3549147577263911
365 -0.3550160517818151
366 -0.3551519927131923
367 -0.3552543339279056
368 -0.3553994428201293
369 -0.3555004506706822
370 -0.35560524328734
371 -0.3557719080623321
372 -0.355871899539218
373 -0.3560496929132379
374 -0.3561556259211499
375 -0.35628206266957
376 -0.356459734847995
377 -0.3565796911785036
378 -0.3567064650711846
379 -0.3568952742038231
380 -0.3570179446139322
381 -0.3571524425326656
382 -0.3572857371068446
383 -0.3574274299745022
384 -0.3576231168314676
385 -0.3577562725361623
386 -0.3578852033964396
387 -0.3580268678430114
388 -0.3581613469350076
389 -0.3583096969225995
390 -0.3584476251461231
391 -0.3585965924739624
392 -0.3587319027383853
393 -0.3588799623340818
394 -0.3590219351199448
395 -0.3591646492840505
396 -0.3592990993507998
397 -0.3594432060912823
398 -0.3595758531798592
399 -0.3597795228641836
400 -0.3598943525026731
401 -0.3600358787977407
402 -0.3601468073635284
403 -0.3602914154947882
404 -0.3604065230122136
405 -0.3605530070713258
406 -0.3607284155010637
407 -0.3608604403360356
408 -0.3609671425325192
409 -0.3611121084732881
410 -0.3612288247922349
411 -0.3613761603114642
412 -0.3615603500516716
413 -0.3616956691941201
414 -0.3618128701688614
415 -0.361954247962287
416 -0.3620777261108994
417 -0.3622837626129504
418 -0.3623934681174353
419 -0.3625379897822054
420 -0.3626502238890035
421 -0.3628046484040657
422 -0.3629170859981387
423 -0.3630763337610646
424 -0.3631909027925531
425 -0.363351402106113
426 -0.363470430048814
427 -0.3636273744778434
428 -0.3637503446671065
429 -0.3639087295720207
430 -0.3640265308091041
431 -0.3641864460164639
432 -0.3643011881147693
433 -0.3644620298590976
434 -0.3645785031443458
435 -0.364732351614785
436 -0.3648456832868749
437 -0.364998295399046
438 -0.3651154618309299
439 -0.3652578465141482
440 -0.3653794541339761
441 -0.365520987453274
442 -0.3656412527139636
443 -0.3657807615577613
444 -0.3659050154335626
445 -0.3660422815755482
446 -0.3661620841984381
447 -0.3662975770815521
448 -0.3664203905465521
449 -0.3665542065966812
450 -0.3666733955507432
451 -0.3668107634307661
452 -0.3669296452243477
453 -0.3670620351828262
454 -0.367177165853851
455 -0.3673136229132059
456 -0.3674308810206972
457 -0.3675607115366005
458 -0.3676759291138537
459 -0.367810383482758
460 -0.3679257194306038
461 -0.368056849537552
462 -0.3681703119435691
463 -0.3683028882082112
464 -0.3684186053926214
465 -0.368550179979186
466 -0.3686638680328321
467 -0.3687973496872581
468 -0.3689128036871646
469 -0.3690450156208568
470 -0.3691623086936174
471 -0.3692906926414742
472 -0.3694014759745178
473 -0.3695299337307458
474 -0.3696404750338851
475 -0.3697701571707513
476 -0.3698805429461089
477 -0.3700110555624196
478 -0.3701221621309905
479 -0.3702506675023747
480 -0.3703638874592372
481 -0.3704970883458523
482 -0.3706048047517167
483 -0.3707359972020522
484 -0.3708425215056118
485 -0.3709717901434605
486 -0.3710860855043469
487 -0.3712133556693892
488 -0.3713182045277261
489 -0.371451289235482
490 -0.3715567746969355
491 -0.3716934697800975
492 -0.3717933984190409
493 -0.3719268914897473
494 -0.3720303029532775
495 -0.3721615985631395
496 -0.3722659822224795
497 -0.3723903616120538
498 -0.3724961983893714
499 -0.3726267470180357
500 -0.3727261163975976
501 -0.3728563314522662
502 -0.3729561595427794
503 -0.3730875802741953
504 -0.37318786892515
505 -0.3733122834670309
506 -0.3734122410963984
507 -0.3735370193898022
508 -0.3736400771284755
509 -0.3737591737208266
510 -0.3738572922837842
511 -0.3739733058673287
512 -0.3740708591980942
513 -0.37418950519764
514 -0.374285890173663
515 -0.3743978533120714
516 -0.3744964952479011
517 -0.3746075111051459
518 -0.3746999093601915
519 -0.3748103286331226
520 -0.3749049004988111
521 -0.3750099251230742
522 -0.3751086472308349
523 -0.3752092025832312
524 -0.3753100487535313
525 -0.3754021804351246
526 -0.3755031819589156
527 -0.3755951781635271
528 -0.3756939100427494
529 -0.3757822662334802
530 -0.3758808436622307
531 -0.3759676095763046
532 -0.3760666181249899
533 -0.3761488715513421
534 -0.3762411635291373
535 -0.3763330842764359
536 -0.3764199266305743
537 -0.3765130485719758
538 -0.3766006494457789
539 -0.3766887658675568
540 -0.3767787416922477
541 -0.376866943896587
542 -0.376951296710776
543 -0.3770435533352028
544 -0.3771224366755184
545 -0.3772175412864592
546 -0.3772926045306207
547 -0.3773915375024726
548 -0.377465789977359
549 -0.3775641383965054
550 -0.3776379772225059
551 -0.3777318196580134
552 -0.3778101405791836
553 -0.3779061351366595
554 -0.3779831383294146
555 -0.3780789236632563
556 -0.3781519593747658
557 -0.378242545466732
558 -0.3783191393279711
559 -0.378405611630401
560 -0.3784780084899124
561 -0.378566489148436
562 -0.3786382513687813
563 -0.378726026894736
564 -0.3788003467700906
565 -0.3788865308886801
566 -0.3789596320283535
567 -0.3790433862979187
568 -0.3791147048593709
569 -0.3791938136847323
570 -0.3792620593035679
571 -0.3793440011023428
572 -0.379410029767374
573 -0.3794935476387968
574 -0.3795590579705565
575 -0.3796435700323609
576 -0.3797093022354665
577 -0.3797925842520997
578 -0.3798530270496488
579 -0.3799393878942968
580 -0.3800020687462434
581 -0.3800877839036514
582 -0.3801445393264908
583 -0.3802320982182652
584 -0.3802920663471127
585 -0.380377773469287
586 -0.3804408121543794
587 -0.3805178005567513
588 -0.3805853993227146
589 -0.380663095055042
590 -0.380727358469258
591 -0.380804572214043
592 -0.3808727470501254
593 -0.3809458201530654
594 -0.3810114689909765
595 -0.3810775798463839
596 -0.3811476464909815
597 -0.3812151321325527
598 -0.3812836575878765
599 -0.3813496474797369
600 -0.381414577416457
601 -0.3814773141067631
602 -0.3815458609419442
603 -0.3816066630239937
604 -0.3816723952819492
605 -0.3817248519443527
606 -0.3817972819409263
607 -0.3818576955250935
608 -0.3819234908718697
609 -0.38198979159254
610 -0.3820548865938014
611 -0.3821214354432216
612 -0.3821781137464705
613 -0.3822464582789649
614 -0.3823035746171897
615 -0.3823703294408035
616 -0.3824342229379547
617 -0.3824971902262744
618 -0.3825601971052992
619 -0.3826239024697182
620 -0.3826862635985391
621 -0.3827458771970861
622 -0.3828075138325961
623 -0.3828647007291732
624 -0.3829226991610971
625 -0.3829810865436275
626 -0.3830424587732629
627 -0.3830992278141228
628 -0.3831572671537965
629 -0.3832170683207816
630 -0.3832729884647381
631 -0.3833279051586596
632 -0.3833872433959887
633 -0.383446921610074
634 -0.383499839143912
635 -0.3835592773459079
636 -0.3836096775493617
637 -0.3836697737704939
638 -0.3837209603015213
639 -0.3837817393140226
640 -0.3838364609614646
641 -0.3838940877722162
642 -0.3839448367728184
643 -0.3840059049940178
644 -0.3840567094857888
645 -0.3841168435531493
646 -0.3841628082588425
647 -0.3842212703366658
648 -0.3842737374880171
649 -0.3843255846015171
650 -0.3843806606054837
651 -0.3844300664422233
652 -0.3844834640683646
653 -0.3845370138076702
654 -0.3845835273186758
655 -0.384633884125749
656 -0.3846868966366426
657 -0.3847365920080557
658 -0.384787146919456
659 -0.3848333283701401
660 -0.3848914793073919
661 -0.3849356649390632
662 -0.3849877090845449
663 -0.3850331577712948
664 -0.3850841461047472
665 -0.3851333773970392
666 -0.385174450539313
667 -0.3852271800652003
668 -0.3852704732189494
669 -0.3853230088222352
670 -0.3853666716651374
671 -0.3854201211221776
672 -0.3854637626504055
673 -0.3855200495789881
674 -0.385563397566424
675 -0.3856102098420263
676 -0.3856586093122201
677 -0.385704419786706
678 -0.3857522303581435
679 -0.3857984933015908
680 -0.3858461576696836
681 -0.3858899304261076
682 -0.3859365536782278
683 -0.3859818977937944
684 -0.386031306740861
685 -0.3860734375617694
686 -0.3861188337410708
687 -0.3861627331162492
688 -0.3862073646616273
689 -0.3862501163472308
690 -0.3862959282864307
691 -0.3863361043508236
692 -0.3863808973388769
693 -0.3864227175736208
694 -0.3864714196457135
695 -0.3865078334056092
696 -0.3865605116790703
697 -0.3865992153414757
698 -0.3866502305642679
699 -0.3866859676221382
700 -0.3867391919073846
701 -0.3867799305277509
702 -0.3868290768401103
703 -0.3868714235477445
704 -0.3869161746220091
705 -0.386958618279742
706 -0.387006824198409
707 -0.3870443778289813
708 -0.3870937230030054
709 -0.3871303420970965
710 -0.3871768032044527
711 -0.3872120337932292
712 -0.3872603447678213
713 -0.3872949117846395
714 -0.3873405984340717
715 -0.387376658162914
716 -0.3874215306339938
717 -0.3874574052637348
718 -0.3875043649425522
719 -0.3875413475130467
720 -0.3875873699142567
721 -0.3876211745227983
722 -0.387671871239877
723 -0.3877053831873651
724 -0.3877535306154617
725 -0.3877893078600103
726 -0.3878355064446989
727 -0.3878759917752314
728 -0.3879141185840744
729 -0.3879552196574755
730 -0.387999712423199
731 -0.3880370726483789
732 -0.388075502548698
733 -0.3881163139446462
734 -0.3881521745992225
735 -0.3881970208503584
736 -0.3882320199754002
737 -0.3882723361810372
738 -0.3883108333812059
739 -0.3883441226720055
740 -0.3883851910352697
741 -0.3884210152634542
742 -0.3884673518389179
743 -0.3884984221871545
744 -0.3885422167505953
745 -0.388573219054147
746 -0.3886220797500606
747 -0.3886539397985653
748 -0.388698715068184
749 -0.3887241102620425
750 -0.3887778204184263
751 -0.3888080867457134
752 -0.3888549955041688
753 -0.3888832935427396
754 -0.3889314699240006
755 -0.3889624914663183
756 -0.3890103792226382
757 -0.3890372035366444
758 -0.389079461135634
759 -0.3891148087697571
760 -0.3891604636745754
761 -0.3891918972654499
762 -0.3892343394743451
763 -0.3892648022098468
764 -0.3893059777277579
765 -0.3893375590642316
766 -0.3893820670636823
767 -0.38941148589743
768 -0.3894526873701056
769 -0.3894820127551276
770 -0.3895194349530117
771 -0.3895554408925798
772 -0.3895880252229404
773 -0.3896246782145964
774 -0.3896555290081171
775 -0.3896933184962468
776 -0.3897288732980593
777 -0.3897639774690419
778 -0.3897961862345718
779 -0.3898333072062167
780 -0.3898674886440398
781 -0.3899026856163144
782 -0.3899343047935565
783 -0.3899669982658237
784 -0.3900066595349869
785 -0.3900292366444502
786 -0.3900727752334739
787 -0.39010395454431
788 -0.3901403890627619
789 -0.3901682492491231
790 -0.3902001288631105
791 -0.3902384673976618
792 -0.390267186892009
793 -0.3902950628318435
794 -0.3903284127263965
795 -0.3903609000673778
796 -0.3903872548404266
797 -0.3904214718483689
798 -0.3904488426749688
799 -0.3904825168478863
800 -0.3905158532651858
801 -0.3905482320376206
802 -0.3905797025470683
803 -0.3906078670581143
804 -0.3906434011993097
805 -0.3906722944359216
806 -0.3907077641747839
807 -0.3907392267219825
808 -0.3907735332415661
809 -0.3908036880246761
810 -0.3908344377326898
811 -0.3908705349851474
812 -0.3908997206424284
813 -0.3909353702123
814 -0.3909618755917929
815 -0.390998874230737
816 -0.3910252273321175
817 -0.3910585846942676
818 -0.391087297574379
819 -0.3911237581573564
820 -0.3911504878014317
821 -0.3911818041638291
822 -0.391207245761941
823 -0.3912422696119415
824 -0.391271987337597
825 -0.3913028766542484
826 -0.3913277159621788
827 -0.3913635408938834
828 -0.3913861739430486
829 -0.3914195835430725
830 -0.3914413342468496
831 -0.3914777139061922
832 -0.3915031970313186
833 -0.3915342022675324
834 -0.3915643723532207
835 -0.3915939420725243
836 -0.3916226406279651
837 -0.3916501879263949
838 -0.3916785657036309
839 -0.3917041913875691
840 -0.3917325142249312
841 -0.3917563526485269
842 -0.3917891605817774
843 -0.3918135070606768
844 -0.3918450835316058
845 -0.3918659841267662
846 -0.391899461697138
847 -0.3919216709401001
848 -0.3919534634478131
849 -0.3919708949203996
850 -0.3920050407426756
851 -0.392028103411852
852 -0.3920553477088681
853 -0.3920789763050475
854 -0.3921073773526725
855 -0.3921297689210527
856 -0.3921651946932252
857 -0.3921844657993102
858 -0.3922180368478899
859 -0.3922396804611147
860 -0.3922706878828542
861 -0.392289309363596
862 -0.3923284071386001
863 -0.3923508616157423
864 -0.3923841797191737
865 -0.392408521631695
866 -0.3924454644868944
867 -0.3924653244140585
868 -0.3924974802180857
869 -0.3925155739899823
870 -0.3925451703214968
871 -0.3925666030634667
872 -0.3925980286107021
873 -0.3926191084570411
874 -0.3926454537628483
875 -0.3926645082602547
876 -0.3926967064931816
877 -0.3927210989838135
878 -0.3927433981711025
879 -0.392765055514627
880 -0.392791873715551
881 -0.3928158603585505
882 -0.3928326790615861
883 -0.3928609884390894
884 -0.392876557782689
885 -0.3929105199156411
886 -0.3929238058889466
887 -0.3929552762228432
888 -0.3929645117499189
889 -0.3929969370528067
890 -0.3930107699293717
891 -0.3930407925484003
892 -0.3930556642515585
893 -0.393085215473649
894 -0.3931034813164306
895 -0.3931292014986921
896 -0.3931477959201534
897 -0.3931764648351848
898 -0.3931956193573609
899 -0.3932209288455675
900 -0.3932408743596268
901 -0.3932702347741266
902 -0.3932964190095985
903 -0.3933177774483652
904 -0.393339994581178
905 -0.393360987055742
906 -0.3933892265063348
907 -0.3934100937920647
908 -0.393435879258241
909 -0.3934515887379615
910 -0.3934804239631086
911 -0.3935016022989448
912 -0.393522721826298
913 -0.39354591692636
914 -0.3935697306912243
915 -0.393589464829055
916 -0.3936126982028336
917 -0.3936347609797807
918 -0.3936563488929862
919 -0.3936807907087957
920 -0.393701414736123
921 -0.393726340811025
922 -0.3937483971104361
923 -0.3937731029982525
924 -0.3937902781581361
925 -0.3938167400912659
926 -0.3938342353011979
927 -0.3938590696017811
928 -0.393878327638328
929 -0.3938972360699987
930 -0.393919357620969
931 -0.3939363493772427
932 -0.3939581504415903
933 -0.3939733430400492
934 -0.3939927533491372
935 -0.3940133668381144
936 -0.3940307112115115
937 -0.394047247397069
938 -0.3940685290519439
939 -0.3940824771337907
940 -0.3941097208943484
941 -0.3941201046053909
942 -0.3941453932868595
943 -0.3941567736572041
944 -0.3941831981526126
945 -0.3941971084978656
946 -0.394222919608113
947 -0.3942332670649429
948 -0.3942599925210722
949 -0.3942693104572376
950 -0.3942960589963166
951 -0.3943108471209072
952 -0.3943354422743813
953 -0.3943505544596414
954 -0.394378348292071
955 -0.3943941967587589
956 -0.3944195719878049
957 -0.39443707209685
958 -0.3944617602069447
959 -0.3944843922886727
960 -0.3944973684358264
961 -0.3945198027545438
962 -0.3945355085220232
963 -0.3945609766905343
964 -0.3945682456513962
965 -0.3945956691193872
966 -0.3946064303273211
967 -0.3946292040403706
968 -0.394635514550972
969 -0.3946626011465401
970 -0.3946634250386497
971 -0.3946923947155453
972 -0.3946948079428714
973 -0.3947190955983548
974 -0.3947208780526025
975 -0.3947490700362512
976 -0.3947540365388849
977 -0.3947827234515797
978 -0.3947909760730285
979 -0.3948148557573533
980 -0.3948316284998168
981 -0.3948498884416158
982 -0.394864604702006
983 -0.3948778582346254
984 -0.3949002932494287
985 -0.3949093481679743
986 -0.394933487718132
987 -0.3949407550648847
988 -0.3949642543852661
989 -0.3949759980431029
990 -0.3949990329376213
991 -0.3950056581822763
992 -0.3950357731575899
993 -0.3950415575542645
994 -0.3950651546537712
995 -0.3950723979493192
996 -0.3950961604318596
997 -0.3951027934548536
998 -0.3951288548216335
999 -0.3951378877615522
1000 -0.395158945563289
1001 -0.3951703823371602
1002 -0.3951934059550842
1003 -0.3952040868876991
1004 -0.3952220336374662
1005 -0.3952365297041745
1006 -0.395254008718011
1007 -0.3952711414944431
1008 -0.3952800402218878
1009 -0.3953046725721124
1010 -0.39531106981104
1011 -0.3953363418799927
1012 -0.3953377416255002
1013 -0.3953649789401771
1014 -0.3953664640950709
1015 -0.3953955050080856
1016 -0.3954018805901672
1017 -0.3954244323524995
1018 -0.3954314636883183
1019 -0.3954525821754036
1020 -0.3954599222699017
1021 -0.3954753195329335
1022 -0.3954907766753675
1023 -0.3955059487818999
1024 -0.3955195326808986
1025 -0.395530529886944
1026 -0.3955468883258759
1027 -0.3955621939757516
1028 -0.3955751997903507
1029 -0.3955888990097717
1030 -0.3956057530499481
1031 -0.3956103251373098
1032 -0.3956287137741862
1033 -0.3956358006291592
1034 -0.3956566428911843
1035 -0.3956662043083912
1036 -0.3956818422376367
1037 -0.3956940970575305
1038 -0.3957121236980415
1039 -0.3957250513670072
1040 -0.3957390482043501
1041 -0.3957520466864589
1042 -0.3957651447591078
1043 -0.3957745201081553
1044 -0.3957894100412328
1045 -0.3958033351918651
1046 -0.3958103324853774
1047 -0.3958264169476079
1048 -0.3958360080226608
1049 -0.3958521554005385
1050 -0.3958557218696072
1051 -0.3958735597351238
1052 -0.3958764300745501
1053 -0.395892611343396
1054 -0.3958973500440903
1055 -0.3959169626611571
1056 -0.3959242235656716
1057 -0.3959366810669622
1058 -0.3959472611345151
1059 -0.3959622729744538
1060 -0.3959717005619903
1061 -0.395988104347694
1062 -0.3959973191508125
1063 -0.3960111434592143
1064 -0.3960217535057947
1065 -0.3960366960493893
1066 -0.3960541154714802
1067 -0.3960681993064578
1068 -0.3960813303878031
1069 -0.3960932377231524
1070 -0.3961125684433728
1071 -0.3961274704048238
1072 -0.3961433674653425
1073 -0.3961562519033583
1074 -0.3961689672774543
1075 -0.3961826928778561
1076 -0.396192403774956
1077 -0.3962088331944475
1078 -0.3962146404112056
1079 -0.3962283482445293
1080 -0.3962394639955338
1081 -0.3962489029957597
1082 -0.396259155407195
1083 -0.3962637422280817
1084 -0.3962731374299319
1085 -0.3962824018366135
1086 -0.3962858516797663
1087 -0.3962948462132898
1088 -0.3962939873384405
1089 -0.3963085185936959
1090 -0.396304867491113
1091 -0.3963232652134012
1092 -0.3963171260287173
1093 -0.3963401362128082
1094 -0.3963362492929589
1095 -0.3963552434224205
1096 -0.3963602302815644
1097 -0.3963753393172151
1098 -0.3963788559758145
1099 -0.3963974622450508
1100 -0.3964042317540457
1101 -0.3964232925374707
1102 -0.3964368977357125
1103 -0.3964473673528316
1104 -0.3964654451033207
1105 -0.396481093849221
1106 -0.3964954769430653
1107 -0.3965042317746287
1108 -0.3965187104375867
1109 -0.3965299967405182
1110 -0.39654577084226
1111 -0.3965523465565418
1112 -0.3965651980216885
1113 -0.3965745311819016
1114 -0.3965906424978231
1115 -0.3965964890086182
1116 -0.3966117286125798
1117 -0.3966204295596779
1118 -0.39663518777354
1119 -0.396642244068779
1120 -0.396648307384022
1121 -0.3966578953976607
1122 -0.3966690619274968
1123 -0.396671593968272
1124 -0.3966787546104741
1125 -0.3966872962067877
1126 -0.3966929915224675
1127 -0.3966982826608906
1128 -0.3967057613433339
1129 -0.3967118294544117
1130 -0.3967172273548736
1131 -0.3967248197711412
1132 -0.3967342831741723
1133 -0.3967405853489794
1134 -0.3967487108842665
1135 -0.3967551955542935
1136 -0.3967641958477328
1137 -0.3967767343580705
1138 -0.3967854424472474
1139 -0.3967958890055961
1140 -0.3968056244931796
1141 -0.3968134840869526
1142 -0.3968281491653987
1143 -0.3968290313713789
1144 -0.3968446822227796
1145 -0.3968532419918208
1146 -0.3968648116099719
1147 -0.3968735381484317
1148 -0.3968849612008464
1149 -0.3968984336951786
1150 -0.3968994371030076
1151 -0.3969149837079688
1152 -0.3969189106130584
1153 -0.396929841383385
1154 -0.3969349660514327
1155 -0.3969469030114728
1156 -0.3969518707696559
1157 -0.3969642324201481
1158 -0.3969711062030263
1159 -0.3969849561392664
1160 -0.3969903665737782
1161 -0.3970042254507274
1162 -0.3970100008838071
1163 -0.3970183600691457
1164 -0.3970264936229856
1165 -0.3970344156811793
1166 -0.3970422727264469
1167 -0.3970502584824336
1168 -0.3970515705579117
1169 -0.3970640282731602
1170 -0.3970662736992236
1171 -0.3970820547680838
1172 -0.3970780207962705
1173 -0.3970905281875769
1174 -0.3970926837676416
1175 -0.3971030535513935
1176 -0.3971048766468143
1177 -0.3971128339330141
1178 -0.3971185470368275
1179 -0.3971260230152273
1180 -0.3971337893098895
1181 -0.3971423724147553
1182 -0.3971478518853439
1183 -0.3971542063843546
1184 -0.3971647249339773
1185 -0.3971771083339527
1186 -0.3971875191944256
1187 -0.3972005524370502
1188 -0.397204989326859
1189 -0.3972196855582431
1190 -0.3972250929141297
1191 -0.3972389423899579
1192 -0.3972457994124708
1193 -0.3972585942169248
1194 -0.3972644350254831
1195 -0.3972786393420475
1196 -0.3972838674405268
1197 -0.3972949269380204
1198 -0.3972980980005308
1199 -0.3973042843608147
1200 -0.3973126556053224
1201 -0.3973182322405275
1202 -0.3973235154895712
1203 -0.3973268007443408
1204 -0.3973319171167006
1205 -0.3973382889953586
1206 -0.3973446620690866
1207 -0.3973510862582839
1208 -0.3973554538676392
1209 -0.3973637825206631
1210 -0.3973636201938903
1211 -0.3973750929168765
1212 -0.3973763488803785
1213 -0.3973837070628424
1214 -0.3973860741822081
1215 -0.3973956602187697
1216 -0.3974010203576632
1217 -0.3974074086703275
1218 -0.3974178993971904
1219 -0.3974278479286614
1220 -0.3974343378560615
1221 -0.3974458167766798
1222 -0.3974545241521137
1223 -0.3974590022753813
1224 -0.3974702162323225
1225 -0.3974769038562108
1226 -0.3974903052905223
1227 -0.3974961660909002
1228 -0.3975074908949278
1229 -0.3975142730498737
1230 -0.3975261427403152
1231 -0.3975263551988686
1232 -0.3975405941238107
1233 -0.3975380384496596
1234 -0.3975469343234337
1235 -0.3975483269353772
1236 -0.3975565534621247
1237 -0.3975543985008189
1238 -0.3975612353858094
1239 -0.3975640576392732
1240 -0.3975710003219169
1241 -0.3975719798078819
1242 -0.3975805629112026
1243 -0.397578971966699
1244 -0.3975858511837193
1245 -0.3975945854448064
1246 -0.3975985917193482
1247 -0.397607822292136
1248 -0.3976086996800063
1249 -0.3976198613663756
1250 -0.3976190820035265
1251 -0.3976353283203782
1252 -0.3976306182803239
1253 -0.3976463165811358
1254 -0.3976497424861277
1255 -0.3976596662128923
1256 -0.3976646453943802
1257 -0.3976755729123115
1258 -0.3976803822711246
1259 -0.3976901375979884
1260 -0.3976999387677271
1261 -0.3977086466610542
1262 -0.397715952829082
1263 -0.3977161121879463
1264 -0.3977253206968727
1265 -0.3977295678120306
1266 -0.3977344851943083
1267 -0.3977344302714116
1268 -0.3977448556587982
1269 -0.3977458650453887
1270 -0.3977564633033619
1271 -0.3977525629808574
1272 -0.3977650650764601
1273 -0.3977634486149372
1274 -0.3977746307269662
1275 -0.3977734502225304
1276 -0.3977852271182258
1277 -0.3977867779320306
1278 -0.3977934150620052
1279 -0.3977984780196855
1280 -0.3978028317784724
1281 -0.3978126542765366
1282 -0.3978141864315757
1283 -0.3978193088879748
1284 -0.3978261462917047
1285 -0.3978280129075186
1286 -0.3978366985745732
1287 -0.3978448671630922
1288 -0.3978499336655136
1289 -0.3978581306148433
1290 -0.3978645206633969
1291 -0.3978752297278982
1292 -0.397876261473448
1293 -0.3978900835713233
1294 -0.3978940657073831
1295 -0.3979025928503741
1296 -0.3979012005293704
1297 -0.3979101782177131
1298 -0.3979141121311244
1299 -0.3979244379626883
1300 -0.3979233764917007
1301 -0.3979355575787622
1302 -0.39793435192529
1303 -0.3979428634888347
1304 -0.397941035786349
1305 -0.397952858730669
1306 -0.3979512159598629
1307 -0.3979598461643556
1308 -0.3979591308861194
1309 -0.3979723275550135
1310 -0.3979650956892969
1311 -0.3979789947793432
1312 -0.3979747007595845
1313 -0.3979848314129517
1314 -0.3979832125548074
1315 -0.3979928864505828
1316 -0.3979951551431506
1317 -0.3979989766593943
1318 -0.3980002748755829
1319 -0.3980059176069714
1320 -0.3980111876715198
1321 -0.3980153284687762
1322 -0.3980204793376422
1323 -0.3980204414133457
1324 -0.3980271516506138
1325 -0.3980287127434602
1326 -0.3980360729211511
1327 -0.398028649951383
1328 -0.3980456283301831
1329 -0.3980402785827502
1330 -0.3980551038401134
1331 -0.3980517872918291
1332 -0.398066591615009
1333 -0.3980645221233011
1334 -0.3980762037552815
1335 -0.3980788701789966
1336 -0.3980855943345817
1337 -0.3980924568626348
1338 -0.3980990394860903
1339 -0.3981064128885952
1340 -0.3981119496493301
1341 -0.3981150168502968
1342 -0.3981212776204384
1343 -0.3981259023043937
1344 -0.3981343441859648
1345 -0.398140869245127
1346 -0.3981435265043305
1347 -0.3981434831914879
1348 -0.3981488640062948
1349 -0.3981535869774142
1350 -0.3981536699305949
1351 -0.3981587041176048
1352 -0.3981587792369924
1353 -0.3981582192583281
1354 -0.3981630063873656
1355 -0.398167371570663
1356 -0.3981719525910103
1357 -0.3981684675203003
1358 -0.3981761572499216
1359 -0.3981801927844777
1360 -0.398181794320257
1361 -0.3981860023594211
1362 -0.3981891239451845
1363 -0.3981899490147396
1364 -0.3981967275323307
1365 -0.3981979003787169
1366 -0.3982037986937077
1367 -0.3982058760098262
1368 -0.3982161878001596
1369 -0.3982189504339763
1370 -0.398229873307457
1371 -0.3982293142426268
1372 -0.3982392621547735
1373 -0.3982425831582821
1374 -0.3982527040904872
1375 -0.3982594047326301
1376 -0.3982693125896282
1377 -0.3982727582270246
1378 -0.398282649452069
1379 -0.3982825602180604
1380 -0.3982895096763464
1381 -0.3982908991559426
1382 -0.3983009256570276
1383 -0.3982981235934073
1384 -0.3983073284279724
1385 -0.3983034168845673
1386 -0.3983095702072976
1387 -0.3983046338744696
1388 -0.3983137474431244
1389 -0.3983086953249539
1390 -0.39831078543126
1391 -0.3983077704338823
1392 -0.3983097424908163
1393 -0.3983044610248221
1394 -0.3983063474635585
1395 -0.3983110883789306
1396 -0.3983119801328919
1397 -0.398315382180746
1398 -0.3983201227575548
1399 -0.398323965711687
1400 -0.3983258478425759
1401 -0.3983307895641658
1402 -0.398332522294164
1403 -0.3983395368767763
1404 -0.398341617139273
1405 -0.3983440685417845
1406 -0.3983567122111865
1407 -0.3983554211530948
1408 -0.3983679506216124
1409 -0.3983721184596774
1410 -0.3983854017017451
1411 -0.3983826220601739
1412 -0.3983955779213879
1413 -0.3983945423682592
1414 -0.3984060693362524
1415 -0.3984030429845346
1416 -0.398411124256687
1417 -0.3984090019977364
1418 -0.3984190593162055
1419 -0.3984179514770537
1420 -0.3984206741468857
1421 -0.3984259769232196
1422 -0.3984310183436606
1423 -0.3984333909256613
1424 -0.3984311449599305
1425 -0.3984431723894623
1426 -0.398433297837458
1427 -0.3984422734889553
1428 -0.3984381099791619
1429 -0.3984427982343604
1430 -0.3984443048404696
1431 -0.3984502489688475
1432 -0.3984464666021866
1433 -0.3984572189046419
1434 -0.3984525320590489
1435 -0.3984635046062419
1436 -0.3984548572413171
1437 -0.3984667822332444
1438 -0.3984583925075604
1439 -0.3984676337032888
1440 -0.3984594074901603
1441 -0.3984729357624698
1442 -0.3984692290295778
1443 -0.3984804389888179
1444 -0.3984818830748434
1445 -0.3984892141428922
1446 -0.3984895627241827
1447 -0.3984895233751404
1448 -0.3984954376327043
1449 -0.3984976454963956
1450 -0.3985020552347981
1451 -0.3985043335196728
1452 -0.3985087574262386
1453 -0.3985101305635808
1454 -0.3985195852455208
1455 -0.3985212141246062
1456 -0.3985219210877988
1457 -0.3985270436840536
1458 -0.3985317778566228
1459 -0.3985343491563884
1460 -0.3985368622284793
1461 -0.3985416508987963
1462 -0.3985447782963712
1463 -0.3985448744219832
1464 -0.398549306325736
1465 -0.3985526225369578
1466 -0.3985577277785237
1467 -0.3985597559174061
1468 -0.3985571086037681
1469 -0.3985604189989828
1470 -0.3985669163261752
1471 -0.3985609772761296
1472 -0.39856114709653
1473 -0.3985617632089428
1474 -0.3985622475254626
1475 -0.3985662067493477
1476 -0.3985619345171778
1477 -0.3985665673482997
1478 -0.3985670238687021
1479 -0.398572152127851
1480 -0.3985677006197209
1481 -0.398581168192908
1482 -0.3985762484965097
1483 -0.3985820886211527
1484 -0.3985854716797327
1485 -0.3985954173787951
1486 -0.3985930103817572
1487 -0.3986024928678173
1488 -0.3986002342334641
1489 -0.3986131231966097
1490 -0.3986118976032504
1491 -0.3986246150110345
1492 -0.3986214778563258
1493 -0.3986305341144127
1494 -0.3986278021776415
1495 -0.3986335114582254
1496 -0.3986360208823359
1497 -0.3986432808208819
1498 -0.3986410724865117
1499 -0.3986439007841201
1500 -0.3986459414794172
1501 -0.3986491730789382
1502 -0.3986483908584507
1503 -0.3986472669022378
1504 -0.3986476840426576
1505 -0.3986493202375158
1506 -0.398649219778744
1507 -0.3986472122585054
1508 -0.3986490595239283
1509 -0.3986488923099519
1510 -0.3986549524648931
1511 -0.3986527764454061
1512 -0.3986583067545383
1513 -0.3986532866838391
1514 -0.3986566754615367
1515 -0.3986631098211398
1516 -0.3986643092529284
1517 -0.3986684835934588
1518 -0.398668662367295
1519 -0.3986726757347057
1520 -0.3986736259712214
1521 -0.3986813624905176
1522 -0.3986817840724782
1523 -0.3986872302449725
1524 -0.3986902101289674
1525 -0.39869352307857
1526 -0.398702425431959
1527 -0.3987002254841445
1528 -0.3987070221444388
1529 -0.3987059687264392
1530 -0.3987161545297312
1531 -0.3987147540944324
1532 -0.3987191039160131
1533 -0.3987100456040801
1534 -0.3987192097790939
1535 -0.3987211410949361
1536 -0.3987242343385221
1537 -0.3987206724583075
1538 -0.3987243891591728
1539 -0.3987245686019471
1540 -0.3987252635320498
1541 -0.3987228589626226
1542 -0.3987263238280609
1543 -0.3987255816350983
1544 -0.3987201098535743
1545 -0.398728753324968
1546 -0.3987273005442984
1547 -0.3987344529635784
1548 -0.398730642649529
1549 -0.3987401425522512
1550 -0.3987380289702034
1551 -0.3987473268760562
1552 -0.3987432477071398
1553 -0.3987564168631696
1554 -0.3987454674772617
1555 -0.3987588693327284
1556 -0.3987535307648185
1557 -0.3987605519517204
1558 -0.3987621381553331
1559 -0.3987674330049121
1560 -0.3987721129439267
1561 -0.3987700705494615
1562 -0.3987745561601599
1563 -0.3987766972243774
1564 -0.3987757718575096
1565 -0.3987802915479546
1566 -0.3987817419158028
1567 -0.3987865637453621
1568 -0.3987831600451925
1569 -0.3987901939382703
1570 -0.3987852366885219
1571 -0.3987927958447053
1572 -0.3987894867675975
1573 -0.3987926560692847
1574 -0.3987925342964247
1575 -0.3987975244853595
1576 -0.3987906305718277
1577 -0.3987997730618553
1578 -0.39879125541202
1579 -0.3988015177801587
1580 -0.3987931582960703
1581 -0.3988048084940058
1582 -0.3987970874756663
1583 -0.3988099322868274
1584 -0.3987964798468901
1585 -0.3988079626118564
1586 -0.3987947051752354
1587 -0.3988069655638751
1588 -0.398797387248216
1589 -0.3988073810402882
1590 -0.3987988767485813
1591 -0.3988080590921222
1592 -0.3987990415120739
1593 -0.3988099081443369
1594 -0.3988054065891297
1595 -0.3988147042635169
1596 -0.3988144170372779
1597 -0.3988205929735626
1598 -0.3988250469031809
1599 -0.3988230443112056
1600 -0.3988287015739121
1601 -0.3988284885873256
1602 -0.3988356128520832
1603 -0.3988344825129333
1604 -0.3988409127351252
1605 -0.3988435757222957
1606 -0.3988520423984017
1607 -0.398850396615817
1608 -0.3988534131438375
1609 -0.3988581848036013
1610 -0.3988594256482231
1611 -0.398859043450126
1612 -0.3988623868502552
1613 -0.3988605129961541
1614 -0.398859458621988
1615 -0.3988575381755186
1616 -0.398862907423189
1617 -0.3988647233349364
1618 -0.3988641398167522
1619 -0.3988603623199242
1620 -0.3988585161803277
1621 -0.3988599395663577
1622 -0.398858201027759
1623 -0.3988553303591724
1624 -0.3988532061136967
1625 -0.3988542781011252
1626 -0.3988555314192064
1627 -0.398853030355633
1628 -0.3988567603381145
1629 -0.3988584608664528
1630 -0.3988561313763465
1631 -0.3988597913975893
1632 -0.3988635337326979
1633 -0.3988674997459248
1634 -0.3988707706441271
1635 -0.3988758369648063
1636 -0.3988780692671048
1637 -0.3988885909820438
1638 -0.3988907419467823
1639 -0.3988963901030401
1640 -0.3989015943256701
1641 -0.3989095521187581
1642 -0.3989090082369794
1643 -0.3989193053802619
1644 -0.3989126824495082
1645 -0.3989262042668418
1646 -0.3989160956466182
1647 -0.3989258486667471
1648 -0.3989189990050072
1649 -0.398926048874529
1650 -0.3989225321213929
1651 -0.3989221470032793
1652 -0.3989199176747303
1653 -0.3989163049304348
1654 -0.398915282366164
1655 -0.3989091801276632
1656 -0.3989077011716737
1657 -0.3989025274305545
1658 -0.3989052850206705
1659 -0.3989026818389728
1660 -0.3989035557018046
1661 -0.3989011636338992
1662 -0.3989051677875307
1663 -0.3989021815648169
1664 -0.3989081445888373
1665 -0.3989122928131159
1666 -0.3989117879589567
1667 -0.3989125767291772
1668 -0.3989157262966843
1669 -0.3989237197805962
1670 -0.3989228964862322
1671 -0.3989290237928333
1672 -0.3989286936428156
1673 -0.3989350918249919
1674 -0.3989327031625327
1675 -0.3989398107847754
1676 -0.3989423310435957
1677 -0.3989465854732133
1678 -0.3989428740012991
1679 -0.3989504444212326
1680 -0.3989490467709214
1681 -0.3989502609037897
1682 -0.3989497634186673
1683 -0.3989533504829071
1684 -0.3989523967565047
1685 -0.3989591428384465
1686 -0.3989583188178809
1687 -0.3989571060250321
1688 -0.3989575743651418
1689 -0.3989571042456647
1690 -0.3989579269267131
1691 -0.3989639778478467
1692 -0.3989576643423485
1693 -0.3989621478975415
1694 -0.3989580392898147
1695 -0.3989623293181525
1696 -0.3989582153744378
1697 -0.3989645001564091
1698 -0.3989578200726719
1699 -0.3989656236459095
1700 -0.3989579230706219
1701 -0.3989636013289551
1702 -0.3989580302682078
1703 -0.3989590407474718
1704 -0.39895592281297
1705 -0.3989606026137307
1706 -0.3989592440998148
1707 -0.3989650354961129
1708 -0.3989629200136169
1709 -0.3989717335375055
1710 -0.3989751072543129
1711 -0.3989756012532426
1712 -0.3989777181486973
1713 -0.3989750935012448
1714 -0.3989794084357495
1715 -0.3989832723734901
1716 -0.3989859664554207
1717 -0.3989822693023398
1718 -0.398990957277585
1719 -0.3989888213272383
1720 -0.3989962335590212
1721 -0.3989948785960004
1722 -0.3989994961792058
1723 -0.3989951979039597
1724 -0.3990026246562635
1725 -0.3990043425408935
1726 -0.3990036351500407
1727 -0.3990034018214277
1728 -0.3990047630474154
1729 -0.3990075550904215
1730 -0.3990042619057232
1731 -0.3990092085431977
1732 -0.3990004778445681
1733 -0.3990061957180559
1734 -0.3989944727759011
1735 -0.3990022155616957
1736 -0.3989903269409669
1737 -0.3989986623542021
1738 -0.3989892690856257
1739 -0.399000668702582
1740 -0.3989875151250484
1741 -0.3989938984955109
1742 -0.3989895209515155
1743 -0.3989911958006674
1744 -0.3989862453342944
1745 -0.3989892181510167
1746 -0.3989876336566048
1747 -0.398991857882281
1748 -0.3989928626654405
1749 -0.3989991361091573
1750 -0.3990033068081433
1751 -0.3990087474418806
1752 -0.3990159698209965
1753 -0.399013508920369
1754 -0.3990220625967748
1755 -0.3990226455102761
1756 -0.3990270253410849
1757 -0.3990291441721839
1758 -0.3990327501998885
1759 -0.3990373642588146
1760 -0.3990352616219476
1761 -0.3990405532436034
1762 -0.3990377492402667
1763 -0.3990438719880952
1764 -0.3990347910427797
1765 -0.399040514312661
1766 -0.3990361721462553
1767 -0.3990375213171151
1768 -0.3990321608729398
1769 -0.3990364080204108
1770 -0.3990325578953357
1771 -0.3990356126424884
1772 -0.3990302178584677
1773 -0.3990318908351313
1774 -0.3990279490370456
1775 -0.399035503175543
1776 -0.3990252541602426
1777 -0.3990301100500938
1778 -0.3990272834970599
1779 -0.3990323343275914
1780 -0.3990300402734606
1781 -0.3990314366656512
1782 -0.3990347629224567
1783 -0.3990353364622607
1784 -0.399036051845738
1785 -0.399038590756414
1786 -0.3990404699080247
1787 -0.3990381393947729
1788 -0.3990423855369784
1789 -0.3990467143148917
1790 -0.3990519749954055
1791 -0.3990512530613038
1792 -0.3990571124839143
1793 -0.3990504575705909
1794 -0.3990587052727482
1795 -0.3990576447019705
1796 -0.3990623512716209
1797 -0.3990569893098383
1798 -0.3990621618591761
1799 -0.3990578692644046
1800 -0.3990590568932612
1801 -0.3990537847795025
1802 -0.3990576420184252
1803 -0.3990542169148366
1804 -0.3990524364018386
1805 -0.3990518245332154
1806 -0.3990569684236068
1807 -0.3990486076098878
1808 -0.3990551744657188
1809 -0.3990501371227822
1810 -0.3990566729722498
1811 -0.3990549125306451
1812 -0.3990522426382011
1813 -0.3990556575249252
1814 -0.3990527214545041
1815 -0.3990603673483427
1816 -0.3990538231236873
1817 -0.3990622639430296
1818 -0.3990590112877619
1819 -0.3990675248975853
1820 -0.3990560080891837
1821 -0.3990685082470957
1822 -0.3990611380936485
1823 -0.3990717658195854
1824 -0.3990635488111063
1825 -0.3990754765102966
1826 -0.3990670791320184
1827 -0.3990755630985093
1828 -0.3990664283754862
1829 -0.3990815740512785
1830 -0.399073777630754
1831 -0.3990785700056911
1832 -0.3990762342718217
1833 -0.3990804133164136
1834 -0.3990783619175804
1835 -0.3990859745715574
1836 -0.3990851475129487
1837 -0.3990849826411912
1838 -0.3990885369728491
1839 -0.3990869021250815
1840 -0.3990893419044311
1841 -0.3990891696523542
1842 -0.3990914069699512
1843 -0.3990842506348976
1844 -0.3990901544728003
1845 -0.3990860689977559
1846 -0.39908831575597
1847 -0.3990818054894792
1848 -0.3990899045714075
1849 -0.399082910247808
1850 -0.3990883065390334
1851 -0.399085448334825
1852 -0.3990796317597365
1853 -0.3990862300599361
1854 -0.3990784264717024
1855 -0.3990875254501315
1856 -0.3990766472181013
1857 -0.3990877377823914
1858 -0.3990754573580574
1859 -0.3990950135629667
1860 -0.39907770379385
1861 -0.399093024682708
1862 -0.3990830872692565
1863 -0.3990963591735586
1864 -0.3990835117377978
1865 -0.3990990487356817
1866 -0.3990925342646607
1867 -0.3991010236055466
1868 -0.3990958627808062
1869 -0.3991055739575304
1870 -0.3991020472408787
1871 -0.3991091747225122
1872 -0.399104867080544
1873 -0.3991085080804562
1874 -0.3991071586150196
1875 -0.3991101570206034
1876 -0.3991066687905164
1877 -0.3991054973670466
1878 -0.3991037090159668
1879 -0.3991003342993559
1880 -0.3991049329177741
1881 -0.399099427014704
1882 -0.3990999413241162
1883 -0.3990990058401858
1884 -0.3990974142659756
1885 -0.399095384149722
1886 -0.3990953797739837
1887 -0.3990905931635693
1888 -0.3990897758056904
1889 -0.3990911073001361
1890 -0.3990903712474385
1891 -0.3990926476344539
1892 -0.3990910810663575
1893 -0.3990951579736572
1894 -0.3990948207176807
1895 -0.399098987804154
1896 -0.3990967853139991
1897 -0.3991018580300062
1898 -0.3990979971711156
1899 -0.3991084263320607
1900 -0.3991072091088015
1901 -0.3991158160721112
1902 -0.3991148492125586
1903 -0.3991214700583682
1904 -0.3991176271511449
1905 -0.3991265259892131
1906 -0.3991246769980477
1907 -0.3991280329229583
1908 -0.3991280723091437
1909 -0.3991327674485153
1910 -0.3991345511509373
1911 -0.3991344346839131
1912 -0.3991346770810554
1913 -0.3991339529711538
1914 -0.3991285564640574
1915 -0.3991215788249919
1916 -0.3991224073547903
1917 -0.3991169742290411
1918 -0.3991154859807776
1919 -0.3991161804702528
1920 -0.3991118236128485
1921 -0.399108358911037
1922 -0.3991119772703444
1923 -0.3991094086913708
1924 -0.3991114029619822
1925 -0.399108091029646
1926 -0.3991174720356308
1927 -0.399112409624115
1928 -0.3991154255045921
1929 -0.3991154389222338
1930 -0.3991155673382809
1931 -0.3991224304780926
1932 -0.3991214736302959
1933 -0.3991247738828503
1934 -0.3991266291559712
1935 -0.399127703175936
1936 -0.3991309286737525
1937 -0.3991317478151346
1938 -0.3991309146908284
1939 -0.3991373102224853
1940 -0.3991393238263876
1941 -0.3991428312378443
1942 -0.3991372616997387
1943 -0.3991439325964089
1944 -0.3991371937276812
1945 -0.3991448524161841
1946 -0.3991391588486505
1947 -0.399145526098199
1948 -0.3991392040226823
1949 -0.399143496865759
1950 -0.399136845923424
1951 -0.3991391284588789
1952 -0.3991374256210269
1953 -0.3991384287027303
1954 -0.3991361054109058
1955 -0.3991356669788042
1956 -0.3991365543534307
1957 -0.3991278761213245
1958 -0.3991365097666929
1959 -0.3991271218719199
1960 -0.399133788812993
1961 -0.3991239093478876
1962 -0.399129464669825
1963 -0.3991223400384851
1964 -0.3991306102576858
1965 -0.3991248692061686
1966 -0.3991321630264548
1967 -0.3991273501734952
1968 -0.3991313536068894
1969 -0.3991311977899276
1970 -0.399137533609253
1971 -0.3991395489711747
1972 -0.399137703996516
1973 -0.3991407631876246
1974 -0.3991386109594037
1975 -0.3991467139005175
1976 -0.3991451649835944
1977 -0.3991463093966928
1978 -0.3991467127033423
1979 -0.3991567672870652
1980 -0.3991477018374579
1981 -0.3991614420316685
1982 -0.3991475230053215
1983 -0.3991616500416161
1984 -0.3991463403512922
1985 -0.3991625940536145
1986 -0.3991509086719831
1987 -0.3991591070878625
1988 -0.3991529505956598
1989 -0.3991602168045465
1990 -0.3991573052638948
1991 -0.3991584274409289
1992 -0.399155264078479
1993 -0.3991523861165515
1994 -0.3991549073508249
1995 -0.3991504104521613
1996 -0.3991503297052978
1997 -0.3991454941122652
1998 -0.3991497867234572
1999 -0.3991438433526438
2000 -0.3991484526375068
2001 -0.3991416655767355
2002 -0.3991434638408426
2003 -0.3991397761114988
2004 -0.3991430577219576
2005 -0.3991420923309752
2006 -0.399137625145585
2007 -0.3991377832952507
2008 -0.3991329417233658
2009 -0.3991413605760484
2010 -0.3991377815976447
2011 -0.3991419664004547
2012 -0.3991406098295513
2013 -0.3991506161201823
2014 -0.3991477969251515
2015 -0.3991585890069497
2016 -0.3991521914769359
2017 -0.3991639266246644
2018 -0.39915454565609
2019 -0.3991670518693511
2020 -0.3991611450043988
2021 -0.3991717827895028
2022 -0.399168992205649
2023 -0.3991747940924717
2024 -0.3991732825938814
2025 -0.399181106706697
2026 -0.3991752189282107
2027 -0.3991765578659761
2028 -0.3991671914333848
2029 -0.3991694136685526
2030 -0.399163138498397
2031 -0.3991629280393666
2032 -0.3991588667684544
2033 -0.3991577278155283
2034 -0.3991553654343713
2035 -0.3991556815555014
2036 -0.3991524714669067
2037 -0.3991532465584975
2038 -0.3991517908569149
2039 -0.3991511664430477
2040 -0.3991480996950135
2041 -0.3991506905213602
2042 -0.3991470707671541
2043 -0.3991480201341897
2044 -0.399151722030024
2045 -0.3991590402219454
2046 -0.3991571992150139
2047 -0.3991619707097899
2048 -0.3991609959932454
2049 -0.3991695340253051
2050 -0.3991654052034578
2051 -0.3991736482293995
2052 -0.399170096973346
2053 -0.3991747982773249
2054 -0.3991683167018469
2055 -0.3991783350691198
2056 -0.3991721813153898
2057 -0.3991813161952332
2058 -0.3991759976412562
2059 -0.3991844943520072
2060 -0.3991797691518346
2061 -0.3991882250527399
2062 -0.3991820755111172
2063 -0.3991767541631361
2064 -0.3991777301155035
2065 -0.3991801189303639
2066 -0.3991746947882945
2067 -0.3991777586543403
2068 -0.3991692168635749
2069 -0.3991738430771428
2070 -0.3991666966382306
2071 -0.3991715168252866
2072 -0.3991643448744167
2073 -0.3991666124992952
2074 -0.3991579718731526
2075 -0.3991625588999388
2076 -0.3991585781325836
2077 -0.3991622953724252
2078 -0.3991612536029122
2079 -0.3991606904650582
2080 -0.3991623573349433
2081 -0.399165040369982
2082 -0.3991666056215532
2083 -0.3991627750347355
2084 -0.3991696755191532
2085 -0.3991662845224125
2086 -0.3991696087046735
2087 -0.3991664681906589
2088 -0.3991723959075033
2089 -0.3991704063201473
2090 -0.3991721225722512
2091 -0.3991731363340292
2092 -0.3991769019127728
2093 -0.3991793304267713
2094 -0.3991790737326047
2095 -0.3991834293797152
2096 -0.3991811573114818
2097 -0.3991801781530747
2098 -0.3991773889327926
2099 -0.3991856620757012
2100 -0.3991787286458738
2101 -0.3991844178818201
2102 -0.3991825768311311
2103 -0.399183770264768
2104 -0.3991808024762328
2105 -0.3991855043668054
2106 -0.3991802485920133
2107 -0.3991832121723093
2108 -0.3991796717804233
2109 -0.3991819398669886
2110 -0.3991772617852061
2111 -0.3991834080643462
2112 -0.3991749749366734
2113 -0.3991789031771996
2114 -0.3991729809325305
2115 -0.3991782947029448
2116 -0.399176190907973
2117 -0.3991773392007589
2118 -0.3991777397013063
2119 -0.3991771512995771
2120 -0.3991807271576643
2121 -0.3991768400814896
2122 -0.3991841464700334
2123 -0.3991814034067857
2124 -0.3991820756577735
2125 -0.3991845772850254
2126 -0.3991866157576227
2127 -0.3991810343270106
2128 -0.399187428426901
2129 -0.399186931537371
2130 -0.3991849507245219
2131 -0.3991896889627247
2132 -0.3991884680282475
2133 -0.399195410013739
2134 -0.3991914427350334
2135 -0.3991973662551194
2136 -0.3991917119517887
2137 -0.3991917270021551
2138 -0.3991910944512807
2139 -0.3991972168951581
2140 -0.3991888924372723
2141 -0.3991903657709689
2142 -0.3991857004148298
2143 -0.3991875807752611
2144 -0.3991824066125448
2145 -0.399185750551298
2146 -0.3991766782863993
2147 -0.3991857969310636
2148 -0.3991797691369698
2149 -0.3991813965321074
2150 -0.3991773098984112
2151 -0.3991809144516036
2152 -0.3991779444112014
2153 -0.3991804667006413
2154 -0.3991775030393892
2155 -0.399180213794529
2156 -0.3991770222653415
2157 -0.3991823904862797
2158 -0.3991801005509517
2159 -0.3991887411936847
2160 -0.3991789674784481
2161 -0.3991927396104248
2162 -0.399188922195463
2163 -0.3991949852798595
2164 -0.3991881307039279
2165 -0.3992010847308881
2166 -0.3991926648026095
2167 -0.3992000130240109
2168 -0.3991979427943776
2169 -0.3991961862018398
2170 -0.3991969960958413
2171 -0.3991981174550247
2172 -0.3991947534606023
2173 -0.3991981380640904
2174 -0.3991971414922477
2175 -0.399190935710145
2176 -0.3991943893970517
2177 -0.399186458568867
2178 -0.3991941727671593
2179 -0.399181595637033
2180 -0.3991865054410001
2181 -0.3991815372424893
2182 -0.3991857645879018
2183 -0.3991792417556185
2184 -0.3991834616230586
2185 -0.3991783915698351
2186 -0.3991886994539157
2187 -0.3991773817851341
2188 -0.3991882941626611
2189 -0.3991814648170422
2190 -0.3991859849774438
2191 -0.3991835630516309
2192 -0.3991899203795991
2193 -0.3991873622969021
2194 -0.3991925245301117
2195 -0.3991878228024048
2196 -0.3991924914693342
2197 -0.3991989113849247
2198 -0.399197608650162
2199 -0.3991966534154847
2200 -0.3991971779897315
2201 -0.3992026464885191
2202 -0.3991980647731189
2203 -0.3992010123795738
2204 -0.3991953561815232
2205 -0.399202767254811
2206 -0.3991992956384089
2207 -0.399200895210817
2208 -0.3991997286113659
2209 -0.3992024432972073
2210 -0.3991997306769089
2211 -0.3992010134428776
2212 -0.3991968217041372
2213 -0.3992006363639429
2214 -0.3991974553077305
2215 -0.3991937828605704
2216 -0.3991940626857284
2217 -0.3991924759946446
2218 -0.3991927692456824
2219 -0.3991910503213513
2220 -0.3991885235454278
2221 -0.3991904172627426
2222 -0.3991891458266689
2223 -0.3991873733299806
2224 -0.3991856912188668
2225 -0.3991848263434193
2226 -0.3991871658430256
2227 -0.399180526934672
2228 -0.3991885215481563
2229 -0.3991855890845076
2230 -0.3991914861770929
2231 -0.3991848658551339
2232 -0.3991954622951153
2233 -0.3991877500266839
2234 -0.3991966607061549
2235 -0.3991943822377101
2236 -0.3992034837049599
2237 -0.3991964237163678
2238 -0.3992058993965115
2239 -0.3992007603996508
2240 -0.3992076926978383
2241 -0.3992061739748551
2242 -0.399210097527206
2243 -0.3992049230989531
2244 -0.3992066819542749
2245 -0.399204943162758
2246 -0.3992046190233484
2247 -0.3992056088094363
2248 -0.3992044916350348
2249 -0.3992042086783842
2250 -0.3992072159094928
2251 -0.3992054365513239
2252 -0.3992058540342704
2253 -0.3992060084385361
2254 -0.3992029772293749
2255 -0.3992039703294956
2256 -0.3991979875611444
2257 -0.399197730923927
2258 -0.3991933231016122
2259 -0.3991948795294283
2260 -0.3991885693990649
2261 -0.3991916469141117
2262 -0.399192308850773
2263 -0.3991916703012791
2264 -0.3991910086504635
2265 -0.3991898409657869
2266 -0.3991935834800244
2267 -0.3991869426308661
2268 -0.3991943904839733
2269 -0.3991875476475959
2270 -0.3992015825221952
2271 -0.3991928030271183
2272 -0.3992042641503661
2273 -0.3991950563808854
2274 -0.3992079854734281
2275 -0.3992015337180341
2276 -0.3992114146036664
2277 -0.3992050341411058
2278 -0.3992165926667358
2279 -0.399207671480342
2280 -0.3992159477817672
2281 -0.399211549157794
2282 -0.3992152030648618
2283 -0.3992166882988958
2284 -0.3992128077931045
2285 -0.3992177702963647
2286 -0.399209351540957
2287 -0.3992161363535496
2288 -0.3992039224106979
2289 -0.3992129484709073
2290 -0.3991967254882117
2291 -0.3992062064556531
2292 -0.3991934143731251
2293 -0.3991990648460743
2294 -0.3991896294674339
2295 -0.3992001678847643
2296 -0.3991912586500166
2297 -0.3991927812300576
2298 -0.3991866521190804
2299 -0.3991913413543086
2300 -0.3991909562212114
2301 -0.3991860957685055
2302 -0.3991893674152028
2303 -0.3991856196379533
2304 -0.3991903261975771
2305 -0.3991824358277639
2306 -0.3991972615216327
2307 -0.3991872905893042
2308 -0.3992020385816532
2309 -0.3991939652699417
2310 -0.3992072997804677
2311 -0.399202609178979
2312 -0.3992104847294811
2313 -0.3992019432427465
2314 -0.3992115398589552
2315 -0.3992097411594149
2316 -0.3992128442561768
2317 -0.3992077325493991
2318 -0.3992155546230643
2319 -0.3992147258073848
2320 -0.3992194617726875
2321 -0.3992136790596879
2322 -0.3992199527078002
2323 -0.3992128464124631
2324 -0.3992129114574777
2325 -0.3992084451149344
2326 -0.3992057465292976
2327 -0.3992055785651216
2328 -0.3992008519716263
2329 -0.3992017165197881
2330 -0.399201398336589
2331 -0.399203555272365
2332 -0.3991961231896944
2333 -0.39919923784863
2334 -0.3991925003255566
2335 -0.3991975659889566
2336 -0.3991902621516031
2337 -0.3991961380125475
2338 -0.3991888183686276
2339 -0.3992005485890899
2340 -0.3991980150815231
2341 -0.3992007089291282
2342 -0.3991966849479461
2343 -0.3991969482762337
2344 -0.3991970507230506
2345 -0.3991980889631121
2346 -0.3992003731608364
2347 -0.3991934697730219
2348 -0.399208532021232
2349 -0.3992000359591878
2350 -0.3992049461169772
2351 -0.3991985304888229
2352 -0.3992102855713289
2353 -0.3991985009304154
2354 -0.3992127602066047
2355 -0.3992038375206315
2356 -0.3992168330687119
2357 -0.3992055600979992
2358 -0.3992204613978482
2359 -0.3992038719876272
2360 -0.3992218913409734
2361 -0.3992037358278969
2362 -0.399221154472001
2363 -0.3992029876990336
2364 -0.3992157040627871
2365 -0.3992021155583028
2366 -0.3992111137674258
2367 -0.3992034900539942
2368 -0.3992084528011905
2369 -0.3992004652102969
2370 -0.3992054713230789
2371 -0.3992013512962472
2372 -0.3992001634435406
2373 -0.3991992127858349
2374 -0.3991971707983152
2375 -0.3991984735355738
2376 -0.3991920800288366
2377 -0.3991966444146674
2378 -0.3991937071961844
2379 -0.3991993214603519
2380 -0.3991945294263659
2381 -0.399200448729493
2382 -0.3991994579636
2383 -0.3992034762942759
2384 -0.3992042025295358
2385 -0.3992017908021158
2386 -0.3992043430742431
2387 -0.3992059819405005
2388 -0.3992124635443252
2389 -0.3992084002071977
2390 -0.3992139785736342
2391 -0.3992110411840143
2392 -0.3992173743091765
2393 -0.3992167067378634
2394 -0.3992162438690001
2395 -0.3992156217060999
2396 -0.3992189908687827
2397 -0.3992138592108611
2398 -0.3992202944949199
2399 -0.3992172949726356
2400 -0.399217449322108
2401 -0.3992147039921065
2402 -0.3992114799101801
2403 -0.3992151273679482
2404 -0.3992108015778709
2405 -0.3992152905491171
2406 -0.399206274763663
2407 -0.3992086964277013
2408 -0.3992024504390745
2409 -0.3992076424061065
2410 -0.3991983325670539
2411 -0.3992055867095782
2412 -0.39919768442061
2413 -0.3992008587356747
2414 -0.3991976585846074
2415 -0.3992024090069645
2416 -0.3991974998756114
2417 -0.3992024831838817
2418 -0.399199580472893
2419 -0.3992048088125489
2420 -0.3992010803644008
2421 -0.3992054493841538
2422 -0.3992106153655041
2423 -0.3992050146506791
2424 -0.3992125885348794
2425 -0.3992061843160382
2426 -0.3992176550880133
2427 -0.3992072555090561
2428 -0.39921603843419
2429 -0.3992087618359103
2430 -0.3992208925128579
2431 -0.3992134130620631
2432 -0.3992146320682071
2433 -0.3992124565957763
2434 -0.3992179045497722
2435 -0.399212638584065
2436 -0.3992184493471874
2437 -0.3992089161718432
2438 -0.399210486690087
2439 -0.399208299347783
2440 -0.399207299009056
2441 -0.3992065803837782
2442 -0.3992052586170743
2443 -0.3992032582552981
2444 -0.3991995333649669
2445 -0.3992013542584602
2446 -0.3991998251485917
2447 -0.3991982227078265
2448 -0.3991994366620605
2449 -0.3992003695714199
2450 -0.3991984170708107
2451 -0.3992010624594582
2452 -0.399203917787867
2453 -0.3992036906276217
2454 -0.3992012681956058
2455 -0.3992021436293853
2456 -0.3991993304201467
2457 -0.3992055891535983
2458 -0.399203772930055
2459 -0.3992081216069465
2460 -0.3992101566441122
2461 -0.3992119964225302
2462 -0.3992123003696478
2463 -0.3992116309587591
2464 -0.3992149237475039
2465 -0.399213647546406
2466 -0.3992134886887555
2467 -0.3992112688146567
2468 -0.3992139692521951
2469 -0.3992111615536723
2470 -0.3992142834310293
2471 -0.399211279419024
2472 -0.3992143843468888
2473 -0.3992096931671221
2474 -0.3992120231154357
2475 -0.3992086112853134
2476 -0.3992087989466962
2477 -0.3992061222483185
2478 -0.3992088761039891
2479 -0.3992019032740656
2480 -0.3992050210542354
2481 -0.3991986109782095
2482 -0.3992064044677747
2483 -0.3992003360204067
2484 -0.3991990966702111
2485 -0.3991992397390268
2486 -0.3992003455486903
2487 -0.3991990363561545
2488 -0.3991962306825395
2489 -0.3991998957392004
2490 -0.3991977983038496
2491 -0.3992010475330526
2492 -0.3992013229140194
2493 -0.3992020312922895
2494 -0.3991997619982612
2495 -0.3992080293037925
2496 -0.3992056678797316
2497 -0.399209841210477
2498 -0.3992065048097406
2499 -0.3992142282658797
2500 -0.3992118417146372
2501 -0.3992178125582829
2502 -0.3992157442015412
2503 -0.3992145143588012
2504 -0.399217548903204
2505 -0.3992153140944537
2506 -0.3992191240737895
2507 -0.3992182907760495
2508 -0.3992187337227673
2509 -0.3992199323285016
2510 -0.399220964521771
2511 -0.399216796793567
2512 -0.3992229880706119
2513 -0.3992094396863438
2514 -0.3992196418321126
2515 -0.3992044621265005
2516 -0.399213619342113
2517 -0.3991987816831825
2518 -0.3992082203013487
2519 -0.3991964460593852
2520 -0.3992025889467573
2521 -0.3991969605768725
2522 -0.3992004361095954
2523 -0.3991965482129419
2524 -0.3991980775832979
2525 -0.3991989280242899
2526 -0.3991951786956696
2527 -0.3991986479208471
2528 -0.39919611198633
2529 -0.3992066645033057
2530 -0.399198346693198
2531 -0.3992077139778861
2532 -0.3992011508294026
2533 -0.3992062066432424
2534 -0.3992078202527819
2535 -0.3992078539505368
2536 -0.3992128823183418
2537 -0.3992154293862617
2538 -0.3992184550252675
2539 -0.3992173324794479
2540 -0.3992224978567621
2541 -0.3992249425487165
2542 -0.3992264237813949
2543 -0.3992266060309263
2544 -0.399225971665286
2545 -0.3992278121077613
2546 -0.3992273713359245
2547 -0.3992269275222376
2548 -0.3992220363594264
2549 -0.3992206195491529
2550 -0.399215989341808
2551 -0.3992132083503184
2552 -0.3992083898426101
2553 -0.3992085426447445
2554 -0.3991993418622821
2555 -0.3992016118649447
2556 -0.3991944370492635
2557 -0.399199419168078
2558 -0.3991931461658901
2559 -0.3991991418814497
2560 -0.3991917816697072
2561 -0.3992019117046586
2562 -0.3991936898629235
2563 -0.3991983599251201
2564 -0.3991964558365538
2565 -0.3992005830444169
2566 -0.3992009033424854
2567 -0.3992040698014926
2568 -0.3992064352720902
2569 -0.3992087779105638
2570 -0.3992079957270617
2571 -0.3992155539188584
2572 -0.3992104608628506
2573 -0.3992136926420234
2574 -0.3992061663654514
2575 -0.399214558295803
2576 -0.3992143950046105
2577 -0.3992129046024636
2578 -0.3992163069302806
2579 -0.3992161854491373
2580 -0.399221967741431
2581 -0.3992198413210432
2582 -0.3992223075454002
2583 -0.3992177081652932
2584 -0.3992139493341937
2585 -0.3992220174879326
2586 -0.3992120396609172
2587 -0.3992167397534473
2588 -0.3992081989992214
2589 -0.3992132492011275
2590 -0.3992065226760126
2591 -0.3992086504646827
2592 -0.3992044990513198
2593 -0.3992057630057442
2594 -0.3992015629337802
2595 -0.3992012132640455
2596 -0.3991976651753009
2597 -0.3991977020094746
2598 -0.3992001947554274
2599 -0.3991963242446923
2600 -0.3992004178358532
2601 -0.3991970064263969
2602 -0.3992055367770576
2603 -0.3991988041643806
2604 -0.3992088451343655
2605 -0.3992056580154314
2606 -0.3992117346851558
2607 -0.3992077066238596
2608 -0.3992109397544045
2609 -0.3992063364219863
2610 -0.3992096783320573
2611 -0.3992085326782158
2612 -0.399213468378877
2613 -0.3992122562039159
2614 -0.3992187895252222
2615 -0.3992136062171462
2616 -0.3992159787422706
2617 -0.3992161387227345
2618 -0.3992188168947378
2619 -0.3992135044118723
2620 -0.3992191731831161
2621 -0.3992161697746248
2622 -0.3992199040394095
2623 -0.3992147180208709
2624 -0.399220116339989
2625 -0.3992205712635168
2626 -0.3992215611122658
2627 -0.3992193441691471
2628 -0.3992177676093913
2629 -0.399217537200628
2630 -0.399213100489409
2631 -0.3992083572882194
2632 -0.399203994321947
2633 -0.3992045011603632
2634 -0.399199884780962
2635 -0.3991988919013076
2636 -0.3992002226177795
2637 -0.399200168369236
2638 -0.3992013054676883
2639 -0.3991997414298675
2640 -0.3991963803913651
2641 -0.3991982274138008
2642 -0.3991969116916769
2643 -0.3991907697857029
2644 -0.3991985907260176
2645 -0.3991946830753929
2646 -0.3991999270080849
2647 -0.3992016931489087
2648 -0.3992045785830803
2649 -0.3992096018456062
2650 -0.39920605196527
2651 -0.3992142950610362
2652 -0.3992120713593314
2653 -0.3992164343478838
2654 -0.3992163935767889
2655 -0.3992165282758494
2656 -0.3992173855947743
2657 -0.3992183795951466
2658 -0.3992178596534203
2659 -0.3992196728380344
2660 -0.3992244050485326
2661 -0.3992202018799942
2662 -0.3992238699636316
2663 -0.3992090095518844
2664 -0.399214420721125
2665 -0.3992094647409645
2666 -0.399212517217272
2667 -0.399207855470918
2668 -0.3992058345758919
2669 -0.3992030168537518
2670 -0.39920200118909
2671 -0.3992021432300151
2672 -0.3992014768605859
2673 -0.3991997967473101
2674 -0.3991950354130038
2675 -0.399197292994365
2676 -0.3991959663126388
2677 -0.3991959507980023
2678 -0.3991961924927885
2679 -0.3991993363102072
2680 -0.3992019540172361
2681 -0.3992045362687769
2682 -0.399207060575149
2683 -0.3992100016784681
2684 -0.3992128240508974
2685 -0.3992090780920453
2686 -0.3992188278147494
2687 -0.3992158900750787
2688 -0.3992219050914543
2689 -0.399220241966306
2690 -0.3992245850803407
2691 -0.3992287438108836
2692 -0.3992263619746967
2693 -0.3992263281583432
2694 -0.3992280795239923
2695 -0.3992274764777791
2696 -0.3992274451415874
2697 -0.3992230299070326
2698 -0.3992230722212048
2699 -0.3992203492543637
2700 -0.3992204175530051
2701 -0.399214771599781
2702 -0.3992157657844334
2703 -0.399207294745216
2704 -0.3992092045004875
2705 -0.399205331301123
2706 -0.3992039822478189
2707 -0.3992044772946574
2708 -0.3991982098331986
2709 -0.3991981803135828
2710 -0.399196201759801
2711 -0.3992019068819701
2712 -0.3991942380062848
2713 -0.3992016037330451
2714 -0.3991955629967093
2715 -0.3992064524400283
2716 -0.3991972261869577
2717 -0.3992053490996201
2718 -0.3992003164558688
2719 -0.3992051973381344
2720 -0.3992044225029712
2721 -0.3992064289345842
2722 -0.3992048910832883
2723 -0.399206453672386
2724 -0.3992063828400497
2725 -0.3992056615161071
2726 -0.3992065937723789
2727 -0.3992090602722384
2728 -0.3992082621450698
2729 -0.3992155214883181
2730 -0.3992103583581867
2731 -0.3992148423395679
2732 -0.3992109728714337
2733 -0.3992152509191661
2734 -0.3992119912575791
2735 -0.3992139285198734
2736 -0.3992119073726881
2737 -0.3992119633496075
2738 -0.3992122506798191
2739 -0.3992135311265722
2740 -0.3992056377693687
2741 -0.3992127480600489
2742 -0.3992073597977424
2743 -0.3992090136027026
2744 -0.399210280044962
2745 -0.3992135613113635
2746 -0.399209416186945
2747 -0.3992068906115579
2748 -0.3992056050480905
2749 -0.3992083341011183
2750 -0.3992070141205196
2751 -0.3992031961794443
2752 -0.3992069369068327
2753 -0.3992002696481321
2754 -0.3992052735463862
2755 -0.3992010788426367
2756 -0.3992038951738607
2757 -0.3992010106189268
2758 -0.3992064965433633
2759 -0.3992014923841662
2760 -0.3992079353856061
2761 -0.3992051969278175
2762 -0.3992124649927029
2763 -0.3992056656992239
2764 -0.3992108438627603
2765 -0.3992130940314257
2766 -0.3992164374216402
2767 -0.3992114102968498
2768 -0.3992145783812803
2769 -0.399214777828826
2770 -0.3992173678523878
2771 -0.3992182467016625
2772 -0.3992176660920367
2773 -0.3992125696230109
2774 -0.399216622641186
2775 -0.3992130238725664
2776 -0.3992149795492335
2777 -0.3992118758354218
2778 -0.3992089217625915
2779 -0.3992099679143878
2780 -0.39920185182973
2781 -0.3992078278927328
2782 -0.3992000196881133
2783 -0.3992048973431331
2784 -0.3992014285965803
2785 -0.3992017553940787
2786 -0.399201389555643
2787 -0.3991966227808407
2788 -0.3991986852758108
2789 -0.3991984082705148
2790 -0.3991992745085531
2791 -0.3991966614330519
2792 -0.3991984638195838
2793 -0.3992020619479368
2794 -0.3992005377301824
2795 -0.3992095120801578
2796 -0.3992033035725933
2797 -0.3992101067912933
2798 -0.3992093660325718
2799 -0.399218616489169
2800 -0.3992117750933501
2801 -0.399222289108862
2802 -0.3992140969937751
2803 -0.3992202431199943
2804 -0.3992122878850192
2805 -0.3992215398209001
2806 -0.3992098886655858
2807 -0.3992164581712063
2808 -0.3992157034620084
2809 -0.3992144810537043
2810 -0.3992135979670917
2811 -0.3992082778453414
2812 -0.3992107682089003
2813 -0.3992049480640729
2814 -0.3992078240565577
2815 -0.3992036968108428
2816 -0.3992038974753703
2817 -0.399198502665237
2818 -0.3991988600891454
2819 -0.3991980215216958
2820 -0.3991982992916325
2821 -0.3991959226326277
2822 -0.3991995865821991
2823 -0.399196752617344
2824 -0.3991963980454222
2825 -0.3991982760569535
2826 -0.3991983572120824
2827 -0.3991991823673154
2828 -0.3991954569768774
2829 -0.3992013035707451
2830 -0.3992040612616349
2831 -0.3992085069071605
2832 -0.399208080910243
2833 -0.3992119486297925
2834 -0.3992094807142974
2835 -0.3992177489835302
2836 -0.3992093024879096
2837 -0.3992148659740208
2838 -0.3992145176754673
2839 -0.3992231033274777
2840 -0.3992155253798819
2841 -0.3992252707923954
2842 -0.3992167703350341
2843 -0.3992233865421474
2844 -0.3992147920204214
2845 -0.3992187643873452
2846 -0.3992144496619707
2847 -0.3992140604623716
2848 -0.3992092198693634
2849 -0.3992117007079496
2850 -0.3992068293371518
2851 -0.3992043959875073
2852 -0.3992080536523981
2853 -0.3992008264279527
2854 -0.3992029253450005
2855 -0.3992003022297539
2856 -0.3992021252979386
2857 -0.3991958305943814
2858 -0.3991923877438731
2859 -0.3991983659323062
2860 -0.3991922509722472
2861 -0.3991948431965079
2862 -0.3991901900253255
2863 -0.399195538014755
2864 -0.3991916344426955
2865 -0.3991992221682912
2866 -0.3991987484012655
2867 -0.3992050807608525
2868 -0.3992003476197112
2869 -0.399204236288055
2870 -0.3992023818885748
2871 -0.3992071359795788
2872 -0.3992065654751289
2873 -0.3992071000277914
2874 -0.3992055809484792
2875 -0.3992086011449272
2876 -0.3992118260953134
2877 -0.3992120600829138
2878 -0.3992149516708926
2879 -0.3992145302740252
2880 -0.3992153602939083
2881 -0.399211397033142
2882 -0.3992145432739004
2883 -0.399209676507818
2884 -0.3992154043341604
2885 -0.3992129504832848
2886 -0.3992195868346939
2887 -0.3992132713094138
2888 -0.3992204788752096
2889 -0.39921312736869
2890 -0.3992158903349284
2891 -0.3992117181708035
2892 -0.3992101526109993
2893 -0.3992019055778754
2894 -0.3992050130228326
2895 -0.3991948391302287
2896 -0.3991997206883596
2897 -0.3991920603380527
2898 -0.3991936242684218
2899 -0.3991922332842099
2900 -0.3991917190486342
2901 -0.3991888715363362
2902 -0.3991906931766802
2903 -0.3991869927480835
2904 -0.3991921440301479
2905 -0.3991933994531129
2906 -0.3991966396789871
2907 -0.399196954606406
2908 -0.3992013306708057
2909 -0.3992047231260686
2910 -0.3992093558637254
2911 -0.399210510856603
2912 -0.3992140267956523
2913 -0.3992154302798596
2914 -0.3992154161917818
