"cy-rfile"
"Iteration" "cy"
("Iteration" "cy")
1 7.664018418650878
2 7.585924987187384
3 7.126581004836558
4 6.541370083060812
5 5.720713664190132
6 4.702593120041866
7 3.798927612910295
8 3.333037858101901
9 2.787579949947169
10 2.21386121502012
11 1.759425725569454
12 1.416864666471452
13 1.178474831959151
14 1.040819177388677
15 0.9959674257522968
16 1.008544852074507
17 1.070462544360942
18 1.152669069058112
19 1.27724693446382
20 1.39779631997117
21 1.529444660266027
22 1.67890069401855
23 1.819336619513044
24 1.959462207709426
25 2.075520979680431
26 2.169867411105454
27 2.236675114259585
28 2.290318652793797
29 2.331687385444245
30 2.359655013603366
31 2.38185939335775
32 2.396905045203882
33 2.409576959052871
34 2.418546016350584
35 2.427435563912754
36 2.438373634549606
37 2.448877351191942
38 2.461285987765177
39 2.473109509334531
40 2.486097270167997
41 2.496209811890666
42 2.506755470094293
43 2.517011755300079
44 2.527284783065934
45 2.535897899983174
46 2.545085937766624
47 2.552850088171251
48 2.56133046399844
49 2.568206673562987
50 2.575863351463936
51 2.584217441143898
52 2.592980975075275
53 2.602048404732122
54 2.61414864017984
55 2.622785294564374
56 2.633971605911703
57 2.644156799801298
58 2.653367602000638
59 2.661536082263204
60 2.668886827564644
61 2.675351113730778
62 2.680988384972602
63 2.684792313279645
64 2.689431717154689
65 2.692510576411529
66 2.695493908223266
67 2.698448444447792
68 2.701280027908856
69 2.704023019830892
70 2.70668182460768
71 2.709323518104583
72 2.711846538946557
73 2.714261000003516
74 2.716557156438645
75 2.718799351157651
76 2.720833959615524
77 2.722774947804008
78 2.724492248227986
79 2.7261116555469
80 2.72750685428633
81 2.728853819073926
82 2.729642261846951
83 2.730837081659691
84 2.731501222930179
85 2.732542869139408
86 2.733119832642259
87 2.733981133289852
88 2.734368701125153
89 2.735007815890855
90 2.73528298613597
91 2.735571252216237
92 2.735825120233425
93 2.735932305298765
94 2.735955510056579
95 2.735958926381084
96 2.735819141757217
97 2.735640278338588
98 2.735439043321938
99 2.735005559300148
100 2.734631364996667
101 2.734246434398549
102 2.733537256384774
103 2.733025370303407
104 2.732481529976248
105 2.731901047292067
106 2.73129033776158
107 2.730336294272302
108 2.729680625435631
109 2.729045287959156
110 2.72840634450378
111 2.727764898153898
112 2.727078455538849
113 2.726427064957506
114 2.725742091344549
115 2.725102642296173
116 2.724446473421462
117 2.723822402576904
118 2.723173520035713
119 2.722558087824186
120 2.721936133306939
121 2.721347594802681
122 2.720767148396049
123 2.720178204913354
124 2.719578078753208
125 2.719016731205978
126 2.718463496892285
127 2.717973532866094
128 2.717453408941706
129 2.716998227560524
130 2.716527170650029
131 2.716098190563399
132 2.71564519301984
133 2.715268839621474
134 2.714891878881617
135 2.714562788672263
136 2.7142521971872
137 2.713962738067961
138 2.713743729877021
139 2.713556690558797
140 2.713405097874309
141 2.713296628329017
142 2.713232221539169
143 2.713176210622717
144 2.713174149974985
145 2.71320660125221
146 2.713297797614197
147 2.713413676548609
148 2.713577501926034
149 2.713750400713486
150 2.713969483871231
151 2.714223080096436
152 2.714484461239319
153 2.71479885615092
154 2.715307685030056
155 2.715656609890596
156 2.716246159291672
157 2.716650875964307
158 2.717242276442921
159 2.717723659954637
160 2.71841585058174
161 2.719198229414343
162 2.720042166176398
163 2.720901086439718
164 2.721765687312326
165 2.722736648619712
166 2.723746022040069
167 2.724843383494192
168 2.726034185569316
169 2.72733591369234
170 2.728569747126502
171 2.729876356501003
172 2.731268232315541
173 2.732761630173806
174 2.734343452426014
175 2.735989125426348
176 2.737598138536106
177 2.739835588456947
178 2.74146922797368
179 2.743167631576246
180 2.745397676823966
181 2.747084055859046
182 2.748696870797838
183 2.750433114587288
184 2.752654788564649
185 2.754309528892835
186 2.75596865348977
187 2.757614984402249
188 2.759775731291283
189 2.761305314564089
190 2.762836682206253
191 2.764333612493592
192 2.765766211432875
193 2.767170525361742
194 2.768493533670564
195 2.770155707613996
196 2.771295875145627
197 2.77238011460566
198 2.773353184323661
199 2.774216438672722
200 2.77500791711988
201 2.775724722547879
202 2.776316989328852
203 2.776841483838491
204 2.777282765502179
205 2.777578504159967
206 2.777727342700048
207 2.777760024261034
208 2.777666010928578
209 2.777410141579269
210 2.777048480145062
211 2.776539049319409
212 2.77582903477792
213 2.77503742156932
214 2.774024441793509
215 2.772852945472964
216 2.771437058252001
217 2.769883273139141
218 2.768191334441556
219 2.766334865340503
220 2.764270866402256
221 2.762057193402164
222 2.759699874914638
223 2.757201730548147
224 2.754567055644727
225 2.751802650844057
226 2.74793543904184
227 2.745010668767164
228 2.740976434805389
229 2.737853911865827
230 2.733647379234803
231 2.730420776462576
232 2.726125416681533
233 2.721791106003504
234 2.717586336017204
235 2.713439117066955
236 2.709384152831591
237 2.705424304086874
238 2.70159051712336
239 2.697913205879295
240 2.694278214487511
241 2.69072203967344
242 2.687321305784629
243 2.684073627080875
244 2.680944979729248
245 2.677981833712144
246 2.675141859766392
247 2.672455461978515
248 2.669903025167923
249 2.667500694566103
250 2.665802547369362
251 2.663633592001792
252 2.661587372157568
253 2.66011332944294
254 2.658257137769289
255 2.656959356713545
256 2.65531657201298
257 2.654144670139586
258 2.653011244754478
259 2.651910281719226
260 2.650844243922829
261 2.64981347450529
262 2.648836102722761
263 2.647858760452614
264 2.646917175549173
265 2.645993943383024
266 2.64509783483936
267 2.64417457288179
268 2.643279710109662
269 2.642663871486822
270 2.641721041820146
271 2.64110403920956
272 2.640442664604615
273 2.639404364431299
274 2.638712763126669
275 2.637980246570896
276 2.637225006548592
277 2.636421947199544
278 2.635600218555335
279 2.634754787915499
280 2.633865943162861
281 2.632983911607878
282 2.632043609484398
283 2.631149021149722
284 2.630242555216614
285 2.629359456396989
286 2.62847464013568
287 2.627670856232891
288 2.626874668450504
289 2.626154530662294
290 2.625453663072935
291 2.624851086561527
292 2.62425296277048
293 2.623745015165379
294 2.623272261709738
295 2.622916904645157
296 2.622595248190307
297 2.6223791275688
298 2.622208299630188
299 2.622144771898094
300 2.622136877634206
301 2.622216352216526
302 2.622353106951514
303 2.622581948406659
304 2.622854132191569
305 2.623207415002387
306 2.623606708491605
307 2.624098121866383
308 2.62462398207665
309 2.625218422189452
310 2.625839675372956
311 2.626522820649711
312 2.627217664223037
313 2.627973810387405
314 2.62873741484897
315 2.629529639026305
316 2.630332572271943
317 2.631576572543564
318 2.632386870144847
319 2.633205649326066
320 2.634029906316973
321 2.635241296077911
322 2.636035008202395
323 2.63680714220267
324 2.637936822671104
325 2.638659672286937
326 2.639359227688167
327 2.640389477333474
328 2.641046219563761
329 2.641691482965633
330 2.642624238930484
331 2.643227990616469
332 2.643813254651581
333 2.644419482507058
334 2.645289800442159
335 2.645859153182385
336 2.646435768292398
337 2.647037880436212
338 2.647642142378828
339 2.648281025484422
340 2.648920064476089
341 2.649597968264449
342 2.650297784047097
343 2.651028931780118
344 2.651784952363038
345 2.652588269455502
346 2.653401257376589
347 2.654267214062063
348 2.655143802895894
349 2.656047886201836
350 2.656992960382272
351 2.65796490935338
352 2.658957028693612
353 2.659990327017614
354 2.661515444254713
355 2.662525146700655
356 2.663542207971528
357 2.664576049935202
358 2.666102248298879
359 2.667096358896351
360 2.66810650520191
361 2.669580517507915
362 2.670528793943219
363 2.671491370647458
364 2.672900260185132
365 2.673813514417543
366 2.675149391940167
367 2.676013573832476
368 2.677299462969626
369 2.678120364539987
370 2.678940957856271
371 2.680141190092607
372 2.680919661964077
373 2.682063924345545
374 2.682813893225449
375 2.683565565639383
376 2.684691153008872
377 2.685408295495916
378 2.686143149950337
379 2.687213891218892
380 2.687932612734869
381 2.688651378195861
382 2.689387192021585
383 2.690135676737194
384 2.691275793233129
385 2.69202060044739
386 2.692788149504529
387 2.693566117675409
388 2.69436387334407
389 2.695169060111317
390 2.695998064035758
391 2.696851706727521
392 2.69771990343514
393 2.698601387839426
394 2.699500686105144
395 2.700403008195166
396 2.701328448683215
397 2.702265152551772
398 2.703208068352593
399 2.704593645183019
400 2.705498165252211
401 2.706401526903842
402 2.70730482301852
403 2.708226787585614
404 2.709136836635305
405 2.710052483287348
406 2.711392045018942
407 2.712248270136937
408 2.713102938293476
409 2.713969034309029
410 2.714826720171055
411 2.715683037501625
412 2.716949979531306
413 2.717765147293145
414 2.718579999456138
415 2.719384763189398
416 2.720194630700495
417 2.72137919819509
418 2.722148668796364
419 2.722917300492405
420 2.723689878535404
421 2.724471790655121
422 2.725246588710625
423 2.726036064898198
424 2.726815309521613
425 2.727616442105762
426 2.728414900655304
427 2.729223483732658
428 2.73002442513622
429 2.730835651924612
430 2.731649821649434
431 2.732477315269694
432 2.733306463994785
433 2.734141363154203
434 2.734978139790177
435 2.735823446479122
436 2.736652764292911
437 2.737476510596958
438 2.738306195432446
439 2.739137690967002
440 2.739973953235595
441 2.740797893339082
442 2.741635686685279
443 2.742461705058165
444 2.743285875020367
445 2.744102200161558
446 2.74491720504177
447 2.745722925710749
448 2.746534899282053
449 2.747333764730659
450 2.748135201981208
451 2.74893534333604
452 2.749734736568122
453 2.750528181448095
454 2.751317743442145
455 2.752106683614917
456 2.75288884201112
457 2.753677686765105
458 2.754456573434547
459 2.755229489191484
460 2.755997218727261
461 2.75676526166888
462 2.757530046409697
463 2.758302453897265
464 2.75906290656664
465 2.759820707991455
466 2.7605713258094
467 2.761323917015262
468 2.762063429257618
469 2.762795727034735
470 2.763546806463069
471 2.764266094663062
472 2.764988226946945
473 2.765703367229552
474 2.766420930027955
475 2.767128571907691
476 2.767834702032645
477 2.768529234319917
478 2.769227532215485
479 2.769913548891847
480 2.770603711321233
481 2.771282162602417
482 2.771962007491068
483 2.772625685362989
484 2.773288996107583
485 2.773939715641926
486 2.774597320817143
487 2.775237989930419
488 2.775884367072084
489 2.776518541172424
490 2.777148137275141
491 2.777773461091894
492 2.778395948675869
493 2.779007807197151
494 2.779619722596868
495 2.780218773457726
496 2.780818424411958
497 2.781400481647169
498 2.781996036887061
499 2.782576742095605
500 2.783148213407229
501 2.783719939291889
502 2.784285111633245
503 2.784853395264753
504 2.785414049804321
505 2.78596663112051
506 2.786527775733588
507 2.787077390986203
508 2.787632615891296
509 2.788170487811909
510 2.78871868206308
511 2.789249869597279
512 2.789788811768114
513 2.790317314394137
514 2.790852392039382
515 2.791374879647613
516 2.791910708662274
517 2.792429533304118
518 2.792957997916635
519 2.793468163117962
520 2.793993218852207
521 2.79449546857837
522 2.79501842513008
523 2.795509469052233
524 2.796028878416057
525 2.796510361680077
526 2.797023310843918
527 2.797505758836845
528 2.798008799610409
529 2.798489203341776
530 2.798990458153158
531 2.799465709897823
532 2.799961029769361
533 2.80043167774158
534 2.800916880797889
535 2.801386046082019
536 2.801865444197564
537 2.802335521971635
538 2.802817295239062
539 2.80327617415048
540 2.803752651926116
541 2.804196584113727
542 2.804661463681028
543 2.805102786026041
544 2.80555902754654
545 2.805994429414748
546 2.806441247530888
547 2.806875905591769
548 2.807319459264133
549 2.807747131341136
550 2.808183613167671
551 2.8086029267407
552 2.809034365461569
553 2.809443489079778
554 2.80987623714541
555 2.810286595662577
556 2.81070396824094
557 2.811103753842735
558 2.811526057935711
559 2.811921642782655
560 2.812332220287952
561 2.812728046476654
562 2.81313942430658
563 2.81353463890169
564 2.813939697892839
565 2.814323590283554
566 2.814725357967633
567 2.815107268360541
568 2.81550047874779
569 2.81587194921869
570 2.816258592529009
571 2.816628175534265
572 2.817010448803372
573 2.817376414025193
574 2.817757247782752
575 2.818126069808883
576 2.81850585522761
577 2.81886663321845
578 2.819238538171913
579 2.819604501247094
580 2.819973711314974
581 2.820329025417579
582 2.82068825791603
583 2.821043299051496
584 2.821406824658664
585 2.821753915806672
586 2.822114671245941
587 2.822454571881883
588 2.822815474763241
589 2.823145958218885
590 2.823500680214647
591 2.82382984818569
592 2.824180892166383
593 2.824508160996739
594 2.824850524999178
595 2.825165601346666
596 2.825505999639005
597 2.825819603110354
598 2.826155680419376
599 2.826467404963835
600 2.826798867450024
601 2.827105843822715
602 2.827434619415218
603 2.827736860538117
604 2.828062310988884
605 2.828353545405713
606 2.828677817822065
607 2.828971438467939
608 2.829294939031827
609 2.829591227381979
610 2.829911444872
611 2.830209096743789
612 2.830520129419908
613 2.830805700968027
614 2.831115817125204
615 2.831395299939673
616 2.831706967428715
617 2.831982414343871
618 2.832290270523103
619 2.832565667539704
620 2.832871616406845
621 2.833139365837474
622 2.833440379079223
623 2.833712388925067
624 2.834011581000237
625 2.834277450734225
626 2.834578783978572
627 2.834839456067735
628 2.835139064412882
629 2.83540376488889
630 2.835694650325434
631 2.835952305705396
632 2.83624620733287
633 2.83650362034948
634 2.836789845907933
635 2.837048162484275
636 2.837331230563186
637 2.837587484609101
638 2.837867514393719
639 2.838119323113069
640 2.838397275033966
641 2.838650228164163
642 2.838926507398877
643 2.839178578817217
644 2.83945262639726
645 2.839705461745568
646 2.839978620286644
647 2.840232848671031
648 2.840513647885156
649 2.840760079294893
650 2.841038752592021
651 2.841278225869281
652 2.841559465761413
653 2.841807161097543
654 2.842082245619581
655 2.842324142612744
656 2.842600888389876
657 2.842844888490875
658 2.843118277283192
659 2.843360114979225
660 2.843642659218829
661 2.843880153710198
662 2.844155740187771
663 2.844394980514525
664 2.844670541472698
665 2.844906728610882
666 2.845177716582952
667 2.845419711397038
668 2.845690867264383
669 2.845929652037968
670 2.84619873024727
671 2.846441209785029
672 2.846713669054472
673 2.846955280700401
674 2.847225371858457
675 2.847460441201967
676 2.847735704690549
677 2.847972383783523
678 2.848239396667333
679 2.848480298720139
680 2.848745282970194
681 2.848975840873113
682 2.849239655713979
683 2.849472775588649
684 2.849734649132613
685 2.849964940423372
686 2.850224074470765
687 2.850454668864864
688 2.85071307889691
689 2.850937048920979
690 2.85119336051294
691 2.851414096655826
692 2.851675633874839
693 2.851895825220174
694 2.852151230780697
695 2.852365135190578
696 2.852624155449227
697 2.85284091314518
698 2.853098513729988
699 2.853315429512119
700 2.853575605979395
701 2.853793981113365
702 2.85404843541403
703 2.854267230552988
704 2.854522128892003
705 2.854736094714517
706 2.854991056951545
707 2.85520397933914
708 2.855459939714519
709 2.85567075508134
710 2.855919787410493
711 2.856135094663223
712 2.856386397001127
713 2.856595859864044
714 2.856845572450114
715 2.857052561276485
716 2.857302553951771
717 2.857506361970136
718 2.857754436401997
719 2.857960332683902
720 2.858208616190526
721 2.858409008330684
722 2.858659336984843
723 2.858860231021108
724 2.859109637443375
725 2.85930632809856
726 2.859557049770005
727 2.859758113874266
728 2.859994290458081
729 2.860193238295347
730 2.860437245959017
731 2.860635530637942
732 2.860877508547838
733 2.861077285087901
734 2.861315487903382
735 2.861517761368769
736 2.861755694821683
737 2.861952885881589
738 2.862189723880825
739 2.862381796201689
740 2.862614298926423
741 2.862804151687912
742 2.863038598397933
743 2.863224710132857
744 2.863459320873912
745 2.863641724907314
746 2.863875006643304
747 2.864057662647372
748 2.864288100276072
749 2.86446684178983
750 2.864693300820041
751 2.864870624178257
752 2.865095254369515
753 2.865269000251137
754 2.865496689175163
755 2.865672699108348
756 2.865897477716014
757 2.866072614066335
758 2.866291562333826
759 2.866472972251765
760 2.86669334450309
761 2.866870678361164
762 2.867086258166373
763 2.867263446331177
764 2.867479572082247
765 2.867662999309739
766 2.867879210489498
767 2.868058277133972
768 2.868275264176607
769 2.868452436739643
770 2.868668029786916
771 2.868848692035365
772 2.869058667010266
773 2.869239063914621
774 2.869450040291637
775 2.869633749987571
776 2.869847851413516
777 2.870027091218342
778 2.870241502896715
779 2.870418062609062
780 2.870632926474387
781 2.870805469547059
782 2.871017469347663
783 2.87119129889633
784 2.871405215949526
785 2.871572823590078
786 2.871783200244887
787 2.871956495089598
788 2.872163873480611
789 2.872332251044866
790 2.872531583077067
791 2.872705911297647
792 2.872899489958601
793 2.873066411873702
794 2.873263694254998
795 2.87343488505098
796 2.873631327489971
797 2.873804253253621
798 2.873997220159041
799 2.874168876891243
800 2.874365658544822
801 2.87453192091388
802 2.874724656058181
803 2.874888384704507
804 2.875084459184792
805 2.875244390367163
806 2.87544315866986
807 2.8756065751965
808 2.87580285142015
809 2.87595449439101
810 2.876147190598757
811 2.876304842073124
812 2.876493151368299
813 2.876647797256112
814 2.876835602724738
815 2.876992300103979
816 2.877174717945684
817 2.877329874831429
818 2.877518402367215
819 2.877674660562393
820 2.877860568188456
821 2.878011839858893
822 2.878193176576193
823 2.878348099188387
824 2.878532911816186
825 2.878687177971807
826 2.878866517579448
827 2.879021710414111
828 2.879198272313878
829 2.879354866811464
830 2.879531737455481
831 2.879688821047056
832 2.879863185744176
833 2.880016345864993
834 2.880192534368951
835 2.880343568760434
836 2.880518687833833
837 2.880667782037467
838 2.880841071394859
839 2.880989781594494
840 2.881160658329271
841 2.881304521863379
842 2.881478075864599
843 2.88162077218646
844 2.881798825988681
845 2.881937856932708
846 2.882113523179726
847 2.882249393492294
848 2.882425823037951
849 2.882556118678231
850 2.882733624481383
851 2.882867142311734
852 2.883038924501923
853 2.883170458021787
854 2.883342431524621
855 2.883467176412536
856 2.883638332502462
857 2.883765071233994
858 2.883935497234058
859 2.884063316801699
860 2.884229031667191
861 2.884354412886455
862 2.884523527026337
863 2.884648874284228
864 2.884811512235525
865 2.884937545035627
866 2.885104137208967
867 2.885228557730293
868 2.88539086144926
869 2.885514848429753
870 2.8856706010039
871 2.885801522837982
872 2.885960534265654
873 2.88608582033824
874 2.886239751177176
875 2.886367817589433
876 2.886527947020177
877 2.886657116514884
878 2.886812818503555
879 2.886938174622225
880 2.887093838046437
881 2.887220944209379
882 2.887373555855336
883 2.887501657433548
884 2.887650966519264
885 2.887780760535148
886 2.887926282500906
887 2.888055585040864
888 2.888197147235921
889 2.888323196227468
890 2.888465596529407
891 2.888591565863373
892 2.888732027005195
893 2.888857028862908
894 2.888999100824528
895 2.889117933564529
896 2.889258481019447
897 2.889376540045971
898 2.889513684131607
899 2.889632435458235
900 2.889770201308196
901 2.889886277290533
902 2.890028049759601
903 2.890137764832515
904 2.890280846679311
905 2.890387657513093
906 2.890529297618689
907 2.890635836781716
908 2.890775607018368
909 2.890882221314755
910 2.891019990666431
911 2.891125613240388
912 2.891258514484656
913 2.891369879997823
914 2.891502563644775
915 2.891605762229396
916 2.891735363823817
917 2.891846791799694
918 2.891977973944194
919 2.892090344123608
920 2.892219898655824
921 2.892327336371501
922 2.892455568151769
923 2.892561907542361
924 2.892684319749889
925 2.892793060018677
926 2.892920923494107
927 2.893028309526397
928 2.893158611990251
929 2.893263392328894
930 2.893394164312441
931 2.893497702107405
932 2.893624969634216
933 2.893723024610939
934 2.893850315865193
935 2.893946576902384
936 2.894072096983565
937 2.894170401447844
938 2.894300514706378
939 2.894393144771612
940 2.894521953979293
941 2.894610501702252
942 2.894740468893437
943 2.894827624625655
944 2.89495191448014
945 2.895039631815536
946 2.895163978987115
947 2.895252716550845
948 2.895375256831446
949 2.895463777910019
950 2.895587226770976
951 2.895676260413039
952 2.895794837554101
953 2.895879539014774
954 2.895997946532344
955 2.896087627542239
956 2.89620413364197
957 2.89628900158904
958 2.89640619010777
959 2.896496502558956
960 2.896608651269077
961 2.896696025709181
962 2.896808376331705
963 2.896898481998709
964 2.897007327279926
965 2.897094575274811
966 2.897207608747701
967 2.89728905002214
968 2.897395996583141
969 2.897481234250725
970 2.897585766882087
971 2.897673367062744
972 2.897777936006849
973 2.897859397591708
974 2.897966895778545
975 2.898051123218495
976 2.898156571908348
977 2.898240782861987
978 2.898349586780379
979 2.898429595204587
980 2.898540044990985
981 2.898616257826395
982 2.898723775718907
983 2.8987965023951
984 2.898905540206392
985 2.898973686078842
986 2.899083188103856
987 2.899154539871842
988 2.899257706179517
989 2.899329337394153
990 2.899433910695379
991 2.899506588556072
992 2.89961713860272
993 2.899684621879793
994 2.899792889615546
995 2.899855301011223
996 2.899963235381081
997 2.900020711710739
998 2.900128744998164
999 2.900189079169217
1000 2.900291730019579
1001 2.900351551199386
1002 2.900461374455635
1003 2.900514876683742
1004 2.900616820753544
1005 2.900671946085247
1006 2.900771001956229
1007 2.900828845599157
1008 2.900924471025576
1009 2.900987181059162
1010 2.901082258594977
1011 2.901141562149105
1012 2.901231728750875
1013 2.90129268937565
1014 2.901381225804525
1015 2.901449216151622
1016 2.901537894083
1017 2.901602398763316
1018 2.901691778368254
1019 2.901753798404619
1020 2.901840220231515
1021 2.901897615539391
1022 2.901985252199804
1023 2.902044563320499
1024 2.902127587342605
1025 2.902188228008373
1026 2.902269637673849
1027 2.902329563313532
1028 2.902410218172372
1029 2.902469856247856
1030 2.902548448870482
1031 2.902603032423042
1032 2.90268671112453
1033 2.902739562741134
1034 2.902823081157109
1035 2.90287624088178
1036 2.90295622230563
1037 2.903010763726467
1038 2.903093574879381
1039 2.903151102008823
1040 2.903233382114659
1041 2.903287552449712
1042 2.903368194364492
1043 2.903422795698491
1044 2.903508038452837
1045 2.903564941026902
1046 2.903640418710651
1047 2.903699720015441
1048 2.903784597362242
1049 2.903838628749529
1050 2.903918212333089
1051 2.903971760432489
1052 2.904052436981666
1053 2.904100410213811
1054 2.904178770962254
1055 2.904232693325087
1056 2.904310241634598
1057 2.904356144893227
1058 2.90443221765709
1059 2.904476350597595
1060 2.904553273404153
1061 2.904600335658219
1062 2.904670739259435
1063 2.904719867529466
1064 2.904788048831673
1065 2.904833476590182
1066 2.904904848564504
1067 2.904949261845873
1068 2.905020733106305
1069 2.905064696078249
1070 2.905134793793959
1071 2.905180634705544
1072 2.90524938891034
1073 2.905292310634418
1074 2.905358879012661
1075 2.905401401054365
1076 2.905474505393355
1077 2.905518304017966
1078 2.905588372875647
1079 2.905632405472669
1080 2.905709809750178
1081 2.905749740062169
1082 2.905823141807332
1083 2.905863139839839
1084 2.905942701184571
1085 2.905984625754183
1086 2.906061584911879
1087 2.906103796929209
1088 2.906178504626917
1089 2.906220650461823
1090 2.906292976490715
1091 2.906335660656058
1092 2.906403105580221
1093 2.906448105800311
1094 2.906511780372091
1095 2.906556752482277
1096 2.906621878355808
1097 2.906660464522286
1098 2.906723344635874
1099 2.906763488024688
1100 2.90683045430476
1101 2.906873162701867
1102 2.906936751719118
1103 2.90697680336646
1104 2.907043757758291
1105 2.907082962569915
1106 2.907142825878874
1107 2.907177566085069
1108 2.907241939436419
1109 2.907279713223721
1110 2.907345001375939
1111 2.907382087688406
1112 2.907443927797024
1113 2.907477441968864
1114 2.907539597744443
1115 2.907569975011474
1116 2.907634408904579
1117 2.907666440907374
1118 2.907733487538932
1119 2.907767107720069
1120 2.907831311668585
1121 2.907862433295596
1122 2.907931954886944
1123 2.907963363283607
1124 2.908033046240904
1125 2.908063180159916
1126 2.908131554179109
1127 2.908162404636989
1128 2.90823242057671
1129 2.908257193293612
1130 2.90832671365165
1131 2.908357141029029
1132 2.908434269832031
1133 2.90846579713221
1134 2.908535574109734
1135 2.908569928994041
1136 2.908638664249417
1137 2.908675695851013
1138 2.908735919498437
1139 2.908771434633806
1140 2.908838167209044
1141 2.908871314243261
1142 2.908933181940427
1143 2.908965855127371
1144 2.909030866259209
1145 2.909062527812567
1146 2.909118565543665
1147 2.909150764869211
1148 2.909204552333718
1149 2.909239221652005
1150 2.909287154756639
1151 2.909321895777103
1152 2.909372408136879
1153 2.909404225095398
1154 2.90945522003791
1155 2.909482708496239
1156 2.909540193292901
1157 2.909567854785888
1158 2.909627903186125
1159 2.909660540634616
1160 2.909716111765062
1161 2.90974670006661
1162 2.909804266136779
1163 2.909831753574786
1164 2.909893750603223
1165 2.909918643498817
1166 2.909985406678432
1167 2.910011023716744
1168 2.910070774195564
1169 2.910099836342162
1170 2.910161622410007
1171 2.910193693453126
1172 2.910247641212317
1173 2.91027770989703
1174 2.910336101996943
1175 2.910365756308952
1176 2.910425768593376
1177 2.91045456818896
1178 2.910516636489102
1179 2.910540403681854
1180 2.91060263966408
1181 2.910624257657978
1182 2.910678427045403
1183 2.910703231960894
1184 2.910756456587878
1185 2.910783216246907
1186 2.910835854465321
1187 2.910862872004424
1188 2.910914823079795
1189 2.910942318998228
1190 2.910995982119376
1191 2.911022409866765
1192 2.911073677415423
1193 2.911097226814835
1194 2.911145912270139
1195 2.911172982813555
1196 2.911228231093709
1197 2.911254304383543
1198 2.911310145339546
1199 2.911332437887327
1200 2.911391166117127
1201 2.911410564864187
1202 2.911467883231749
1203 2.911487369682192
1204 2.911543572591677
1205 2.911564302215003
1206 2.911622631818196
1207 2.911647461778832
1208 2.911703574268595
1209 2.911725546924151
1210 2.911781052556232
1211 2.911803752598343
1212 2.911860947096711
1213 2.911881250757992
1214 2.911934888616565
1215 2.911957244701187
1216 2.912013331955768
1217 2.912031603511634
1218 2.912089121295754
1219 2.91211082462068
1220 2.912163562401628
1221 2.912185614729028
1222 2.912237374986526
1223 2.912256529850969
1224 2.912310357522938
1225 2.912325906706989
1226 2.912378781378206
1227 2.912395145807102
1228 2.912450741085054
1229 2.912468552629119
1230 2.912522206605666
1231 2.912539777855882
1232 2.91259559466098
1233 2.912605731153983
1234 2.912659464596301
1235 2.912675368654144
1236 2.912729844331047
1237 2.912744489069821
1238 2.912796260597378
1239 2.912815771707284
1240 2.91286715590792
1241 2.912885009294495
1242 2.912936381752472
1243 2.912953968338788
1244 2.913002583523788
1245 2.913025809800105
1246 2.913069399061155
1247 2.913091267929292
1248 2.913134379607771
1249 2.913152550199661
1250 2.913195652506414
1251 2.913212792288837
1252 2.913255565041132
1253 2.913272928287243
1254 2.913319711651118
1255 2.91333710835233
1256 2.913388794206852
1257 2.913406738137717
1258 2.913457615658785
1259 2.913472653184552
1260 2.913527568687962
1261 2.913544247295819
1262 2.913595354059489
1263 2.913608540923267
1264 2.913661138449541
1265 2.91367240420029
1266 2.913721354769306
1267 2.913731805782013
1268 2.913784474070289
1269 2.913798585728691
1270 2.913848583285122
1271 2.913856764204533
1272 2.913911152916015
1273 2.913919802514494
1274 2.913972780929163
1275 2.913984807752644
1276 2.914034844423628
1277 2.914047862944349
1278 2.914094441257785
1279 2.914110713128028
1280 2.914154199159324
1281 2.914173009069288
1282 2.914214483835758
1283 2.914225929689681
1284 2.914270585081793
1285 2.914283661811535
1286 2.914326026861616
1287 2.914340812983474
1288 2.914383648556166
1289 2.914400373568779
1290 2.914445225943926
1291 2.914460214866403
1292 2.914502325263481
1293 2.914518053473372
1294 2.914558878493966
1295 2.914571934749588
1296 2.914610580345526
1297 2.91462355029309
1298 2.914663856668992
1299 2.91468083014124
1300 2.914717903625242
1301 2.914736525377
1302 2.914775184136265
1303 2.914792335595695
1304 2.914828918201294
1305 2.914848520911025
1306 2.9148839538252
1307 2.914896164976369
1308 2.914936190616165
1309 2.914954646361227
1310 2.914986756864345
1311 2.915007399338366
1312 2.915044916034023
1313 2.915061533206888
1314 2.915101239529418
1315 2.915115490626161
1316 2.915155441656877
1317 2.91516360265667
1318 2.915204282933137
1319 2.915213576165887
1320 2.915259938748345
1321 2.915266505350456
1322 2.915306044086659
1323 2.915310358652292
1324 2.915353008818205
1325 2.915357422939211
1326 2.915404018625368
1327 2.915401641555389
1328 2.915453159507051
1329 2.915452218364669
1330 2.915503062883685
1331 2.915501766196841
1332 2.915552160239486
1333 2.915555516488836
1334 2.915596217476357
1335 2.915604982691217
1336 2.91564470476389
1337 2.915654001954668
1338 2.91569114290475
1339 2.915703238504955
1340 2.915742391148147
1341 2.915748309208207
1342 2.915787448418956
1343 2.91579673725842
1344 2.915840157791289
1345 2.915852431647016
1346 2.915889757665253
1347 2.915898541852101
1348 2.915939519805567
1349 2.915953231377852
1350 2.915988651813523
1351 2.916006899827042
1352 2.916039940664612
1353 2.91605003053379
1354 2.916084635272373
1355 2.916098163145317
1356 2.916133179733192
1357 2.916142259234686
1358 2.916175979445785
1359 2.91618798986798
1360 2.916218712045398
1361 2.916223893130378
1362 2.916256039317668
1363 2.916258003675482
1364 2.916294085933281
1365 2.916296994494096
1366 2.916331199121835
1367 2.916335484477287
1368 2.916370963823141
1369 2.91637798181528
1370 2.916412225731781
1371 2.916412818465032
1372 2.916453980812903
1373 2.916456511476651
1374 2.916496502649693
1375 2.916504222005317
1376 2.916541069459477
1377 2.916543193616004
1378 2.916582862397046
1379 2.916585088190872
1380 2.916622507579846
1381 2.916625083576941
1382 2.916659991978384
1383 2.916661901227882
1384 2.916698575165391
1385 2.916697747194036
1386 2.916734001593053
1387 2.916735198175752
1388 2.916775936190758
1389 2.916783884449462
1390 2.916815059893461
1391 2.916822284807127
1392 2.916854739283201
1393 2.916863701005268
1394 2.916895387799095
1395 2.916910597316503
1396 2.916945329890841
1397 2.916953073362663
1398 2.916987851967983
1399 2.916993737242243
1400 2.917026711836204
1401 2.917031677973752
1402 2.917064159035097
1403 2.917068539804357
1404 2.917101305585591
1405 2.917102473701667
1406 2.917141070124962
1407 2.917138535126522
1408 2.917173309927569
1409 2.91717384610305
1410 2.917209470801204
1411 2.91720466630787
1412 2.917241663226891
1413 2.917237594903862
1414 2.917270973453656
1415 2.917268240716155
1416 2.917303076117896
1417 2.917300882404066
1418 2.917334724353287
1419 2.917332524022486
1420 2.917364348951412
1421 2.91736819596259
1422 2.917400219145911
1423 2.917403805515983
1424 2.917434437905661
1425 2.91744527703272
1426 2.917469089644416
1427 2.91747406353496
1428 2.917505617692117
1429 2.917512065063686
1430 2.917543153629748
1431 2.917550848730019
1432 2.917579573859007
1433 2.917586887228052
1434 2.917615991892363
1435 2.917625909127737
1436 2.917652101459936
1437 2.917660512408708
1438 2.917690711431999
1439 2.917698327937
1440 2.917725864561025
1441 2.917734213139154
1442 2.91776349012355
1443 2.917766703263812
1444 2.917800245444495
1445 2.917801240953024
1446 2.917832506371735
1447 2.917825469909535
1448 2.917860530112749
1449 2.917855119877274
1450 2.91788577232191
1451 2.917881539819831
1452 2.917914365956098
1453 2.917906617792427
1454 2.917943851553102
1455 2.917938616773635
1456 2.917969778392355
1457 2.917963123480587
1458 2.917997204551207
1459 2.917991512461901
1460 2.91802648392976
1461 2.918023179027164
1462 2.918057531802368
1463 2.918052470093518
1464 2.918088335360096
1465 2.918088757067543
1466 2.91812639068325
1467 2.91812454008204
1468 2.918155686845216
1469 2.918158410142522
1470 2.91819103577446
1471 2.918189940942696
1472 2.918218533963433
1473 2.918218534104578
1474 2.918248186052457
1475 2.918253164968378
1476 2.918277705274541
1477 2.918281707058012
1478 2.918309853675553
1479 2.918312333141748
1480 2.918337654601365
1481 2.918343916699842
1482 2.918369247072122
1483 2.91836813382134
1484 2.918396027390478
1485 2.9183948762882
1486 2.918419473853953
1487 2.918420683521407
1488 2.918439986530876
1489 2.91844208697215
1490 2.918462876314285
1491 2.918464144071775
1492 2.918486687747804
1493 2.918486576847086
1494 2.918509259673441
1495 2.918505214532539
1496 2.918531690193545
1497 2.918532513887373
1498 2.918559132819582
1499 2.9185576768781
1500 2.918582820783314
1501 2.91858609938104
1502 2.918614167529328
1503 2.918615430770196
1504 2.918647843377354
1505 2.918652153628364
1506 2.91868417328739
1507 2.918683489823914
1508 2.918708946189607
1509 2.918707798710634
1510 2.918736702696685
1511 2.918736306225614
1512 2.918760168614878
1513 2.918756379723376
1514 2.918780976095876
1515 2.918785926564593
1516 2.918805707002986
1517 2.918802412766718
1518 2.918824523968253
1519 2.918818158513516
1520 2.91884273823771
1521 2.91883506780206
1522 2.918858785907713
1523 2.91885298593057
1524 2.918881278006233
1525 2.918880501125647
1526 2.91890981981708
1527 2.918902023384865
1528 2.918932134692175
1529 2.918924230565674
1530 2.918958078447305
1531 2.918948806739365
1532 2.918976729605885
1533 2.91896355419962
1534 2.918992408302754
1535 2.918989405396204
1536 2.919013996289348
1537 2.919003088909942
1538 2.919032251969643
1539 2.919029195915626
1540 2.9190586788917
1541 2.919052086608183
1542 2.919084236933062
1543 2.919076663486956
1544 2.91910035976208
1545 2.919100822651474
1546 2.919127696261654
1547 2.919123864312086
1548 2.919146452572441
1549 2.919145727834201
1550 2.91917137625917
1551 2.919171961182353
1552 2.919191688990091
1553 2.919193203175783
1554 2.919210318322317
1555 2.919211702611009
1556 2.919227081016086
1557 2.919225108137816
1558 2.919247145134864
1559 2.919243464125834
1560 2.919266839703319
1561 2.919257772286165
1562 2.91928458838737
1563 2.919275293252572
1564 2.91929713002793
1565 2.919291391337008
1566 2.919314708613642
1567 2.919312645628249
1568 2.919333464827039
1569 2.919330411684978
1570 2.91935153684058
1571 2.91934960923289
1572 2.919374364190015
1573 2.919369378298668
1574 2.91939711470051
1575 2.919394967370749
1576 2.919416824364321
1577 2.919413893519488
1578 2.919433353830666
1579 2.919434008687046
1580 2.919455320746381
1581 2.919455375682981
1582 2.919476756209514
1583 2.919477833674881
1584 2.919498631650186
1585 2.919496911407826
1586 2.91951876383214
1587 2.919518629065826
1588 2.919540274901313
1589 2.919537257710659
1590 2.919562731172884
1591 2.919556981942085
1592 2.919580278095372
1593 2.919575280577473
1594 2.919598122390197
1595 2.919591461228249
1596 2.919620050770328
1597 2.919613787567968
1598 2.9196401942197
1599 2.919627051555729
1600 2.919651347766371
1601 2.919636815744979
1602 2.919666287690218
1603 2.919648698444556
1604 2.919674570688758
1605 2.919664055817532
1606 2.919691660872896
1607 2.919681562331332
1608 2.919707915072354
1609 2.919703081286523
1610 2.919725904093939
1611 2.919717472505555
1612 2.919745334650909
1613 2.919736580970568
1614 2.919761676394343
1615 2.919755296370155
1616 2.919785065749458
1617 2.919785056702489
1618 2.919806935787276
1619 2.91980298137797
1620 2.919824257651423
1621 2.919824345843276
1622 2.919841195146265
1623 2.919837548035179
1624 2.919853101951486
1625 2.919852186677173
1626 2.919872781089767
1627 2.919868410232246
1628 2.919893135805188
1629 2.919891084482843
1630 2.919910278826415
1631 2.919904311127256
1632 2.919926996519656
1633 2.919920800953147
1634 2.919943319969078
1635 2.919934342938264
1636 2.919953502215369
1637 2.919949721124786
1638 2.919969897556952
1639 2.919963445964739
1640 2.919984811795676
1641 2.919976894952117
1642 2.919997385601558
1643 2.919990491615359
1644 2.920007687493678
1645 2.920000196052269
1646 2.92001520886256
1647 2.920010036404569
1648 2.920027466802222
1649 2.920022075614295
1650 2.920044410000479
1651 2.920034559811565
1652 2.920062321208665
1653 2.920051442112674
1654 2.920081827721374
1655 2.920071491153311
1656 2.920098468390473
1657 2.920087939224296
1658 2.92011731042246
1659 2.920108493602145
1660 2.920132657058091
1661 2.920123541139659
1662 2.920151660408693
1663 2.920141309817407
1664 2.920167100944202
1665 2.92016098030664
1666 2.92018248770863
1667 2.920173839119628
1668 2.920201107830692
1669 2.92019463111838
1670 2.920219105703138
1671 2.920207723032905
1672 2.920227489382146
1673 2.920218097509469
1674 2.920237634402812
1675 2.92022789766579
1676 2.920250890105273
1677 2.920240543049851
1678 2.920261160640737
1679 2.920253182369546
1680 2.920270738019151
1681 2.92025993292483
1682 2.920278042627481
1683 2.920263954756263
1684 2.920283442493035
1685 2.920272712109576
1686 2.920292447837572
1687 2.920282039356586
1688 2.92030247267189
1689 2.920291747938442
1690 2.920316861238869
1691 2.920309534514371
1692 2.920331619285282
1693 2.920326820206799
1694 2.920348292353759
1695 2.920345433568297
1696 2.920362763101267
1697 2.920359793173492
1698 2.920380641996887
1699 2.920378929976245
1700 2.920399885052057
1701 2.920395485457915
1702 2.920416939944769
1703 2.920405628892014
1704 2.920426748767999
1705 2.920423015224279
1706 2.920444373128137
1707 2.920438372566503
1708 2.92045603606172
1709 2.920451048118818
1710 2.920469358851508
1711 2.920459120126682
1712 2.920476467458628
1713 2.920460111787973
1714 2.92048001501247
1715 2.920467309262045
1716 2.920482767941923
1717 2.920466064185175
1718 2.920488487806935
1719 2.920476275961056
1720 2.920496683921865
1721 2.920482988139056
1722 2.920504037543427
1723 2.920490832405976
1724 2.920514652889445
1725 2.920502263455395
1726 2.920524171254505
1727 2.920511851115228
1728 2.920536457993286
1729 2.920526079644266
1730 2.920553912171075
1731 2.920542749969786
1732 2.920567071825036
1733 2.920556298727059
1734 2.920576284001149
1735 2.920564859635894
1736 2.920587598708279
1737 2.920577100356124
1738 2.920604255551464
1739 2.920593817065712
1740 2.920618765439123
1741 2.920609078655731
1742 2.920635851931194
1743 2.920619833277192
1744 2.920642150324759
1745 2.920627108938167
1746 2.920654852894998
1747 2.920638102425172
1748 2.920664570534813
1749 2.920648705252764
1750 2.920673742304986
1751 2.920656127073268
1752 2.920680456734685
1753 2.920658750490199
1754 2.920679280966728
1755 2.92066013131182
1756 2.920680286954142
1757 2.920666916558754
1758 2.920688504742751
1759 2.920675591762288
1760 2.920694943144964
1761 2.9206838354064
1762 2.920702998724517
1763 2.920691167496273
1764 2.920706159099884
1765 2.920700573313061
1766 2.920716227370166
1767 2.920708329203182
1768 2.920727264213317
1769 2.920719745297252
1770 2.920741431376382
1771 2.92073303643464
1772 2.920754817149085
1773 2.9207458371621
1774 2.920763025820816
1775 2.920753991603698
1776 2.920764919683939
1777 2.920756672645359
1778 2.920776166512493
1779 2.920765725815103
1780 2.920784572527256
1781 2.920773021602765
1782 2.920792928253327
1783 2.920780300017104
1784 2.92079697101013
1785 2.920785343157348
1786 2.920802047760485
1787 2.920789252569492
1788 2.920805851186651
1789 2.920795718666094
1790 2.920816565995369
1791 2.920802601205844
1792 2.920823503963284
1793 2.92080674734906
1794 2.9208304574854
1795 2.920817071170496
1796 2.92083833752274
1797 2.920826646510179
1798 2.920849469333308
1799 2.920838948480294
1800 2.920860557259837
1801 2.920848006563614
1802 2.920869245951079
1803 2.920857714508386
1804 2.920871993259975
1805 2.920862746484092
1806 2.920883386627026
1807 2.920869203081274
1808 2.920891501820881
1809 2.920874988710814
1810 2.920902673080843
1811 2.920887396257404
1812 2.920904927899954
1813 2.920894585321922
1814 2.92091443402878
1815 2.920904891467839
1816 2.920920341273275
1817 2.92091174788762
1818 2.920929486148391
1819 2.920919582640444
1820 2.920936324694922
1821 2.920930466194266
1822 2.920945151300379
1823 2.920937392117123
1824 2.920948453536693
1825 2.920939622034454
1826 2.920949805940309
1827 2.920938972082997
1828 2.920949375933884
1829 2.920946570167053
1830 2.920959122277211
1831 2.920948754441071
1832 2.920961779717626
1833 2.920951903716314
1834 2.920964097052442
1835 2.92095741512914
1836 2.920969982853512
1837 2.920954689775906
1838 2.920972190170475
1839 2.920959313290656
1840 2.920974855928204
1841 2.920961096358689
1842 2.92098093820214
1843 2.920963371557553
1844 2.920984785746578
1845 2.920968855799736
1846 2.920986853516301
1847 2.920973965397134
1848 2.920999628794585
1849 2.920984480362546
1850 2.921007047677235
1851 2.920993241912295
1852 2.921014286015937
1853 2.921004828374945
1854 2.92102391143454
1855 2.921015316076618
1856 2.921035138323848
1857 2.92102288003239
1858 2.921041072139201
1859 2.921030713517404
1860 2.921043531265949
1861 2.921029025904819
1862 2.921044839761481
1863 2.921028804517008
1864 2.92104275728412
1865 2.921029664022919
1866 2.921050780849231
1867 2.921033253508242
1868 2.921056786866512
1869 2.921042805082872
1870 2.921064906890356
1871 2.921046185119805
1872 2.921067419508067
1873 2.921048051055953
1874 2.921071015011751
1875 2.921055542416033
1876 2.9210782549298
1877 2.921064841859991
1878 2.921085255988938
1879 2.921073585046742
1880 2.921096594523834
1881 2.921082905877012
1882 2.921105669632332
1883 2.921089152415865
1884 2.921108208467016
1885 2.921096503361762
1886 2.921115733931457
1887 2.921102470910197
1888 2.921118401100556
1889 2.921111103737902
1890 2.921126094165273
1891 2.921117880253806
1892 2.921132718477006
1893 2.921124680471999
1894 2.92113648355541
1895 2.921127896143316
1896 2.921138402650267
1897 2.921129510238786
1898 2.921139877905486
1899 2.921134731366168
1900 2.9211486219563
1901 2.921140716067189
1902 2.921153476759292
1903 2.921142150525701
1904 2.921155221614235
1905 2.921144731701511
1906 2.921159395206034
1907 2.921144582260006
1908 2.92115909419147
1909 2.921147993327794
1910 2.921166030903538
1911 2.921153078568123
1912 2.9211718014753
1913 2.921162381081309
1914 2.921177928280777
1915 2.921163384071465
1916 2.921182385904114
1917 2.921170162681678
1918 2.921191166655238
1919 2.921179410140298
1920 2.921195985017812
1921 2.921180895933686
1922 2.921205157010252
1923 2.921190046953933
1924 2.921213092504257
1925 2.921196948451831
1926 2.921222230164862
1927 2.921207069208106
1928 2.921226397604612
1929 2.921211758251356
1930 2.921228131111872
1931 2.921219485746025
1932 2.92123804849461
1933 2.921220451194769
1934 2.92123906347112
1935 2.921220593178346
1936 2.921238623867784
1937 2.921222208521349
1938 2.921241898512007
1939 2.921229889170479
1940 2.921248501700386
1941 2.92123336961965
1942 2.921249965286739
1943 2.92123662888062
1944 2.921251774970529
1945 2.921238442733455
1946 2.921252728748494
1947 2.92123576436597
1948 2.921251462776965
1949 2.921232724589335
1950 2.921249493970925
1951 2.921235996906755
1952 2.921253780625377
1953 2.92124301681439
1954 2.92126313075337
1955 2.921254197378705
1956 2.921273182726095
1957 2.921262616684303
1958 2.921287435025573
1959 2.921273582579742
1960 2.921295359234425
1961 2.9212783762854
1962 2.921303899924625
1963 2.921287912854571
1964 2.921310769288578
1965 2.921296047354063
1966 2.921318144186816
1967 2.921301821593175
1968 2.921322295148957
1969 2.921308510615528
1970 2.921329640160087
1971 2.921315246679226
1972 2.921331016904204
1973 2.921312996105914
1974 2.921329064543481
1975 2.921314231190497
1976 2.921324049537885
1977 2.921305021481203
1978 2.921322484860093
1979 2.921308805169522
1980 2.921317832418933
1981 2.921307647660586
1982 2.921316867301154
1983 2.921307480949686
1984 2.921316087874269
1985 2.921307419819183
1986 2.921321618794168
1987 2.921306109321676
1988 2.921324531471395
1989 2.921312922936503
1990 2.921334698759216
1991 2.921323669876822
1992 2.921341799761386
1993 2.921331180000815
1994 2.92134920114402
1995 2.921335941440446
1996 2.921357048335279
1997 2.921344515120722
1998 2.921368453199275
1999 2.921357612537811
2000 2.9213793540101
2001 2.921365400715967
2002 2.9213862800871
2003 2.92137071179857
2004 2.921388827748579
2005 2.921377506808081
2006 2.921392723529892
2007 2.921380367103062
2008 2.921391826841478
2009 2.921378054998284
2010 2.921391056361326
2011 2.921376584593211
2012 2.921391408963041
2013 2.921378128564212
2014 2.921387899032192
2015 2.921375472044678
2016 2.921384387006166
2017 2.921372705213298
2018 2.921386316056244
2019 2.92137307668582
2020 2.921386594104862
2021 2.92137625284828
2022 2.921391343486409
2023 2.921376697053237
2024 2.921393992321339
2025 2.921381024967482
2026 2.921395436519221
2027 2.921382945574302
2028 2.921401039558387
2029 2.921390537769428
2030 2.921408841711488
2031 2.921393443068454
2032 2.921410706908607
2033 2.921398854639277
2034 2.92141555782226
2035 2.92140311268108
2036 2.921417070565907
2037 2.921405477700517
2038 2.921419237576136
2039 2.921408667199153
2040 2.921423182138979
2041 2.921414902918298
2042 2.921429164854448
2043 2.921419995275078
2044 2.921436675162795
2045 2.921431708066088
2046 2.921445023164146
2047 2.921438895629721
2048 2.921451873751821
2049 2.921443088897279
2050 2.921455284642558
2051 2.921445612919099
2052 2.921456775046711
2053 2.92144269368962
2054 2.921453327485484
2055 2.921443027641341
2056 2.921453579645988
2057 2.921438895329748
2058 2.921454663259918
2059 2.921437465743896
2060 2.921454935470089
2061 2.921439766273322
2062 2.921456058859116
2063 2.921436453507227
2064 2.921454402154818
2065 2.921440386823678
2066 2.921458657636209
2067 2.921445548157773
2068 2.921461881218015
2069 2.921450217587147
2070 2.921466064976953
2071 2.921453989408229
2072 2.921470815880462
2073 2.921456733866765
2074 2.921472762819555
2075 2.92146136000568
2076 2.921474590573673
2077 2.921465977884011
2078 2.921482381403056
2079 2.921469874928688
2080 2.921485849678801
2081 2.921476075935376
2082 2.921491783735031
2083 2.92148016178781
2084 2.921502568306497
2085 2.921492253373092
2086 2.921509023264078
2087 2.92149771496527
2088 2.921513185812307
2089 2.921498518541278
2090 2.921509458722338
2091 2.921496610301761
2092 2.921513376717745
2093 2.921499848535951
2094 2.921512779555636
2095 2.921497000828265
2096 2.921511183368941
2097 2.921494147608215
2098 2.921510363088857
2099 2.921498889786163
2100 2.921512326459984
2101 2.921493891313917
2102 2.921509852161097
2103 2.921491708755632
2104 2.921506615472537
2105 2.921492994905786
2106 2.92150451258108
2107 2.92149254626706
2108 2.921508769707244
2109 2.921498420066317
2110 2.92151139093803
2111 2.921504332732889
2112 2.921513162575489
2113 2.921501833234546
2114 2.921514425492053
2115 2.921504670792018
2116 2.921523266034371
2117 2.921508061842827
2118 2.921527575122171
2119 2.921513252581029
2120 2.921532438725605
2121 2.921514463921629
2122 2.921535730035521
2123 2.921517960006628
2124 2.921534868681753
2125 2.921516669771629
2126 2.921531913266858
2127 2.921514218987822
2128 2.92153166988346
2129 2.921515951661423
2130 2.921532791194548
2131 2.921517104547894
2132 2.921532026796671
2133 2.921517691568016
2134 2.92153269492499
2135 2.921519700896242
2136 2.921538697061388
2137 2.921520149169975
2138 2.92154387421145
2139 2.921530209803799
2140 2.921547794962203
2141 2.921530322764638
2142 2.921553155707165
2143 2.921535436568739
2144 2.921555472679476
2145 2.921535326454362
2146 2.921551760827791
2147 2.921537617580706
2148 2.92155389927389
2149 2.921535549761196
2150 2.921553661720086
2151 2.921535493845446
2152 2.921554637545999
2153 2.9215358544007
2154 2.921556045921877
2155 2.921538577952904
2156 2.921558172078403
2157 2.921543997637771
2158 2.921560816967714
2159 2.921546701972563
2160 2.921558220307274
2161 2.921550319913107
2162 2.921564495481301
2163 2.921548466254531
2164 2.921563316835294
2165 2.921547889361618
2166 2.921559480807648
2167 2.921546056225717
2168 2.921562830730358
2169 2.921544182680815
2170 2.921560014915731
2171 2.92154411334596
2172 2.921562308928776
2173 2.921549021749424
2174 2.921568491433346
2175 2.921551622189464
2176 2.921573303311165
2177 2.921552868976229
2178 2.921580136659894
2179 2.921557589304606
2180 2.921584545921637
2181 2.92156894896348
2182 2.921593449305059
2183 2.921572393569579
2184 2.921594835940272
2185 2.92157631452788
2186 2.921599836281518
2187 2.921575340373536
2188 2.921599615299954
2189 2.921579600099246
2190 2.921597915808469
2191 2.921578765801088
2192 2.921596877378521
2193 2.921576795721636
2194 2.921596549608673
2195 2.921576203041203
2196 2.921595779849067
2197 2.921585008219549
2198 2.921597605661831
2199 2.921581391361002
2200 2.921598024510448
2201 2.921584794205998
2202 2.921593105093163
2203 2.921575389357458
2204 2.921589270051531
2205 2.921574330373713
2206 2.921590657757558
2207 2.921572726402337
2208 2.921592262004832
2209 2.921573438876651
2210 2.921591242389135
2211 2.92157207529059
2212 2.921591399016481
2213 2.921573180384326
2214 2.921594013713306
2215 2.921572068387363
2216 2.92159260195685
2217 2.921575338789003
2218 2.921601234420759
2219 2.921584583626594
2220 2.921607097190326
2221 2.921592037174982
2222 2.921615444909129
2223 2.921596541899982
2224 2.921619738224472
2225 2.921600193310019
2226 2.921623200211353
2227 2.921600038723684
2228 2.921622671766574
2229 2.921602766103857
2230 2.921621669075004
2231 2.921602318994186
2232 2.921619785904277
2233 2.921600130925938
2234 2.921615572313167
2235 2.921601713395928
2236 2.921613918439299
2237 2.921596046239031
2238 2.921608718872243
2239 2.921590887931499
2240 2.921599542496765
2241 2.921583860712822
2242 2.921599102871531
2243 2.921581199640281
2244 2.921597370156208
2245 2.921584426170682
2246 2.921600932829065
2247 2.921585218915076
2248 2.921605510872455
2249 2.921590748684856
2250 2.921615130006205
2251 2.921598128084345
2252 2.921623248753975
2253 2.921606512586266
2254 2.921626480875228
2255 2.921613613228953
2256 2.921627904633196
2257 2.921613789762135
2258 2.921630009099604
2259 2.921613878615402
2260 2.921628556879422
2261 2.921612371514247
2262 2.921629826189913
2263 2.921614124833317
2264 2.921629563572406
2265 2.921613714493592
2266 2.921631141841944
2267 2.921611607980121
2268 2.921631170291641
2269 2.921610110740627
2270 2.921631150466319
2271 2.921608941618854
2272 2.921628542459926
2273 2.921605329518048
2274 2.921626128349112
2275 2.921601678588133
2276 2.921619615654391
2277 2.921597109147871
2278 2.921618809104386
2279 2.92159690787954
2280 2.921614509900366
2281 2.921595020706425
2282 2.921614532687265
2283 2.921597246256495
2284 2.921614357052365
2285 2.92160018716816
2286 2.92161301979637
2287 2.921598763320072
2288 2.921614237247667
2289 2.921605674183661
2290 2.921621407126501
2291 2.921609461677366
2292 2.921629734033151
2293 2.921618465503105
2294 2.921637008940065
2295 2.921621201194651
2296 2.921638817213035
2297 2.921618006762664
2298 2.921635850539703
2299 2.921619567078107
2300 2.921641421370178
2301 2.921619065370173
2302 2.921644062534111
2303 2.921623412729205
2304 2.921645532058372
2305 2.921622878303135
2306 2.921652355570336
2307 2.921629151593708
2308 2.921655810535693
2309 2.921631904285777
2310 2.921652317849106
2311 2.921630474576098
2312 2.921649670176831
2313 2.921623458298474
2314 2.921636739390309
2315 2.921617684027897
2316 2.921630606620391
2317 2.921611717556106
2318 2.921628250122065
2319 2.921611358166413
2320 2.921626479444525
2321 2.921606292090798
2322 2.92162197279557
2323 2.921604687393098
2324 2.921621106838136
2325 2.921603771922813
2326 2.921620561196187
2327 2.921604658549624
2328 2.921622790591059
2329 2.921611499900562
2330 2.921637531979983
2331 2.92162483718476
2332 2.92164395426902
2333 2.921630969885538
2334 2.921648050599261
2335 2.921639698128347
2336 2.921657166249136
2337 2.921647560947318
2338 2.921662590888487
2339 2.921654740289542
2340 2.921671779046044
2341 2.921656154043973
2342 2.921670719236548
2343 2.921654872049317
2344 2.921668804639182
2345 2.921654945745572
2346 2.921669025247548
2347 2.921648571405763
2348 2.921672377621268
2349 2.921647367533537
2350 2.921664150737745
2351 2.921640191420811
2352 2.921660766782487
2353 2.92163504502407
2354 2.921656701849591
2355 2.921630064292315
2356 2.921651292674988
2357 2.921626495711216
2358 2.921650264300401
2359 2.921623224096582
2360 2.921650396376545
2361 2.921623115762788
2362 2.921650862893844
2363 2.92162654237698
2364 2.92164999454485
2365 2.921629962106796
2366 2.921652283427638
2367 2.921635236748753
2368 2.921657744779886
2369 2.921641776899607
2370 2.921668003773501
2371 2.921650616948042
2372 2.921671819223287
2373 2.921653831756321
2374 2.921673658664087
2375 2.921655346300361
2376 2.921668417681047
2377 2.921650606730291
2378 2.921670117533447
2379 2.921652556709657
2380 2.921672587058298
2381 2.9216561476187
2382 2.92167471043716
2383 2.921655272232415
2384 2.921670155431912
2385 2.921649725046862
2386 2.921665301352539
2387 2.921647083925442
2388 2.9216639199076
2389 2.921644713788008
2390 2.921663382851093
2391 2.92164339187741
2392 2.921662900609545
2393 2.921640398561781
2394 2.921655551473589
2395 2.921635821500088
2396 2.921655852458247
2397 2.921634812326217
2398 2.92165953067199
2399 2.921640155608594
2400 2.921658773954363
2401 2.921636797534448
2402 2.92165781090967
2403 2.921641160695454
2404 2.921660760822615
2405 2.921641415528289
2406 2.921661275030928
2407 2.921639737980591
2408 2.921660597734265
2409 2.921637094285292
2410 2.921655138787641
2411 2.92163436462487
2412 2.921653698780262
2413 2.921630593741968
2414 2.921653579880685
2415 2.921632978045014
2416 2.921655130267851
2417 2.921634231965421
2418 2.921657470711514
2419 2.921638727567292
2420 2.921656346064296
2421 2.921638633532596
2422 2.921662727176344
2423 2.921640646156764
2424 2.921664471455484
2425 2.921645013125323
2426 2.921668012112209
2427 2.921647526062385
2428 2.921668495173714
2429 2.921649218032605
2430 2.921667577266664
2431 2.921650386674316
2432 2.921661037480873
2433 2.921644106241218
2434 2.921664047995946
2435 2.921647571191961
2436 2.92166462947745
2437 2.921645302412629
2438 2.921660430917151
2439 2.921644350706253
2440 2.921657723821476
2441 2.921642639861188
2442 2.921658571685998
2443 2.921641564296112
2444 2.921652439824398
2445 2.921641605432218
2446 2.921657162600015
2447 2.921640023714813
2448 2.92165720701529
2449 2.921642521947331
2450 2.92165908442817
2451 2.921642047230628
2452 2.921662710593171
2453 2.92164476971266
2454 2.921663998875066
2455 2.921646322205607
2456 2.921666153366175
2457 2.92165199335593
2458 2.921673622019509
2459 2.921657150012618
2460 2.921674965934086
2461 2.921661478694726
2462 2.921678728377676
2463 2.921660985863357
2464 2.921677470315295
2465 2.921657155099211
2466 2.921670530131906
2467 2.921653342276212
2468 2.92166658882961
2469 2.921651961488119
2470 2.921664053873969
2471 2.921647653841528
2472 2.921660731406325
2473 2.921646595429966
2474 2.921660890158424
2475 2.921647741361145
2476 2.921659447530911
2477 2.921646220065067
2478 2.921660231153002
2479 2.921646701127042
2480 2.921663928355504
2481 2.921649866409732
2482 2.921674161249414
2483 2.921657255486414
2484 2.921677677042837
2485 2.921663593092023
2486 2.921685213318338
2487 2.921667848232488
2488 2.921687027831849
2489 2.921668470826368
2490 2.921687864112199
2491 2.921669040196262
2492 2.921689391927226
2493 2.921668825191129
2494 2.921686345428749
2495 2.921663015243026
2496 2.92167934276529
2497 2.921654685931422
2498 2.921675223212262
2499 2.92165247881716
2500 2.921670976952772
2501 2.921648870374807
2502 2.921665147188412
2503 2.921642529081789
2504 2.921661888289812
2505 2.921641884084702
2506 2.921658758262793
2507 2.921641915118012
2508 2.921657690066167
2509 2.921644686046037
2510 2.921661304757592
2511 2.921647138040083
2512 2.921665302948219
2513 2.921648946794019
2514 2.921671105406453
2515 2.921653667690745
2516 2.921674764593638
2517 2.921656847440419
2518 2.921675067181143
2519 2.921659580344488
2520 2.921676697517279
2521 2.921666347228425
2522 2.921685345196827
2523 2.921672239102296
2524 2.921689748216343
2525 2.921677526836185
2526 2.921691767209039
2527 2.921677011779117
2528 2.921693923897039
2529 2.921675098693303
2530 2.921684907328815
2531 2.921666753640855
2532 2.92167597647534
2533 2.921656348409512
2534 2.921672076877031
2535 2.921649766230725
2536 2.921666921462878
2537 2.921646189946892
2538 2.921665004122938
2539 2.921640860521557
2540 2.921664437120027
2541 2.921644522422465
2542 2.92166140248607
2543 2.921643529686486
2544 2.921659987373699
2545 2.921649253539923
2546 2.921665160153123
2547 2.921651241556493
2548 2.921666369317167
2549 2.92165188838797
2550 2.921668253093337
2551 2.921657291710377
2552 2.921674210473028
2553 2.921662242846333
2554 2.92167558552952
2555 2.921666036493787
2556 2.921681217225
2557 2.921672159382397
2558 2.9216852596587
2559 2.921673774609725
2560 2.921683325282672
2561 2.921671790610909
2562 2.921687509135217
2563 2.92167005941112
2564 2.921685490645494
2565 2.921662160652896
2566 2.921684202482878
2567 2.921659208327465
2568 2.921682978022766
2569 2.921657705348388
2570 2.921679040953264
2571 2.92165854168687
2572 2.921674618427353
2573 2.921651873811713
2574 2.921664436154136
2575 2.921645662504121
2576 2.92166270261814
2577 2.921638185863265
2578 2.921662495853152
2579 2.921637944064785
2580 2.921662035009607
2581 2.921641002233189
2582 2.921662169583716
2583 2.921641838332336
2584 2.921659565518859
2585 2.921649306208896
2586 2.921663522703625
2587 2.921651880167361
2588 2.92166780826729
2589 2.921654001956246
2590 2.921672249459681
2591 2.921660548611997
2592 2.92167583018741
2593 2.921662340859409
2594 2.921679369513249
2595 2.921665322367709
2596 2.921680610945698
2597 2.921665522791117
2598 2.921683580619405
2599 2.921664442570977
2600 2.921684659024649
2601 2.921667189471319
2602 2.921687430593039
2603 2.921665982432922
2604 2.921686883241508
2605 2.921669990748614
2606 2.921685879501613
2607 2.921665142428647
2608 2.921681398192917
2609 2.921656292200872
2610 2.921678514031282
2611 2.921656059427598
2612 2.921672681668813
2613 2.921651192320737
2614 2.921669785694684
2615 2.921644453273094
2616 2.921661121076275
2617 2.921641247912799
2618 2.921660584467564
2619 2.92163718484151
2620 2.921657386338686
2621 2.921636289716208
2622 2.921657332290027
2623 2.921636570053634
2624 2.921662087145082
2625 2.921643994385236
2626 2.921667690089154
2627 2.921652548524146
2628 2.92167225739637
2629 2.92165935905566
2630 2.92167424469703
2631 2.921660742026982
2632 2.921675409200647
2633 2.921660555730686
2634 2.921678772720126
2635 2.921664510016825
2636 2.921687391077792
2637 2.921671045844178
2638 2.92169311538409
2639 2.92167199832761
2640 2.921689907506759
2641 2.921675430188459
2642 2.921692932823913
2643 2.921671725948271
2644 2.921689059397647
2645 2.921667498745068
2646 2.921685768778475
2647 2.921666758351135
2648 2.921680656846738
2649 2.921659302576004
2650 2.921675743029879
2651 2.921657333529953
2652 2.921670351269061
2653 2.921649268885782
2654 2.921664999288132
2655 2.921645743933817
2656 2.921659283198379
2657 2.921645167429717
2658 2.921658667141184
2659 2.921646495685335
2660 2.921665129725202
2661 2.921648042476955
2662 2.921668531015042
2663 2.921647828413151
2664 2.92166498733784
2665 2.92165100518803
2666 2.921670457964336
2667 2.921656331982507
2668 2.921672709708933
2669 2.921659066688516
2670 2.921673553317994
2671 2.921662376899389
2672 2.921675791789682
2673 2.921661964945288
2674 2.92167824388941
2675 2.921663505453009
2676 2.921684165326199
2677 2.921664839467738
2678 2.921687651604747
2679 2.921669839187544
2680 2.92168896000197
2681 2.921669856493203
2682 2.921689198574033
2683 2.921667396433337
2684 2.921686372130482
2685 2.921660084992835
2686 2.921680544886492
2687 2.921654704905129
2688 2.921674465676942
2689 2.921650899173104
2690 2.921668924760788
2691 2.921647048421705
2692 2.921660892903861
2693 2.921636186252041
2694 2.921655882025478
2695 2.921635170928274
2696 2.921650565433735
2697 2.921632212473737
2698 2.921650869686604
2699 2.921633365828321
2700 2.921652429640495
2701 2.92163438073927
2702 2.921652635819307
2703 2.921636820745872
2704 2.921655975192206
2705 2.921645260645396
2706 2.921663114435844
2707 2.92165443503393
2708 2.921669573119679
2709 2.921657081006891
2710 2.921674437579425
2711 2.921663552920056
2712 2.921675259172168
2713 2.921664406037343
2714 2.921677781333175
2715 2.921665072893624
2716 2.921678797346607
2717 2.921665130900501
2718 2.921683426278127
2719 2.921668699311812
2720 2.921688985181238
2721 2.92167216046169
2722 2.921689197531002
2723 2.921667265660286
2724 2.921683545794333
2725 2.921662487377351
2726 2.921679647336267
2727 2.921664197998616
2728 2.921676290096975
2729 2.921661308199657
2730 2.921675088198024
2731 2.921656139986349
2732 2.921669819520378
2733 2.921654992493895
2734 2.921665987443441
2735 2.921649220315426
2736 2.921660052272656
2737 2.921644874178113
2738 2.921659402255784
2739 2.921645414996559
2740 2.921655267765477
2741 2.921648621931957
2742 2.921662097031136
2743 2.921655608028624
2744 2.921669812260104
2745 2.921662899253241
2746 2.921675055586511
2747 2.921661614341275
2748 2.921673545080641
2749 2.92166573772945
2750 2.921678394557543
2751 2.921664135138496
2752 2.921681163254136
2753 2.921662422664898
2754 2.921682096915076
2755 2.921663534346214
2756 2.921679991214466
2757 2.921659042382359
2758 2.9216761119937
2759 2.921648619775732
2760 2.921667511581119
2761 2.921643514451936
2762 2.921663903360737
2763 2.921638680524714
2764 2.921660126827707
2765 2.921641823878737
2766 2.921661318907088
2767 2.921639324224373
2768 2.921657610213106
2769 2.921640380639612
2770 2.921661477876703
2771 2.921643025314466
2772 2.921661269560065
2773 2.921642173163226
2774 2.92166371760547
2775 2.921648016606341
2776 2.921668050150311
2777 2.921649090399065
2778 2.921661735322072
2779 2.921651157716001
2780 2.921661133576224
2781 2.921654119777763
2782 2.921666470559675
2783 2.921655086032233
2784 2.921671018374328
2785 2.921656902419812
2786 2.921675167035434
2787 2.921654751716876
2788 2.921673977618767
2789 2.921658857201835
2790 2.921669234155011
2791 2.921655259051832
2792 2.921663304697699
2793 2.921651901048303
2794 2.921660761177996
2795 2.92165005924829
2796 2.921657935418884
2797 2.921641574407041
2798 2.921653862382453
2799 2.921640839639328
2800 2.921649144242092
2801 2.921637411386964
2802 2.921648210901025
2803 2.921634184444796
2804 2.921644733902708
2805 2.921633869921405
2806 2.921644161547678
2807 2.92163442185061
2808 2.921653483600811
2809 2.921634603607584
2810 2.921655081535648
2811 2.921637481538503
2812 2.921658416679111
2813 2.921643249230523
2814 2.921662295357607
2815 2.92164852973231
2816 2.921665801177782
2817 2.92165124767913
2818 2.921672442995364
2819 2.921657063101746
2820 2.921677434744676
2821 2.921658659825631
2822 2.921679815488123
2823 2.921654434533655
2824 2.92167269704268
2825 2.921653964070676
2826 2.921671912833752
2827 2.921650164099217
2828 2.921667388915457
2829 2.921649643402384
2830 2.921670805519003
2831 2.921650944078269
2832 2.921670609515092
2833 2.921647749106193
2834 2.921669053459126
2835 2.921649694212652
2836 2.921663614977913
2837 2.921641904412829
2838 2.921658318216775
2839 2.921641405000521
2840 2.92165385261651
2841 2.921637796326708
2842 2.921649647895289
2843 2.921633973617864
2844 2.921649181010674
2845 2.921632255268971
2846 2.921647256929057
2847 2.921626094881758
2848 2.921644056069928
2849 2.921627971093068
2850 2.921643191884473
2851 2.921625963360115
2852 2.921646092542663
2853 2.921629953245307
2854 2.921647166575881
2855 2.921636005113951
2856 2.921655016426266
2857 2.921640150767927
2858 2.92165283582589
2859 2.92164417606865
2860 2.921655746394083
2861 2.92164560984038
2862 2.921658877704722
2863 2.921650100227867
2864 2.921662738366631
2865 2.921655119420531
2866 2.921671223234175
2867 2.921659643614142
2868 2.92167250369624
2869 2.921658425470259
2870 2.92167069148617
2871 2.921655343535012
2872 2.921666349209075
2873 2.921649677622644
2874 2.92166316405808
2875 2.921646908311897
2876 2.921662859511866
2877 2.921639721167209
2878 2.921657817589636
2879 2.921634204787597
2880 2.921651737455704
2881 2.921627707354925
2882 2.92164497252888
2883 2.92162028083221
2884 2.92164345349724
2885 2.921624982539639
2886 2.921649888417037
2887 2.921632761065228
2888 2.921657788959803
2889 2.921642786667076
2890 2.921664874433509
2891 2.921650978325748
2892 2.921668037521462
2893 2.92165213854598
2894 2.92167161315551
2895 2.921654921232664
2896 2.921673116987551
2897 2.921657816536775
2898 2.921672928200244
2899 2.921661767682162
2900 2.921676343060687
2901 2.92166429001066
2902 2.921680684010421
2903 2.921665464393802
2904 2.921682141096481
2905 2.921667902511101
2906 2.921683244884554
2907 2.921664040790022
2908 2.921680914458506
2909 2.921661437164987
2910 2.921675734618324
2911 2.921656328835756
2912 2.921666619045372
2913 2.921645892750921
2914 2.921655991616351
