"mx-rfile"
"Iteration" "mx"
("Iteration" "mx")
7830 5157.865131617266
7831 5292.593286939203
7832 5439.431431941298
7833 5803.603830225476
7834 6221.645701595042
7835 6576.671477674557
7836 6938.820939429533
7837 7286.737404234096
7838 7607.470986540775
7839 7867.794755771194
7840 8108.816618760875
7841 8272.694212144746
7842 8313.027789724092
7843 8294.977955295784
7844 8232.540936554524
7845 8150.574834890926
7846 8076.948132617561
7847 8003.692886505706
7848 7961.867108220225
7849 7937.492451790416
7850 7941.112785795128
7851 7977.557098530161
7852 8049.124005566931
7853 8154.291837461403
7854 8259.052650250866
7855 8429.92481457374
7856 8580.419049097009
7857 8803.481832937607
7858 8984.682658195537
7859 9239.215753632958
7860 9437.994559369412
7861 9705.36967912957
7862 9904.327389682267
7863 10166.29238628797
7864 10353.2842602326
7865 10590.87211942808
7866 10757.4515596506
7867 10914.32555056081
7868 11063.38172926894
7869 11202.55669583279
7870 11330.49747552498
7871 11445.94186808324
7872 11552.03723162645
7873 11644.26182606731
7874 11723.80809220492
7875 11791.03392968028
7876 11846.8302440302
7877 11891.84473557234
7878 11924.66245826739
7879 11947.47982471679
7880 11960.09968301033
7881 11965.18547689858
7882 11962.97184061548
7883 11953.87238242712
7884 11944.09772246183
7885 11925.00121981023
7886 11908.79125314553
7887 11879.61984212576
7888 11857.19713251591
7889 11833.07827562351
7890 11796.40295235035
7891 11770.56985170822
7892 11743.14386259229
7893 11715.57661738535
7894 11687.30495157779
7895 11658.01951526462
7896 11628.92532941096
7897 11600.20473762055
7898 11571.78850480758
7899 11544.49727605708
7900 11518.30858453371
7901 11493.03406076335
7902 11468.89919904191
7903 11446.1424138549
7904 11425.76090231865
7905 11407.10720329276
7906 11390.47291315655
7907 11375.4491725719
7908 11362.6552302468
7909 11351.94376336933
7910 11343.56659392475
7911 11337.00464948267
7912 11332.43173988385
7913 11329.41102587208
7914 11327.78948016937
7915 11327.45058022386
7916 11328.37538478027
7917 11330.13361227088
7918 11332.90798414586
7919 11335.86551068891
7920 11339.57110334615
7921 11343.19019503261
7922 11346.9044862551
7923 11350.49664087577
7924 11353.82166148282
7925 11356.97534764715
7926 11359.40756515048
7927 11361.07827218456
7928 11362.23055416724
7929 11362.66044550595
7930 11362.76932792734
7931 11361.81742719104
7932 11360.20822181839
7933 11357.69792319423
7934 11354.7924064098
7935 11351.06245362707
7936 11346.57054657868
7937 11341.28835806813
7938 11335.8547484681
7939 11329.38924861281
7940 11322.90376978177
7941 11315.67358354652
7942 11308.34041595309
7943 11300.72787161982
7944 11293.09979707717
7945 11285.04985147493
7946 11277.00931932128
7947 11269.24689203053
7948 11261.72570364337
7949 11253.72248565821
7950 11245.95994569974
7951 11238.05438818949
7952 11230.63890339097
7953 11222.89380039467
7954 11215.80215920446
7955 11208.4528915263
7956 11201.48012676007
7957 11194.49993423744
7958 11187.68039973664
7959 11180.94620608742
7960 11174.3904132963
7961 11167.75798226272
7962 11161.26652562059
7963 11154.67351196758
7964 11148.27527844993
7965 11141.84317630575
7966 11135.46879977746
7967 11129.17045069631
7968 11122.76790083256
7969 11116.29557439875
7970 11109.94630121134
7971 11103.66707944166
7972 11097.36995436507
7973 11091.03429160483
7974 11084.70841025601
7975 11078.43348388064
7976 11072.3509848358
7977 11066.16556322044
7978 11060.24854173759
7979 11054.2551127489
7980 11048.49702622426
7981 11042.77813335276
7982 11037.30939264785
7983 11031.79153382051
7984 11026.50571809344
7985 11021.35255769027
7986 11016.50050476617
7987 11011.71224281691
7988 11007.33991062376
7989 11003.02586413792
7990 10999.00430450054
7991 10995.2173488001
7992 10991.73293002187
7993 10988.46506478683
7994 10985.46411434577
7995 10982.61511515079
7996 10980.02631866968
7997 10976.45071964216
7998 10974.48943485028
7999 10972.79168500538
8000 10971.31625433133
8001 10970.19575318795
8002 10968.98899545966
8003 10968.3891387328
8004 10967.95139145154
8005 10968.02334689116
8006 10968.26826666141
8007 10968.63058262161
8008 10969.26779219335
8009 10970.6087279712
8010 10971.59791322346
8011 10973.02058595094
8012 10974.32735774044
8013 10976.40287681436
8014 10978.00033259001
8015 10980.52243674383
8016 10982.3153217128
8017 10984.871297925
8018 10986.6945048362
8019 10989.33537266299
8020 10992.06974807188
8021 10994.58880756773
8022 10997.1671364081
8023 10999.51181021376
8024 11002.08524163681
8025 11004.23809420888
8026 11006.46544406775
8027 11008.18873937261
8028 11010.02664998468
8029 11011.4830792228
8030 11012.73541544396
8031 11013.77313473142
8032 11014.46771566481
8033 11015.0646354689
8034 11015.36805641363
8035 11015.12550870901
8036 11014.738982361
8037 11013.83109428156
8038 11012.64699975377
8039 11010.93538449393
8040 11009.17291311635
8041 11006.79967426962
8042 11004.12844060863
8043 11000.95822628997
8044 10997.513513597
8045 10993.63933824849
8046 10989.3967470168
8047 10984.65246478607
8048 10979.72520806766
8049 10974.25022390295
8050 10968.31719942258
8051 10962.07922113157
8052 10955.55901430333
8053 10948.71612983849
8054 10941.51263821135
8055 10934.04718719147
8056 10926.28917259398
8057 10917.99577825574
8058 10909.56661832516
8059 10900.65694004615
8060 10891.37943681201
8061 10881.84336053426
8062 10872.05038215116
8063 10861.92414114542
8064 10851.57567995421
8065 10841.03906852769
8066 10830.40616424708
8067 10819.51863867205
8068 10808.65540181788
8069 10797.51382481729
8070 10786.45988768039
8071 10775.16813201222
8072 10763.87187087011
8073 10752.68325549086
8074 10741.3567103177
8075 10730.10680308763
8076 10718.87249599342
8077 10707.69161688082
8078 10696.80902195167
8079 10685.51434873887
8080 10674.43102508065
8081 10663.27884333193
8082 10652.34069089861
8083 10641.47221740247
8084 10630.85585580294
8085 10620.01521373852
8086 10609.73130210781
8087 10599.35235951997
8088 10589.40156153642
8089 10579.27690310514
8090 10569.43358395549
8091 10559.50779079044
8092 10549.75116808999
8093 10540.16439044431
8094 10530.75174580739
8095 10521.49261738317
8096 10512.3022949128
8097 10503.23109842783
8098 10494.43955831617
8099 10485.82068493901
8100 10477.49732146984
8101 10471.90224088778
8102 10463.49583852224
8103 10455.07271315455
8104 10449.5836334303
8105 10440.91292608724
8106 10435.24415502504
8107 10426.51531930063
8108 10420.74963453189
8109 10411.75416453391
8110 10405.9824087506
8111 10397.13774737676
8112 10391.3559810797
8113 10385.23095890234
8114 10376.23623130795
8115 10370.12150026003
8116 10363.91206506933
8117 10357.42846959478
8118 10350.83708115472
8119 10344.07789806366
8120 10337.22635699209
8121 10330.09578520511
8122 10322.96626338632
8123 10315.60778777545
8124 10308.13395511593
8125 10300.43704386927
8126 10292.40778875182
8127 10284.38572788472
8128 10276.20125332293
8129 10267.90425822611
8130 10259.54040205703
8131 10246.8844870931
8132 10238.61236389234
8133 10230.23546180066
8134 10221.6655995772
8135 10213.11171428945
8136 10200.22868938118
8137 10191.58142105221
8138 10182.98450475935
8139 10174.15304386636
8140 10160.75933281197
8141 10151.89328537424
8142 10143.09439771029
8143 10129.7495664923
8144 10120.94498807921
8145 10112.04980166447
8146 10098.88759452234
8147 10090.20082635355
8148 10077.23281186999
8149 10068.62267919655
8150 10056.15177652517
8151 10047.82069415189
8152 10035.78610314806
8153 10027.9915049258
8154 10016.68498874889
8155 10005.92910025357
8156 9999.11562307255
8157 9989.189914551314
8158 9979.800994689069
8159 9973.886214368218
8160 9965.577424588626
8161 9957.695336448372
8162 9952.844297954025
8163 9945.92714773129
8164 9941.720630145697
8165 9935.727923826724
8166 9932.085167771638
8167 9926.778494907259
8168 9923.80162810482
8169 9919.337184725087
8170 9916.689263814442
8171 9912.774279469875
8172 9910.450089865162
8173 9908.076732369336
8174 9905.956652218494
8175 9903.764676864927
8176 9901.683801262039
8177 9899.503589170579
8178 9897.35398505091
8179 9895.178678818926
8180 9892.840478018539
8181 9890.329107140537
8182 9887.83568757417
8183 9885.106563949907
8184 9882.339307662625
8185 9879.253506310963
8186 9876.086002187834
8187 9872.696897627604
8188 9869.23750034114
8189 9865.378894726327
8190 9861.574511709694
8191 9857.242817460112
8192 9850.910156288313
8193 9846.184631317432
8194 9841.291239522376
8195 9833.592637630034
8196 9828.48704399835
8197 9820.31255168298
8198 9814.884069042726
8199 9806.210242632009
8200 9800.513388126807
8201 9791.236535985123
8202 9785.173108856872
8203 9775.482375441132
8204 9769.0526635899
8205 9759.19445006665
8206 9752.80565362294
8207 9742.908137578521
8208 9736.555526997632
8209 9727.142531121372
8210 9721.016392320153
8211 9711.766063943205
8212 9706.034298715933
8213 9697.555775667384
8214 9689.680906388128
8215 9684.617997435202
8216 9677.972395961024
8217 9671.885474644212
8218 9666.761902128548
8219 9663.688342697691
8220 9660.06923640312
8221 9657.039227813551
8222 9655.088617374682
8223 9653.74511411212
8224 9653.434436100188
8225 9653.785216858849
8226 9655.147185453536
8227 9656.443615772372
8228 9659.535569883879
8229 9662.993934482996
8230 9666.103143238724
8231 9671.222037670241
8232 9675.225100938176
8233 9681.616797571198
8234 9686.3606166749
8235 9693.641854025505
8236 9699.096256801302
8237 9704.805435102246
8238 9710.959452539097
8239 9717.342972053384
8240 9724.059372708913
8241 9730.750017099916
8242 9737.738508172533
8243 9744.869881573901
8244 9755.404118202805
8245 9762.041242555564
8246 9772.096425967286
8247 9778.443124987805
8248 9787.723287096658
8249 9796.129184186522
8250 9803.936375186628
8251 9810.777888157492
8252 9816.99351720672
8253 9822.232583993928
8254 9826.693336239558
8255 9829.985828997054
8256 9832.677178534228
8257 9834.380427439652
8258 9835.517320516137
8259 9835.669030231727
8260 9835.319180014496
8261 9833.975008121572
8262 9832.311790077281
8263 9829.822718188669
8264 9827.273984459698
8265 9823.978516758882
8266 9820.827072182374
8267 9817.226033297427
8268 9813.630031101466
8269 9810.040595469194
8270 9807.727861593688
8271 9803.940439058559
8272 9801.625233750423
8273 9798.211927121887
8274 9796.394516674669
8275 9794.784075562507
8276 9793.565737879328
8277 9792.527078476087
8278 9791.915711504545
8279 9791.882333425106
8280 9792.325120772683
8281 9793.302381283498
8282 9794.728825595199
8283 9797.291354452484
8284 9799.492560366436
8285 9803.6668627206
8286 9808.501652388055
8287 9812.109683573814
8288 9818.510830582247
8289 9825.191127842867
8290 9832.689236108177
8291 9840.393289844267
8292 9846.134525679912
8293 9855.466459237459
8294 9865.349822058142
8295 9872.016674798249
8296 9882.918790720803
8297 9893.753905486037
8298 9901.429013011166
8299 9913.264074391684
8300 9921.28804396844
8301 9933.383435613383
8302 9941.612499340185
8303 9954.010641346007
8304 9962.310293173692
8305 9974.355751579631
8306 9986.085723024911
8307 9996.988970003793
8308 10007.58506109039
8309 10017.24957842449
8310 10026.27175964382
8311 10034.26100815301
8312 10041.79701507779
8313 10048.30074065152
8314 10054.24338292689
8315 10059.2737122977
8316 10063.51767266353
8317 10067.10120981981
8318 10070.01596694538
8319 10072.2584846822
8320 10073.82483465308
8321 10074.63783807701
8322 10075.10956248666
8323 10075.21189076163
8324 10075.06924473623
8325 10074.5776272496
8326 10073.76408593676
8327 10072.69771466534
8328 10071.86683933731
8329 10070.90934386239
8330 10070.31840101237
8331 10069.70265680924
8332 10069.40878655753
8333 10069.01312894711
8334 10069.05500809042
8335 10069.55762365314
8336 10070.37711412985
8337 10071.43089564642
8338 10073.00321430924
8339 10074.98035385279
8340 10077.44607016382
8341 10080.38574161741
8342 10083.84127922995
8343 10089.39304566253
8344 10093.57181101447
8345 10097.93355263835
8346 10105.36494717234
8347 10110.41195657503
8348 10116.00758438622
8349 10124.76781111309
8350 10130.94934644333
8351 10140.29158063997
8352 10146.74526374283
8353 10156.61292392939
8354 10163.4287073667
8355 10173.72783980707
8356 10180.52722505054
8357 10191.01587147532
8358 10198.03155643582
8359 10205.124026491
8360 10215.93481311458
8361 10223.15783821027
8362 10233.75494965259
8363 10240.67552662317
8364 10250.94509094124
8365 10257.39508545083
8366 10266.96904651169
8367 10275.69324031021
8368 10283.82602394717
8369 10291.26252531879
8370 10298.12132636942
8371 10304.31775319647
8372 10309.90260220889
8373 10314.62925089306
8374 10319.0373011066
8375 10322.65594311075
8376 10325.82538480639
8377 10328.48067469954
8378 10330.85526247687
8379 10332.74492083905
8380 10334.36693548467
8381 10335.80315436686
8382 10337.07645778691
8383 10337.7985360591
8384 10339.01033173762
8385 10339.78089429985
8386 10341.1187727524
8387 10342.08024413459
8388 10343.85002669084
8389 10345.03292119525
8390 10346.49677346024
8391 10348.15670142878
8392 10350.0661721763
8393 10352.22645849844
8394 10354.87576558262
8395 10357.65699940416
8396 10360.9126051666
8397 10364.42150944742
8398 10368.30546069162
8399 10372.45936626893
8400 10376.91350461025
8401 10381.4956543387
8402 10386.53205427211
8403 10391.71028260955
8404 10397.21459810939
8405 10402.81257401955
8406 10408.74211796855
8407 10414.8204372941
8408 10421.01602251014
8409 10427.23049271528
8410 10433.6919155562
8411 10440.04004084692
8412 10446.39401187713
8413 10455.77421535257
8414 10461.89161670417
8415 10467.89038236462
8416 10473.92672359157
8417 10479.75500742635
8418 10485.64236604081
8419 10494.06515600074
8420 10499.46342945048
8421 10504.57539350766
8422 10512.16732621575
8423 10516.7193848067
8424 10523.38996400054
8425 10527.41189497664
8426 10533.42287876114
8427 10536.95453157739
8428 10542.06996490173
8429 10545.06992475303
8430 10549.59644111284
8431 10552.21694285537
8432 10556.04906872925
8433 10558.21141888831
8434 10561.5401272059
8435 10563.4189933189
8436 10566.22307470129
8437 10567.78781533127
8438 10570.16912238903
8439 10571.66209104951
8440 10573.15794764042
8441 10575.18047183071
8442 10576.53534197546
8443 10577.90879179394
8444 10579.30519906976
8445 10580.77060898007
8446 10582.52948294276
8447 10584.19357817264
8448 10586.04824494462
8449 10587.91795439152
8450 10590.07545804644
8451 10592.30308314545
8452 10594.76599850152
8453 10597.35308703879
8454 10600.26356311637
8455 10603.17037887434
8456 10606.27053542349
8457 10609.3967173915
8458 10612.81615787428
8459 10616.21033018696
8460 10619.79194434014
8461 10623.36161287764
8462 10627.23464481089
8463 10630.86801432764
8464 10634.83221915826
8465 10638.74148673107
8466 10642.74138678677
8467 10646.72182053427
8468 10650.87596837486
8469 10654.89444181302
8470 10659.11467021704
8471 10663.1829390058
8472 10667.36000009902
8473 10671.37005032434
8474 10675.39333112428
8475 10679.21628897
8476 10683.11407128181
8477 10686.74201801506
8478 10690.58971095664
8479 10694.02905860874
8480 10697.56608219145
8481 10700.88479081285
8482 10704.11997340395
8483 10707.05631205268
8484 10709.91295532216
8485 10712.6952542329
8486 10716.550441586
8487 10718.80526197758
8488 10721.07692870134
8489 10722.98531191347
8490 10724.86602166894
8491 10727.26494275365
8492 10728.77696586266
8493 10730.12365560437
8494 10731.53520280615
8495 10732.72500025241
8496 10733.97916587217
8497 10735.0211901191
8498 10736.22743953972
8499 10737.34242744045
8500 10738.4399314805
8501 10739.61017931451
8502 10740.88944022611
8503 10742.07767902168
8504 10743.43683230905
8505 10744.61711208901
8506 10746.19252289166
8507 10747.82460187903
8508 10749.47672707584
8509 10751.20266781585
8510 10753.11529743438
8511 10755.0332366891
8512 10757.15225166481
8513 10759.35047612272
8514 10761.70756272212
8515 10764.01198741689
8516 10766.58154231324
8517 10769.06834635702
8518 10771.80586432029
8519 10774.51664266293
8520 10777.48190468101
8521 10780.22907247179
8522 10783.20403105602
8523 10786.06000136707
8524 10789.05565516126
8525 10791.89112619514
8526 10794.91474905717
8527 10797.8269703454
8528 10800.75005023485
8529 10803.52667670682
8530 10806.34668564358
8531 10809.11774585361
8532 10811.79162983333
8533 10814.16864192005
8534 10816.61131296608
8535 10818.83379340771
8536 10821.03344854761
8537 10822.94930929687
8538 10824.90664016443
8539 10826.51787207831
8540 10828.23686516032
8541 10829.6116310066
8542 10831.09910911432
8543 10832.40603236661
8544 10833.60564325863
8545 10834.5693959199
8546 10835.76606997529
8547 10836.63385771314
8548 10837.60647656886
8549 10838.39871068851
8550 10839.26686806497
8551 10839.9916032242
8552 10840.77214885502
8553 10841.41762868161
8554 10842.21426525702
8555 10842.90792663166
8556 10843.77109536661
8557 10844.53372449321
8558 10845.63073012715
8559 10846.59689726809
8560 10847.74930151098
8561 10848.77391546076
8562 10850.08620355283
8563 10851.37667514711
8564 10852.77873278013
8565 10854.21260910131
8566 10855.93838684913
8567 10857.62251502882
8568 10859.49337403588
8569 10861.23703567901
8570 10863.3289420141
8571 10865.27535376181
8572 10867.46674102827
8573 10869.57589426331
8574 10871.85718517277
8575 10873.93048318074
8576 10876.13379654927
8577 10878.17858182007
8578 10880.4631421368
8579 10882.48946414769
8580 10884.57595301025
8581 10886.54905746009
8582 10888.61252909546
8583 10890.40087167398
8584 10892.27393997956
8585 10893.83118077234
8586 10895.5565634769
8587 10897.04158750478
8588 10898.51338752123
8589 10899.69927435343
8590 10900.99631489
8591 10902.01135394359
8592 10902.99482846568
8593 10903.8048242366
8594 10904.66805663329
8595 10905.16742783496
8596 10905.80273516032
8597 10906.26342025314
8598 10906.79317023333
8599 10907.1829316388
8600 10907.62560191821
8601 10907.8880570322
8602 10908.32233748347
8603 10908.59651525328
8604 10909.06100427419
8605 10909.34962203764
8606 10909.97968578658
8607 10910.4621860996
8608 10911.13124105763
8609 10911.72152987194
8610 10912.65079470438
8611 10913.4429057201
8612 10914.4228638053
8613 10915.37299233314
8614 10916.59439831554
8615 10917.74979096184
8616 10919.09927432025
8617 10920.43341465112
8618 10922.07214089587
8619 10923.59757060581
8620 10925.30858253906
8621 10926.91846359852
8622 10928.80336120107
8623 10930.49624728877
8624 10932.38339698638
8625 10934.12868783909
8626 10935.994163346
8627 10937.69763870096
8628 10939.50468072717
8629 10941.13148227069
8630 10942.86986046037
8631 10944.40899824658
8632 10946.05251510097
8633 10947.40300062408
8634 10948.8567577738
8635 10950.03309545874
8636 10951.22201267797
8637 10952.12645364624
8638 10953.15090971682
8639 10953.91562619271
8640 10954.71197735655
8641 10955.27537729659
8642 10955.88040129063
8643 10956.19976279548
8644 10956.54856218562
8645 10956.66036021074
8646 10956.82643046867
8647 10956.87914766879
8648 10956.98213912365
8649 10956.91272432308
8650 10956.90822654943
8651 10956.84077456392
8652 10956.92166548434
8653 10956.92487845906
8654 10957.07486768732
8655 10957.21850264586
8656 10957.4557958275
8657 10957.71368127344
8658 10958.17147901115
8659 10958.61620961954
8660 10959.24401073996
8661 10959.90352348469
8662 10960.76429511755
8663 10961.62597320331
8664 10962.63619370305
8665 10963.63308146544
8666 10964.87151769896
8667 10966.11837649701
8668 10967.51695852506
8669 10968.88194373628
8670 10970.42742965634
8671 10971.95799981435
8672 10973.60200313951
8673 10975.17530509067
8674 10976.852013581
8675 10978.42927622309
8676 10980.11487461665
8677 10981.62886659492
8678 10983.20228170866
8679 10984.60114831318
8680 10986.0388419136
8681 10987.24376044794
8682 10988.57664512363
8683 10989.63888058069
8684 10990.71467119498
8685 10991.52050656035
8686 10992.39086384079
8687 10992.98317190512
8688 10993.54916294364
8689 10993.90090123777
8690 10994.21453917564
8691 10994.39565346128
8692 10994.53678286763
8693 10994.49282764353
8694 10994.52092967719
8695 10994.37278009851
8696 10994.2834957077
8697 10993.9956279044
8698 10993.92751647534
8699 10993.66120494326
8700 10993.50601618671
8701 10993.35182448597
8702 10993.29970092042
8703 10993.20158055197
8704 10993.24781271439
8705 10993.25325137512
8706 10993.50442653957
8707 10993.684004017
8708 10994.07700464808
8709 10994.51351243566
8710 10995.14072259957
8711 10995.73226941132
8712 10996.55831990163
8713 10997.41809287258
8714 10998.4474178955
8715 10999.47426738862
8716 11000.60293605173
8717 11001.77491152212
8718 11003.11379094232
8719 11004.37355794961
8720 11005.70641206495
8721 11007.02128448143
8722 11008.42585966533
8723 11009.76412944338
8724 11011.12797721687
8725 11012.45702539335
8726 11013.72065143473
8727 11014.96127981879
8728 11016.07804744004
8729 11017.0851111678
8730 11018.09465348945
8731 11018.94749515513
8732 11019.7062402692
8733 11020.31602819646
8734 11020.89872122516
8735 11021.32764807951
8736 11021.71541489739
8737 11021.93513481085
8738 11022.08689410593
8739 11022.17025949854
8740 11022.1550009283
8741 11022.03563763218
8742 11021.960813527
8743 11021.73095302342
8744 11021.50989071072
8745 11021.20981422629
8746 11020.97392056035
8747 11020.74124394029
8748 11020.51153411902
8749 11020.29092599006
8750 11020.16727771929
8751 11020.05329798108
8752 11020.02708341484
8753 11019.99795708684
8754 11020.13089836635
8755 11020.32421743453
8756 11020.59430137519
8757 11020.93738493039
8758 11021.40949863659
8759 11021.96110177654
8760 11022.61476609925
8761 11023.31959340733
8762 11024.15525472382
8763 11025.08977365313
8764 11026.04249041557
8765 11027.03478507786
8766 11028.12190717223
8767 11029.19736259882
8768 11030.31544939322
8769 11031.36994642327
8770 11032.50933806387
8771 11033.59140157624
8772 11034.63461828977
8773 11035.69090660757
8774 11036.73423592953
8775 11037.68365970731
8776 11038.55980994252
8777 11039.31599175183
8778 11040.016866029
8779 11040.66752851091
8780 11041.19888294362
8781 11041.53999900416
8782 11041.92239678953
8783 11042.15793420426
8784 11042.36957255407
8785 11042.41228776419
8786 11042.49531076299
8787 11042.45935735123
8788 11042.35405233628
8789 11042.14728090008
8790 11042.00442991632
8791 11041.84695650743
8792 11041.62094587489
8793 11041.40184726993
8794 11041.21507399148
8795 11041.05335358189
8796 11040.87047144569
8797 11040.80188942439
8798 11040.76722711753
8799 11040.81550690107
8800 11040.88109066911
8801 11040.96952200051
8802 11041.25802732631
8803 11041.56612030171
8804 11041.89973443777
8805 11042.32317767093
8806 11042.88181435975
8807 11043.46480052655
8808 11044.11332944908
8809 11044.83022985336
8810 11045.56589573452
8811 11046.38899873165
8812 11047.21055480282
8813 11048.05937448885
8814 11048.92364606267
8815 11049.77746071754
8816 11050.65209710664
8817 11051.50794428714
8818 11052.30509822917
8819 11053.11838783877
8820 11053.84400047837
8821 11054.53296180363
8822 11055.18880010492
8823 11055.79105128085
8824 11056.24523325242
8825 11056.66575820186
8826 11057.04632617895
8827 11057.45138965972
8828 11057.64108918811
8829 11057.81584198686
8830 11058.00579985604
8831 11058.14628949601
8832 11058.14554165775
8833 11058.1457975784
8834 11058.12274403581
8835 11058.10143239906
8836 11058.01691617973
8837 11057.92656405204
8838 11057.81878848851
8839 11057.7548017065
8840 11057.64039711474
8841 11057.55134205975
8842 11057.51116261127
8843 11057.49636049546
8844 11057.5131937943
8845 11057.57410046034
8846 11057.66847566938
8847 11057.8322397864
8848 11058.00897434991
8849 11058.24555699379
8850 11058.54569199611
8851 11058.95904753588
8852 11059.31765797962
8853 11059.77899791274
8854 11060.28530615766
8855 11060.79599378765
8856 11061.31579591706
8857 11061.93793548476
8858 11062.55341224072
8859 11063.20579117795
8860 11063.77898289494
8861 11064.40081800949
8862 11065.04940197254
8863 11065.71582920879
8864 11066.2920218321
8865 11066.84410995051
8866 11067.34318421589
8867 11067.81925033054
8868 11068.20982679093
8869 11068.64712300257
8870 11068.98672869955
8871 11069.3308246667
8872 11069.54210892797
8873 11069.74515917026
8874 11069.94105931767
8875 11070.10720016118
8876 11070.14080792971
8877 11070.17602295035
8878 11070.19492296262
8879 11070.24765527071
8880 11070.19424821454
8881 11070.20271819505
8882 11070.16964918852
8883 11070.17856195379
8884 11070.0701992371
8885 11070.06047980008
8886 11070.04229020613
8887 11070.09334736878
8888 11070.03191806922
8889 11070.10507809182
8890 11070.1827172674
8891 11070.32923759754
8892 11070.44873244314
8893 11070.62699264156
8894 11070.83127876548
8895 11071.08434560609
8896 11071.29644162625
8897 11071.63703163626
8898 11071.93081584725
8899 11072.35833201516
8900 11072.68480983145
8901 11073.10741603698
8902 11073.48179967413
8903 11073.9580753119
8904 11074.3669965333
8905 11074.86035209972
8906 11075.26095542803
8907 11075.74231626465
8908 11076.12074634686
8909 11076.53083181815
8910 11076.89776955771
8911 11077.33605820569
8912 11077.61337982292
8913 11077.93495513831
8914 11078.19576426021
8915 11078.49296940198
8916 11078.65693394537
8917 11078.87646394371
8918 11078.99073552973
8919 11079.19619448404
8920 11079.23656541491
8921 11079.32027721938
8922 11079.33889590335
8923 11079.4412356389
8924 11079.40576614441
8925 11079.42426271631
8926 11079.4257719449
8927 11079.49920586475
8928 11079.44278345814
8929 11079.4724694924
8930 11079.45225167254
8931 11079.51186622292
8932 11079.47801403663
8933 11079.54952810916
8934 11079.65559371485
8935 11079.840492968
8936 11079.89674730624
8937 11080.03277079104
8938 11080.14944729525
8939 11080.35410137054
8940 11080.48932270943
8941 11080.73195968229
8942 11080.9560734347
8943 11081.27989146454
8944 11081.48027310839
8945 11081.75674088335
8946 11082.03156720618
8947 11082.39636286553
8948 11082.62690393227
8949 11082.91605388843
8950 11083.21737898033
8951 11083.5204034964
8952 11083.7502189736
8953 11084.06070847808
8954 11084.28872700861
8955 11084.58674957579
8956 11084.72011551963
8957 11084.93793133226
8958 11085.15462194897
8959 11085.36425907541
8960 11085.4380933598
8961 11085.56914056857
8962 11085.68177592074
8963 11085.77408633876
8964 11085.80955827014
8965 11085.89041235611
8966 11085.95286406707
8967 11086.02534448861
8968 11085.99592365101
8969 11086.01917283872
8970 11086.04577161386
8971 11086.11622751242
8972 11086.10272663005
8973 11086.13775131009
8974 11086.16853681105
8975 11086.2362221037
8976 11086.25893625686
8977 11086.32183332338
8978 11086.36794003058
8979 11086.48809112976
8980 11086.53244160925
8981 11086.61325555547
8982 11086.75441100485
8983 11086.92268502169
8984 11087.01187669458
8985 11087.16068588823
8986 11087.31473461385
8987 11087.50391147246
8988 11087.66633237344
8989 11087.87443786768
8990 11088.09258608096
8991 11088.32241479356
8992 11088.47052976167
8993 11088.61641049795
8994 11088.83681183512
8995 11089.07565343407
8996 11089.21747360203
8997 11089.37808037035
8998 11089.56519606865
8999 11089.74854948222
9000 11089.86493051177
9001 11090.02635500139
9002 11090.14369583821
9003 11090.26664611614
9004 11090.33668371659
9005 11090.44492439735
9006 11090.53012683343
9007 11090.65172291184
9008 11090.67567430306
9009 11090.7102542459
9010 11090.74759930633
9011 11090.80247653401
9012 11090.81994121366
9013 11090.87528526083
9014 11090.9291258894
9015 11090.99287937255
9016 11090.98913565081
9017 11091.00960849051
9018 11091.03706946226
9019 11091.12395557294
9020 11091.16851680013
9021 11091.21146039152
9022 11091.24607693941
9023 11091.35177453393
9024 11091.42651960387
9025 11091.52268389348
9026 11091.615989353
9027 11091.67196571426
9028 11091.77999148923
9029 11091.86988050866
9030 11092.01180296474
9031 11092.16308343982
9032 11092.27277348113
9033 11092.36635524434
9034 11092.50552266183
9035 11092.58303659167
9036 11092.71689588547
9037 11092.80523927433
9038 11092.98304036301
9039 11093.07513726062
9040 11093.19482841923
9041 11093.2752189934
9042 11093.43018581574
9043 11093.56255553181
9044 11093.6524226596
9045 11093.70226962863
9046 11093.80826312131
9047 11093.88896623181
9048 11093.93072709793
9049 11094.01309370377
9050 11094.0659820607
9051 11094.08832460905
9052 11094.15832710335
9053 11094.17342483433
9054 11094.24852708081
9055 11094.33455333179
9056 11094.36088819968
9057 11094.36180263903
9058 11094.39909158005
9059 11094.41699169374
9060 11094.46750337941
9061 11094.51956483672
9062 11094.54614886098
9063 11094.6033588534
9064 11094.63185608208
9065 11094.69184616758
9066 11094.7415946513
9067 11094.82411628902
9068 11094.86402961526
9069 11094.92167490529
9070 11095.0142792564
9071 11095.10817308228
9072 11095.15290431595
9073 11095.28180162146
9074 11095.37304983618
9075 11095.44336294609
9076 11095.51808559758
9077 11095.59266730599
9078 11095.70690486251
9079 11095.83669840452
9080 11095.89995359085
9081 11095.97682787207
9082 11096.06290908989
9083 11096.13533191994
9084 11096.2392840542
9085 11096.31249385824
9086 11096.39235437787
9087 11096.48388449553
9088 11096.5041076744
9089 11096.54602566631
9090 11096.6187105084
9091 11096.67068133118
9092 11096.69824142141
9093 11096.70433130396
9094 11096.71425040163
9095 11096.75492806971
9096 11096.76930988708
9097 11096.81274872072
9098 11096.84966212059
9099 11096.87906451624
9100 11096.90123204243
9101 11096.90683381158
9102 11096.94156137404
9103 11097.03159859346
9104 11097.0423037507
9105 11097.05702071906
9106 11097.10172726188
9107 11097.13741522545
9108 11097.16702648502
9109 11097.22736562157
9110 11097.25871357993
9111 11097.35832878921
9112 11097.36037213534
9113 11097.42917943085
9114 11097.49793223421
9115 11097.58924613109
9116 11097.63295020289
9117 11097.68397612754
9118 11097.72540898285
9119 11097.81507762438
9120 11097.87635125625
9121 11097.95701912521
9122 11098.01308562649
9123 11098.07883239409
9124 11098.11835409708
9125 11098.15915235685
9126 11098.21450211145
9127 11098.32938263604
9128 11098.35489227473
9129 11098.37629719642
9130 11098.42208965718
9131 11098.4639916458
9132 11098.49774091553
9133 11098.53137997517
9134 11098.57615201824
9135 11098.60655561082
9136 11098.6226916102
9137 11098.63275097066
9138 11098.67537060242
9139 11098.73284609233
9140 11098.75148227568
9141 11098.74791630466
9142 11098.76688496709
9143 11098.81499945064
9144 11098.84010194747
9145 11098.8849447118
9146 11098.91098365579
9147 11098.94355182325
9148 11098.96158027007
9149 11098.99445162225
9150 11099.04683552724
9151 11099.13327535192
9152 11099.15921542992
9153 11099.16483566949
9154 11099.22670351339
9155 11099.22875282527
9156 11099.26600555089
9157 11099.33793003742
9158 11099.37297895564
9159 11099.4608017549
9160 11099.49130646659
9161 11099.50688556546
9162 11099.57668309484
9163 11099.65315624846
9164 11099.69992738403
9165 11099.72024010763
9166 11099.75611493883
9167 11099.81294791057
9168 11099.8343955656
9169 11099.89738795794
9170 11099.92562895984
9171 11099.95037284936
9172 11099.98198382752
9173 11099.97929452654
9174 11100.02237945921
9175 11100.07866347567
9176 11100.08837953919
9177 11100.08318616121
9178 11100.07809064532
9179 11100.08950496912
9180 11100.11625503828
9181 11100.14113088604
9182 11100.14553443153
9183 11100.18906643487
9184 11100.18434287244
9185 11100.19840780174
9186 11100.21594697633
9187 11100.27609580702
9188 11100.28446171167
9189 11100.259425887
9190 11100.29826242116
9191 11100.32984535131
9192 11100.34707357437
9193 11100.38959210245
9194 11100.41844212675
9195 11100.45369785458
9196 11100.45728552643
9197 11100.45665848372
9198 11100.48635201533
9199 11100.568788558
9200 11100.59357604933
9201 11100.58310082843
9202 11100.62363974644
9203 11100.63949040261
9204 11100.66326737415
9205 11100.6948432883
9206 11100.74903783863
9207 11100.79823132071
9208 11100.79451195826
9209 11100.82918735591
9210 11100.85901989307
9211 11100.8974238639
9212 11100.92213126091
9213 11100.91278592885
9214 11100.94365448189
9215 11100.96731512372
9216 11100.9723480845
9217 11101.02265085683
9218 11101.0329093904
9219 11101.03912145841
9220 11101.01343166432
9221 11101.00966342853
9222 11101.01319227592
9223 11101.06795964696
9224 11101.08762392628
9225 11101.06298634979
9226 11101.0756019683
9227 11101.07415067617
9228 11101.08608698661
9229 11101.08928501692
9230 11101.1244529942
9231 11101.15342503776
9232 11101.17174538912
9233 11101.17094336659
9234 11101.21451746766
9235 11101.26510912076
9236 11101.29894310311
9237 11101.27594661571
9238 11101.32446701381
9239 11101.33239057646
9240 11101.37808297101
9241 11101.40200622157
9242 11101.44948465509
9243 11101.46594374455
9244 11101.49647641795
9245 11101.48644359893
9246 11101.52506793204
9247 11101.60079426326
9248 11101.63413497363
9249 11101.58123908796
9250 11101.63716226366
9251 11101.65028475281
9252 11101.67126882872
9253 11101.69206028308
9254 11101.73594982313
9255 11101.76648029223
9256 11101.76835191502
9257 11101.73814970063
9258 11101.74672915731
9259 11101.79092088037
9260 11101.79557006605
9261 11101.77699954578
9262 11101.7865645152
9263 11101.82467840384
9264 11101.85224477093
9265 11101.85812484818
9266 11101.88149912005
9267 11101.88071520913
9268 11101.87267178782
9269 11101.81955526658
9270 11101.8706597468
9271 11101.9054870782
9272 11101.91513783195
9273 11101.88299903852
9274 11101.92110582762
9275 11101.94483865257
9276 11101.93119198689
9277 11101.92515458578
9278 11101.9675489871
9279 11101.98334644692
9280 11101.9934062541
9281 11101.95838505063
9282 11102.04066239638
9283 11102.08670543516
9284 11102.11833307168
9285 11102.08200631883
9286 11102.12375962625
9287 11102.14907700403
9288 11102.17304940036
9289 11102.19311952147
9290 11102.22577921644
9291 11102.25240134322
9292 11102.27319553171
9293 11102.26344806749
9294 11102.27552096588
9295 11102.37093167554
9296 11102.38958458827
9297 11102.33520592511
9298 11102.36157600969
9299 11102.40265486565
9300 11102.37916639551
9301 11102.40028361177
9302 11102.40421117617
9303 11102.41872936918
9304 11102.41145929358
9305 11102.39284347689
9306 11102.41091664392
9307 11102.45866405914
9308 11102.43080443849
9309 11102.42219274343
9310 11102.44529258422
9311 11102.44531966901
9312 11102.43506510678
9313 11102.45789158685
9314 11102.47392110063
9315 11102.48226551799
9316 11102.4548033923
9317 11102.45365198088
9318 11102.4500156965
9319 11102.52733756623
9320 11102.53292015199
9321 11102.502158736
9322 11102.52233387859
9323 11102.55559680653
9324 11102.5534290573
9325 11102.58145794323
9326 11102.58796135163
9327 11102.60283938995
9328 11102.58530478919
9329 11102.5771595604
9330 11102.60581968797
9331 11102.65095880544
9332 11102.6386071388
9333 11102.64053381014
9334 11102.64218582717
9335 11102.66705326361
9336 11102.69289480202
9337 11102.68365661161
9338 11102.70993768428
9339 11102.72327434331
9340 11102.72861765897
9341 11102.70077453416
9342 11102.72106604334
9343 11102.79116962676
9344 11102.81581426409
9345 11102.770689817
9346 11102.79518886668
9347 11102.80167044122
9348 11102.81749619779
9349 11102.81479275065
9350 11102.85289877756
9351 11102.8316292516
9352 11102.85505736977
9353 11102.78075385437
9354 11102.81240828717
9355 11102.83737325827
9356 11102.85397772126
9357 11102.80971304455
9358 11102.82038076423
9359 11102.8299220392
9360 11102.8763727978
9361 11102.87294867329
9362 11102.89196266169
9363 11102.90273149407
9364 11102.91094049809
9365 11102.88026921987
9366 11102.90563329756
9367 11102.93534208957
9368 11102.97316958117
9369 11102.91521552835
9370 11102.92262235874
9371 11102.94398991194
9372 11102.96575503083
9373 11102.9389819752
9374 11102.98854763361
9375 11102.99073457214
9376 11102.99860705622
9377 11102.97162296899
9378 11102.99653676876
9379 11103.0374583997
9380 11103.05348067867
9381 11103.03181112515
9382 11103.04217704255
9383 11103.05772221991
9384 11103.07278159741
9385 11103.04420560996
9386 11103.08116866085
9387 11103.11449579527
9388 11103.08637477941
9389 11103.05505338155
9390 11103.09042429297
9391 11103.14959779586
9392 11103.16211075473
9393 11103.11592733193
9394 11103.12672369182
9395 11103.13425840143
9396 11103.13272528779
9397 11103.15991470871
9398 11103.19465702608
9399 11103.20562338636
9400 11103.20473490963
9401 11103.17332548353
9402 11103.20529102161
9403 11103.24273414896
9404 11103.25686210524
9405 11103.23626040113
9406 11103.25305048065
9407 11103.26575405294
9408 11103.29335166535
9409 11103.2863859629
9410 11103.308758822
9411 11103.32509293137
9412 11103.33265971462
9413 11103.33449153539
9414 11103.35383202106
9415 11103.41619509112
9416 11103.43580449611
9417 11103.40295094061
9418 11103.40041631807
9419 11103.41813875345
9420 11103.41118481526
9421 11103.44650299648
9422 11103.47810220596
9423 11103.49684915664
9424 11103.49184899107
9425 11103.46683810118
9426 11103.48156787994
9427 11103.5313669871
9428 11103.5240425323
9429 11103.48596740788
9430 11103.504443974
9431 11103.51696577538
9432 11103.51730055081
9433 11103.50671213454
9434 11103.53581991671
9435 11103.53052652105
9436 11103.52195926814
9437 11103.50777569805
9438 11103.52706137778
9439 11103.58293420261
9440 11103.58417333275
9441 11103.5531921804
9442 11103.53761714877
9443 11103.54387749854
9444 11103.53384333422
9445 11103.56025337636
9446 11103.56235157878
9447 11103.56867977997
9448 11103.5709722123
9449 11103.54063825016
9450 11103.559706333
9451 11103.57102164717
9452 11103.6114637162
9453 11103.53086722167
9454 11103.578289585
9455 11103.53145506503
9456 11103.57509390135
9457 11103.51479881106
9458 11103.50925757166
9459 11103.50167353403
9460 11103.50911042631
9461 11103.4836486423
9462 11103.47908163691
9463 11103.52955809166
9464 11103.54731419552
9465 11103.47851166461
9466 11103.48496596668
9467 11103.49342236217
9468 11103.51048992294
9469 11103.50854647896
9470 11103.53330034543
9471 11103.54849138493
9472 11103.54796712842
9473 11103.53057441082
9474 11103.53007640549
9475 11103.55564362629
9476 11103.57135181216
9477 11103.4914374429
9478 11103.49743854221
9479 11103.50752236945
9480 11103.49804188882
9481 11103.46791460233
9482 11103.49385140089
9483 11103.46062695498
9484 11103.4687151621
9485 11103.41386151278
9486 11103.45842503396
9487 11103.45383639267
9488 11103.45660675514
9489 11103.44000062411
9490 11103.45720668175
9491 11103.39679750757
9492 11103.45305193103
9493 11103.41125271399
9494 11103.44580489042
9495 11103.42801347194
9496 11103.41139270691
9497 11103.37804686219
9498 11103.42245566175
9499 11103.43187993779
9500 11103.45189137876
9501 11103.40345674779
9502 11103.4045183528
9503 11103.37540892337
9504 11103.38582560153
9505 11103.37253919656
9506 11103.39377393216
9507 11103.37177029985
9508 11103.35133284638
9509 11103.30532939658
9510 11103.3421411441
9511 11103.38567082863
9512 11103.33755594009
9513 11103.31747419774
9514 11103.32948408196
9515 11103.3027048872
9516 11103.31310197994
9517 11103.30039966761
9518 11103.33777048511
9519 11103.31592605192
9520 11103.31994012105
9521 11103.2728512918
9522 11103.28842062377
9523 11103.32028016424
9524 11103.34544506114
9525 11103.28477242617
9526 11103.31787750102
9527 11103.29311212552
9528 11103.29049987453
9529 11103.28013053413
9530 11103.30316860299
9531 11103.25351503072
9532 11103.27502655047
9533 11103.22602129867
9534 11103.23939845392
9535 11103.26224442134
9536 11103.25752216393
9537 11103.25259360629
9538 11103.24530683518
9539 11103.21163867065
9540 11103.22783461302
9541 11103.2336491858
9542 11103.23273984049
9543 11103.22199948339
9544 11103.20633109541
9545 11103.20781198368
9546 11103.21035113065
9547 11103.23935668458
9548 11103.24889306546
9549 11103.2380060804
9550 11103.24281273091
9551 11103.23431684777
9552 11103.23531629942
9553 11103.23464129861
9554 11103.25252836007
9555 11103.21561919951
9556 11103.23482429308
9557 11103.19653901088
9558 11103.23218686124
9559 11103.25365791664
9560 11103.26047830876
9561 11103.23206525528
9562 11103.25526419951
9563 11103.21789304312
9564 11103.25718969759
9565 11103.23634989764
9566 11103.27269705696
9567 11103.25430815505
9568 11103.25959596856
9569 11103.20264081647
9570 11103.24944895998
9571 11103.23391581456
9572 11103.24131637364
9573 11103.19945896193
9574 11103.20616381057
9575 11103.20355620766
9576 11103.20136590963
9577 11103.23073750863
9578 11103.24242729898
9579 11103.19299708447
9580 11103.19434248423
9581 11103.14256921247
9582 11103.15456360091
9583 11103.19727527889
9584 11103.18938479604
9585 11103.15978568432
9586 11103.1766896927
9587 11103.1499737108
9588 11103.15644817822
9589 11103.15494351342
9590 11103.14776347573
9591 11103.16374823582
9592 11103.15667531837
9593 11103.13773402347
9594 11103.17624249449
9595 11103.16513418154
9596 11103.19186693522
9597 11103.16513601376
9598 11103.1791563015
9599 11103.17193706611
9600 11103.20822389435
9601 11103.20816868627
9602 11103.25423327825
9603 11103.22174106347
9604 11103.23644381377
9605 11103.19456063256
9606 11103.22548193663
9607 11103.23806760737
9608 11103.28580156847
9609 11103.22095325535
9610 11103.24749120652
9611 11103.18608160112
9612 11103.23537069429
9613 11103.22389091001
9614 11103.22148861702
9615 11103.20959731891
9616 11103.2125927797
9617 11103.16021701593
9618 11103.21007146981
9619 11103.19233785109
9620 11103.19827004093
9621 11103.14902976865
9622 11103.15174751948
9623 11103.14298253253
9624 11103.15351579757
9625 11103.13417337054
9626 11103.17453178161
9627 11103.15356907042
9628 11103.16324560605
9629 11103.15011665089
9630 11103.16064026787
9631 11103.19364778572
9632 11103.19661873716
9633 11103.17467813656
9634 11103.18947597255
9635 11103.15751308206
9636 11103.17195561152
9637 11103.18960902158
9638 11103.17739152758
9639 11103.19129845505
9640 11103.17483397856
9641 11103.15218002431
9642 11103.17788957502
9643 11103.19232080177
9644 11103.20935269797
9645 11103.17126095375
9646 11103.1757168473
9647 11103.17311765901
9648 11103.18571463661
9649 11103.17096130842
9650 11103.20479014187
9651 11103.16915451641
9652 11103.17246898274
9653 11103.14330823504
9654 11103.18146674725
9655 11103.19395261629
9656 11103.23003344568
9657 11103.19493105991
9658 11103.23045689643
9659 11103.18236362551
9660 11103.21999181809
9661 11103.16819024351
9662 11103.20553077927
9663 11103.19360549468
9664 11103.20045292291
9665 11103.15279713824
9666 11103.19387848003
9667 11103.19061622629
9668 11103.22518809852
9669 11103.15037081354
9670 11103.14892642844
9671 11103.13269741564
9672 11103.1692960369
9673 11103.1373294796
9674 11103.17758875551
9675 11103.153033454
9676 11103.17851358789
9677 11103.15888832641
9678 11103.17811159106
9679 11103.16714250464
9680 11103.20845639275
9681 11103.14968693831
9682 11103.19563024737
9683 11103.1465088787
9684 11103.18426156216
9685 11103.163659137
9686 11103.20385195122
9687 11103.21635577294
9688 11103.21638347078
9689 11103.16630013303
9690 11103.23341741034
9691 11103.23150174996
9692 11103.25504817636
9693 11103.20882330585
9694 11103.21941823543
9695 11103.21257706985
9696 11103.24062599348
9697 11103.22420848704
9698 11103.2908345171
9699 11103.23450397679
9700 11103.25072715188
9701 11103.21730244573
9702 11103.22394326493
9703 11103.25680708226
9704 11103.25812250286
9705 11103.19863501694
9706 11103.23034607124
9707 11103.17417187758
9708 11103.21170282181
9709 11103.20738200378
9710 11103.21443028861
9711 11103.20600953295
9712 11103.21492639447
9713 11103.16798869578
9714 11103.20481822751
9715 11103.18939807315
9716 11103.20766989197
9717 11103.17788486686
9718 11103.17825192297
9719 11103.1924553034
9720 11103.17234657959
9721 11103.16911665845
9722 11103.20210357465
9723 11103.18815987257
9724 11103.19247579082
9725 11103.15365477663
9726 11103.15989201287
9727 11103.20826519507
9728 11103.22519636483
9729 11103.19262704114
9730 11103.19420962575
9731 11103.16329687813
9732 11103.19529174402
9733 11103.17367638462
9734 11103.18271181007
9735 11103.1841111103
9736 11103.16201081465
9737 11103.11153979596
9738 11103.14344972825
9739 11103.14922038756
9740 11103.16486435977
9741 11103.12706367784
9742 11103.10710783541
9743 11103.1020315558
9744 11103.12422316702
9745 11103.1205423878
9746 11103.13509759075
9747 11103.11191776434
9748 11103.13950859467
9749 11103.12206684089
9750 11103.13893043723
9751 11103.13651564414
9752 11103.16378018058
9753 11103.13692852976
9754 11103.14495626209
9755 11103.11106867302
9756 11103.14742755325
9757 11103.15311957978
9758 11103.14850553666
9759 11103.15954370873
9760 11103.1613634786
9761 11103.1324613797
9762 11103.16549479772
9763 11103.19053962623
9764 11103.21674075657
9765 11103.17946393578
9766 11103.18572823352
9767 11103.17730697152
9768 11103.18217103921
9769 11103.20411703632
9770 11103.23873057969
9771 11103.20661284815
9772 11103.21058525699
9773 11103.19007464834
9774 11103.20713511195
9775 11103.20971675868
9776 11103.24779627036
9777 11103.19412052333
9778 11103.23402887932
9779 11103.1873030633
9780 11103.23218540733
9781 11103.20432979602
9782 11103.21012959533
9783 11103.2222419664
9784 11103.22239702451
9785 11103.19283359018
9786 11103.22794755987
9787 11103.21856529732
9788 11103.23366230101
9789 11103.20817241547
9790 11103.19451102372
9791 11103.20659745799
9792 11103.208215877
9793 11103.2258588438
9794 11103.22780875372
9795 11103.22148506528
9796 11103.23539134078
9797 11103.17528674165
9798 11103.19913660442
9799 11103.20794021009
9800 11103.21702439411
9801 11103.17784619943
9802 11103.1840750305
9803 11103.14527672424
9804 11103.15996381387
9805 11103.11687148568
9806 11103.12403874672
9807 11103.13735930638
9808 11103.14213565304
9809 11103.09610025134
9810 11103.1239453368
9811 11103.11075826751
9812 11103.14140797144
9813 11103.09397979632
9814 11103.09652621088
9815 11103.1102129328
9816 11103.13706832398
9817 11103.16512776089
9818 11103.15898145317
9819 11103.14867181257
9820 11103.17448200159
9821 11103.13650937952
9822 11103.1377098613
9823 11103.1757120426
9824 11103.20211966731
9825 11103.17275939007
9826 11103.16083054192
9827 11103.13790031073
9828 11103.16445825923
9829 11103.17246520843
9830 11103.1702940589
9831 11103.17577697565
9832 11103.19570724039
9833 11103.1610779235
9834 11103.1971995662
9835 11103.2018789798
9836 11103.21935180951
9837 11103.19483525106
9838 11103.1945251247
9839 11103.20978331937
9840 11103.20221991788
9841 11103.19822489424
9842 11103.22929376396
9843 11103.22070911175
9844 11103.21388940936
9845 11103.20111926177
9846 11103.21512940635
9847 11103.26617211051
9848 11103.26466404525
9849 11103.22052305891
9850 11103.24577263214
9851 11103.20976822463
9852 11103.25798616677
9853 11103.20866885005
9854 11103.22779919988
9855 11103.25399582717
9856 11103.22825673922
9857 11103.2135961926
9858 11103.22920205491
9859 11103.25511845075
9860 11103.23123997454
9861 11103.20708804418
9862 11103.19513719094
9863 11103.19723344729
9864 11103.19981828982
9865 11103.2283129037
9866 11103.23711353431
9867 11103.21663732927
9868 11103.22865486792
9869 11103.18642387816
9870 11103.20727616145
9871 11103.24180187124
9872 11103.24583449373
9873 11103.19837477097
9874 11103.21113086426
9875 11103.20342968478
9876 11103.17313152975
9877 11103.19698857873
9878 11103.20403683271
9879 11103.22285469169
9880 11103.20229931116
9881 11103.18056933192
9882 11103.19343333054
9883 11103.21617257178
9884 11103.20685196239
9885 11103.22033412039
9886 11103.17839918706
9887 11103.17373045253
9888 11103.18205844573
9889 11103.19475074916
9890 11103.18761463697
9891 11103.17103360368
9892 11103.17377075288
9893 11103.14970738684
9894 11103.16029450378
9895 11103.19845161656
9896 11103.21798401925
9897 11103.20791860925
9898 11103.22129767727
9899 11103.22217214845
9900 11103.22699653478
9901 11103.22647595554
9902 11103.22400261574
9903 11103.2140709522
9904 11103.21949716961
9905 11103.17573747258
9906 11103.25177634156
9907 11103.24814516835
9908 11103.23393099234
9909 11103.22715218759
9910 11103.22001631175
9911 11103.21933486333
9912 11103.23320411385
9913 11103.23415880563
9914 11103.25860124195
9915 11103.25221563856
9916 11103.23627479069
9917 11103.22459800253
9918 11103.22398990266
9919 11103.28190203783
9920 11103.28621647804
9921 11103.27569541658
9922 11103.30035125356
9923 11103.27982512769
9924 11103.27572703723
9925 11103.28597043079
9926 11103.30119502233
9927 11103.3010277497
9928 11103.2862316996
9929 11103.27668562756
9930 11103.31593610317
9931 11103.33765975724
9932 11103.34216991858
9933 11103.31504592356
9934 11103.33732263609
9935 11103.32917693323
9936 11103.33975434626
9937 11103.31552820122
9938 11103.34808981701
9939 11103.32558593519
9940 11103.30937946567
9941 11103.27349519615
9942 11103.30104712289
9943 11103.33951342368
9944 11103.34379925824
9945 11103.31987011288
9946 11103.34452924424
9947 11103.3059970195
9948 11103.31307635734
9949 11103.28882095604
9950 11103.31502413821
9951 11103.27068406218
9952 11103.28917306346
9953 11103.21595092399
9954 11103.23252519706
9955 11103.24983954595
9956 11103.27049406358
9957 11103.21340231875
9958 11103.2266860432
9959 11103.19170518004
9960 11103.23300291682
9961 11103.20164632194
9962 11103.22834300368
9963 11103.22255200585
9964 11103.22879355586
9965 11103.19471840513
9966 11103.22720928212
9967 11103.2705549027
9968 11103.2894682344
9969 11103.24332692965
9970 11103.2642397754
9971 11103.2505503003
9972 11103.22530548805
9973 11103.24845569294
9974 11103.25933332823
9975 11103.26463036114
9976 11103.26061104447
9977 11103.24002725056
9978 11103.25993649554
9979 11103.27723316718
9980 11103.27923498194
9981 11103.24206000489
9982 11103.24459593262
9983 11103.21787664537
9984 11103.23152580568
9985 11103.24953415909
9986 11103.26270846848
9987 11103.27580923826
9988 11103.25082796877
9989 11103.24079805343
9990 11103.27293859705
9991 11103.29690062608
9992 11103.28796163643
9993 11103.27315856119
9994 11103.27047618392
9995 11103.26116967077
9996 11103.27190686848
9997 11103.29815714458
9998 11103.29479069091
9999 11103.28842226917
10000 11103.28679891781
10001 11103.28348268277
10002 11103.27567981762
10003 11103.28564986183
10004 11103.29442104103
10005 11103.27244862299
10006 11103.2808993917
10007 11103.27224846417
10008 11103.27052961123
10009 11103.29771571922
10010 11103.28739924691
10011 11103.2788015872
10012 11103.2698290953
10013 11103.23053200764
10014 11103.26788807506
10015 11103.30389551837
10016 11103.28461724699
10017 11103.27240878375
10018 11103.27621070721
10019 11103.2697060514
10020 11103.23336137928
10021 11103.2502854444
10022 11103.27055163386
10023 11103.29213045798
10024 11103.25001006075
10025 11103.26529500379
10026 11103.24475644527
10027 11103.27561191741
10028 11103.22671336069
10029 11103.21735846407
10030 11103.22709959975
10031 11103.2317894749
10032 11103.22678411302
10033 11103.25564986983
10034 11103.25894188531
10035 11103.23926605699
10036 11103.22387075283
10037 11103.19707644608
10038 11103.22591536571
10039 11103.24292053461
10040 11103.22719543385
10041 11103.21697707105
10042 11103.22736352673
10043 11103.21267513546
10044 11103.22249301312
10045 11103.25002556558
10046 11103.28001481954
10047 11103.26569126309
10048 11103.25143966991
10049 11103.24181315784
10050 11103.25088434424
10051 11103.26585142557
10052 11103.25723114863
10053 11103.25848766906
10054 11103.26704178568
10055 11103.28128575507
10056 11103.27647180585
10057 11103.27220734482
10058 11103.28719867265
10059 11103.28447126349
10060 11103.26545826776
10061 11103.22369781852
10062 11103.2417571806
10063 11103.30777847765
10064 11103.27314815453
10065 11103.27433478951
10066 11103.27790241859
10067 11103.25418006193
10068 11103.26680154094
10069 11103.27576290862
10070 11103.29511746085
10071 11103.28920824759
10072 11103.30266738532
10073 11103.26714538483
10074 11103.27715645148
10075 11103.29083613382
10076 11103.28639039336
10077 11103.27241293173
10078 11103.30024199888
10079 11103.29609334943
10080 11103.28963863585
10081 11103.30316814033
10082 11103.32381055515
10083 11103.3112580921
10084 11103.28143560003
10085 11103.25864624445
10086 11103.29574300923
10087 11103.35780579906
10088 11103.319555356
10089 11103.30692935302
10090 11103.29945442814
10091 11103.29730309735
10092 11103.28198623778
10093 11103.2851923097
10094 11103.29670274029
10095 11103.29327271207
10096 11103.29340290049
10097 11103.25154775592
10098 11103.25253412284
10099 11103.25653751382
10100 11103.25174794113
10101 11103.23910986729
10102 11103.24720071356
10103 11103.26690268728
10104 11103.25483086581
10105 11103.27034121316
10106 11103.27645966365
10107 11103.25735909283
10108 11103.25032017723
10109 11103.22829336758
10110 11103.27018354614
10111 11103.31548163785
10112 11103.28387236173
10113 11103.2963187672
10114 11103.31088352293
10115 11103.29645216154
10116 11103.27966261061
10117 11103.31002819547
10118 11103.34252862957
10119 11103.34957786459
10120 11103.31129218433
10121 11103.30490204061
10122 11103.33327331764
10123 11103.35754898923
10124 11103.36376494356
10125 11103.35395610645
10126 11103.38261018608
10127 11103.36810113605
10128 11103.37330331962
10129 11103.37761840201
10130 11103.37003346069
10131 11103.31685010962
10132 11103.34176662332
10133 11103.32027333281
10134 11103.31641947687
10135 11103.34164368729
10136 11103.33144315168
10137 11103.33168740385
10138 11103.31157846124
10139 11103.27626615128
10140 11103.30250222133
10141 11103.3013233177
10142 11103.28171966907
10143 11103.31189209145
10144 11103.29606942253
10145 11103.27950986713
10146 11103.30567388458
10147 11103.31486486084
10148 11103.31284557633
10149 11103.30228649006
10150 11103.29377643804
10151 11103.31430858584
10152 11103.2732119097
10153 11103.31236017111
10154 11103.32752715877
10155 11103.29738454335
10156 11103.30040711578
10157 11103.2790480049
10158 11103.28021250449
10159 11103.28490727192
10160 11103.30362740085
10161 11103.28206750169
10162 11103.27189277877
10163 11103.24463021076
10164 11103.25946202152
10165 11103.25781531291
10166 11103.26219050375
10167 11103.29529141739
10168 11103.29524028544
10169 11103.27237682069
10170 11103.28374872154
10171 11103.31027855996
10172 11103.32781082041
10173 11103.30635774601
10174 11103.29209827493
10175 11103.31988580309
10176 11103.31530101911
10177 11103.34887253742
10178 11103.33942334435
10179 11103.33648530588
10180 11103.3308732824
10181 11103.30021483406
10182 11103.29030915507
10183 11103.35401420954
10184 11103.32312577705
10185 11103.28781553778
10186 11103.29654275357
10187 11103.27603039534
10188 11103.28152364129
10189 11103.28396893215
10190 11103.2597574439
10191 11103.29074155903
10192 11103.3008821951
10193 11103.27627135021
10194 11103.27944083183
10195 11103.29128546751
10196 11103.31667293017
10197 11103.30425245483
10198 11103.2979386259
10199 11103.31794700606
10200 11103.31763697333
10201 11103.32707402057
10202 11103.35212040191
10203 11103.32890615405
10204 11103.3371628322
10205 11103.31133666178
10206 11103.32324751926
10207 11103.38179577844
10208 11103.38091849804
10209 11103.34580163081
10210 11103.34250539504
10211 11103.30546968522
10212 11103.32644875512
10213 11103.34734922956
10214 11103.34071808253
10215 11103.37265929591
10216 11103.35209456634
10217 11103.31576056413
10218 11103.34709354487
10219 11103.34863942428
10220 11103.35217164495
10221 11103.31278741356
10222 11103.3211792419
10223 11103.3397631931
10224 11103.33054473364
10225 11103.34281779223
10226 11103.34828776934
10227 11103.33785921302
10228 11103.32181287161
10229 11103.31470083677
10230 11103.32230084302
10231 11103.35743760841
10232 11103.36986179089
10233 11103.35028918607
10234 11103.33405938817
10235 11103.31461711021
10236 11103.31897349133
10237 11103.33059738179
10238 11103.32471950691
10239 11103.33219796387
10240 11103.33384889502
10241 11103.31077905681
10242 11103.33887931851
10243 11103.36048458234
10244 11103.37426373545
10245 11103.34387195382
10246 11103.34071206092
10247 11103.34222828178
10248 11103.35369266135
10249 11103.33999745969
10250 11103.34276512737
10251 11103.33101781505
10252 11103.32682550197
10253 11103.29743344087
10254 11103.31276239162
10255 11103.34549735612
10256 11103.36266613051
10257 11103.31921015159
10258 11103.32592600772
10259 11103.30058509453
10260 11103.3031665917
10261 11103.29583312071
10262 11103.30679471292
10263 11103.31600334906
10264 11103.29111034853
10265 11103.26984175467
10266 11103.2925665242
10267 11103.32285034986
10268 11103.29757809499
10269 11103.28550671217
10270 11103.26499620924
10271 11103.29463903082
10272 11103.28330825443
10273 11103.29832549675
10274 11103.29115350218
10275 11103.29223167003
10276 11103.29662373764
10277 11103.29021668799
10278 11103.28484847088
10279 11103.34635579842
10280 11103.33585159056
10281 11103.30527982685
10282 11103.30768823001
10283 11103.305348026
10284 11103.30500283623
10285 11103.33929293514
10286 11103.35033935194
10287 11103.3594371042
10288 11103.33856384217
10289 11103.31607746773
10290 11103.32546030991
10291 11103.31162897344
10292 11103.30893403775
10293 11103.30509935708
10294 11103.32033641131
10295 11103.3257156425
10296 11103.32284221634
10297 11103.34384585153
10298 11103.34609729541
10299 11103.33483226004
10300 11103.32086362406
10301 11103.30171485216
10302 11103.32112166554
10303 11103.35660151586
10304 11103.36583049311
10305 11103.34782790924
10306 11103.34946806198
10307 11103.34081684444
10308 11103.32985322452
10309 11103.36250469427
10310 11103.36945460055
10311 11103.36258024495
10312 11103.36084489066
10313 11103.32838245667
10314 11103.34667212447
10315 11103.34847101186
10316 11103.33541224838
10317 11103.34047336156
10318 11103.3477352932
10319 11103.35373120533
10320 11103.34376768375
10321 11103.35763801848
10322 11103.37615346277
10323 11103.37019358192
10324 11103.35107921329
10325 11103.32421165353
10326 11103.32629878059
10327 11103.36153136602
10328 11103.36256773306
10329 11103.33674176501
10330 11103.32384566139
10331 11103.32141567592
10332 11103.31080898138
10333 11103.32890560976
10334 11103.32162908573
10335 11103.3048189004
10336 11103.308979466
10337 11103.27417564265
10338 11103.25241607673
10339 11103.28963519403
10340 11103.30469576059
10341 11103.28739656636
10342 11103.28380825263
10343 11103.28543072388
10344 11103.29649535171
10345 11103.31398443051
10346 11103.30069760107
10347 11103.30077661046
10348 11103.29631197104
10349 11103.28042507925
10350 11103.31555052389
10351 11103.33929713716
10352 11103.33749613576
10353 11103.31293416124
10354 11103.31548470512
10355 11103.30370395818
10356 11103.31901316696
10357 11103.33516924747
10358 11103.36221354262
10359 11103.35257732796
10360 11103.35834126437
10361 11103.32543804819
10362 11103.32830964866
10363 11103.34523443765
10364 11103.35640050141
10365 11103.31353510825
10366 11103.33866118944
10367 11103.31630730133
10368 11103.33437680379
10369 11103.33433972559
10370 11103.35819070322
10371 11103.3450475765
10372 11103.33866407035
10373 11103.30785673079
10374 11103.34130699964
10375 11103.38480437148
10376 11103.38519995015
10377 11103.35969369346
10378 11103.36304402621
10379 11103.33140843314
10380 11103.34094406168
10381 11103.35464991336
10382 11103.35831183423
10383 11103.35611537245
10384 11103.37837289853
10385 11103.35141885317
10386 11103.35628453383
10387 11103.36067988631
10388 11103.36555960324
10389 11103.33510933909
10390 11103.35293095453
10391 11103.31886337174
10392 11103.34053908553
10393 11103.33258687155
10394 11103.32908878472
10395 11103.32947368349
10396 11103.32993864568
10397 11103.31524571693
10398 11103.34242015391
10399 11103.36946359139
10400 11103.37383247366
10401 11103.30782436826
10402 11103.31145852411
10403 11103.29725375175
10404 11103.29543399124
10405 11103.3115061063
10406 11103.31883890721
10407 11103.32153032982
10408 11103.32509506871
10409 11103.26980616076
10410 11103.28607587863
10411 11103.29646287302
10412 11103.30750541167
10413 11103.28437818776
10414 11103.2939966191
10415 11103.29429939216
10416 11103.30390502487
10417 11103.33656174378
10418 11103.31401392651
10419 11103.29234631678
10420 11103.30164046073
10421 11103.267102445
10422 11103.29252989034
10423 11103.3029318616
10424 11103.30743165323
10425 11103.29806680171
10426 11103.30037557108
10427 11103.27301929767
10428 11103.31193131386
10429 11103.31270057381
10430 11103.33989357252
10431 11103.33160397248
10432 11103.33119517537
10433 11103.29455321253
10434 11103.31133151964
10435 11103.31095351344
10436 11103.33645683511
10437 11103.29857846345
10438 11103.32830236237
10439 11103.31593361274
10440 11103.34579701444
10441 11103.33079673774
10442 11103.35074743295
10443 11103.32032156031
10444 11103.32620750847
10445 11103.28736232543
10446 11103.33731530185
10447 11103.34899286795
10448 11103.33502367416
10449 11103.32304225151
10450 11103.3223731856
10451 11103.30046708603
10452 11103.32238109716
10453 11103.33596661605
10454 11103.34456968323
10455 11103.34285322845
10456 11103.344703494
10457 11103.34092076673
10458 11103.32981656873
10459 11103.33235667109
10460 11103.34782339914
10461 11103.33535959848
10462 11103.33659512593
10463 11103.34220287893
10464 11103.34614274635
10465 11103.36807500922
10466 11103.36123407577
10467 11103.33296370872
10468 11103.32762352106
10469 11103.30492697032
10470 11103.31759063469
10471 11103.33636686932
10472 11103.3183921021
10473 11103.32549732722
10474 11103.33278335458
10475 11103.32144368701
10476 11103.32978881168
10477 11103.33968073277
10478 11103.35161866601
10479 11103.34589403363
10480 11103.32423344861
10481 11103.30486498313
10482 11103.31784329065
10483 11103.3283139266
10484 11103.32954161609
10485 11103.31702903872
10486 11103.31371997644
10487 11103.32351719563
10488 11103.309968528
10489 11103.33093285806
10490 11103.34443855446
10491 11103.31002704372
10492 11103.31901703333
10493 11103.29517732073
10494 11103.30968082959
10495 11103.3376527688
10496 11103.32163507119
10497 11103.32584408035
10498 11103.32622754155
10499 11103.30128035455
10500 11103.3395705084
10501 11103.32259169027
10502 11103.34830746806
10503 11103.34203487198
10504 11103.33975305082
10505 11103.30949239177
10506 11103.31568651473
10507 11103.32765880016
10508 11103.31772937192
10509 11103.30505557815
10510 11103.31878379379
10511 11103.32260688646
10512 11103.31240959859
10513 11103.35726366616
10514 11103.32186346332
10515 11103.30518712361
10516 11103.29804150334
10517 11103.28947559672
10518 11103.30813987936
10519 11103.33427731805
10520 11103.35540832702
10521 11103.35605416984
10522 11103.33992228852
10523 11103.31942365292
10524 11103.33057983468
10525 11103.35038324198
10526 11103.33827526288
10527 11103.35131901832
10528 11103.34933340336
10529 11103.33714011076
10530 11103.35923526517
10531 11103.33669892893
10532 11103.35779484018
10533 11103.31849763077
10534 11103.3140870783
10535 11103.29521703039
10536 11103.31499722286
10537 11103.32174016724
10538 11103.33012611293
10539 11103.30511224236
10540 11103.31591629775
10541 11103.30045899348
10542 11103.29031713842
10543 11103.30238579374
10544 11103.32199013408
10545 11103.28612281971
10546 11103.27371061961
10547 11103.25899790591
10548 11103.28912900592
10549 11103.31240481572
10550 11103.28356118628
10551 11103.30523811789
10552 11103.30959268826
10553 11103.28914908648
10554 11103.29984507943
10555 11103.3064447802
10556 11103.31288870178
10557 11103.30535311262
10558 11103.3095270504
10559 11103.30577998015
10560 11103.32295135524
10561 11103.33966690796
10562 11103.35827816952
10563 11103.33106001721
10564 11103.34447773064
10565 11103.33124123105
10566 11103.34067356017
10567 11103.38195200629
10568 11103.35117315812
10569 11103.32195956518
10570 11103.32232637127
10571 11103.27432793641
10572 11103.29442125396
10573 11103.30549178372
10574 11103.30452041857
10575 11103.31057515002
10576 11103.30262375252
10577 11103.28914197442
10578 11103.30104623901
10579 11103.29991459868
10580 11103.30969926638
10581 11103.28051231225
10582 11103.28985486017
10583 11103.28628850221
10584 11103.3003982948
10585 11103.30811157328
10586 11103.32035387091
10587 11103.30257242231
10588 11103.32303812502
10589 11103.28568099547
10590 11103.33292296407
10591 11103.33348726372
10592 11103.35669332327
10593 11103.31142384766
10594 11103.34673543294
10595 11103.30805507302
10596 11103.33022171151
10597 11103.31717829201
10598 11103.33263936081
10599 11103.31129149534
10600 11103.34156806008
10601 11103.26921439126
10602 11103.30946474932
10603 11103.30601037124
10604 11103.30903014934
10605 11103.27990842129
10606 11103.29102861554
10607 11103.29059681406
10608 11103.28792395765
10609 11103.27453287392
10610 11103.30882988712
10611 11103.28557695605
10612 11103.2518184661
10613 11103.23494055354
10614 11103.24912544247
10615 11103.27622268388
10616 11103.26968549873
10617 11103.25373386344
10618 11103.26978761673
10619 11103.2422239146
10620 11103.26067385056
10621 11103.2548151227
10622 11103.26209857711
10623 11103.28337487143
10624 11103.29064732928
10625 11103.26139147571
10626 11103.28979201489
10627 11103.31733441963
10628 11103.31962545919
10629 11103.30433470259
10630 11103.30158685873
10631 11103.30455145788
10632 11103.30684753966
10633 11103.31525777773
10634 11103.32123515379
10635 11103.29081302923
10636 11103.30924902277
10637 11103.27527903496
10638 11103.28499479732
10639 11103.32666849271
10640 11103.32924738716
10641 11103.30201576408
10642 11103.29429825263
10643 11103.26351007474
10644 11103.27579767165
10645 11103.27677252821
10646 11103.26256605489
10647 11103.28694360091
10648 11103.27128228315
10649 11103.26410814493
10650 11103.27331961035
10651 11103.27149845854
10652 11103.29434865357
10653 11103.25180375004
10654 11103.26078034858
10655 11103.27730005433
10656 11103.28263107241
10657 11103.28284287647
10658 11103.29157743823
10659 11103.27625132964
10660 11103.27806049304
10661 11103.25190605571
10662 11103.27638268351
10663 11103.29835229706
10664 11103.29510335409
10665 11103.26933777564
10666 11103.26046409974
10667 11103.25964689518
10668 11103.25368888221
10669 11103.28565586567
10670 11103.30661202101
10671 11103.28831847084
10672 11103.30437409275
10673 11103.26982972436
10674 11103.31021362987
10675 11103.30739126628
10676 11103.30319522294
10677 11103.31069434809
10678 11103.29624621494
10679 11103.28037039911
10680 11103.31152924242
10681 11103.32850663006
10682 11103.3263143877
10683 11103.29970907808
10684 11103.29585413665
10685 11103.2856138144
10686 11103.29711227273
10687 11103.31899736272
10688 11103.32850059403
10689 11103.30891430089
10690 11103.33615345727
10691 11103.32870961049
10692 11103.32674676756
10693 11103.34204189029
10694 11103.3716038437
10695 11103.36426111862
10696 11103.35022301519
10697 11103.31404066589
10698 11103.34987770501
10699 11103.37066641124
10700 11103.37684647538
10701 11103.35142787675
10702 11103.35453551056
10703 11103.35029785166
10704 11103.36066700418
10705 11103.38956743045
10706 11103.38542322561
10707 11103.34618122956
10708 11103.36146261658
10709 11103.3288851711
10710 11103.34266421265
10711 11103.37716843986
10712 11103.38695769404
10713 11103.3608186796
10714 11103.37003906425
10715 11103.34077700185
10716 11103.35065696737
10717 11103.36440588586
10718 11103.37487002637
10719 11103.34773954137
10720 11103.36221309527
10721 11103.330652035
10722 11103.34421964018
10723 11103.3579694022
10724 11103.32762367755
10725 11103.30944237894
10726 11103.32612488962
10727 11103.32423432703
10728 11103.295185806
10729 11103.30369030638
10730 11103.32263160846
10731 11103.30791661144
10732 11103.29014207274
10733 11103.25848764393
10734 11103.29040578494
10735 11103.32756374187
10736 11103.33103197658
10737 11103.29881094423
10738 11103.30861132118
10739 11103.29643900213
10740 11103.30003653304
10741 11103.29069814921
10742 11103.31734521479
10743 11103.30633421131
10744 11103.32353449441
10745 11103.2978329135
10746 11103.3291488483
10747 11103.36118434713
10748 11103.36844980779
10749 11103.35170764626
10750 11103.36564335995
10751 11103.34131847573
10752 11103.38904824624
10753 11103.36019744012
10754 11103.36155707095
10755 11103.35894757438
10756 11103.34999083745
10757 11103.34232088131
10758 11103.35001709202
10759 11103.3873421048
10760 11103.39444149371
10761 11103.36242087874
10762 11103.35812128997
10763 11103.34227483974
10764 11103.34126737209
10765 11103.34163168892
10766 11103.37211872128
10767 11103.38399424257
10768 11103.38413159625
10769 11103.34894274584
10770 11103.37963395935
10771 11103.37731849517
10772 11103.40006860673
10773 11103.3423297565
10774 11103.35622894325
10775 11103.33554742095
10776 11103.37296240022
10777 11103.37524550016
10778 11103.3727511352
10779 11103.34099256314
10780 11103.35684386276
10781 11103.32001296979
10782 11103.35885753158
10783 11103.35951920554
10784 11103.36520268988
10785 11103.32243991362
10786 11103.314152744
10787 11103.29156299351
10788 11103.31672069262
10789 11103.29417749406
10790 11103.33318969767
10791 11103.31544659847
10792 11103.32263989776
10793 11103.28078828223
10794 11103.29517928811
10795 11103.31086819161
10796 11103.30625245264
10797 11103.25853700905
10798 11103.29369066706
10799 11103.27370910718
10800 11103.29801192929
10801 11103.27246359543
10802 11103.263866712
10803 11103.2534936899
10804 11103.25989488689
10805 11103.23357764698
10806 11103.27098153335
10807 11103.3129929277
10808 11103.33810968882
10809 11103.31572107865
10810 11103.29690433708
10811 11103.28774722814
10812 11103.31102969935
10813 11103.32678404799
10814 11103.34250630409
10815 11103.32519017253
10816 11103.35264215706
10817 11103.31823567337
10818 11103.32660747944
10819 11103.33595803673
10820 11103.34561014281
10821 11103.28768947821
10822 11103.28976329046
10823 11103.30240610341
10824 11103.32456559695
10825 11103.32884598036
10826 11103.33100083894
10827 11103.31217938194
10828 11103.31444395311
10829 11103.29384584742
10830 11103.32828253351
10831 11103.35564125589
10832 11103.34765922026
10833 11103.32345886686
10834 11103.3475911078
10835 11103.32927137071
10836 11103.34638746851
10837 11103.3385861331
10838 11103.36332147725
10839 11103.35343621571
10840 11103.33960464921
10841 11103.31707928437
10842 11103.3319533093
10843 11103.35581990271
10844 11103.35733115787
10845 11103.32964613514
10846 11103.3412364546
10847 11103.34763699734
10848 11103.34339764036
10849 11103.35581026039
10850 11103.37183072621
10851 11103.34341782976
10852 11103.35272740751
10853 11103.30248863899
10854 11103.34944871923
10855 11103.35601849261
10856 11103.34892127849
10857 11103.3381682985
10858 11103.34155298552
10859 11103.3153039369
10860 11103.3355934518
10861 11103.32613874549
10862 11103.35966568065
10863 11103.35521530545
10864 11103.34716405243
10865 11103.31080430428
10866 11103.32541628086
10867 11103.34305204869
10868 11103.35106561419
10869 11103.31738100924
10870 11103.34821894352
10871 11103.34919735852
10872 11103.36100391724
10873 11103.36303165028
10874 11103.37196472029
10875 11103.35822365106
10876 11103.34150095181
10877 11103.30706401332
10878 11103.3367461899
10879 11103.36442643035
10880 11103.36821292155
10881 11103.34646759968
10882 11103.35620748819
10883 11103.34769911532
10884 11103.33227127513
10885 11103.32224424011
10886 11103.34242446036
10887 11103.33027621022
10888 11103.3061735049
10889 11103.28782233066
10890 11103.31067731441
10891 11103.31775662659
10892 11103.31790292864
10893 11103.30184899962
10894 11103.32048929924
10895 11103.32058948385
10896 11103.32057257335
10897 11103.30610626132
10898 11103.31586699101
10899 11103.29685455351
10900 11103.31054626077
10901 11103.29533362459
10902 11103.31258454301
10903 11103.35325155983
10904 11103.36447797769
10905 11103.32378213681
10906 11103.33860811484
10907 11103.33059012452
10908 11103.34931550798
10909 11103.33687490403
10910 11103.35749026325
10911 11103.36763445941
10912 11103.36312331761
10913 11103.31435334296
10914 11103.34729848199
10915 11103.34065653131
10916 11103.36094240468
10917 11103.32972993476
10918 11103.34058419128
10919 11103.3280707273
10920 11103.34287938612
10921 11103.32867331446
10922 11103.36694459361
10923 11103.31499437783
10924 11103.34011044041
10925 11103.31023538877
10926 11103.33112086884
10927 11103.3482400206
10928 11103.37758332093
10929 11103.34051331377
10930 11103.33655523359
10931 11103.29448688039
10932 11103.32639669509
10933 11103.30641542122
10934 11103.33139966563
10935 11103.3322382322
10936 11103.32031190108
10937 11103.30130811767
10938 11103.32067448241
10939 11103.34935242333
10940 11103.34586274731
10941 11103.31316233598
10942 11103.34145634988
10943 11103.32890592171
10944 11103.33116821163
10945 11103.33936587308
10946 11103.34026282007
10947 11103.34611087989
10948 11103.31024944237
10949 11103.27391494247
10950 11103.28994691987
10951 11103.32197992539
10952 11103.31406985978
10953 11103.27852990348
10954 11103.29049401626
10955 11103.27431634463
10956 11103.30136914108
10957 11103.30111003941
10958 11103.29796702617
10959 11103.31112323141
10960 11103.31201375635
10961 11103.28795180502
10962 11103.29523063701
10963 11103.29655468094
10964 11103.31359912768
10965 11103.27943235096
10966 11103.28967894508
10967 11103.28794494928
10968 11103.320335738
10969 11103.34523295111
10970 11103.36698705355
10971 11103.34162315913
10972 11103.34812935625
10973 11103.32651667719
10974 11103.32567422161
10975 11103.36835631283
10976 11103.35777024808
10977 11103.3272390488
10978 11103.34622025976
10979 11103.31266234651
10980 11103.33195897887
10981 11103.33052587674
10982 11103.31214066027
10983 11103.32538533002
10984 11103.33687786781
10985 11103.29358517404
10986 11103.33379542108
10987 11103.3273624127
10988 11103.33653075382
10989 11103.30914906508
10990 11103.32359748914
10991 11103.31907389067
10992 11103.32572123004
10993 11103.32214927672
10994 11103.35018438876
10995 11103.31852387606
10996 11103.32885913163
10997 11103.32206714493
10998 11103.3273092723
10999 11103.33124792028
11000 11103.3293115517
11001 11103.3036228169
11002 11103.3023683542
11003 11103.28757955074
11004 11103.29461617899
11005 11103.29359321207
11006 11103.3228296282
11007 11103.32215670118
11008 11103.31403157725
11009 11103.29035234426
11010 11103.30874962282
11011 11103.32620677796
11012 11103.29734987931
11013 11103.29469645303
11014 11103.31804813595
11015 11103.30563216521
11016 11103.32690655642
11017 11103.34400543239
11018 11103.33844374741
11019 11103.32202735976
11020 11103.31757055983
11021 11103.2988693205
11022 11103.30888775172
11023 11103.32967628054
11024 11103.32426609236
11025 11103.32587756512
11026 11103.32445902372
11027 11103.30366360168
11028 11103.29467050083
11029 11103.29872023178
11030 11103.32111527524
11031 11103.31764493556
11032 11103.31593483338
11033 11103.28899302497
11034 11103.29731012906
11035 11103.30517367181
11036 11103.28367883694
11037 11103.29965299225
11038 11103.30119256595
11039 11103.2874248634
11040 11103.29481747438
11041 11103.31293161712
11042 11103.322554514
11043 11103.29756276227
11044 11103.29034491075
11045 11103.28556640835
11046 11103.28564998269
11047 11103.31758947512
11048 11103.33486386792
11049 11103.33206949503
11050 11103.31913155255
11051 11103.30489549138
11052 11103.31003098589
11053 11103.3203240995
11054 11103.32852486705
11055 11103.30694917199
11056 11103.30938980678
11057 11103.26104405891
11058 11103.3075321765
11059 11103.31683233458
11060 11103.29428684848
11061 11103.29015784418
11062 11103.29606839741
11063 11103.30168725034
11064 11103.31032060806
11065 11103.31916028637
11066 11103.32758105378
11067 11103.29150872301
11068 11103.28656962678
11069 11103.27844072211
11070 11103.28969953395
11071 11103.33236565283
11072 11103.33386096081
11073 11103.30914502002
11074 11103.31942928363
11075 11103.29529102974
11076 11103.3246051294
11077 11103.31131824911
11078 11103.33013901653
11079 11103.32834607424
11080 11103.30304259759
11081 11103.26090355839
11082 11103.28045870734
11083 11103.29619228884
11084 11103.30628439021
11085 11103.2672687936
11086 11103.28629614694
11087 11103.26487699312
11088 11103.27868432895
11089 11103.25538590527
11090 11103.27213740701
11091 11103.26636631107
11092 11103.26894343092
11093 11103.23063897692
11094 11103.26567894411
11095 11103.29783128009
11096 11103.30754594579
11097 11103.28678913876
11098 11103.26235106477
11099 11103.25058600608
11100 11103.26754763972
11101 11103.25993140391
11102 11103.25909323349
11103 11103.25897065403
11104 11103.2731635743
11105 11103.26830726699
11106 11103.26310318967
11107 11103.29064659897
11108 11103.30281445329
11109 11103.28545233757
11110 11103.29507434347
11111 11103.26351631116
11112 11103.29653223209
11113 11103.31080252286
11114 11103.30692308401
11115 11103.30455500551
11116 11103.28826030311
11117 11103.28361014581
11118 11103.30110876267
11119 11103.3257358825
11120 11103.34899620243
11121 11103.33477602122
11122 11103.32619564762
11123 11103.31134196627
11124 11103.32957055384
11125 11103.35409050966
11126 11103.36249882543
11127 11103.37433140104
11128 11103.38157837775
11129 11103.34590148663
11130 11103.34171420236
11131 11103.34405237388
11132 11103.35244563945
11133 11103.31686967837
11134 11103.32021326982
11135 11103.31223815982
11136 11103.33632761325
11137 11103.34272694247
11138 11103.32239481609
11139 11103.32705691209
11140 11103.32881584255
11141 11103.2793560194
11142 11103.30373101533
11143 11103.31616395962
11144 11103.30844013946
11145 11103.28611902486
11146 11103.2716653178
11147 11103.25435809094
11148 11103.26463035892
11149 11103.29857208032
11150 11103.29748572268
11151 11103.29287946918
11152 11103.30933232585
11153 11103.2871834375
11154 11103.2810546471
11155 11103.28384850681
11156 11103.29303184503
11157 11103.25679692079
11158 11103.26227987015
11159 11103.2684401924
11160 11103.26411140419
11161 11103.27051630747
11162 11103.26804902091
11163 11103.25344791192
11164 11103.25452172686
11165 11103.20417322085
11166 11103.24316085987
11167 11103.28021647755
11168 11103.2799020764
11169 11103.2778720008
11170 11103.26447263518
11171 11103.23917451001
11172 11103.26000046719
11173 11103.27811984949
11174 11103.2809170592
11175 11103.25252803653
11176 11103.27495514408
11177 11103.24094134973
11178 11103.26821427701
11179 11103.26400988839
11180 11103.2866050791
11181 11103.25738154425
11182 11103.27540951431
11183 11103.26913352825
11184 11103.27946175031
11185 11103.25987257912
11186 11103.2951817166
11187 11103.28033329061
11188 11103.28748895242
11189 11103.24822032136
11190 11103.3043915828
11191 11103.3328195038
11192 11103.33419158727
11193 11103.33040768615
11194 11103.3389665123
11195 11103.32261095938
11196 11103.35889043414
11197 11103.33837163772
11198 11103.38857148628
11199 11103.36158121823
11200 11103.3736841267
11201 11103.32348890433
11202 11103.36453117769
11203 11103.37416385278
11204 11103.38688559972
11205 11103.35344071526
11206 11103.37562514601
11207 11103.39579451846
11208 11103.39084557068
11209 11103.38649160516
11210 11103.40046142569
11211 11103.37001203672
11212 11103.37379836339
11213 11103.33845831601
11214 11103.3694053201
11215 11103.38039339114
11216 11103.37136332927
11217 11103.36701072865
11218 11103.36650348188
11219 11103.3466953616
11220 11103.36246760124
11221 11103.35744672127
11222 11103.36907263763
11223 11103.37774525103
11224 11103.33833277378
11225 11103.31718060228
11226 11103.32712569215
11227 11103.33740254239
11228 11103.34612942292
11229 11103.31367460318
11230 11103.33211035461
11231 11103.33986286009
11232 11103.32476315082
11233 11103.3220666064
11234 11103.33534227314
11235 11103.31969801862
11236 11103.30787495441
11237 11103.29717166422
11238 11103.31507526278
11239 11103.34423716258
11240 11103.32932616154
11241 11103.32529101023
11242 11103.33280506126
11243 11103.28675594734
11244 11103.29961583668
11245 11103.32081851387
11246 11103.33040261884
11247 11103.33228999929
11248 11103.32949088137
11249 11103.31242789466
11250 11103.30554771363
11251 11103.33833392949
11252 11103.35954724068
11253 11103.32938178316
11254 11103.33167816204
11255 11103.33631355305
11256 11103.33783898463
11257 11103.36884685931
11258 11103.35074335034
11259 11103.32724357498
11260 11103.32196205345
11261 11103.30340154576
11262 11103.28312618188
11263 11103.30312706076
11264 11103.31616201735
11265 11103.30697664972
11266 11103.30751992429
11267 11103.28823919681
11268 11103.31023160021
11269 11103.31835081829
11270 11103.32707223725
11271 11103.33444413085
11272 11103.34067034414
11273 11103.29836001574
11274 11103.34130354105
11275 11103.33227423322
11276 11103.3528081882
11277 11103.33278677665
11278 11103.34879615432
11279 11103.33788381986
11280 11103.35871587301
11281 11103.36944585831
11282 11103.39083787998
11283 11103.36456613913
11284 11103.37366647846
11285 11103.3521194012
11286 11103.37346978482
11287 11103.37766957561
11288 11103.40301811131
11289 11103.36711971687
11290 11103.3659358597
11291 11103.32417615264
11292 11103.3530814484
11293 11103.3555235241
11294 11103.35077258327
11295 11103.37489187921
11296 11103.35446766907
11297 11103.33167777249
11298 11103.34794410397
11299 11103.3635363739
11300 11103.3589665388
11301 11103.32259063456
11302 11103.31900420523
11303 11103.32248339854
11304 11103.3146726715
11305 11103.32977100984
11306 11103.34478334536
11307 11103.32512282757
11308 11103.31710963841
11309 11103.28197921193
11310 11103.3219610201
11311 11103.32187777791
11312 11103.3218094717
11313 11103.27997770105
11314 11103.29486151083
11315 11103.27568455889
11316 11103.28861701515
11317 11103.30950634219
11318 11103.31325537538
11319 11103.32262265951
11320 11103.32345525433
11321 11103.30493455924
11322 11103.31694405432
11323 11103.32248664112
11324 11103.32639247817
11325 11103.30238752942
11326 11103.30049646573
11327 11103.29641142413
11328 11103.30025907039
11329 11103.33059933433
11330 11103.32870537642
11331 11103.3163756265
11332 11103.31900245431
11333 11103.30288443056
11334 11103.29202317342
11335 11103.32524383433
11336 11103.33316340575
11337 11103.29312759673
11338 11103.3089507111
11339 11103.29448758329
11340 11103.30672517533
11341 11103.30981350524
11342 11103.29844964612
11343 11103.3067674322
11344 11103.30539505308
11345 11103.26449803736
11346 11103.28456790565
11347 11103.31463448538
11348 11103.30807364086
11349 11103.30714675075
11350 11103.29783886638
11351 11103.31075853988
11352 11103.30785300189
11353 11103.31096390987
11354 11103.31060680658
11355 11103.30661237665
11356 11103.29113349854
11357 11103.27878994939
11358 11103.28767474084
11359 11103.30602255809
11360 11103.32114642289
11361 11103.27370364438
11362 11103.28214142563
11363 11103.26419286994
11364 11103.28625146311
11365 11103.30218007725
11366 11103.33033627299
11367 11103.33505063165
11368 11103.31387809669
11369 11103.28574502204
11370 11103.30918935182
11371 11103.30397963103
11372 11103.27738863801
11373 11103.27177198496
11374 11103.2766054179
11375 11103.29420312588
11376 11103.29679055583
11377 11103.3119026303
11378 11103.29854278705
11379 11103.29480655437
11380 11103.28766437753
11381 11103.27517894431
11382 11103.27048857282
11383 11103.30032517972
11384 11103.30225658689
11385 11103.28257393614
11386 11103.30126058591
11387 11103.30226363048
11388 11103.29469816784
11389 11103.28757244381
11390 11103.31609514681
11391 11103.30718343067
11392 11103.29444174588
11393 11103.27497456627
11394 11103.29678686824
11395 11103.29789515617
11396 11103.28582281088
11397 11103.29292276506
11398 11103.26954902788
11399 11103.27873611111
11400 11103.30313354632
11401 11103.29393241389
11402 11103.30368477999
11403 11103.28617198145
11404 11103.28497611996
11405 11103.26083699233
11406 11103.2852239079
11407 11103.31156572271
11408 11103.32376862403
11409 11103.27463403512
11410 11103.30738776176
11411 11103.31094010011
11412 11103.31535567149
11413 11103.32767818899
11414 11103.3377069154
11415 11103.32352035854
11416 11103.34954536143
11417 11103.26889803724
11418 11103.30160784867
11419 11103.29453547132
11420 11103.28423154137
11421 11103.27957671105
11422 11103.28906668568
11423 11103.27490628183
11424 11103.2812210746
11425 11103.28674706992
11426 11103.31671920022
11427 11103.27546907068
11428 11103.27907838641
11429 11103.26666739235
11430 11103.2950015498
11431 11103.332567786
11432 11103.34022700333
11433 11103.30566296195
11434 11103.32408371086
11435 11103.31202779599
11436 11103.33166603792
11437 11103.34680440076
11438 11103.35853803375
11439 11103.33387447944
11440 11103.34040077695
11441 11103.30760868889
11442 11103.29513389271
11443 11103.31992025585
11444 11103.32203010415
11445 11103.2925146573
11446 11103.30848959998
11447 11103.29233096574
11448 11103.31492685648
11449 11103.31902860733
11450 11103.30287895984
11451 11103.28939690496
11452 11103.27684253558
11453 11103.24481295
11454 11103.28649623266
11455 11103.32002702639
11456 11103.30972788604
11457 11103.29360674503
11458 11103.2741139403
11459 11103.26089880773
11460 11103.23747965483
11461 11103.25320925129
11462 11103.26856302245
11463 11103.26554998576
11464 11103.2643943628
11465 11103.26037244931
11466 11103.25978113999
11467 11103.28785231153
11468 11103.28388247454
11469 11103.27044218124
11470 11103.27857184107
11471 11103.24920340798
11472 11103.27684584
11473 11103.29350217326
11474 11103.29244534313
11475 11103.29117719755
11476 11103.27997107503
11477 11103.27643410667
11478 11103.27615487678
11479 11103.31619793855
11480 11103.32366481088
11481 11103.29603169051
11482 11103.31010043467
11483 11103.28457240185
11484 11103.28556979071
11485 11103.31409794448
11486 11103.3215520185
11487 11103.31171389011
11488 11103.31339653948
11489 11103.28901869143
11490 11103.28626310047
11491 11103.31554978426
11492 11103.31577752268
11493 11103.2924233874
11494 11103.31192077756
11495 11103.292020017
11496 11103.29395932979
11497 11103.27912247042
11498 11103.26223657139
11499 11103.26484661853
11500 11103.28040425763
11501 11103.26328284572
11502 11103.28144398412
11503 11103.30251564932
11504 11103.31048022833
11505 11103.29175841414
11506 11103.28811116853
11507 11103.26192266759
11508 11103.2661589802
11509 11103.26712769312
11510 11103.29736762805
11511 11103.31236749799
11512 11103.31929412905
11513 11103.30035489741
11514 11103.29984449631
11515 11103.31741679037
11516 11103.33480122501
11517 11103.28311806618
11518 11103.29038813947
11519 11103.28264431588
11520 11103.28873829677
11521 11103.28983016267
11522 11103.28784496701
11523 11103.28444814982
11524 11103.28329947638
11525 11103.25263217473
11526 11103.29319201545
11527 11103.30482112084
11528 11103.29497156313
11529 11103.2671079334
11530 11103.26700074219
11531 11103.25885903428
11532 11103.27056599287
11533 11103.26754514092
11534 11103.27166529488
11535 11103.27521724823
11536 11103.28094593407
11537 11103.25337954413
11538 11103.24829552754
11539 11103.25570858962
11540 11103.28044438584
11541 11103.25824098237
11542 11103.26647078401
11543 11103.27085280284
11544 11103.27623341075
11545 11103.28674878333
11546 11103.29318478629
11547 11103.28252025608
11548 11103.26486790712
11549 11103.25040369996
11550 11103.27964813814
11551 11103.28256451212
11552 11103.28117139841
11553 11103.25874811862
11554 11103.27198574512
11555 11103.24580948936
11556 11103.25627769107
11557 11103.24496376193
11558 11103.26509096639
11559 11103.27674900724
11560 11103.27158787868
11561 11103.24159821137
11562 11103.27584256342
11563 11103.28797338064
11564 11103.30008659086
11565 11103.28621480747
11566 11103.30229941193
11567 11103.31065729017
11568 11103.30704164571
11569 11103.32773607898
11570 11103.34981117824
11571 11103.30954551591
11572 11103.3177202713
11573 11103.27194702818
11574 11103.31858075493
11575 11103.32220298063
11576 11103.32463630605
11577 11103.28525612923
11578 11103.30478697868
11579 11103.27905320813
11580 11103.309334509
11581 11103.31948991778
11582 11103.34066220685
11583 11103.32883327597
11584 11103.30945957488
11585 11103.279428555
11586 11103.29325028572
11587 11103.3096769289
11588 11103.32283616191
11589 11103.30685194438
11590 11103.32476326347
11591 11103.32981544625
11592 11103.3267173178
11593 11103.33760492428
11594 11103.3589874893
11595 11103.32842977203
11596 11103.33986379476
11597 11103.29468635848
11598 11103.33703501092
11599 11103.33726453586
11600 11103.32715697242
11601 11103.30520832352
11602 11103.30885426258
11603 11103.28050088097
11604 11103.29037637495
11605 11103.30468957207
11606 11103.30737495135
11607 11103.31209090816
11608 11103.31777285973
11609 11103.28930484733
11610 11103.27919046176
11611 11103.31231157877
11612 11103.31376261904
11613 11103.2873756898
11614 11103.30968410161
11615 11103.30847175984
11616 11103.32485273862
11617 11103.32740759066
11618 11103.32661519041
11619 11103.30725018449
11620 11103.30836912008
11621 11103.29932913454
11622 11103.29957217329
11623 11103.34784363571
11624 11103.35546374394
11625 11103.32030020625
11626 11103.31497137587
11627 11103.27535042205
11628 11103.29645873768
11629 11103.28488959043
11630 11103.29662308324
11631 11103.30178690716
11632 11103.30311306991
11633 11103.26369208975
11634 11103.30570163748
11635 11103.33879984804
11636 11103.3474898587
11637 11103.31854791656
11638 11103.32204308463
11639 11103.31770224455
11640 11103.32973007251
11641 11103.33921815444
11642 11103.34528580682
11643 11103.31684038375
11644 11103.32981178731
11645 11103.30083463071
11646 11103.29279725891
11647 11103.30489118363
11648 11103.32740663271
11649 11103.30363005085
11650 11103.28449757198
11651 11103.25415567169
11652 11103.29919182251
11653 11103.27166518665
11654 11103.285351389
11655 11103.3013800065
11656 11103.28919078267
11657 11103.26457066915
11658 11103.28106376891
11659 11103.29653290206
11660 11103.3053493017
11661 11103.25937733467
11662 11103.273753573
11663 11103.26803521094
11664 11103.27985533502
11665 11103.28911416923
11666 11103.26639316885
11667 11103.25456172564
11668 11103.26237917316
11669 11103.23997669121
11670 11103.25652064079
11671 11103.30276223897
11672 11103.30612977689
11673 11103.26168214972
11674 11103.27344689985
11675 11103.2463288701
11676 11103.27087397872
11677 11103.26569305975
11678 11103.25924337822
11679 11103.26347450845
11680 11103.28970213708
11681 11103.26151316315
11682 11103.29244312582
11683 11103.28809806923
11684 11103.32309156072
11685 11103.26240167884
11686 11103.27990819732
11687 11103.27921171399
11688 11103.30758280996
11689 11103.32326471263
11690 11103.33202065441
11691 11103.29486776162
11692 11103.31060571455
11693 11103.29817614959
11694 11103.30659291145
11695 11103.32071266872
11696 11103.34111364274
11697 11103.30544377237
11698 11103.3105551737
11699 11103.28044194234
11700 11103.31028806942
11701 11103.29161829292
11702 11103.30237305155
11703 11103.3171635685
11704 11103.32576677916
11705 11103.2875281717
11706 11103.31824153444
11707 11103.34298708675
11708 11103.34902198319
11709 11103.3213993742
11710 11103.33259034415
11711 11103.33537326576
11712 11103.34026043038
11713 11103.33451969157
11714 11103.35685482609
11715 11103.3156646594
11716 11103.32216388871
11717 11103.30671706782
11718 11103.31962748915
11719 11103.33899656069
11720 11103.36271307194
11721 11103.3123245762
11722 11103.31786632112
11723 11103.29062556149
11724 11103.32714996644
11725 11103.3301981682
11726 11103.31240811672
11727 11103.32095769144
11728 11103.31330395982
11729 11103.29188589099
11730 11103.30274017147
11731 11103.3002109811
11732 11103.32692718582
11733 11103.29499312098
11734 11103.30990131786
11735 11103.31208788154
11736 11103.32127246279
11737 11103.36634107285
11738 11103.34414336711
11739 11103.33507081111
11740 11103.34076525795
11741 11103.31594688584
11742 11103.32153628066
11743 11103.34080750293
11744 11103.33110836724
11745 11103.30316574432
11746 11103.32179423847
11747 11103.28570285849
11748 11103.29473491589
11749 11103.28240684839
11750 11103.30888599527
11751 11103.31031393987
11752 11103.3083929009
11753 11103.30038737821
11754 11103.32677103843
11755 11103.31705061587
11756 11103.32278372102
11757 11103.29150555226
11758 11103.30833463999
11759 11103.30472622698
11760 11103.32693567058
11761 11103.33996104835
11762 11103.37825551053
11763 11103.34236182977
11764 11103.3513763835
11765 11103.31116785713
11766 11103.31715344307
11767 11103.3388544045
11768 11103.34127784101
11769 11103.30704687291
11770 11103.31551293364
11771 11103.30510991121
11772 11103.31656709238
11773 11103.34637598882
11774 11103.3274726352
11775 11103.33938167889
11776 11103.33212243584
11777 11103.31489178372
11778 11103.33947661615
11779 11103.35161389756
11780 11103.34975465029
11781 11103.33185619083
11782 11103.32996375282
11783 11103.33179344286
11784 11103.33043441666
11785 11103.35466949171
11786 11103.33352497187
11787 11103.31172733148
11788 11103.31768646638
11789 11103.31210995742
11790 11103.32029009237
11791 11103.33697135429
11792 11103.34242402145
11793 11103.29860654765
11794 11103.31555733849
11795 11103.27795614758
11796 11103.3024818132
11797 11103.32539237013
11798 11103.33440990839
11799 11103.34587911406
11800 11103.3319960662
11801 11103.30043226935
11802 11103.32107069652
11803 11103.3132409165
11804 11103.33651084301
11805 11103.30940612424
11806 11103.31260625733
11807 11103.32500505213
11808 11103.33210899472
11809 11103.34707640931
11810 11103.35843617798
11811 11103.34332873195
11812 11103.33212686943
11813 11103.31192651919
11814 11103.33674154283
11815 11103.36889997046
11816 11103.33930464004
11817 11103.31533729709
11818 11103.31970673522
11819 11103.30718005199
11820 11103.2978405933
11821 11103.31741937036
11822 11103.30643015081
11823 11103.31661365861
11824 11103.32632227338
11825 11103.3077076351
11826 11103.32160013213
11827 11103.34051970659
11828 11103.33424137464
11829 11103.31831174965
11830 11103.31697981465
11831 11103.3072397069
11832 11103.32058797481
11833 11103.32997202746
11834 11103.33535163403
11835 11103.32788040027
11836 11103.32663425491
11837 11103.31276488111
11838 11103.31540063019
11839 11103.36046214993
11840 11103.37062325144
11841 11103.31447981078
11842 11103.30898572643
11843 11103.30549412859
11844 11103.29545880995
11845 11103.31845357604
11846 11103.31027545241
11847 11103.32388639534
11848 11103.30017965481
11849 11103.28599629258
11850 11103.30966868894
11851 11103.3380109674
11852 11103.31909082013
11853 11103.31979321207
11854 11103.31899458144
11855 11103.33371820453
11856 11103.34205999051
11857 11103.36922649109
11858 11103.34960762138
11859 11103.31880763292
11860 11103.31480770957
11861 11103.29393616035
11862 11103.31218035446
11863 11103.33351140661
11864 11103.34085958552
11865 11103.31791913467
11866 11103.31940585902
11867 11103.31440158564
11868 11103.31757786315
11869 11103.31551240148
11870 11103.33100025502
11871 11103.32473779776
11872 11103.32342040978
11873 11103.28459757521
11874 11103.33730262372
11875 11103.34094409586
11876 11103.34483818579
11877 11103.31779078801
11878 11103.34869558027
11879 11103.33676794747
11880 11103.36409691841
11881 11103.33105167317
11882 11103.33951748201
11883 11103.34397198837
11884 11103.32109584197
11885 11103.29754599557
11886 11103.32191837346
11887 11103.3707219888
11888 11103.36336660027
11889 11103.32347314203
11890 11103.33541275589
11891 11103.31021467963
11892 11103.33092488144
11893 11103.30730175584
11894 11103.34921092626
11895 11103.31460788943
11896 11103.33812030604
11897 11103.28735566357
11898 11103.31897135778
11899 11103.29636110712
11900 11103.29723925943
11901 11103.28776029492
11902 11103.31513419793
11903 11103.28753761576
11904 11103.31459196629
11905 11103.31738060046
11906 11103.32368826818
11907 11103.30143827201
11908 11103.29152347862
11909 11103.27406208891
11910 11103.28958226783
11911 11103.30018855855
11912 11103.32168597643
11913 11103.29563530455
11914 11103.31517832966
11915 11103.30823167149
11916 11103.30104108843
11917 11103.30474446805
11918 11103.3302482572
11919 11103.32076971395
11920 11103.32068958887
11921 11103.26855367325
11922 11103.29245580691
11923 11103.30880891526
11924 11103.33702484027
11925 11103.30355156034
11926 11103.31784991566
11927 11103.29803336001
11928 11103.32935388363
11929 11103.29956022668
11930 11103.31834929883
11931 11103.30367536756
11932 11103.32768932254
11933 11103.28096416551
11934 11103.3255318652
11935 11103.33192260217
11936 11103.35068172423
11937 11103.29679414096
11938 11103.3089858909
11939 11103.27995449309
11940 11103.3154424901
11941 11103.31430989578
11942 11103.34695745075
11943 11103.32597052081
11944 11103.32669291899
11945 11103.29446996921
11946 11103.28509808679
11947 11103.2868873717
11948 11103.31560216272
11949 11103.28669971826
11950 11103.28763863959
11951 11103.27764327169
11952 11103.31761283436
11953 11103.29785830666
11954 11103.2970169116
11955 11103.29551803552
11956 11103.29501033357
11957 11103.26655942217
11958 11103.30612447656
11959 11103.32896297817
11960 11103.34291192491
11961 11103.31405842059
11962 11103.31419917527
11963 11103.29775610766
11964 11103.31664778281
11965 11103.28908260543
11966 11103.31040807682
11967 11103.29715971524
11968 11103.31904023153
11969 11103.30285866392
11970 11103.32458813961
11971 11103.32490105509
11972 11103.35092190981
11973 11103.31757615009
11974 11103.33286745114
11975 11103.30466530356
11976 11103.33294816393
11977 11103.32328614826
11978 11103.30060297907
11979 11103.31013126798
11980 11103.32598758068
11981 11103.2807933507
11982 11103.30740027623
11983 11103.34066932441
11984 11103.34189822028
11985 11103.32619811307
11986 11103.32381739604
11987 11103.31048876767
11988 11103.31686344828
11989 11103.34096557515
11990 11103.36082336599
11991 11103.34787047924
11992 11103.33884502106
11993 11103.32957113612
11994 11103.32025212793
11995 11103.30269668967
11996 11103.2923483227
11997 11103.28545210082
11998 11103.2970931472
11999 11103.2982574487
12000 11103.31432903595
12001 11103.32007839702
12002 11103.31526071992
12003 11103.29462642561
12004 11103.29300664362
12005 11103.25966090383
12006 11103.2995478875
12007 11103.32324499832
12008 11103.31249508386
12009 11103.30613378233
12010 11103.32216633154
12011 11103.29622378497
12012 11103.31785302222
12013 11103.30391203704
12014 11103.31202367537
12015 11103.3255967836
12016 11103.30999780185
12017 11103.30838573278
12018 11103.31838519388
12019 11103.3360201298
12020 11103.36089194161
12021 11103.30755723966
12022 11103.32909497001
12023 11103.32255737721
12024 11103.32423874373
12025 11103.33120013976
12026 11103.35485200153
12027 11103.33658576642
12028 11103.32230052878
12029 11103.26958744083
12030 11103.32597063557
12031 11103.32940938718
12032 11103.32120149282
12033 11103.30580788666
12034 11103.3180775141
12035 11103.30669912308
12036 11103.31415055193
12037 11103.32606883315
12038 11103.34962163423
12039 11103.34790455527
12040 11103.33958461552
12041 11103.31603439028
12042 11103.32428133278
12043 11103.35277261165
12044 11103.36760848476
12045 11103.34534854275
12046 11103.37206188461
12047 11103.3472976016
12048 11103.34674558331
12049 11103.33623368195
12050 11103.32971333897
12051 11103.32892808446
12052 11103.32588756792
12053 11103.29485830087
12054 11103.32269946055
12055 11103.3627238386
12056 11103.35480081877
12057 11103.32928396166
12058 11103.3260927682
12059 11103.31902318629
12060 11103.31188599084
12061 11103.30095705567
12062 11103.31010508327
12063 11103.31330630518
12064 11103.29895042169
12065 11103.28601130821
12066 11103.28113713111
12067 11103.30579952837
12068 11103.30639784722
12069 11103.29230462426
12070 11103.31085705201
12071 11103.29960585189
12072 11103.28801746993
12073 11103.27844158742
12074 11103.29194086002
12075 11103.26313498361
12076 11103.27688098682
12077 11103.2508901859
12078 11103.27784123007
12079 11103.31250206332
12080 11103.29920338387
12081 11103.30016609112
12082 11103.30512177401
12083 11103.28163276945
12084 11103.29141681247
12085 11103.30802723043
12086 11103.3325945559
12087 11103.32904304409
12088 11103.30883109241
12089 11103.3008590248
12090 11103.29508906196
12091 11103.31486119316
12092 11103.31101354291
12093 11103.30260736819
12094 11103.32575557835
12095 11103.32314535122
12096 11103.31621109698
12097 11103.32592318491
12098 11103.32177749488
12099 11103.30145456106
12100 11103.29639670356
12101 11103.27644730382
12102 11103.30354698934
12103 11103.35457405031
12104 11103.34319177784
12105 11103.31928396882
12106 11103.32114866353
12107 11103.29586976898
12108 11103.30107111638
12109 11103.28248198438
12110 11103.30107929092
12111 11103.31341580471
12112 11103.32277365085
12113 11103.29167454801
12114 11103.31916195063
12115 11103.3388584659
12116 11103.34752088973
12117 11103.33004970269
12118 11103.33017608646
12119 11103.31700532755
12120 11103.33182694833
12121 11103.32638014808
12122 11103.361370105
12123 11103.34542206729
12124 11103.33226323367
12125 11103.32533172642
12126 11103.33695993196
12127 11103.35409011193
12128 11103.35703090081
12129 11103.31000907601
12130 11103.32917650247
12131 11103.28358486747
12132 11103.3231900811
12133 11103.31103271341
12134 11103.32186639433
12135 11103.34732399061
12136 11103.33413101179
12137 11103.31140710214
12138 11103.31700620086
12139 11103.31350535282
12140 11103.3191711164
12141 11103.29889976012
12142 11103.30388679676
12143 11103.30347103514
12144 11103.29433046471
12145 11103.3080383272
12146 11103.32225121806
12147 11103.32122115505
12148 11103.32094091666
12149 11103.31399776273
12150 11103.31851074164
12151 11103.33672120732
12152 11103.33388949228
12153 11103.30430599886
12154 11103.30013960246
12155 11103.27520573733
12156 11103.2949821802
12157 11103.32185956048
12158 11103.30878239075
12159 11103.32644434126
12160 11103.32754626066
12161 11103.31036907264
12162 11103.30775755804
12163 11103.30846905654
12164 11103.33568949426
12165 11103.29950747841
12166 11103.29648690176
12167 11103.30407924404
12168 11103.32316149081
12169 11103.33032383845
12170 11103.34425938782
12171 11103.31345051497
12172 11103.31795294751
12173 11103.29500786239
12174 11103.31477830435
12175 11103.32245030585
12176 11103.33242845622
12177 11103.30476468815
12178 11103.32783522927
12179 11103.2874478519
12180 11103.33613229065
12181 11103.32768878655
12182 11103.34896448613
12183 11103.34598532169
12184 11103.35711375846
12185 11103.33741244343
12186 11103.36779366357
12187 11103.38400615395
12188 11103.39203817425
12189 11103.36384234395
12190 11103.36148133517
12191 11103.35441477461
12192 11103.3734324309
12193 11103.37464176252
12194 11103.39558752116
12195 11103.36250861171
12196 11103.37648393032
12197 11103.34114177287
12198 11103.35175714412
12199 11103.34541198238
12200 11103.35126589165
12201 11103.31128576533
12202 11103.32410612687
12203 11103.29925129981
12204 11103.305799389
12205 11103.30509739088
12206 11103.3097027245
12207 11103.34123642565
12208 11103.32971112052
12209 11103.31143310889
12210 11103.34576977464
12211 11103.34513783012
12212 11103.3522769447
12213 11103.34227683512
12214 11103.32869861524
12215 11103.34004366107
12216 11103.32496383576
12217 11103.32874166603
12218 11103.33133428725
12219 11103.32602362467
12220 11103.34509758894
12221 11103.32578664528
12222 11103.32885056199
12223 11103.36962748501
12224 11103.35919406064
12225 11103.33606046568
12226 11103.33678673627
12227 11103.31283815676
12228 11103.31804629249
12229 11103.34099171136
12230 11103.35697000819
12231 11103.35304359149
12232 11103.34222461225
12233 11103.28266350026
12234 11103.31709629459
12235 11103.3414178427
12236 11103.32948451702
12237 11103.31637279598
12238 11103.34405782681
12239 11103.34027740358
12240 11103.34512597732
12241 11103.33089674934
12242 11103.37197432313
12243 11103.35657795362
12244 11103.34241746509
12245 11103.30747935674
12246 11103.3402575101
12247 11103.37635460352
12248 11103.38093799595
12249 11103.34307254898
12250 11103.34793816691
12251 11103.33851862411
12252 11103.32907575571
12253 11103.34846099523
12254 11103.35513375843
12255 11103.36587440152
12256 11103.36600010503
12257 11103.31239186022
12258 11103.358314207
12259 11103.34639448457
12260 11103.32588192487
12261 11103.32154544854
12262 11103.32272845691
12263 11103.32620640548
12264 11103.33899983758
12265 11103.35550283017
12266 11103.35414840162
12267 11103.35071152254
12268 11103.32154291069
12269 11103.31004390081
12270 11103.32114844505
12271 11103.38127185781
12272 11103.36467728987
12273 11103.34589933372
12274 11103.35092079391
12275 11103.35446259695
12276 11103.31237117647
12277 11103.30696819687
12278 11103.31139871616
12279 11103.31904142597
12280 11103.31724240412
12281 11103.28657879766
12282 11103.28523225156
12283 11103.30731045691
12284 11103.31284218011
12285 11103.2878197964
12286 11103.28426060336
12287 11103.29221144635
12288 11103.31382099504
12289 11103.30128955303
12290 11103.29623397327
12291 11103.29101684207
12292 11103.30389764645
12293 11103.2827703166
12294 11103.29415744483
12295 11103.31929045569
12296 11103.35109247703
12297 11103.30478284384
12298 11103.30464429942
12299 11103.27847011257
12300 11103.30784415411
12301 11103.31348110362
12302 11103.32610815743
12303 11103.30746171942
12304 11103.33088916182
12305 11103.3269627007
12306 11103.32146800088
12307 11103.3117131102
12308 11103.34058755825
12309 11103.32222895229
12310 11103.32135953784
12311 11103.29634760328
12312 11103.321706645
12313 11103.31859486238
12314 11103.33378339778
12315 11103.32247606499
12316 11103.32416867959
12317 11103.29708633577
12318 11103.32743627198
12319 11103.34589535404
12320 11103.35517541133
12321 11103.32709372374
12322 11103.3172003646
12323 11103.31136709488
12324 11103.31989597099
12325 11103.344908617
12326 11103.34162429678
12327 11103.32253195674
12328 11103.34372367921
12329 11103.32069601926
12330 11103.32853357485
12331 11103.35711081521
12332 11103.3634292348
12333 11103.31598631147
12334 11103.33765358228
12335 11103.31384187848
12336 11103.3447248366
12337 11103.35463427812
12338 11103.33286236175
12339 11103.32242563015
12340 11103.33256912118
12341 11103.29122652082
12342 11103.3159499205
12343 11103.36151520703
12344 11103.37596575093
12345 11103.33185002526
12346 11103.33288207354
12347 11103.3108983072
12348 11103.31191195396
12349 11103.31092045995
12350 11103.33679417805
12351 11103.33321078244
12352 11103.34013499959
12353 11103.3063214893
12354 11103.29483819657
12355 11103.34340119258
12356 11103.32162069169
12357 11103.28814975366
12358 11103.29132281897
12359 11103.30608978245
12360 11103.29736914251
12361 11103.28906490463
12362 11103.28261264011
12363 11103.26325289312
12364 11103.26492143551
12365 11103.22749626613
12366 11103.24734325185
12367 11103.27072550832
12368 11103.27750226637
12369 11103.27345771495
12370 11103.28185340186
12371 11103.256560429
12372 11103.28175258822
12373 11103.28884349208
12374 11103.29572280282
12375 11103.28813199942
12376 11103.2846370982
12377 11103.28974865842
12378 11103.28173432358
12379 11103.30382148358
12380 11103.31752494614
12381 11103.30262895585
12382 11103.29186617417
12383 11103.31081089668
12384 11103.29992433489
12385 11103.31996732448
12386 11103.33538436241
12387 11103.3301909619
12388 11103.31510752277
12389 11103.26652210962
12390 11103.31110917644
12391 11103.34588456947
12392 11103.32190571397
12393 11103.31267048761
12394 11103.29910356182
12395 11103.2906857463
12396 11103.30272239736
12397 11103.33290191057
12398 11103.32755362616
12399 11103.32003791712
12400 11103.3119793142
12401 11103.28469308494
12402 11103.31661310424
12403 11103.29894931408
12404 11103.3136721226
12405 11103.29743998092
12406 11103.31105688029
12407 11103.3105657403
12408 11103.33145048362
12409 11103.34003717926
12410 11103.35769432951
12411 11103.33393396454
12412 11103.33308500158
12413 11103.29328222026
12414 11103.32699862587
12415 11103.34261626576
12416 11103.327875457
12417 11103.30903707572
12418 11103.31364919415
12419 11103.30231480677
12420 11103.30866700008
12421 11103.32321846347
12422 11103.33187645052
12423 11103.3233906636
12424 11103.30561376119
12425 11103.26992518445
12426 11103.29290558709
12427 11103.29137083737
12428 11103.30960168594
12429 11103.27600342691
12430 11103.29000968026
12431 11103.29374787531
12432 11103.3035782278
12433 11103.30876327457
12434 11103.30146376768
12435 11103.27571833342
12436 11103.28426273006
12437 11103.26812735673
12438 11103.27176591779
12439 11103.30386141798
12440 11103.31593564665
12441 11103.29811126912
12442 11103.28079686499
12443 11103.24168630248
12444 11103.29214050897
12445 11103.29373638123
12446 11103.30790677049
12447 11103.3241594904
12448 11103.33652690555
12449 11103.29058479248
12450 11103.32604236813
12451 11103.31426269094
12452 11103.33545874709
12453 11103.28093866637
12454 11103.28111875221
12455 11103.28793423246
12456 11103.30314008539
12457 11103.26880234596
12458 11103.29483917908
12459 11103.27128818804
12460 11103.27116464493
12461 11103.22588562422
12462 11103.26218163896
12463 11103.28528344222
12464 11103.29438349756
12465 11103.26761243813
12466 11103.27461286931
12467 11103.24027722212
12468 11103.26301832694
12469 11103.27124820142
12470 11103.29020493324
12471 11103.29068544325
12472 11103.2893861135
12473 11103.26936261275
12474 11103.28211601922
12475 11103.29064289511
12476 11103.30853118703
12477 11103.28521951982
12478 11103.28650531413
12479 11103.28504275501
12480 11103.29704514225
12481 11103.3254034148
12482 11103.33763141414
12483 11103.32453660979
12484 11103.30000823692
12485 11103.27493865942
12486 11103.2854113836
12487 11103.33080189101
12488 11103.3337963948
12489 11103.27397793991
12490 11103.28503736401
12491 11103.25384446526
12492 11103.27213235571
12493 11103.27627817172
12494 11103.26667751759
12495 11103.27136003897
12496 11103.26532735453
12497 11103.24064536456
12498 11103.25452222502
12499 11103.2726278466
12500 11103.27678954617
12501 11103.26021489593
12502 11103.24921932834
12503 11103.26000966073
12504 11103.27499911604
12505 11103.28091266302
12506 11103.28874339332
12507 11103.27714540125
12508 11103.29015502221
12509 11103.26813678636
12510 11103.28147712925
12511 11103.31487476419
12512 11103.32252890879
12513 11103.29211865092
12514 11103.30296732394
12515 11103.27243159314
12516 11103.27024264307
12517 11103.25718704424
12518 11103.271920319
12519 11103.28273612308
12520 11103.28089895545
12521 11103.25914671206
12522 11103.28797895874
12523 11103.29903992652
12524 11103.31741284992
12525 11103.27040677364
12526 11103.27906913062
12527 11103.27977801208
12528 11103.29120910899
12529 11103.30374739548
12530 11103.3077375265
12531 11103.2787185569
12532 11103.28641531889
12533 11103.27127659297
12534 11103.2945777234
12535 11103.2951647228
12536 11103.30300793394
12537 11103.27304817788
12538 11103.28241447682
12539 11103.25209169977
12540 11103.27947548738
12541 11103.28895264508
12542 11103.30373149218
12543 11103.30379153286
12544 11103.29751050441
12545 11103.26250908036
12546 11103.29203763778
12547 11103.31720230886
12548 11103.31242359049
12549 11103.29844846882
12550 11103.31179769681
12551 11103.31185119743
12552 11103.32680926467
12553 11103.31961382719
12554 11103.34429111496
12555 11103.33441688512
12556 11103.34172396738
12557 11103.30588473734
12558 11103.29576571208
12559 11103.33260453009
12560 11103.33731547719
12561 11103.29487810351
12562 11103.2969190794
12563 11103.2842012141
12564 11103.28928198614
12565 11103.29439930664
12566 11103.30047421451
12567 11103.32776538798
12568 11103.30982732954
12569 11103.27632639298
12570 11103.31039959899
12571 11103.31747932584
12572 11103.32065496413
12573 11103.28768179389
12574 11103.26724126763
12575 11103.27539530837
12576 11103.27386485638
12577 11103.28867337703
12578 11103.29024383535
12579 11103.27466959632
12580 11103.27265031166
12581 11103.26891069954
12582 11103.27747230659
12583 11103.3035621889
12584 11103.28884806708
12585 11103.27978956905
12586 11103.29673183625
12587 11103.26680964325
12588 11103.28487913438
12589 11103.26065618919
12590 11103.28226065141
12591 11103.29240281883
12592 11103.28063869879
12593 11103.25492516823
12594 11103.27717783498
12595 11103.27736703208
12596 11103.25623935664
12597 11103.25919569125
12598 11103.28470167425
12599 11103.27630781379
12600 11103.28136330602
12601 11103.27868212421
12602 11103.29353195067
12603 11103.28520234067
12604 11103.27579527198
12605 11103.24002640456
12606 11103.28788212478
12607 11103.3206458831
12608 11103.33730291628
12609 11103.32836962983
12610 11103.35177251666
12611 11103.33240777865
12612 11103.32942382924
12613 11103.32893947679
12614 11103.36599764496
12615 11103.3665876918
12616 11103.36096783733
12617 11103.31508461711
12618 11103.35565835132
12619 11103.3470939374
12620 11103.34520847861
12621 11103.33139079631
12622 11103.33807253074
12623 11103.31950077144
12624 11103.34587818816
12625 11103.33111911289
12626 11103.34140476799
12627 11103.32458673205
12628 11103.32390998657
12629 11103.30189265718
12630 11103.30599448801
12631 11103.35125260886
12632 11103.34247169287
12633 11103.32690194924
12634 11103.32068788465
12635 11103.30299854251
12636 11103.30405923173
12637 11103.32857609669
12638 11103.33654770826
12639 11103.32563792591
12640 11103.31874362578
12641 11103.27300748198
12642 11103.30058948158
12643 11103.28913335273
12644 11103.27410474706
12645 11103.27535141789
12646 11103.29343160592
12647 11103.29231487656
12648 11103.30002476063
12649 11103.2871703392
12650 11103.30118507211
12651 11103.28580729684
12652 11103.28730705309
12653 11103.26883220027
12654 11103.2941688577
12655 11103.31772507896
12656 11103.31661067116
12657 11103.29282771968
12658 11103.30218155945
12659 11103.29865561291
12660 11103.30022182741
12661 11103.30460733206
12662 11103.29312162029
12663 11103.30617283188
12664 11103.3058760937
12665 11103.28565714308
12666 11103.29180408951
12667 11103.33575505624
12668 11103.3227075474
12669 11103.31587988657
12670 11103.31633618975
12671 11103.30492126141
12672 11103.30900035471
12673 11103.31600480639
12674 11103.28433051762
12675 11103.28725761242
12676 11103.2855411338
12677 11103.25568926243
12678 11103.29263663037
12679 11103.29792769581
12680 11103.31029826297
12681 11103.29122633457
12682 11103.2924172009
12683 11103.27925093292
12684 11103.28336188541
12685 11103.29381773106
12686 11103.33022465822
12687 11103.32815942866
12688 11103.32862258585
12689 11103.31434302748
12690 11103.33450960172
12691 11103.31751835496
12692 11103.33048517125
12693 11103.30667027527
12694 11103.32474994523
12695 11103.30540953909
12696 11103.3368732595
12697 11103.35193047796
12698 11103.35197151607
12699 11103.35143633954
12700 11103.3678246175
12701 11103.29754941816
12702 11103.32643405249
12703 11103.34103678251
12704 11103.32800060745
12705 11103.32210088999
12706 11103.32197659026
12707 11103.28876157009
12708 11103.28483856009
12709 11103.28246221108
12710 11103.29028571454
12711 11103.2903180545
12712 11103.29510259524
12713 11103.28441652229
12714 11103.29777535548
12715 11103.2925753009
12716 11103.30590985133
12717 11103.28186480449
12718 11103.2899236206
12719 11103.27857487974
12720 11103.29846347006
12721 11103.29605355236
12722 11103.30196324464
12723 11103.27077235241
12724 11103.29722014304
12725 11103.25997906148
12726 11103.30809591008
12727 11103.30792671679
12728 11103.32389242839
12729 11103.30042788494
12730 11103.31614453028
12731 11103.26986736747
12732 11103.29687284992
12733 11103.31080261581
12734 11103.34823307921
12735 11103.32522829955
12736 11103.35613403108
12737 11103.29136234614
12738 11103.31399809334
12739 11103.31444242015
12740 11103.3293678837
12741 11103.27444972183
12742 11103.30818729365
12743 11103.28867913143
12744 11103.29813862755
12745 11103.30228810879
12746 11103.32880967884
12747 11103.30775912539
12748 11103.30981040487
12749 11103.26819700417
12750 11103.32417712144
12751 11103.34140685867
12752 11103.34648132681
12753 11103.30821188205
12754 11103.3288085836
12755 11103.3061385271
12756 11103.33437902401
12757 11103.34734572945
12758 11103.37039900855
12759 11103.34054306358
12760 11103.35554282076
12761 11103.32242999511
12762 11103.32913554702
12763 11103.32434296887
12764 11103.34766991207
12765 11103.32708511357
12766 11103.37561997818
12767 11103.33832146357
12768 11103.36921278308
12769 11103.35364328663
12770 11103.40446253632
12771 11103.35452981889
12772 11103.35193845707
12773 11103.2882297552
12774 11103.35744781584
12775 11103.35143122663
12776 11103.37072969798
12777 11103.33506796993
12778 11103.36142275589
12779 11103.33447751648
12780 11103.3610358637
12781 11103.35842391461
12782 11103.38157593267
12783 11103.38159828407
12784 11103.37604177841
12785 11103.34760628464
12786 11103.35183150284
12787 11103.36189146176
12788 11103.36243140325
12789 11103.34310601197
12790 11103.35127622476
12791 11103.3538501586
12792 11103.35315423159
12793 11103.33875236372
12794 11103.34909966165
12795 11103.32127361018
12796 11103.32503421762
12797 11103.29201416573
12798 11103.31692119257
12799 11103.34651072481
12800 11103.32789418979
12801 11103.32934040549
12802 11103.32175568338
12803 11103.31011746784
12804 11103.31810301248
12805 11103.33098258605
12806 11103.35543795271
12807 11103.35077882697
12808 11103.33527814591
12809 11103.32732500164
12810 11103.33475836285
12811 11103.36582064791
12812 11103.37068320509
12813 11103.33472594274
12814 11103.33993428282
12815 11103.34233536416
12816 11103.34014464482
12817 11103.36761860402
12818 11103.38322569707
12819 11103.35998147598
12820 11103.35408331876
12821 11103.30949025679
12822 11103.34205393898
12823 11103.36039155356
12824 11103.35712945258
12825 11103.34670125286
12826 11103.35327073804
12827 11103.33947076212
12828 11103.34024802539
12829 11103.35039826987
12830 11103.37266843373
12831 11103.36178485057
12832 11103.3751723011
12833 11103.33063051348
12834 11103.35100225579
12835 11103.3542963516
12836 11103.38757514118
12837 11103.35400539127
12838 11103.3785922107
12839 11103.38128862546
12840 11103.39198542136
12841 11103.38783916784
12842 11103.38878557213
12843 11103.37658800796
12844 11103.38047448147
12845 11103.35768400338
12846 11103.36814704766
12847 11103.39162221826
12848 11103.40055872515
12849 11103.36444341661
12850 11103.37066780538
12851 11103.33354977502
12852 11103.3542266719
12853 11103.36017638791
12854 11103.36557135632
12855 11103.36346338139
12856 11103.38244792439
12857 11103.32737292882
12858 11103.34899108368
12859 11103.33052863538
12860 11103.34712006661
12861 11103.3297366311
12862 11103.31333186246
12863 11103.31968076183
12864 11103.32677474277
12865 11103.31289572348
12866 11103.33537034287
12867 11103.31257507725
12868 11103.33644208544
12869 11103.30570208351
12870 11103.3173510787
12871 11103.33652987123
12872 11103.34595521301
12873 11103.3316428197
12874 11103.31750332582
12875 11103.27871892308
12876 11103.31449525119
12877 11103.31329753453
12878 11103.32841894928
12879 11103.33873393893
12880 11103.34905905806
12881 11103.30554697326
12882 11103.34131179812
12883 11103.32758402191
12884 11103.34233547132
12885 11103.30452663259
12886 11103.33805372462
12887 11103.32276224708
12888 11103.32494213841
12889 11103.3186502806
12890 11103.33828840611
12891 11103.31568895566
12892 11103.33130815642
12893 11103.30781993868
12894 11103.30803337131
12895 11103.33144884499
12896 11103.34959286924
12897 11103.31209878068
12898 11103.33349834505
12899 11103.28752161582
12900 11103.32033980022
12901 11103.29190457671
12902 11103.31888300934
12903 11103.33260145579
12904 11103.34666743559
12905 11103.29874184799
12906 11103.32663539253
12907 11103.34134805922
12908 11103.34166310038
12909 11103.31565378832
12910 11103.31916959041
12911 11103.31488657646
12912 11103.32676415703
12913 11103.29738721627
12914 11103.33759012762
12915 11103.3370477951
12916 11103.33581434405
12917 11103.31920575028
12918 11103.33303360601
12919 11103.33862149945
12920 11103.34132816532
12921 11103.30001074852
12922 11103.32580858388
12923 11103.31073916363
12924 11103.30221042777
12925 11103.28907116857
12926 11103.31939665782
12927 11103.33697381319
12928 11103.32003557546
12929 11103.28592706366
12930 11103.32387718021
12931 11103.29851564442
12932 11103.32032588728
12933 11103.2980708067
12934 11103.31156345377
12935 11103.30122662287
12936 11103.31723337106
12937 11103.29537120217
12938 11103.31834250152
12939 11103.28841128986
12940 11103.3107261681
