"x-rfile"
"Iteration" "x"
("Iteration" "x")
7830 -106.5553602346553
7831 -105.9603476082348
7832 -106.0365986159928
7833 -106.7294434153314
7834 -106.7033758515267
7835 -105.8546698189688
7836 -106.9674597076857
7837 -108.3491259966236
7838 -110.7341441348766
7839 -114.0542008314717
7840 -118.676055919021
7841 -125.1807603454459
7842 -131.1459778652071
7843 -139.6796478271551
7844 -147.7384876796812
7845 -156.9087466206747
7846 -165.3278358109868
7847 -174.747057152381
7848 -183.3727303399349
7849 -193.1809990991634
7850 -204.0464586994678
7851 -215.7667131743961
7852 -228.2183888303558
7853 -241.1867159368618
7854 -251.8339289573034
7855 -266.9310950891428
7856 -279.0459798257173
7857 -295.8681160735464
7858 -309.1980580259924
7859 -327.7733708124982
7860 -342.3135878514139
7861 -362.7391891011053
7862 -378.6000444843517
7863 -400.6801420511381
7864 -417.9502106156262
7865 -441.732931314169
7866 -460.2456385399315
7867 -480.4585854368778
7868 -501.9153173823809
7869 -524.353010740734
7870 -547.5022741527101
7871 -571.3556268899424
7872 -595.5679983916738
7873 -619.8868417030948
7874 -644.2757533790209
7875 -668.557431760628
7876 -692.5061548140934
7877 -715.9883563602248
7878 -738.7374307047884
7879 -760.7957197587982
7880 -781.9772121471661
7881 -802.2836725702632
7882 -815.9820960557664
7883 -836.3661746336263
7884 -849.4268086669274
7885 -868.276406617884
7886 -879.9879715561285
7887 -896.4203761329389
7888 -906.3624967078857
7889 -916.2566566586059
7890 -929.4901857526253
7891 -937.0241652610714
7892 -944.1604607631062
7893 -950.8018114488468
7894 -956.7339406337227
7895 -961.9315683751179
7896 -966.3686683467224
7897 -970.1156620204008
7898 -973.1267431247704
7899 -975.5330920268921
7900 -977.3734304222648
7901 -978.68005059257
7902 -979.5223651954623
7903 -979.9660769763651
7904 -980.0772371531336
7905 -979.9106957498417
7906 -979.5027755047987
7907 -978.945998022377
7908 -978.2514573072174
7909 -977.4589577373448
7910 -976.615787962888
7911 -975.7260178583825
7912 -974.8388804427296
7913 -973.9561864997839
7914 -973.1175048054358
7915 -972.3160111449317
7916 -971.5820340815098
7917 -970.9016530570022
7918 -970.2754608509806
7919 -969.7263005679986
7920 -969.2489485433974
7921 -968.8488547041167
7922 -968.5245166513008
7923 -968.2820886744294
7924 -968.116323401745
7925 -968.0025265723913
7926 -967.9842000873216
7927 -968.0256664385447
7928 -968.1311189359698
7929 -968.3005932928318
7930 -968.5280973431004
7931 -968.8070054284818
7932 -969.149160446882
7933 -969.5413010001032
7934 -969.9808635353659
7935 -970.4652323633165
7936 -970.9843867448568
7937 -971.5319952195448
7938 -972.1061944788338
7939 -972.7143160711038
7940 -973.333419119256
7941 -973.9715564520778
7942 -974.6170408859648
7943 -975.2755865469546
7944 -975.9489106958064
7945 -976.6247718189663
7946 -977.2988552153674
7947 -977.967719785095
7948 -978.6269219972119
7949 -979.2896649700214
7950 -979.9351619025055
7951 -980.566807048002
7952 -981.1787564362122
7953 -981.7816860906693
7954 -982.3455417486225
7955 -982.9005344158456
7956 -983.4319225279449
7957 -983.945476680162
7958 -984.4403537256749
7959 -984.9126075918961
7960 -985.3645549982276
7961 -985.7912756962875
7962 -986.1908524990075
7963 -986.5794131039097
7964 -986.9492183344429
7965 -987.2845357485262
7966 -987.5986716964816
7967 -987.8933942394149
7968 -988.1719935246563
7969 -988.4221556318722
7970 -988.6525982560972
7971 -988.8563888698447
7972 -989.0466574520897
7973 -989.2149052763295
7974 -989.3692311892952
7975 -989.5057248516604
7976 -989.6242115149611
7977 -989.7187988042493
7978 -989.8019426801375
7979 -989.8664567756014
7980 -989.9150783585285
7981 -989.9424837198136
7982 -989.9528583848793
7983 -989.945614068352
7984 -989.9148229307405
7985 -989.8679097923359
7986 -989.8037774083439
7987 -989.7306751193058
7988 -989.6263089211644
7989 -989.5091906923984
7990 -989.3687189597584
7991 -989.217074955139
7992 -989.0422953504816
7993 -988.8518707030272
7994 -988.6375737598983
7995 -988.4115945065621
7996 -988.1665554445079
7997 -987.7824130112969
7998 -987.5022546006234
7999 -987.2157883857317
8000 -986.911688130585
8001 -986.5976080507844
8002 -986.1029812286009
8003 -985.7604579643784
8004 -985.4115037685286
8005 -985.0501349293652
8006 -984.478831943399
8007 -984.0937542516504
8008 -983.6922243814337
8009 -983.0894436961038
8010 -982.6813955331615
8011 -982.0718389315332
8012 -981.6653672962374
8013 -981.0503160539942
8014 -980.6391661521612
8015 -980.0320663025675
8016 -979.6207588085758
8017 -979.0170803238998
8018 -978.6092852154666
8019 -978.0226610149673
8020 -977.4309315350288
8021 -976.8760566575664
8022 -976.3276593385241
8023 -975.8085742784156
8024 -975.3021052538832
8025 -974.8293923771303
8026 -974.3696235595379
8027 -973.9415083727813
8028 -973.5217828041002
8029 -973.1236678679466
8030 -972.7397052656706
8031 -972.3811849419559
8032 -972.0392542931222
8033 -971.7127172472512
8034 -971.4131683260283
8035 -971.135886434543
8036 -970.8817473720462
8037 -970.654084623071
8038 -970.4433892324573
8039 -970.2637117132202
8040 -970.0950123462685
8041 -969.9639320782428
8042 -969.8450106549294
8043 -969.7524176018012
8044 -969.6777924917155
8045 -969.6301787056238
8046 -969.6067555704001
8047 -969.615746397607
8048 -969.6413581857245
8049 -969.6960632021912
8050 -969.7770985855899
8051 -969.8835055534744
8052 -969.9988179277078
8053 -970.1341456492462
8054 -970.2897519571235
8055 -970.4607844662565
8056 -970.6503081073463
8057 -970.863010099178
8058 -971.0844487219167
8059 -971.3217122774867
8060 -971.5780228114303
8061 -971.8446210191471
8062 -972.1205585814273
8063 -972.405780172212
8064 -972.6924211052176
8065 -972.9837672546518
8066 -973.2701054112375
8067 -973.5655853220262
8068 -973.8577496676414
8069 -974.1430453341354
8070 -974.4178193276036
8071 -974.6832240329275
8072 -974.9465860986778
8073 -975.1913264940564
8074 -975.4250357342464
8075 -975.647251285553
8076 -975.8477068275023
8077 -976.0361521968423
8078 -976.1909873809233
8079 -976.336181804254
8080 -976.4596951651471
8081 -976.5644396050798
8082 -976.6408562236579
8083 -976.7073091319531
8084 -976.7448076613576
8085 -976.7673624913369
8086 -976.7591467511968
8087 -976.7312467184
8088 -976.669370350536
8089 -976.594477758524
8090 -976.4810149794263
8091 -976.3482751699996
8092 -976.2015141452293
8093 -976.0267030458759
8094 -975.8268891216162
8095 -975.6096549628395
8096 -975.376155557859
8097 -975.1226355854261
8098 -974.8451489224685
8099 -974.5492479414689
8100 -974.2390561136965
8101 -974.0096527530278
8102 -973.6437924881526
8103 -973.2749712133688
8104 -973.0038044397959
8105 -972.5974506764237
8106 -972.3035397274942
8107 -971.8629914218809
8108 -971.5535172655301
8109 -971.0989426120589
8110 -970.7779020441542
8111 -970.3063941888976
8112 -969.9837541263545
8113 -969.6481607596025
8114 -969.1560389016425
8115 -968.8336482157638
8116 -968.4964544161037
8117 -968.1553823271025
8118 -967.8077256997874
8119 -967.4649690417217
8120 -967.1203261655371
8121 -966.7811639493901
8122 -966.4453572433034
8123 -966.1195466105752
8124 -965.799774382683
8125 -965.4977875331315
8126 -965.207855271696
8127 -964.9308019257604
8128 -964.672285652484
8129 -964.4305718562207
8130 -964.2067254145687
8131 -963.9343993849782
8132 -963.7770550325641
8133 -963.6281843833618
8134 -963.4893874321224
8135 -963.3668678056836
8136 -963.2275936134564
8137 -963.1551799961154
8138 -963.0876875688418
8139 -963.0300383783651
8140 -962.9873501345717
8141 -962.9729015126276
8142 -962.9540139048329
8143 -962.9621195468704
8144 -962.9733874981032
8145 -962.9839978367967
8146 -963.0195245800786
8147 -963.0497143122697
8148 -963.1046197933845
8149 -963.1470945367668
8150 -963.2143361372382
8151 -963.2617795155157
8152 -963.3360374291135
8153 -963.3807462729015
8154 -963.4484552361762
8155 -963.5205897926978
8156 -963.5533754535606
8157 -963.6027954314554
8158 -963.6596971523259
8159 -963.6846945498033
8160 -963.7146296692423
8161 -963.7447658761499
8162 -963.747501322783
8163 -963.7515226231105
8164 -963.7419860864695
8165 -963.7290976518885
8166 -963.7105009529911
8167 -963.6842036489992
8168 -963.657306025373
8169 -963.6247129931511
8170 -963.5918236678101
8171 -963.5528396767114
8172 -963.5210926095938
8173 -963.4843077644892
8174 -963.4424422755849
8175 -963.4033124063021
8176 -963.368534216027
8177 -963.3349199567486
8178 -963.3070480736088
8179 -963.2826696971814
8180 -963.269474519692
8181 -963.2655135589328
8182 -963.2667530473508
8183 -963.2780042205521
8184 -963.3030271811053
8185 -963.3406292171951
8186 -963.3898625466096
8187 -963.4535255976758
8188 -963.5313641063078
8189 -963.6161626431774
8190 -963.7155560823712
8191 -963.8353854281208
8192 -964.0483713261453
8193 -964.2054783714119
8194 -964.3730896257529
8195 -964.6452865511789
8196 -964.8324492557294
8197 -965.1300135384816
8198 -965.3318099249339
8199 -965.6558904554216
8200 -965.8680555146426
8201 -966.2126407937401
8202 -966.4375511139814
8203 -966.8036316480802
8204 -967.0449072370188
8205 -967.414928033092
8206 -967.6542067949707
8207 -968.024746522636
8208 -968.2690064286082
8209 -968.6359374794758
8210 -968.8768105751593
8211 -969.2457090666777
8212 -969.4776189147279
8213 -969.8278975695547
8214 -970.1679046881796
8215 -970.3816605374311
8216 -970.6940337078134
8217 -970.9868483632615
8218 -971.2553244929072
8219 -971.4158473579197
8220 -971.6485506310414
8221 -971.8602680400165
8222 -972.0429046431361
8223 -972.2061563598222
8224 -972.3482455175505
8225 -972.4680104222269
8226 -972.5695161985097
8227 -972.6189278716722
8228 -972.6842016115575
8229 -972.7317777930047
8230 -972.7439671714119
8231 -972.7571972927202
8232 -972.7569026656798
8233 -972.7471996194771
8234 -972.7347933039462
8235 -972.7122404187405
8236 -972.6853378423278
8237 -972.6521013574824
8238 -972.6184545244607
8239 -972.5800187609523
8240 -972.5423901360546
8241 -972.5051304235978
8242 -972.4694694776377
8243 -972.4397003769105
8244 -972.4207732547929
8245 -972.4127185543398
8246 -972.4223768473933
8247 -972.436314622797
8248 -972.4820074091056
8249 -972.5644272082479
8250 -972.6658344845061
8251 -972.7904673741699
8252 -972.9434422322867
8253 -973.1232737509941
8254 -973.3278575838929
8255 -973.5628311226745
8256 -973.821331500575
8257 -974.1119867161918
8258 -974.4365356121453
8259 -974.7871203632295
8260 -975.1698582832323
8261 -975.581774357442
8262 -976.0149527844791
8263 -976.4737130274708
8264 -976.9549734876988
8265 -977.463215972398
8266 -977.9763177814032
8267 -978.5107934859312
8268 -979.0542431375687
8269 -979.6072330517012
8270 -979.9894776007181
8271 -980.591594866184
8272 -981.0012055365237
8273 -981.6387432342135
8274 -982.0645407280616
8275 -982.5114294639322
8276 -982.9716093188116
8277 -983.4475465472128
8278 -984.1433189890986
8279 -984.5876635222201
8280 -985.0418631429795
8281 -985.6983961863222
8282 -986.111946020691
8283 -986.7047227801794
8284 -987.079217964999
8285 -987.6119657167638
8286 -988.0879107639811
8287 -988.3843968165152
8288 -988.8114523765876
8289 -989.1933789433186
8290 -989.5323209518635
8291 -989.8372892647731
8292 -990.0273955288449
8293 -990.3071124209893
8294 -990.5492828306186
8295 -990.7061292267846
8296 -990.9372223144446
8297 -991.1451016599664
8298 -991.2757533606053
8299 -991.4792333875848
8300 -991.6108437215174
8301 -991.8106229604221
8302 -991.9366260321164
8303 -992.1364754759267
8304 -992.2712337028036
8305 -992.4852299765762
8306 -992.6896352415276
8307 -992.898138556851
8308 -993.1149618220901
8309 -993.347416291332
8310 -993.5911029995548
8311 -993.8546173067524
8312 -994.1335440986195
8313 -994.4350100129476
8314 -994.7580314466773
8315 -995.1136001709822
8316 -995.4974573384798
8317 -995.9041434921843
8318 -996.3347036690133
8319 -996.7836155365966
8320 -997.2648868996728
8321 -997.768860955088
8322 -998.2956314856555
8323 -998.8401134896553
8324 -999.3981019595385
8325 -999.9700545762066
8326 -1000.556911563541
8327 -1001.156282212528
8328 -1001.757855418895
8329 -1002.360621186126
8330 -1002.785813769318
8331 -1003.438873954611
8332 -1003.89201944079
8333 -1004.589534327888
8334 -1005.054021424818
8335 -1005.53300271047
8336 -1006.031991523426
8337 -1006.543937024861
8338 -1007.064155690343
8339 -1007.584102664739
8340 -1008.109567772928
8341 -1008.624242577467
8342 -1009.137784540702
8343 -1009.852228085126
8344 -1010.298198584594
8345 -1010.733686696414
8346 -1011.338743508727
8347 -1011.706107461814
8348 -1012.075816822368
8349 -1012.581502740057
8350 -1012.897199352075
8351 -1013.329897078931
8352 -1013.604666108387
8353 -1013.988254266932
8354 -1014.226652538362
8355 -1014.572157181017
8356 -1014.796758988035
8357 -1015.117336290976
8358 -1015.325895012424
8359 -1015.550361487492
8360 -1015.869535480871
8361 -1016.07006081033
8362 -1016.386137366373
8363 -1016.587987955604
8364 -1016.908478938017
8365 -1017.113339473094
8366 -1017.442897469192
8367 -1017.753649205471
8368 -1018.066079186783
8369 -1018.374740723299
8370 -1018.696558204728
8371 -1019.023294008074
8372 -1019.366560975615
8373 -1019.722519487113
8374 -1020.091104162925
8375 -1020.477969818862
8376 -1020.881273242371
8377 -1021.29633323414
8378 -1021.725774837945
8379 -1022.166777294569
8380 -1022.624609815907
8381 -1023.087028950963
8382 -1023.557587000856
8383 -1023.89232114255
8384 -1024.419904321526
8385 -1024.780347425491
8386 -1025.337119503002
8387 -1025.71061592214
8388 -1026.278444247781
8389 -1026.65428782398
8390 -1027.056820370678
8391 -1027.468099539754
8392 -1027.890950594756
8393 -1028.317781409515
8394 -1028.748899472754
8395 -1029.179644932093
8396 -1029.60912063182
8397 -1030.026562728419
8398 -1030.438763277456
8399 -1030.840679717048
8400 -1031.23470951034
8401 -1031.620370690197
8402 -1031.99369497026
8403 -1032.356959991422
8404 -1032.708730906015
8405 -1033.045999118644
8406 -1033.379339356829
8407 -1033.696535227516
8408 -1034.004030704232
8409 -1034.303188653259
8410 -1034.594285798503
8411 -1034.877647773541
8412 -1035.156156068302
8413 -1035.54391458412
8414 -1035.780404612001
8415 -1036.022942909576
8416 -1036.268599855286
8417 -1036.51694057985
8418 -1036.77163314526
8419 -1037.134195780771
8420 -1037.362084653749
8421 -1037.600348832737
8422 -1037.949757969985
8423 -1038.179297600358
8424 -1038.531202534447
8425 -1038.759188429671
8426 -1039.11143870949
8427 -1039.344486021561
8428 -1039.713139255773
8429 -1039.956805262581
8430 -1040.335448175621
8431 -1040.590962088635
8432 -1040.987653705575
8433 -1041.256698612739
8434 -1041.666682986969
8435 -1041.944861487654
8436 -1042.366908546219
8437 -1042.65060983056
8438 -1043.084124196084
8439 -1043.377575454075
8440 -1043.690872292661
8441 -1044.155467683394
8442 -1044.460077194105
8443 -1044.779923895592
8444 -1045.111776269734
8445 -1045.451453864069
8446 -1045.793953289318
8447 -1046.139112393035
8448 -1046.485220946523
8449 -1046.83445213352
8450 -1047.176989396309
8451 -1047.518026364992
8452 -1047.856282816985
8453 -1048.186078285846
8454 -1048.510677181341
8455 -1048.832104795007
8456 -1049.143646021344
8457 -1049.451464262045
8458 -1049.749030166512
8459 -1050.042287428923
8460 -1050.326555787692
8461 -1050.602891290444
8462 -1050.873146165421
8463 -1051.14150944932
8464 -1051.39879116293
8465 -1051.651759827421
8466 -1051.899578375291
8467 -1052.142355385799
8468 -1052.381561883102
8469 -1052.618195461791
8470 -1052.851217921652
8471 -1053.080622224966
8472 -1053.308492522623
8473 -1053.534437821518
8474 -1053.759990160135
8475 -1053.981456340029
8476 -1054.202883896601
8477 -1054.422007303412
8478 -1054.643450295891
8479 -1054.864417405112
8480 -1055.087743774503
8481 -1055.312728858331
8482 -1055.538486607625
8483 -1055.764162375599
8484 -1055.990746139029
8485 -1056.216527295594
8486 -1056.548217980686
8487 -1056.757003856434
8488 -1056.973304367546
8489 -1057.199934884164
8490 -1057.428782821078
8491 -1057.760840336939
8492 -1057.977660149334
8493 -1058.197908114482
8494 -1058.426571054829
8495 -1058.663061838443
8496 -1058.901606118205
8497 -1059.146608662929
8498 -1059.393068033225
8499 -1059.637704437369
8500 -1059.882855347606
8501 -1060.122681006763
8502 -1060.363202617674
8503 -1060.601594111958
8504 -1060.840701843685
8505 -1061.075254064623
8506 -1061.308926026085
8507 -1061.53819001955
8508 -1061.764352676286
8509 -1061.982261640572
8510 -1062.197207417374
8511 -1062.402352982311
8512 -1062.606073659887
8513 -1062.803211640758
8514 -1062.996619863209
8515 -1063.183599447495
8516 -1063.369236817151
8517 -1063.54821862733
8518 -1063.724330788312
8519 -1063.893746899752
8520 -1064.057593617284
8521 -1064.218408177162
8522 -1064.377562505597
8523 -1064.53292628387
8524 -1064.688281612322
8525 -1064.841419780522
8526 -1064.994452125555
8527 -1065.141477837947
8528 -1065.292368674511
8529 -1065.436715236047
8530 -1065.582492431838
8531 -1065.727860229327
8532 -1065.877603492606
8533 -1066.025285948162
8534 -1066.175079802444
8535 -1066.326023053085
8536 -1066.482799134726
8537 -1066.641921678015
8538 -1066.80300546774
8539 -1066.963863036832
8540 -1067.12795382609
8541 -1067.292793979496
8542 -1067.460606025841
8543 -1067.628934773339
8544 -1067.802779098704
8545 -1067.973229216363
8546 -1068.147514101622
8547 -1068.319913617724
8548 -1068.493587309226
8549 -1068.667268594885
8550 -1068.843444226527
8551 -1069.015938023537
8552 -1069.189483817436
8553 -1069.360976707319
8554 -1069.533814578666
8555 -1069.700812466884
8556 -1069.869130633721
8557 -1070.029964789171
8558 -1070.186600530726
8559 -1070.338412376647
8560 -1070.490907860882
8561 -1070.635699575464
8562 -1070.776837784668
8563 -1070.912970544569
8564 -1071.045053756318
8565 -1071.171806830822
8566 -1071.295290069247
8567 -1071.412769679566
8568 -1071.527121803404
8569 -1071.638779714612
8570 -1071.748204230117
8571 -1071.850030132688
8572 -1071.951552645453
8573 -1072.046802403621
8574 -1072.145125903767
8575 -1072.237291092625
8576 -1072.332913283207
8577 -1072.424702110237
8578 -1072.519710908027
8579 -1072.613252051654
8580 -1072.708677551279
8581 -1072.803150794744
8582 -1072.901505420743
8583 -1072.999044717617
8584 -1073.100380685308
8585 -1073.202695328384
8586 -1073.309735826636
8587 -1073.417129932081
8588 -1073.529865993068
8589 -1073.641874550902
8590 -1073.758374094855
8591 -1073.875511622231
8592 -1074.001968396809
8593 -1074.122888563529
8594 -1074.249996534108
8595 -1074.376116789252
8596 -1074.504597992022
8597 -1074.630299332838
8598 -1074.762386258436
8599 -1074.889261408638
8600 -1075.017722497666
8601 -1075.143702271371
8602 -1075.271407728547
8603 -1075.390743306566
8604 -1075.512780925974
8605 -1075.629898116033
8606 -1075.74705507126
8607 -1075.855239231641
8608 -1075.964007727375
8609 -1076.065052407951
8610 -1076.165892425778
8611 -1076.256379464031
8612 -1076.349041006786
8613 -1076.430742747469
8614 -1076.513714090333
8615 -1076.587405952717
8616 -1076.662593076838
8617 -1076.728597669487
8618 -1076.793779968662
8619 -1076.851326128942
8620 -1076.912225072258
8621 -1076.967251544874
8622 -1077.025208846215
8623 -1077.078666651023
8624 -1077.135125416825
8625 -1077.185905170546
8626 -1077.24005439096
8627 -1077.291130115748
8628 -1077.347941326366
8629 -1077.400555970259
8630 -1077.459895204268
8631 -1077.519636286648
8632 -1077.583518632269
8633 -1077.647746176039
8634 -1077.718706631333
8635 -1077.786669474698
8636 -1077.865307104701
8637 -1077.942056664721
8638 -1078.026695894443
8639 -1078.111177280458
8640 -1078.2032601417
8641 -1078.291910121798
8642 -1078.388673071996
8643 -1078.482650874411
8644 -1078.581587376916
8645 -1078.677590764122
8646 -1078.782963630877
8647 -1078.882101075203
8648 -1078.984939061812
8649 -1079.081561565535
8650 -1079.181501149834
8651 -1079.276049007322
8652 -1079.371419611431
8653 -1079.459583248941
8654 -1079.548435292167
8655 -1079.629146244774
8656 -1079.711750011574
8657 -1079.785659545862
8658 -1079.861800333596
8659 -1079.927026242102
8660 -1079.992108611129
8661 -1080.047606072765
8662 -1080.103696360769
8663 -1080.147911436402
8664 -1080.195427072204
8665 -1080.234027609438
8666 -1080.275350035374
8667 -1080.308227276875
8668 -1080.343469874846
8669 -1080.37059854923
8670 -1080.398115257468
8671 -1080.420815759233
8672 -1080.447765862037
8673 -1080.470201408112
8674 -1080.497085068197
8675 -1080.521033507276
8676 -1080.551232949271
8677 -1080.578470348559
8678 -1080.613451825669
8679 -1080.646402843958
8680 -1080.686030385895
8681 -1080.724260188285
8682 -1080.768180323771
8683 -1080.812917069857
8684 -1080.866307808038
8685 -1080.91815653586
8686 -1080.97778028954
8687 -1081.036066929539
8688 -1081.103383532324
8689 -1081.168101731099
8690 -1081.243875599946
8691 -1081.315444346405
8692 -1081.394289112483
8693 -1081.46928301254
8694 -1081.549792334519
8695 -1081.627749327822
8696 -1081.706877863338
8697 -1081.781719662196
8698 -1081.860516552277
8699 -1081.932458975856
8700 -1082.00703062002
8701 -1082.071503597878
8702 -1082.139937740001
8703 -1082.198251948005
8704 -1082.259256131198
8705 -1082.31059673537
8706 -1082.364549895003
8707 -1082.409464297309
8708 -1082.456672014355
8709 -1082.492138957846
8710 -1082.52850938605
8711 -1082.556223128002
8712 -1082.585578042389
8713 -1082.604526662284
8714 -1082.627032954581
8715 -1082.639987208424
8716 -1082.657955698563
8717 -1082.667014435689
8718 -1082.679869168701
8719 -1082.687716029532
8720 -1082.700544110003
8721 -1082.707750388999
8722 -1082.722787909308
8723 -1082.732675389023
8724 -1082.750406296502
8725 -1082.762783125366
8726 -1082.787093217224
8727 -1082.806486050973
8728 -1082.834285996647
8729 -1082.860501711447
8730 -1082.896330708688
8731 -1082.93022350427
8732 -1082.972798729685
8733 -1083.014901104711
8734 -1083.063816181784
8735 -1083.111522476694
8736 -1083.16651837999
8737 -1083.219236283277
8738 -1083.278496223898
8739 -1083.333336807938
8740 -1083.39636605623
8741 -1083.453751776573
8742 -1083.516026583246
8743 -1083.572637456085
8744 -1083.635289418909
8745 -1083.69208164445
8746 -1083.752459062426
8747 -1083.80448117275
8748 -1083.860709094612
8749 -1083.909027003606
8750 -1083.96048714337
8751 -1084.001187326066
8752 -1084.043461429142
8753 -1084.078311588363
8754 -1084.116390092292
8755 -1084.145606487337
8756 -1084.17799496325
8757 -1084.198370410911
8758 -1084.223733769408
8759 -1084.238630333492
8760 -1084.255192661322
8761 -1084.264681105787
8762 -1084.278923970797
8763 -1084.285132368421
8764 -1084.295553933449
8765 -1084.298893094644
8766 -1084.308025251471
8767 -1084.309591241382
8768 -1084.318107657627
8769 -1084.320551852323
8770 -1084.330208893644
8771 -1084.336159833678
8772 -1084.350393001893
8773 -1084.359683753336
8774 -1084.378619181115
8775 -1084.392003681333
8776 -1084.414717872384
8777 -1084.432290643134
8778 -1084.46136770784
8779 -1084.485791894563
8780 -1084.518738039474
8781 -1084.552207366678
8782 -1084.591050609576
8783 -1084.626678618721
8784 -1084.669224991101
8785 -1084.70862723104
8786 -1084.754634687832
8787 -1084.794764539483
8788 -1084.842052131106
8789 -1084.885054316039
8790 -1084.933558490227
8791 -1084.975651688941
8792 -1085.020789942456
8793 -1085.059577017985
8794 -1085.100574041414
8795 -1085.134904287211
8796 -1085.175294180373
8797 -1085.205550316626
8798 -1085.240467907361
8799 -1085.267225917264
8800 -1085.295887013666
8801 -1085.315172345315
8802 -1085.337069926445
8803 -1085.349931056374
8804 -1085.36683681766
8805 -1085.376764338127
8806 -1085.388564350322
8807 -1085.394654430268
8808 -1085.404216006089
8809 -1085.408600483728
8810 -1085.415463039275
8811 -1085.415135749917
8812 -1085.419854093132
8813 -1085.420522550594
8814 -1085.427372826737
8815 -1085.429517666452
8816 -1085.436911384699
8817 -1085.441398240168
8818 -1085.451347319617
8819 -1085.456514956902
8820 -1085.470495359025
8821 -1085.4819936052
8822 -1085.500439215743
8823 -1085.516116284159
8824 -1085.539685943072
8825 -1085.560252425917
8826 -1085.587775228622
8827 -1085.609571636603
8828 -1085.640171778739
8829 -1085.667864616059
8830 -1085.700645191309
8831 -1085.728443685246
8832 -1085.76461541214
8833 -1085.797106131162
8834 -1085.833307611217
8835 -1085.862293601729
8836 -1085.896904187327
8837 -1085.925079914133
8838 -1085.958679766379
8839 -1085.985086753163
8840 -1086.016112564842
8841 -1086.040757931435
8842 -1086.069361307097
8843 -1086.090575094906
8844 -1086.11551654132
8845 -1086.133613143943
8846 -1086.154233454623
8847 -1086.166082081213
8848 -1086.181293491799
8849 -1086.190059654779
8850 -1086.202324212149
8851 -1086.207040122071
8852 -1086.216889737933
8853 -1086.219938721688
8854 -1086.227189014878
8855 -1086.227989151715
8856 -1086.234030946892
8857 -1086.234358380501
8858 -1086.240397564678
8859 -1086.239785559293
8860 -1086.24616269136
8861 -1086.248127029449
8862 -1086.255788360894
8863 -1086.259070253144
8864 -1086.268747494733
8865 -1086.276247161421
8866 -1086.290300943128
8867 -1086.300734348119
8868 -1086.318391325841
8869 -1086.331139674213
8870 -1086.351181679417
8871 -1086.36634514873
8872 -1086.389422306608
8873 -1086.407670594576
8874 -1086.432549961111
8875 -1086.452764495862
8876 -1086.479981726792
8877 -1086.50124271534
8878 -1086.527984304635
8879 -1086.547360944553
8880 -1086.575528842489
8881 -1086.59746379153
8882 -1086.624632018541
8883 -1086.643826425649
8884 -1086.66712996022
8885 -1086.68434326521
8886 -1086.705178698861
8887 -1086.719498892458
8888 -1086.738240597183
8889 -1086.750330140425
8890 -1086.767379922826
8891 -1086.777569065076
8892 -1086.79228154662
8893 -1086.799689677212
8894 -1086.810759141822
8895 -1086.813234677636
8896 -1086.820010445886
8897 -1086.821545955793
8898 -1086.828894774906
8899 -1086.830586396332
8900 -1086.838175273247
8901 -1086.84117324918
8902 -1086.848446448207
8903 -1086.84849841971
8904 -1086.854112775512
8905 -1086.854683533263
8906 -1086.861350639342
8907 -1086.862756793921
8908 -1086.870469755643
8909 -1086.874172893724
8910 -1086.884454769604
8911 -1086.890525357506
8912 -1086.904417930012
8913 -1086.913202631305
8914 -1086.928310863751
8915 -1086.937606198336
8916 -1086.953446417
8917 -1086.96461435568
8918 -1086.9823467374
8919 -1086.994222979977
8920 -1087.013687392041
8921 -1087.02827211361
8922 -1087.048993943573
8923 -1087.063179756018
8924 -1087.083325701923
8925 -1087.096971187537
8926 -1087.115546366664
8927 -1087.127723677
8928 -1087.14555800632
8929 -1087.157097623294
8930 -1087.17418607223
8931 -1087.183982970321
8932 -1087.1994401022
8933 -1087.208066291167
8934 -1087.221894875776
8935 -1087.228287001341
8936 -1087.240637655779
8937 -1087.244592514709
8938 -1087.254519858381
8939 -1087.256324101955
8940 -1087.264586669418
8941 -1087.266016628461
8942 -1087.273931271851
8943 -1087.274574122884
8944 -1087.282555972339
8945 -1087.282497784589
8946 -1087.288306964189
8947 -1087.288634967177
8948 -1087.295814704971
8949 -1087.295509303569
8950 -1087.302692701468
8951 -1087.303149772966
8952 -1087.312480772622
8953 -1087.316334239995
8954 -1087.325708708939
8955 -1087.328986774117
8956 -1087.339836829714
8957 -1087.344661757094
8958 -1087.355673827547
8959 -1087.361937831676
8960 -1087.375806777761
8961 -1087.384055210696
8962 -1087.397815550474
8963 -1087.406200492789
8964 -1087.422060670815
8965 -1087.432100680413
8966 -1087.447281996945
8967 -1087.456034458928
8968 -1087.470616961759
8969 -1087.479702283649
8970 -1087.49373418511
8971 -1087.502723964683
8972 -1087.516911315871
8973 -1087.524663597761
8974 -1087.537101674296
8975 -1087.544099755567
8976 -1087.55563048354
8977 -1087.561995121171
8978 -1087.572122038969
8979 -1087.57589229044
8980 -1087.584734922485
8981 -1087.588081908769
8982 -1087.595818635082
8983 -1087.598053510492
8984 -1087.606083094929
8985 -1087.607975138666
8986 -1087.614047877529
8987 -1087.614413992413
8988 -1087.620198383718
8989 -1087.619425522999
8990 -1087.624961305469
8991 -1087.624087069624
8992 -1087.630324077669
8993 -1087.631489057665
8994 -1087.638937564731
8995 -1087.640389333262
8996 -1087.64721344722
8997 -1087.648510140544
8998 -1087.655697295648
8999 -1087.656761737435
9000 -1087.665391659392
9001 -1087.668873431731
9002 -1087.67923129649
9003 -1087.684521982038
9004 -1087.69553740663
9005 -1087.699900392256
9006 -1087.710378535795
9007 -1087.714107539992
9008 -1087.724363804683
9009 -1087.728309599884
9010 -1087.739280611145
9011 -1087.744556883214
9012 -1087.75614993585
9013 -1087.762089223978
9014 -1087.772519566598
9015 -1087.776789767452
9016 -1087.78627391656
9017 -1087.788742837663
9018 -1087.79790748418
9019 -1087.800620658818
9020 -1087.80988548528
9021 -1087.811631354715
9022 -1087.820203646215
9023 -1087.821639409655
9024 -1087.830306789307
9025 -1087.831551149717
9026 -1087.838144042991
9027 -1087.837870054821
9028 -1087.844109768963
9029 -1087.84391914717
9030 -1087.849921509407
9031 -1087.848527989599
9032 -1087.854872350411
9033 -1087.85522594534
9034 -1087.861746215165
9035 -1087.862599537694
9036 -1087.868397581299
9037 -1087.868645921034
9038 -1087.874844830148
9039 -1087.874517840114
9040 -1087.880321565488
9041 -1087.88075428592
9042 -1087.887762632055
9043 -1087.890031423067
9044 -1087.89876767909
9045 -1087.901084908971
9046 -1087.909885660728
9047 -1087.911120940835
9048 -1087.918686226029
9049 -1087.920413837175
9050 -1087.928938567681
9051 -1087.931881016767
9052 -1087.941164929821
9053 -1087.945050760512
9054 -1087.955118511006
9055 -1087.957555106915
9056 -1087.966024376043
9057 -1087.9673902106
9058 -1087.974074297995
9059 -1087.974993048691
9060 -1087.983362130039
9061 -1087.985280665393
9062 -1087.993816638644
9063 -1087.995266348513
9064 -1088.002296758096
9065 -1088.003328273521
9066 -1088.009566426005
9067 -1088.009007473188
9068 -1088.014194452595
9069 -1088.013465991548
9070 -1088.019717130715
9071 -1088.018852145866
9072 -1088.0245414281
9073 -1088.024336833066
9074 -1088.029638214358
9075 -1088.028779685905
9076 -1088.032737648106
9077 -1088.031270831329
9078 -1088.036681921664
9079 -1088.035509509772
9080 -1088.040981324587
9081 -1088.040941667952
9082 -1088.046439464213
9083 -1088.045918554071
9084 -1088.051808059055
9085 -1088.05150149488
9086 -1088.05708989131
9087 -1088.05664696612
9088 -1088.063265029375
9089 -1088.063723845107
9090 -1088.070642687302
9091 -1088.070904958972
9092 -1088.078020343418
9093 -1088.078614995551
9094 -1088.085217678562
9095 -1088.08546750138
9096 -1088.093168694414
9097 -1088.094217119621
9098 -1088.101627494596
9099 -1088.102654652421
9100 -1088.11016970491
9101 -1088.110650688824
9102 -1088.116711176181
9103 -1088.116446890783
9104 -1088.122666187348
9105 -1088.123999351811
9106 -1088.129114996306
9107 -1088.129195837171
9108 -1088.135493627598
9109 -1088.135599599433
9110 -1088.140998476859
9111 -1088.139530011295
9112 -1088.143743775273
9113 -1088.142488349656
9114 -1088.146680329504
9115 -1088.145948878331
9116 -1088.150729175269
9117 -1088.149434923391
9118 -1088.153785066891
9119 -1088.151911217602
9120 -1088.15734456535
9121 -1088.156213139328
9122 -1088.161432682183
9123 -1088.160725123735
9124 -1088.166513648964
9125 -1088.165901795022
9126 -1088.170055674116
9127 -1088.168699315262
9128 -1088.173894942341
9129 -1088.171832991409
9130 -1088.177297898725
9131 -1088.176751108502
9132 -1088.18390172755
9133 -1088.184004156595
9134 -1088.190481823278
9135 -1088.189226844806
9136 -1088.194805282885
9137 -1088.19311051655
9138 -1088.199181829649
9139 -1088.198261317076
9140 -1088.20523470594
9141 -1088.204253181831
9142 -1088.209918356171
9143 -1088.208301121055
9144 -1088.213587559977
9145 -1088.212777239062
9146 -1088.218658701133
9147 -1088.217679012077
9148 -1088.223253040576
9149 -1088.221230179088
9150 -1088.22588093885
9151 -1088.22300033789
9152 -1088.227722576006
9153 -1088.225804718666
9154 -1088.229792090673
9155 -1088.227981561775
9156 -1088.233773742265
9157 -1088.232362872622
9158 -1088.236380675919
9159 -1088.233136350692
9160 -1088.238302187197
9161 -1088.236396809009
9162 -1088.240543417438
9163 -1088.239373184814
9164 -1088.245471769512
9165 -1088.244101948889
9166 -1088.24900413297
9167 -1088.246594709416
9168 -1088.252274543281
9169 -1088.250826832121
9170 -1088.255978626344
9171 -1088.255358766215
9172 -1088.261383962789
9173 -1088.26073672225
9174 -1088.266668564233
9175 -1088.264878736363
9176 -1088.27023284192
9177 -1088.268261622255
9178 -1088.272859613751
9179 -1088.271880448223
9180 -1088.278634657434
9181 -1088.278735975815
9182 -1088.284877304324
9183 -1088.283227706975
9184 -1088.288235195475
9185 -1088.285882957676
9186 -1088.28987684664
9187 -1088.287769369911
9188 -1088.29260031872
9189 -1088.29154598838
9190 -1088.296337015819
9191 -1088.294910316479
9192 -1088.300590264842
9193 -1088.298549373035
9194 -1088.302360449911
9195 -1088.299468220312
9196 -1088.302748928838
9197 -1088.300092748624
9198 -1088.303807709019
9199 -1088.301438445168
9200 -1088.306110378036
9201 -1088.304182554871
9202 -1088.308064145193
9203 -1088.306229846123
9204 -1088.310784783423
9205 -1088.309560530953
9206 -1088.313607019159
9207 -1088.311283149008
9208 -1088.315941551827
9209 -1088.313752066358
9210 -1088.318258207977
9211 -1088.316721536481
9212 -1088.321975217579
9213 -1088.320303016633
9214 -1088.325395670964
9215 -1088.323581524146
9216 -1088.329119647991
9217 -1088.327667312562
9218 -1088.332230586224
9219 -1088.330028239913
9220 -1088.334407957611
9221 -1088.332534682178
9222 -1088.337774455047
9223 -1088.336080915702
9224 -1088.340836240518
9225 -1088.338625789305
9226 -1088.342700802791
9227 -1088.340571808807
9228 -1088.34474044102
9229 -1088.342144917447
9230 -1088.346629393242
9231 -1088.344719959403
9232 -1088.349266075769
9233 -1088.347341043647
9234 -1088.351571179266
9235 -1088.348907821546
9236 -1088.353085604864
9237 -1088.350026306537
9238 -1088.353297667065
9239 -1088.351157217518
9240 -1088.356659342084
9241 -1088.355161555171
9242 -1088.359336063358
9243 -1088.357085657352
9244 -1088.360573971735
9245 -1088.357339885623
9246 -1088.360755955634
9247 -1088.358110270457
9248 -1088.363012296983
9249 -1088.360961684072
9250 -1088.364893113755
9251 -1088.362763123703
9252 -1088.366895040336
9253 -1088.36479227714
9254 -1088.368073943085
9255 -1088.364921277074
9256 -1088.368612218747
9257 -1088.3661581969
9258 -1088.369550274556
9259 -1088.368155538705
9260 -1088.37293001191
9261 -1088.371258244542
9262 -1088.375037919817
9263 -1088.37336661333
9264 -1088.378232502342
9265 -1088.375767874252
9266 -1088.378623762713
9267 -1088.376394598701
9268 -1088.380503715672
9269 -1088.378231215514
9270 -1088.38258781298
9271 -1088.380320994236
9272 -1088.384238650823
9273 -1088.382410731205
9274 -1088.384801060584
9275 -1088.381980518573
9276 -1088.385688989065
9277 -1088.383439215812
9278 -1088.387341263234
9279 -1088.385018194508
9280 -1088.389290360492
9281 -1088.387411596188
9282 -1088.390704498056
9283 -1088.388401950385
9284 -1088.392326225585
9285 -1088.389132464851
9286 -1088.392531240078
9287 -1088.389847730025
9288 -1088.395284359561
9289 -1088.394489954286
9290 -1088.398283746624
9291 -1088.396148909285
9292 -1088.399967995482
9293 -1088.39652208201
9294 -1088.399666171744
9295 -1088.396884328918
9296 -1088.401102760987
9297 -1088.399676676331
9298 -1088.40396642365
9299 -1088.402690943191
9300 -1088.406828798109
9301 -1088.404272516263
9302 -1088.408098670245
9303 -1088.405248619076
9304 -1088.409007346207
9305 -1088.406558808875
9306 -1088.410211756868
9307 -1088.408360425609
9308 -1088.413187410785
9309 -1088.41028009416
9310 -1088.414190789687
9311 -1088.411298689215
9312 -1088.415811309822
9313 -1088.414014814392
9314 -1088.417884645661
9315 -1088.414793526813
9316 -1088.418219978789
9317 -1088.414373019305
9318 -1088.417406414218
9319 -1088.413903046413
9320 -1088.418217459059
9321 -1088.416041816721
9322 -1088.419792615124
9323 -1088.417768340946
9324 -1088.422010708248
9325 -1088.418533518396
9326 -1088.421004470708
9327 -1088.416444233837
9328 -1088.419498516539
9329 -1088.416262966712
9330 -1088.42035696866
9331 -1088.41828168119
9332 -1088.423534163516
9333 -1088.420845112858
9334 -1088.423551947302
9335 -1088.419067443152
9336 -1088.422780402999
9337 -1088.419993285699
9338 -1088.42348558496
9339 -1088.421342303842
9340 -1088.426258073915
9341 -1088.4240978661
9342 -1088.428252886985
9343 -1088.42542405534
9344 -1088.429729690239
9345 -1088.426914827645
9346 -1088.429533052336
9347 -1088.427464486109
9348 -1088.43237348369
9349 -1088.430698914892
9350 -1088.435211190655
9351 -1088.432388726758
9352 -1088.436436705803
9353 -1088.433704204568
9354 -1088.437673461186
9355 -1088.435888507999
9356 -1088.440157515771
9357 -1088.43737178751
9358 -1088.441165547228
9359 -1088.438078255249
9360 -1088.442286258522
9361 -1088.440093557589
9362 -1088.443229128995
9363 -1088.440299445333
9364 -1088.443748740283
9365 -1088.441306077767
9366 -1088.445372907762
9367 -1088.442348105552
9368 -1088.446401961886
9369 -1088.443385874129
9370 -1088.446652507509
9371 -1088.443894353175
9372 -1088.448212834229
9373 -1088.445431774243
9374 -1088.449041152752
9375 -1088.445530487843
9376 -1088.448669977675
9377 -1088.445332375223
9378 -1088.449111195374
9379 -1088.446654066669
9380 -1088.45118520997
9381 -1088.44844758395
9382 -1088.452008808544
9383 -1088.448931244245
9384 -1088.452290898977
9385 -1088.449521387396
9386 -1088.452274071241
9387 -1088.448408723989
9388 -1088.45101681438
9389 -1088.448068910199
9390 -1088.451358877412
9391 -1088.447666738285
9392 -1088.45127550897
9393 -1088.448518262807
9394 -1088.450912027377
9395 -1088.448043368453
9396 -1088.451389090589
9397 -1088.448732582667
9398 -1088.451497851049
9399 -1088.448816855593
9400 -1088.452438393306
9401 -1088.450009519244
9402 -1088.452739024645
9403 -1088.449932246054
9404 -1088.45316998846
9405 -1088.449865227295
9406 -1088.452265888334
9407 -1088.448692558654
9408 -1088.452243778711
9409 -1088.450121384117
9410 -1088.453149915051
9411 -1088.449974324434
9412 -1088.453345731789
9413 -1088.450463147681
9414 -1088.452743379482
9415 -1088.449312836656
9416 -1088.452541589812
9417 -1088.449081857773
9418 -1088.451349040316
9419 -1088.448904810816
9420 -1088.453061291406
9421 -1088.450913732227
9422 -1088.454864241095
9423 -1088.452861595813
9424 -1088.456210517584
9425 -1088.452728755
9426 -1088.455549513497
9427 -1088.452492513782
9428 -1088.455772155482
9429 -1088.452903029024
9430 -1088.456767841002
9431 -1088.454178623497
9432 -1088.459122730962
9433 -1088.456857602431
9434 -1088.459956594831
9435 -1088.456314297708
9436 -1088.459614256934
9437 -1088.455861740913
9438 -1088.459109279746
9439 -1088.456383278552
9440 -1088.461105914997
9441 -1088.458880605227
9442 -1088.462533404365
9443 -1088.459658621728
9444 -1088.463663513966
9445 -1088.460139876154
9446 -1088.462627033509
9447 -1088.459122720601
9448 -1088.463057547195
9449 -1088.460196340581
9450 -1088.463998534128
9451 -1088.461411950576
9452 -1088.465818525114
9453 -1088.461824420781
9454 -1088.465034507706
9455 -1088.461170246872
9456 -1088.465116201084
9457 -1088.462013460714
9458 -1088.464534988466
9459 -1088.461900304506
9460 -1088.465933201674
9461 -1088.46359583485
9462 -1088.46685010254
9463 -1088.464225119827
9464 -1088.467377058863
9465 -1088.463591979476
9466 -1088.465680540329
9467 -1088.463255834327
9468 -1088.467548922892
9469 -1088.465712151626
9470 -1088.468942150213
9471 -1088.466135789375
9472 -1088.468824080152
9473 -1088.465673246707
9474 -1088.468961346864
9475 -1088.466688622257
9476 -1088.469282389266
9477 -1088.467679817208
9478 -1088.47069707628
9479 -1088.468336408663
9480 -1088.472020522387
9481 -1088.468858967057
9482 -1088.470975494752
9483 -1088.468532971508
9484 -1088.471881052992
9485 -1088.469619275491
9486 -1088.473209157309
9487 -1088.470943561502
9488 -1088.47532294383
9489 -1088.472486449771
9490 -1088.475127154069
9491 -1088.472085742575
9492 -1088.475547493266
9493 -1088.472915331075
9494 -1088.476445810569
9495 -1088.473393854797
9496 -1088.477274796139
9497 -1088.47421964352
9498 -1088.477066686474
9499 -1088.47372963131
9500 -1088.477009298337
9501 -1088.474104519614
9502 -1088.476476104968
9503 -1088.473618539097
9504 -1088.478013695429
9505 -1088.475331299966
9506 -1088.477908855797
9507 -1088.475542369818
9508 -1088.478209115092
9509 -1088.475365075135
9510 -1088.477452960057
9511 -1088.47521145752
9512 -1088.478870147062
9513 -1088.476902815666
9514 -1088.4793890022
9515 -1088.47693900556
9516 -1088.479626687483
9517 -1088.476803632427
9518 -1088.478927396308
9519 -1088.476029288161
9520 -1088.478867389052
9521 -1088.476163305139
9522 -1088.479343164179
9523 -1088.477373409574
9524 -1088.480903962635
9525 -1088.477827434328
9526 -1088.479955453797
9527 -1088.476487478838
9528 -1088.479099527366
9529 -1088.47609802733
9530 -1088.478439592737
9531 -1088.476215504386
9532 -1088.479496573353
9533 -1088.476888986175
9534 -1088.479827105609
9535 -1088.477255104539
9536 -1088.480670420751
9537 -1088.477299152001
9538 -1088.478645124363
9539 -1088.475687609206
9540 -1088.47922773153
9541 -1088.476639853111
9542 -1088.478977628503
9543 -1088.475799666194
9544 -1088.479270121947
9545 -1088.476144640229
9546 -1088.478790001447
9547 -1088.476466014861
9548 -1088.479982521349
9549 -1088.476634819784
9550 -1088.478657678596
9551 -1088.475120074932
9552 -1088.478751962953
9553 -1088.475930112954
9554 -1088.478822219484
9555 -1088.476125389693
9556 -1088.479085076149
9557 -1088.47649915514
9558 -1088.479773068681
9559 -1088.476726192948
9560 -1088.480565194608
9561 -1088.476672549064
9562 -1088.479203858963
9563 -1088.476225323066
9564 -1088.479546336498
9565 -1088.476949713029
9566 -1088.480976154889
9567 -1088.478141599091
9568 -1088.481856960805
9569 -1088.478189069323
9570 -1088.481501038195
9571 -1088.478866069577
9572 -1088.482483597572
9573 -1088.479628641271
9574 -1088.482859963219
9575 -1088.479254110947
9576 -1088.482587022469
9577 -1088.479353280802
9578 -1088.482002492093
9579 -1088.479130317829
9580 -1088.482286221443
9581 -1088.479866147801
9582 -1088.48365921068
9583 -1088.48153671597
9584 -1088.485807846355
9585 -1088.483233200951
9586 -1088.48568156564
9587 -1088.482057670955
9588 -1088.485339861034
9589 -1088.482786869116
9590 -1088.486138068011
9591 -1088.483932489804
9592 -1088.488605151637
9593 -1088.486534249495
9594 -1088.489984330973
9595 -1088.48697842944
9596 -1088.489560877114
9597 -1088.485675233112
9598 -1088.488045487564
9599 -1088.485030202533
9600 -1088.489615434582
9601 -1088.487333859254
9602 -1088.490658052982
9603 -1088.487365778157
9604 -1088.489515290261
9605 -1088.485318978449
9606 -1088.487046598828
9607 -1088.483204432267
9608 -1088.485904964999
9609 -1088.482884263091
9610 -1088.485916208789
9611 -1088.482684259364
9612 -1088.485298323435
9613 -1088.481530452935
9614 -1088.484014219124
9615 -1088.479420372418
9616 -1088.481722170745
9617 -1088.478244330191
9618 -1088.481216160589
9619 -1088.479087630048
9620 -1088.483264902969
9621 -1088.479898969122
9622 -1088.482699715268
9623 -1088.478965517193
9624 -1088.481858030062
9625 -1088.478146661728
9626 -1088.480618845761
9627 -1088.477647596902
9628 -1088.481683504517
9629 -1088.478861331717
9630 -1088.483119655632
9631 -1088.479650855704
9632 -1088.483246298642
9633 -1088.480111480119
9634 -1088.482615433133
9635 -1088.479613425202
9636 -1088.483195980563
9637 -1088.480924468357
9638 -1088.484982618629
9639 -1088.481563249013
9640 -1088.485262365646
9641 -1088.481580389669
9642 -1088.484100579966
9643 -1088.481316845947
9644 -1088.484048395045
9645 -1088.481238157568
9646 -1088.484798796714
9647 -1088.482067446588
9648 -1088.486126089128
9649 -1088.484009075491
9650 -1088.48706718771
9651 -1088.484261508978
9652 -1088.486749069941
9653 -1088.48402959393
9654 -1088.48781280511
9655 -1088.485677608899
9656 -1088.489616354945
9657 -1088.487340483788
9658 -1088.489872824387
9659 -1088.487600199324
9660 -1088.490693422782
9661 -1088.488395592459
9662 -1088.491548081515
9663 -1088.48902191177
9664 -1088.492904696184
9665 -1088.491002132449
9666 -1088.493878312493
9667 -1088.491709863987
9668 -1088.49409549226
9669 -1088.490741377974
9670 -1088.49267752513
9671 -1088.490112296354
9672 -1088.493544275439
9673 -1088.491408064412
9674 -1088.494106973656
9675 -1088.491423774057
9676 -1088.493761846873
9677 -1088.490108827095
9678 -1088.492399534544
9679 -1088.489181457677
9680 -1088.491979872945
9681 -1088.488915116567
9682 -1088.491186373814
9683 -1088.487933053722
9684 -1088.490084036534
9685 -1088.486586910927
9686 -1088.488072659845
9687 -1088.484524501182
9688 -1088.48734971049
9689 -1088.484895887783
9690 -1088.487685045813
9691 -1088.48528085537
9692 -1088.487792554911
9693 -1088.483983303543
9694 -1088.485408025173
9695 -1088.482035243734
9696 -1088.485492987975
9697 -1088.483435216192
9698 -1088.486736526072
9699 -1088.484416726967
9700 -1088.487510477046
9701 -1088.483970060971
9702 -1088.485928607774
9703 -1088.482408523775
9704 -1088.485538954174
9705 -1088.483381551897
9706 -1088.486744391982
9707 -1088.485474400676
9708 -1088.488913168881
9709 -1088.485981487268
9710 -1088.488637655472
9711 -1088.485333338528
9712 -1088.48814535458
9713 -1088.485248961465
9714 -1088.488807076782
9715 -1088.486658264617
9716 -1088.489856736574
9717 -1088.486993982464
9718 -1088.489855684469
9719 -1088.485875640506
9720 -1088.489905410591
9721 -1088.487234021027
9722 -1088.490696677944
9723 -1088.487862993148
9724 -1088.491199770495
9725 -1088.48814091317
9726 -1088.491357990343
9727 -1088.488174406245
9728 -1088.49244948722
9729 -1088.490179435325
9730 -1088.494155162616
9731 -1088.491927746225
9732 -1088.495588300372
9733 -1088.49304586938
9734 -1088.496125823135
9735 -1088.493062583395
9736 -1088.495862772364
9737 -1088.493693826889
9738 -1088.496184085248
9739 -1088.493456987137
9740 -1088.49638911502
9741 -1088.492979553682
9742 -1088.495477220001
9743 -1088.492836187993
9744 -1088.496311539533
9745 -1088.494624272904
9746 -1088.497304017244
9747 -1088.494370282072
9748 -1088.495947422014
9749 -1088.491809631366
9750 -1088.493901847199
9751 -1088.490535221919
9752 -1088.49350401643
9753 -1088.491566389172
9754 -1088.493936397671
9755 -1088.490909375251
9756 -1088.493617298379
9757 -1088.490298033985
9758 -1088.492308203739
9759 -1088.488378778102
9760 -1088.491064151635
9761 -1088.488641530226
9762 -1088.491382810028
9763 -1088.489181686195
9764 -1088.492388654103
9765 -1088.489089207999
9766 -1088.491067264418
9767 -1088.487375654663
9768 -1088.490388455822
9769 -1088.487264455069
9770 -1088.490062527599
9771 -1088.486983271346
9772 -1088.490334215211
9773 -1088.487824255732
9774 -1088.49127076219
9775 -1088.487459833112
9776 -1088.490366056223
9777 -1088.486853127134
9778 -1088.4897203015
9779 -1088.487490278649
9780 -1088.490997043095
9781 -1088.488806734548
9782 -1088.491852718215
9783 -1088.488661513105
9784 -1088.491493266941
9785 -1088.488635272384
9786 -1088.491602406611
9787 -1088.490442623942
9788 -1088.493562107695
9789 -1088.49106959469
9790 -1088.494090610982
9791 -1088.490753224145
9792 -1088.493920717917
9793 -1088.490958084281
9794 -1088.493763970149
9795 -1088.491577116536
9796 -1088.496002888258
9797 -1088.493801641489
9798 -1088.49697725666
9799 -1088.494001029239
9800 -1088.497230680208
9801 -1088.494286652033
9802 -1088.496689371069
9803 -1088.49391103955
9804 -1088.497930317813
9805 -1088.495281158029
9806 -1088.49807926031
9807 -1088.494778752339
9808 -1088.498027929546
9809 -1088.494680867792
9810 -1088.497587253006
9811 -1088.49441487401
9812 -1088.497831928829
9813 -1088.494124461868
9814 -1088.497014062449
9815 -1088.493295558816
9816 -1088.496090621824
9817 -1088.492767199445
9818 -1088.49459542369
9819 -1088.49106645563
9820 -1088.494921572564
9821 -1088.491038254999
9822 -1088.493795618628
9823 -1088.490554599584
9824 -1088.493939477794
9825 -1088.490826492687
9826 -1088.493058901937
9827 -1088.490823255268
9828 -1088.494280111001
9829 -1088.490943519999
9830 -1088.494009778936
9831 -1088.489924009589
9832 -1088.493181323863
9833 -1088.490510934027
9834 -1088.494188549749
9835 -1088.492590371217
9836 -1088.49645056103
9837 -1088.493062702558
9838 -1088.49516888672
9839 -1088.491187735932
9840 -1088.494333541835
9841 -1088.490830427282
9842 -1088.493344590111
9843 -1088.491502884046
9844 -1088.495240693726
9845 -1088.492231990726
9846 -1088.494726499926
9847 -1088.49066595973
9848 -1088.493822580506
9849 -1088.490517093096
9850 -1088.493566402963
9851 -1088.490883130669
9852 -1088.495247801412
9853 -1088.492449622693
9854 -1088.49601935075
9855 -1088.492044326738
9856 -1088.494964011555
9857 -1088.491202098762
9858 -1088.494748194348
9859 -1088.493090259855
9860 -1088.496868089954
9861 -1088.494154875485
9862 -1088.497315782804
9863 -1088.49341230496
9864 -1088.496952388545
9865 -1088.493310253909
9866 -1088.496621418135
9867 -1088.493990082142
9868 -1088.49804333772
9869 -1088.495507962572
9870 -1088.499092394543
9871 -1088.495977804763
9872 -1088.499688249113
9873 -1088.49625842511
9874 -1088.49864162687
9875 -1088.495626995511
9876 -1088.49922973467
9877 -1088.49718158009
9878 -1088.500034416187
9879 -1088.497176048226
9880 -1088.501162903453
9881 -1088.497725587031
9882 -1088.500172463925
9883 -1088.497019056136
9884 -1088.50016283952
9885 -1088.49633509229
9886 -1088.498733889992
9887 -1088.495398252035
9888 -1088.498913429345
9889 -1088.495272459858
9890 -1088.497370439802
9891 -1088.493443303227
9892 -1088.496691879854
9893 -1088.492759177269
9894 -1088.495539457225
9895 -1088.49265692606
9896 -1088.496225036434
9897 -1088.493406512784
9898 -1088.496328169049
9899 -1088.492615128945
9900 -1088.495552943865
9901 -1088.491457887752
9902 -1088.494206430395
9903 -1088.491532968387
9904 -1088.495554205603
9905 -1088.492095857623
9906 -1088.49481973676
9907 -1088.491777843279
9908 -1088.49599389159
9909 -1088.4917430024
9910 -1088.494392957179
9911 -1088.490460336855
9912 -1088.494931303766
9913 -1088.491975991231
9914 -1088.495007253053
9915 -1088.491914223099
9916 -1088.495144390045
9917 -1088.491334864801
9918 -1088.494758472997
9919 -1088.491911686203
9920 -1088.496446444781
9921 -1088.49356838066
9922 -1088.496443573254
9923 -1088.493647904353
9924 -1088.497385068281
9925 -1088.493945285628
9926 -1088.496663759332
9927 -1088.492977998516
9928 -1088.496602419626
9929 -1088.493563931204
9930 -1088.49704029159
9931 -1088.494673594594
9932 -1088.498446898114
9933 -1088.495413194849
9934 -1088.498437704989
9935 -1088.49439435311
9936 -1088.498395661935
9937 -1088.49504982991
9938 -1088.497927415683
9939 -1088.495017068258
9940 -1088.498826023951
9941 -1088.495988014687
9942 -1088.49935580843
9943 -1088.496962022357
9944 -1088.500733258172
9945 -1088.497326829995
9946 -1088.500051117644
9947 -1088.496660407794
9948 -1088.500582378833
9949 -1088.497354355722
9950 -1088.500428728524
9951 -1088.496681113837
9952 -1088.500753303747
9953 -1088.497184413026
9954 -1088.500640012594
9955 -1088.497719208544
9956 -1088.50112865303
9957 -1088.49730994116
9958 -1088.499833788253
9959 -1088.495714203125
9960 -1088.499003044725
9961 -1088.495112512609
9962 -1088.498291465164
9963 -1088.495711591547
9964 -1088.499276005404
9965 -1088.496202183525
9966 -1088.499031164069
9967 -1088.495767991144
9968 -1088.498490012698
9969 -1088.494173532801
9970 -1088.496817590429
9971 -1088.493190593962
9972 -1088.497163562392
9973 -1088.494676140284
9974 -1088.498898762517
9975 -1088.495902091227
9976 -1088.498978244513
9977 -1088.495391788336
9978 -1088.498636625386
9979 -1088.495667866383
9980 -1088.49963658406
9981 -1088.496025044221
9982 -1088.499385385372
9983 -1088.496085796932
9984 -1088.500222645161
9985 -1088.497061912015
9986 -1088.499879398659
9987 -1088.496198554581
9988 -1088.500685754053
9989 -1088.497220018675
9990 -1088.501423531005
9991 -1088.497375975934
9992 -1088.501569382715
9993 -1088.497657949014
9994 -1088.499888036642
9995 -1088.496259050758
9996 -1088.500078479318
9997 -1088.496739055531
9998 -1088.500474176503
9999 -1088.496312812999
10000 -1088.500444894599
10001 -1088.496217872945
10002 -1088.49924554277
10003 -1088.496066080261
10004 -1088.499941881031
10005 -1088.496469366713
10006 -1088.499672470457
10007 -1088.495468704065
10008 -1088.499249852056
10009 -1088.495835854208
10010 -1088.499692429355
10011 -1088.496018776379
10012 -1088.500439146671
10013 -1088.497171924361
10014 -1088.500619424391
10015 -1088.497189425907
10016 -1088.501081383578
10017 -1088.496746897359
10018 -1088.499042623964
10019 -1088.495084468491
10020 -1088.499420630681
10021 -1088.496294484552
10022 -1088.499634890443
10023 -1088.49724697428
10024 -1088.501168714963
10025 -1088.496829247967
10026 -1088.499002182383
10027 -1088.494827055543
10028 -1088.49754734499
10029 -1088.493618365588
10030 -1088.49693849998
10031 -1088.49403983157
10032 -1088.49920532194
10033 -1088.497059339596
10034 -1088.500281161747
10035 -1088.4961335632
10036 -1088.499243707564
10037 -1088.494492879666
10038 -1088.496423870555
10039 -1088.492981447449
10040 -1088.497261276749
10041 -1088.494307815851
10042 -1088.498181117055
10043 -1088.494995085462
10044 -1088.498830348163
10045 -1088.495844258271
10046 -1088.499042076525
10047 -1088.495246549222
10048 -1088.498690711286
10049 -1088.494732982772
10050 -1088.498042672907
10051 -1088.495515653765
10052 -1088.499541977083
10053 -1088.496305046983
10054 -1088.500018327652
10055 -1088.49672956804
10056 -1088.501146528727
10057 -1088.497684335941
10058 -1088.499844452159
10059 -1088.496421751147
10060 -1088.50003441696
10061 -1088.496156182934
10062 -1088.499009856042
10063 -1088.496520461255
10064 -1088.501290929066
10065 -1088.498108179686
10066 -1088.501443703253
10067 -1088.497976093054
10068 -1088.501686806345
10069 -1088.497169595332
10070 -1088.500013935336
10071 -1088.495630128813
10072 -1088.499596687735
10073 -1088.495988198255
10074 -1088.499964499938
10075 -1088.497340527098
10076 -1088.50169696343
10077 -1088.497934488061
10078 -1088.500275126582
10079 -1088.496181160922
10080 -1088.500766545079
10081 -1088.497205957663
10082 -1088.500245761883
10083 -1088.497086360761
10084 -1088.501444850179
10085 -1088.498149281078
10086 -1088.501494103632
10087 -1088.498173820874
10088 -1088.501918975714
10089 -1088.497395501387
10090 -1088.499942992564
10091 -1088.495803352097
10092 -1088.499217893647
10093 -1088.495945498549
10094 -1088.499741853384
10095 -1088.495899894676
10096 -1088.499064002463
10097 -1088.494475869822
10098 -1088.498005098932
10099 -1088.494759821657
10100 -1088.49882049442
10101 -1088.49556623748
10102 -1088.499409166344
10103 -1088.496571716202
10104 -1088.500835905502
10105 -1088.496721478945
10106 -1088.499629013041
10107 -1088.496515047749
10108 -1088.500061683726
10109 -1088.49642172493
10110 -1088.500156665036
10111 -1088.496502374558
10112 -1088.500656060626
10113 -1088.497255337932
10114 -1088.500701767084
10115 -1088.497738840139
10116 -1088.502077534679
10117 -1088.498410272079
10118 -1088.50189430133
10119 -1088.497436281637
10120 -1088.500943404993
10121 -1088.497060606166
10122 -1088.500016907437
10123 -1088.497000171132
10124 -1088.501673652286
10125 -1088.49814238517
10126 -1088.501787513435
10127 -1088.497362622338
10128 -1088.500962921596
10129 -1088.496359891538
10130 -1088.498963946741
10131 -1088.495695177802
10132 -1088.49960583456
10133 -1088.495638710768
10134 -1088.498805626911
10135 -1088.49607823257
10136 -1088.500448475792
10137 -1088.497103571395
10138 -1088.499770624214
10139 -1088.495852263835
10140 -1088.499502983325
10141 -1088.49565967403
10142 -1088.498444527432
10143 -1088.493944763726
10144 -1088.497635411167
10145 -1088.494155867773
10146 -1088.498335524482
10147 -1088.49632766019
10148 -1088.501046586329
10149 -1088.497685546956
10150 -1088.499601892904
10151 -1088.495019688995
10152 -1088.49896259444
10153 -1088.495296351502
10154 -1088.499410981625
10155 -1088.496936487286
10156 -1088.501801384345
10157 -1088.498832399248
10158 -1088.501847135565
10159 -1088.497239985552
10160 -1088.500203788361
10161 -1088.496600027829
10162 -1088.499755544266
10163 -1088.496986176685
10164 -1088.501287951324
10165 -1088.498726171465
10166 -1088.502534134566
10167 -1088.498555659649
10168 -1088.501842205499
10169 -1088.497943430602
10170 -1088.501161499977
10171 -1088.498027961679
10172 -1088.502162170143
10173 -1088.498469815115
10174 -1088.501771153443
10175 -1088.497955533584
10176 -1088.501668574564
10177 -1088.498438003165
10178 -1088.501752308553
10179 -1088.498108897472
10180 -1088.501604096769
10181 -1088.497066446123
10182 -1088.500533255379
10183 -1088.497520447689
10184 -1088.501994823335
10185 -1088.49840902321
10186 -1088.502075129376
10187 -1088.499138726881
10188 -1088.503505770059
10189 -1088.499336506621
10190 -1088.501910719158
10191 -1088.497140420387
10192 -1088.500810620075
10193 -1088.49748580451
10194 -1088.501374184373
10195 -1088.498691405416
10196 -1088.503371711149
10197 -1088.499491135498
10198 -1088.502117866721
10199 -1088.497382149927
10200 -1088.500659148612
10201 -1088.496517737437
10202 -1088.500174290311
10203 -1088.497704838999
10204 -1088.502295281073
10205 -1088.498823820986
10206 -1088.502214198033
10207 -1088.497985236729
10208 -1088.501092846693
10209 -1088.496312302202
10210 -1088.499022081176
10211 -1088.495237741853
10212 -1088.499239972904
10213 -1088.496688247863
10214 -1088.500138543534
10215 -1088.495662507363
10216 -1088.498936195618
10217 -1088.494654294576
10218 -1088.497804029271
10219 -1088.494685781963
10220 -1088.499185714161
10221 -1088.495869335048
10222 -1088.499601599111
10223 -1088.496241728741
10224 -1088.50032995522
10225 -1088.496608372377
10226 -1088.499890225631
10227 -1088.496444516535
10228 -1088.500230983577
10229 -1088.496771070907
10230 -1088.501155126468
10231 -1088.497828313574
10232 -1088.502153605169
10233 -1088.498202517894
10234 -1088.500947089255
10235 -1088.496574719547
10236 -1088.500624530806
10237 -1088.497022941639
10238 -1088.501324175474
10239 -1088.498290620566
10240 -1088.502592995425
10241 -1088.498320333608
10242 -1088.501466937847
10243 -1088.498006718187
10244 -1088.502362907897
10245 -1088.498485497732
10246 -1088.501937115065
10247 -1088.498245752462
10248 -1088.50312193817
10249 -1088.499219034719
10250 -1088.502261627995
10251 -1088.497654829202
10252 -1088.500941057954
10253 -1088.497127732656
10254 -1088.501653172747
10255 -1088.498986472517
10256 -1088.503594075748
10257 -1088.50048671998
10258 -1088.503211155706
10259 -1088.49925266999
10260 -1088.502400474023
10261 -1088.497847950474
10262 -1088.501186634156
10263 -1088.497232373724
10264 -1088.501578438431
10265 -1088.498492166034
10266 -1088.502095408719
10267 -1088.499665382505
10268 -1088.503922561774
10269 -1088.500353871285
10270 -1088.503454209493
10271 -1088.499732470466
10272 -1088.504156093745
10273 -1088.501208870851
10274 -1088.504648829322
10275 -1088.50191142688
10276 -1088.505555954933
10277 -1088.502622452086
10278 -1088.506546761871
10279 -1088.503471175949
10280 -1088.507287543662
10281 -1088.50330351828
10282 -1088.50562435089
10283 -1088.501903029276
10284 -1088.505106655076
10285 -1088.501085417299
10286 -1088.504293189354
10287 -1088.500513859858
10288 -1088.504563752181
10289 -1088.501182741863
10290 -1088.504802023935
10291 -1088.501100221654
10292 -1088.504509015203
10293 -1088.5001807383
10294 -1088.502886704354
10295 -1088.498706515498
10296 -1088.502129202346
10297 -1088.498108756763
10298 -1088.501304625854
10299 -1088.498295420258
10300 -1088.502777880341
10301 -1088.499170094194
10302 -1088.501649321191
10303 -1088.49807813658
10304 -1088.501579863955
10305 -1088.496881656077
10306 -1088.499225460973
10307 -1088.495723597639
10308 -1088.500230525514
10309 -1088.496782785807
10310 -1088.500615605167
10311 -1088.497013650573
10312 -1088.500284882853
10313 -1088.495786331832
10314 -1088.498190540106
10315 -1088.49549505008
10316 -1088.499639175949
10317 -1088.496075401538
10318 -1088.499429935182
10319 -1088.495902175486
10320 -1088.499518935624
10321 -1088.495624380134
10322 -1088.49872811486
10323 -1088.495687680393
10324 -1088.500170705805
10325 -1088.497150562256
10326 -1088.501472267874
10327 -1088.498603243608
10328 -1088.502549755465
10329 -1088.498208063392
10330 -1088.500533184154
10331 -1088.496777777424
10332 -1088.501021049714
10333 -1088.498166489193
10334 -1088.502901069455
10335 -1088.500147446385
10336 -1088.503994201376
10337 -1088.499651531031
10338 -1088.502095893445
10339 -1088.498646400516
10340 -1088.502931672802
10341 -1088.499293705716
10342 -1088.503439479932
10343 -1088.500782510924
10344 -1088.506058542544
10345 -1088.502884796243
10346 -1088.506229486873
10347 -1088.502678770775
10348 -1088.505648214103
10349 -1088.501050292387
10350 -1088.504999423139
10351 -1088.501923730032
10352 -1088.506672272374
10353 -1088.502923122938
10354 -1088.505521579329
10355 -1088.501735605037
10356 -1088.505466890703
10357 -1088.501563707251
10358 -1088.504794458425
10359 -1088.500973937299
10360 -1088.50502570287
10361 -1088.500781451639
10362 -1088.50411362936
10363 -1088.500842528003
10364 -1088.504281560763
10365 -1088.499676094324
10366 -1088.502388649516
10367 -1088.498407101198
10368 -1088.502781145862
10369 -1088.499499983945
10370 -1088.503482582145
10371 -1088.499453184917
10372 -1088.502376252253
10373 -1088.497791511624
10374 -1088.500781516801
10375 -1088.497305796465
10376 -1088.501226481901
10377 -1088.497280854863
10378 -1088.500397758305
10379 -1088.496437623579
10380 -1088.500057568335
10381 -1088.495829685927
10382 -1088.498596694656
10383 -1088.495061563247
10384 -1088.499132445105
10385 -1088.495350755669
10386 -1088.498957739365
10387 -1088.495690750651
10388 -1088.49919314863
10389 -1088.494965963624
10390 -1088.498103001554
10391 -1088.494367147218
10392 -1088.498859907582
10393 -1088.495587768169
10394 -1088.499824858686
10395 -1088.496498142012
10396 -1088.500809211941
10397 -1088.496936445859
10398 -1088.500636756243
10399 -1088.497549294143
10400 -1088.502490505153
10401 -1088.498613268189
10402 -1088.501960275091
10403 -1088.499282272845
10404 -1088.502986388194
10405 -1088.499253596637
10406 -1088.503427252375
10407 -1088.500659881041
10408 -1088.504883142993
10409 -1088.50119955848
10410 -1088.505098210266
10411 -1088.502371364594
10412 -1088.50690153044
10413 -1088.503051584757
10414 -1088.506374900142
10415 -1088.502390226843
10416 -1088.506954459488
10417 -1088.503117694635
10418 -1088.506150363176
10419 -1088.502428320907
10420 -1088.506886499127
10421 -1088.502984872436
10422 -1088.50676411767
10423 -1088.50275822246
10424 -1088.506256513716
10425 -1088.501365225015
10426 -1088.503692895497
10427 -1088.499518388764
10428 -1088.503683532213
10429 -1088.500902043217
10430 -1088.505197729233
10431 -1088.501941587773
10432 -1088.505915170581
10433 -1088.500848311206
10434 -1088.503341435877
10435 -1088.499039182541
10436 -1088.502187083518
10437 -1088.498358167506
10438 -1088.501347112434
10439 -1088.497975776671
10440 -1088.503145320362
10441 -1088.499035921587
10442 -1088.501575163509
10443 -1088.497271145099
10444 -1088.499326822761
10445 -1088.494794416346
10446 -1088.497584548569
10447 -1088.494614640202
10448 -1088.499094970756
10449 -1088.49501231524
10450 -1088.498252867597
10451 -1088.494303145729
10452 -1088.497330808246
10453 -1088.493366872647
10454 -1088.496883548183
10455 -1088.493432100977
10456 -1088.497365277949
10457 -1088.493731483481
10458 -1088.497597334547
10459 -1088.494614988192
10460 -1088.498676890983
10461 -1088.494411548808
10462 -1088.497737633589
10463 -1088.49490802526
10464 -1088.500173190906
10465 -1088.497082441794
10466 -1088.500751025871
10467 -1088.497145976007
10468 -1088.500985406676
10469 -1088.496777183329
10470 -1088.500393790298
10471 -1088.497385174957
10472 -1088.502587628472
10473 -1088.499594246543
10474 -1088.503027268893
10475 -1088.499962027935
10476 -1088.504539638559
10477 -1088.500884880443
10478 -1088.504554208549
10479 -1088.500634131288
10480 -1088.5049099937
10481 -1088.501396593122
10482 -1088.50582333276
10483 -1088.503180362032
10484 -1088.506838540496
10485 -1088.502589775998
10486 -1088.506132604992
10487 -1088.502358055929
10488 -1088.507010601605
10489 -1088.502809406303
10490 -1088.506101505756
10491 -1088.502610747109
10492 -1088.506383289114
10493 -1088.50246998528
10494 -1088.505255888103
10495 -1088.501284869659
10496 -1088.505188606497
10497 -1088.500709046314
10498 -1088.503515767008
10499 -1088.499702982365
10500 -1088.503476260093
10501 -1088.498932505059
10502 -1088.502146015729
10503 -1088.498173354845
10504 -1088.501947532405
10505 -1088.497592902232
10506 -1088.50047624694
10507 -1088.496980713009
10508 -1088.499781010347
10509 -1088.495448142648
10510 -1088.498001930277
10511 -1088.494278976719
10512 -1088.498787660878
10513 -1088.495290933845
10514 -1088.498466423262
10515 -1088.494313608828
10516 -1088.497572913914
10517 -1088.493083024272
10518 -1088.495944018232
10519 -1088.492003587215
10520 -1088.496410387947
10521 -1088.49246168341
10522 -1088.49573035697
10523 -1088.49256672889
10524 -1088.497024432715
10525 -1088.493593344391
10526 -1088.49688252806
10527 -1088.4932099861
10528 -1088.497205226892
10529 -1088.493755861826
10530 -1088.49760935887
10531 -1088.494616227197
10532 -1088.499051055335
10533 -1088.495149778422
10534 -1088.498739209699
10535 -1088.495318602825
10536 -1088.499747746892
10537 -1088.496298371021
10538 -1088.500192558193
10539 -1088.496907420779
10540 -1088.500857637872
10541 -1088.497085999821
10542 -1088.501078157181
10543 -1088.498700565013
10544 -1088.503866988013
10545 -1088.501114071444
10546 -1088.503643718243
10547 -1088.499947524532
10548 -1088.503281576808
10549 -1088.500053145572
10550 -1088.504009225047
10551 -1088.500480559646
10552 -1088.505019739574
10553 -1088.502276775956
10554 -1088.506037789294
10555 -1088.503576467232
10556 -1088.506524668349
10557 -1088.501825077215
10558 -1088.504543638219
10559 -1088.500863625323
10560 -1088.505869490513
10561 -1088.502507563613
10562 -1088.506616537793
10563 -1088.50371827563
10564 -1088.506954886719
10565 -1088.502339608678
10566 -1088.504501010528
10567 -1088.5000318726
10568 -1088.503150015225
10569 -1088.49924772092
10570 -1088.502263651261
10571 -1088.499176490713
10572 -1088.503462428402
10573 -1088.500022670102
10574 -1088.503264559851
10575 -1088.49815960713
10576 -1088.501207044242
10577 -1088.496347659038
10578 -1088.49987357142
10579 -1088.497037531629
10580 -1088.502341553653
10581 -1088.498536276237
10582 -1088.501062753762
10583 -1088.496406784034
10584 -1088.499624481115
10585 -1088.495262160174
10586 -1088.498022041631
10587 -1088.494465547658
10588 -1088.497699762983
10589 -1088.493845087495
10590 -1088.497812972656
10591 -1088.494237117887
10592 -1088.498585144595
10593 -1088.494523585418
10594 -1088.497790349887
10595 -1088.494387350232
10596 -1088.498667764698
10597 -1088.494607016063
10598 -1088.498045691245
10599 -1088.495246992139
10600 -1088.500231376624
10601 -1088.497035427972
10602 -1088.501673373075
10603 -1088.498754630306
10604 -1088.502449908539
10605 -1088.498019861275
10606 -1088.500515032016
10607 -1088.496986604996
10608 -1088.501631474765
10609 -1088.498962173196
10610 -1088.50327128214
10611 -1088.500437502819
10612 -1088.504144582421
10613 -1088.500156655385
10614 -1088.503324555862
10615 -1088.499065637209
10616 -1088.502260119961
10617 -1088.498244836723
10618 -1088.500312328089
10619 -1088.497098191659
10620 -1088.501270363671
10621 -1088.498177543599
10622 -1088.502227071319
10623 -1088.498843546041
10624 -1088.502930088504
10625 -1088.499325201687
10626 -1088.502520912503
10627 -1088.498927864769
10628 -1088.502932057625
10629 -1088.499335746637
10630 -1088.502829733821
10631 -1088.498892017067
10632 -1088.503071935676
10633 -1088.498913809615
10634 -1088.502564393506
10635 -1088.499528389776
10636 -1088.502534970914
10637 -1088.498677402127
10638 -1088.502576532202
10639 -1088.498827516894
10640 -1088.502489504223
10641 -1088.497889240339
10642 -1088.500447562303
10643 -1088.497440794222
10644 -1088.501660882708
10645 -1088.49810820804
10646 -1088.501148663742
10647 -1088.497776683608
10648 -1088.50102397848
10649 -1088.496956324197
10650 -1088.49936024207
10651 -1088.49627815974
10652 -1088.500430154905
10653 -1088.497371340819
10654 -1088.50051401792
10655 -1088.497569885715
10656 -1088.502125552977
10657 -1088.498993886767
10658 -1088.501641544784
10659 -1088.498306761861
10660 -1088.501353730842
10661 -1088.497491268926
10662 -1088.500671854438
10663 -1088.497455432719
10664 -1088.501099308603
10665 -1088.497728984244
10666 -1088.500309259399
10667 -1088.497889230125
10668 -1088.501522841758
10669 -1088.498095306105
10670 -1088.501726082829
10671 -1088.498433785564
10672 -1088.502022905194
10673 -1088.49851075741
10674 -1088.501943318926
10675 -1088.498833095357
10676 -1088.503286994008
10677 -1088.500124692637
10678 -1088.502970326108
10679 -1088.500313510231
10680 -1088.504709728884
10681 -1088.501625421223
10682 -1088.504227690825
10683 -1088.500076808691
10684 -1088.503680673977
10685 -1088.499211133789
10686 -1088.502445672641
10687 -1088.499383552013
10688 -1088.503647172323
10689 -1088.499993794399
10690 -1088.502690405731
10691 -1088.498457089373
10692 -1088.501890456354
10693 -1088.497318689931
10694 -1088.500541790209
10695 -1088.4974997419
10696 -1088.502433925589
10697 -1088.499164214424
10698 -1088.501706440152
10699 -1088.497709855876
10700 -1088.501231780728
10701 -1088.496591158791
10702 -1088.499699390512
10703 -1088.496098486655
10704 -1088.500833259803
10705 -1088.497563700802
10706 -1088.501379479389
10707 -1088.497545141859
10708 -1088.500721401146
10709 -1088.496157996051
10710 -1088.499575493263
10711 -1088.49563341914
10712 -1088.499880074328
10713 -1088.495907690845
10714 -1088.49922493991
10715 -1088.495173634842
10716 -1088.498740261711
10717 -1088.494575947337
10718 -1088.498168822023
10719 -1088.494496816989
10720 -1088.498466547917
10721 -1088.494544285309
10722 -1088.498164951381
10723 -1088.49558056093
10724 -1088.500042888649
10725 -1088.496112799947
10726 -1088.499071312892
10727 -1088.495492958572
10728 -1088.499879732635
10729 -1088.496714751749
10730 -1088.500355809506
10731 -1088.497383505432
10732 -1088.50220776048
10733 -1088.498863487888
10734 -1088.502565500637
10735 -1088.499032171502
10736 -1088.503403173319
10737 -1088.499391296464
10738 -1088.502120879114
10739 -1088.4984906355
10740 -1088.502913153178
10741 -1088.499950754491
10742 -1088.503792432588
10743 -1088.500897419103
10744 -1088.504071847659
10745 -1088.499487427103
10746 -1088.502381268217
10747 -1088.498612947073
10748 -1088.502781212552
10749 -1088.498878933868
10750 -1088.502370108066
10751 -1088.499141590327
10752 -1088.503249869247
10753 -1088.499933090387
10754 -1088.50349774746
10755 -1088.499385317272
10756 -1088.502938079088
10757 -1088.498560477175
10758 -1088.501558178225
10759 -1088.497881847069
10760 -1088.502705966526
10761 -1088.4995712079
10762 -1088.50306408848
10763 -1088.499559525177
10764 -1088.504053409824
10765 -1088.500223624063
10766 -1088.503645029798
10767 -1088.499484235831
10768 -1088.503395645517
10769 -1088.499423692004
10770 -1088.503000279517
10771 -1088.499661420942
10772 -1088.503860737991
10773 -1088.499552316314
10774 -1088.502676689111
10775 -1088.498506602549
10776 -1088.50254639905
10777 -1088.498711902403
10778 -1088.502313401037
10779 -1088.498962221658
10780 -1088.503019085556
10781 -1088.498928843151
10782 -1088.502441213691
10783 -1088.498589180733
10784 -1088.502145961419
10785 -1088.497539477577
10786 -1088.50044852121
10787 -1088.497214516935
10788 -1088.501507646123
10789 -1088.49845810821
10790 -1088.502717357283
10791 -1088.498441448461
10792 -1088.502058351182
10793 -1088.497754081966
10794 -1088.501300974215
10795 -1088.498215813427
10796 -1088.502513508838
10797 -1088.499241949947
10798 -1088.502573650045
10799 -1088.499825365099
10800 -1088.504481658392
10801 -1088.501163453057
10802 -1088.50403872832
10803 -1088.500737265261
10804 -1088.504125321437
10805 -1088.500615735224
10806 -1088.503443738777
10807 -1088.500362722986
10808 -1088.504934507878
10809 -1088.501456092696
10810 -1088.504562204618
10811 -1088.500744868995
10812 -1088.504590712753
10813 -1088.500429269817
10814 -1088.50398047565
10815 -1088.500392213694
10816 -1088.50366414929
10817 -1088.499767057261
10818 -1088.503388749382
10819 -1088.499967559761
10820 -1088.504347773147
10821 -1088.500257033127
10822 -1088.503648148421
10823 -1088.500171536137
10824 -1088.503660647228
10825 -1088.49927263471
10826 -1088.502828799765
10827 -1088.498886414166
10828 -1088.502787846171
10829 -1088.497782695558
10830 -1088.501279946078
10831 -1088.497809153919
10832 -1088.502356520933
10833 -1088.498061530763
10834 -1088.500434742925
10835 -1088.496434661722
10836 -1088.500763147537
10837 -1088.496845809292
10838 -1088.5004034246
10839 -1088.497227062034
10840 -1088.501653243868
10841 -1088.497573395547
10842 -1088.500942920865
10843 -1088.497156388994
10844 -1088.50084232356
10845 -1088.496670200395
10846 -1088.500064336945
10847 -1088.496931178223
10848 -1088.50205730913
10849 -1088.498891026954
10850 -1088.502261717229
10851 -1088.498663200084
10852 -1088.501623919964
10853 -1088.496653615112
10854 -1088.499058610867
10855 -1088.495929346324
10856 -1088.500995847439
10857 -1088.497976160977
10858 -1088.502034341104
10859 -1088.499166737446
10860 -1088.503086510898
10861 -1088.499104581454
10862 -1088.50193371106
10863 -1088.496892034328
10864 -1088.500532269255
10865 -1088.497191857107
10866 -1088.501914805132
10867 -1088.499269640747
10868 -1088.503716493353
10869 -1088.500463099906
10870 -1088.503524095747
10871 -1088.499617633461
10872 -1088.503904155267
10873 -1088.499775914195
10874 -1088.503689064943
10875 -1088.500828225448
10876 -1088.50500279347
10877 -1088.501765075776
10878 -1088.504838705356
10879 -1088.500759205776
10880 -1088.504378792318
10881 -1088.499645164914
10882 -1088.502835986114
10883 -1088.499813252902
10884 -1088.504490491982
10885 -1088.501141205935
10886 -1088.504231767431
10887 -1088.500287540543
10888 -1088.503733565213
10889 -1088.49962491381
10890 -1088.503300670881
10891 -1088.500103131788
10892 -1088.504050168032
10893 -1088.500380964158
10894 -1088.503355702388
10895 -1088.499469943342
10896 -1088.503695483323
10897 -1088.500093179161
10898 -1088.5034968604
10899 -1088.499995617102
10900 -1088.504074413008
10901 -1088.499113434649
10902 -1088.502197030894
10903 -1088.498513005031
10904 -1088.502445582553
10905 -1088.498480142587
10906 -1088.501705947741
10907 -1088.498498943272
10908 -1088.502101110924
10909 -1088.497637664239
10910 -1088.501017458828
10911 -1088.496431080394
10912 -1088.499707088239
10913 -1088.495552188466
10914 -1088.499548695812
10915 -1088.496957739206
10916 -1088.50171049713
10917 -1088.498070150958
10918 -1088.500911499749
10919 -1088.4963982819
10920 -1088.49976266044
10921 -1088.495516122362
10922 -1088.498446618525
10923 -1088.495036356702
10924 -1088.500340218639
10925 -1088.497521043413
10926 -1088.502094815441
10927 -1088.498915851494
10928 -1088.502387486884
10929 -1088.497624026831
10930 -1088.500263211457
10931 -1088.496367783315
10932 -1088.500507479773
10933 -1088.497495079775
10934 -1088.502573771032
10935 -1088.499517172764
10936 -1088.503824800398
10937 -1088.499829022311
10938 -1088.503082999521
10939 -1088.499891705825
10940 -1088.504347200466
10941 -1088.501164988909
10942 -1088.504117688514
10943 -1088.500667237369
10944 -1088.50534216222
10945 -1088.501806289522
10946 -1088.505681817067
10947 -1088.502493715329
10948 -1088.505772079644
10949 -1088.502198531473
10950 -1088.505495839898
10951 -1088.501172174989
10952 -1088.504368463649
10953 -1088.500363806424
10954 -1088.503479823203
10955 -1088.500197622513
10956 -1088.504665758583
10957 -1088.501012463712
10958 -1088.504744513877
10959 -1088.500693858976
10960 -1088.503545881573
10961 -1088.499313980716
10962 -1088.502640569927
10963 -1088.499519700009
10964 -1088.503513511381
10965 -1088.499412213314
10966 -1088.503206797597
10967 -1088.499566468393
10968 -1088.503671009827
10969 -1088.49979394197
10970 -1088.503023084262
10971 -1088.499136992294
10972 -1088.50346832352
10973 -1088.499171831262
10974 -1088.502364642519
10975 -1088.498365743973
10976 -1088.502448022684
10977 -1088.498832134375
10978 -1088.50168162763
10979 -1088.49852623408
10980 -1088.503094064699
10981 -1088.499716519211
10982 -1088.503064737044
10983 -1088.498622020196
10984 -1088.502738703003
10985 -1088.498826982409
10986 -1088.50214308633
10987 -1088.498939572897
10988 -1088.503285380993
10989 -1088.499072003099
10990 -1088.502466073774
10991 -1088.498598859554
10992 -1088.502442200499
10993 -1088.498365782047
10994 -1088.50158993067
10995 -1088.497618891233
10996 -1088.50047170774
10997 -1088.496019609546
10998 -1088.499490599677
10999 -1088.49617637697
11000 -1088.500579290452
11001 -1088.497330750115
11002 -1088.500628028583
11003 -1088.497199462172
11004 -1088.500853508421
11005 -1088.496825287979
11006 -1088.500015361543
11007 -1088.496341057296
11008 -1088.501220037873
11009 -1088.497880735519
11010 -1088.502557214569
11011 -1088.499499653039
11012 -1088.503315642989
11013 -1088.498435903407
11014 -1088.500850813428
11015 -1088.496458279393
11016 -1088.501050209142
11017 -1088.497740398861
11018 -1088.501728616043
11019 -1088.498879966495
11020 -1088.503004728614
11021 -1088.498904713707
11022 -1088.501210976755
11023 -1088.497060760341
11024 -1088.49985415063
11025 -1088.494742854006
11026 -1088.497680546906
11027 -1088.494560563081
11028 -1088.499819977086
11029 -1088.497324590766
11030 -1088.500813790745
11031 -1088.497352725755
11032 -1088.499550344315
11033 -1088.494275490673
11034 -1088.496532105801
11035 -1088.493942164719
11036 -1088.498379054507
11037 -1088.496225981518
11038 -1088.500665648087
11039 -1088.497865028428
11040 -1088.50210181934
11041 -1088.498107289861
11042 -1088.500198919019
11043 -1088.495678957484
11044 -1088.49900535244
11045 -1088.49570951125
11046 -1088.500956359082
11047 -1088.498767974195
11048 -1088.503823143642
11049 -1088.500376668735
11050 -1088.503040122854
11051 -1088.498808853401
11052 -1088.502395114471
11053 -1088.498585724512
11054 -1088.502403721214
11055 -1088.499596976256
11056 -1088.504749370584
11057 -1088.501119884058
11058 -1088.504679432434
11059 -1088.500984624566
11060 -1088.505253649633
11061 -1088.500572762347
11062 -1088.503468564491
11063 -1088.499748268247
11064 -1088.504003611703
11065 -1088.499797083511
11066 -1088.502388865184
11067 -1088.498151636293
11068 -1088.501315759895
11069 -1088.497300180122
11070 -1088.501297093663
11071 -1088.497778785379
11072 -1088.501230602051
11073 -1088.496365633911
11074 -1088.498741394345
11075 -1088.494868384741
11076 -1088.499371325887
11077 -1088.496162398565
11078 -1088.50018789392
11079 -1088.496970573909
11080 -1088.500277717055
11081 -1088.495885871665
11082 -1088.49881147229
11083 -1088.49482108916
11084 -1088.498381878079
11085 -1088.495320695581
11086 -1088.4997526407
11087 -1088.497422139789
11088 -1088.502182391934
11089 -1088.498893862893
11090 -1088.501642276578
11091 -1088.497451476863
11092 -1088.500404652388
11093 -1088.496597471912
11094 -1088.499943445721
11095 -1088.497136606002
11096 -1088.501956844755
11097 -1088.498388312459
11098 -1088.501361934705
11099 -1088.49780018487
11100 -1088.501638732781
11101 -1088.497786677387
11102 -1088.501077607775
11103 -1088.497826152232
11104 -1088.501572188513
11105 -1088.497239295226
11106 -1088.500735028062
11107 -1088.497437913184
11108 -1088.502225562781
11109 -1088.498691705434
11110 -1088.502550123412
11111 -1088.499055440968
11112 -1088.502671178952
11113 -1088.498975671065
11114 -1088.501964290828
11115 -1088.498047842361
11116 -1088.501990062681
11117 -1088.498834217236
11118 -1088.502725054539
11119 -1088.499544617308
11120 -1088.503539242381
11121 -1088.499814159605
11122 -1088.502777671844
11123 -1088.498831214953
11124 -1088.502924671644
11125 -1088.499354797249
11126 -1088.503284162952
11127 -1088.499818013351
11128 -1088.50350220288
11129 -1088.49854569275
11130 -1088.500664314282
11131 -1088.497717813128
11132 -1088.501990984018
11133 -1088.498081582985
11134 -1088.501384445165
11135 -1088.497801079203
11136 -1088.501568551149
11137 -1088.497330215242
11138 -1088.500334095687
11139 -1088.496847787321
11140 -1088.500732488347
11141 -1088.497046422557
11142 -1088.500461809046
11143 -1088.497607621735
11144 -1088.501480287739
11145 -1088.497404648417
11146 -1088.499700876662
11147 -1088.496377684429
11148 -1088.500147599865
11149 -1088.496866681735
11150 -1088.50010158063
11151 -1088.496946540583
11152 -1088.501432810531
11153 -1088.498362308556
11154 -1088.502537921828
11155 -1088.499575519933
11156 -1088.502992685676
11157 -1088.498865459273
11158 -1088.501175115194
11159 -1088.497297479261
11160 -1088.501884005281
11161 -1088.499352730262
11162 -1088.503709549816
11163 -1088.501450150743
11164 -1088.505935838027
11165 -1088.500930511519
11166 -1088.503521528323
11167 -1088.499646773858
11168 -1088.504024415028
11169 -1088.500412882857
11170 -1088.50486465178
11171 -1088.503001805778
11172 -1088.508047741454
11173 -1088.504845030382
11174 -1088.508095745453
11175 -1088.503428659159
11176 -1088.506880844585
11177 -1088.502565856403
11178 -1088.5064117198
11179 -1088.504111162051
11180 -1088.509424147111
11181 -1088.50605488248
11182 -1088.509136464032
11183 -1088.505393109445
11184 -1088.50843375301
11185 -1088.503739874944
11186 -1088.505533203417
11187 -1088.502122562986
11188 -1088.505901042586
11189 -1088.502452571619
11190 -1088.505993301268
11191 -1088.502348024418
11192 -1088.505181043557
11193 -1088.500408931417
11194 -1088.501709582239
11195 -1088.497567947569
11196 -1088.501359519382
11197 -1088.498059635635
11198 -1088.50193307271
11199 -1088.498033832018
11200 -1088.501553690715
11201 -1088.496111527667
11202 -1088.497643755369
11203 -1088.493183804119
11204 -1088.49644716949
11205 -1088.492628154085
11206 -1088.496019831651
11207 -1088.493180966838
11208 -1088.497498281739
11209 -1088.493766851882
11210 -1088.496400296778
11211 -1088.492413272897
11212 -1088.495392969109
11213 -1088.491453926852
11214 -1088.495379270989
11215 -1088.493090526202
11216 -1088.497682400798
11217 -1088.493888532626
11218 -1088.496771106353
11219 -1088.493301117772
11220 -1088.497097821398
11221 -1088.493918878651
11222 -1088.497263810273
11223 -1088.494645304473
11224 -1088.499591799835
11225 -1088.496431094693
11226 -1088.500431285311
11227 -1088.497873311208
11228 -1088.501801112848
11229 -1088.497870600047
11230 -1088.501013103442
11231 -1088.497447050555
11232 -1088.502538363308
11233 -1088.499404481008
11234 -1088.503262302684
11235 -1088.500262409737
11236 -1088.504460865099
11237 -1088.501312325084
11238 -1088.504609049563
11239 -1088.501119501696
11240 -1088.505217244058
11241 -1088.500785693404
11242 -1088.504500074664
11243 -1088.500920836839
11244 -1088.505671206286
11245 -1088.503053737543
11246 -1088.507284907885
11247 -1088.503933325103
11248 -1088.50755613773
11249 -1088.503369962831
11250 -1088.506798441278
11251 -1088.503915740013
11252 -1088.508421915604
11253 -1088.504584443748
11254 -1088.507715319536
11255 -1088.504074009073
11256 -1088.508030072248
11257 -1088.503726103639
11258 -1088.506461961215
11259 -1088.502506948219
11260 -1088.506166011231
11261 -1088.501900461492
11262 -1088.505046299578
11263 -1088.501373909664
11264 -1088.505142677419
11265 -1088.500785198931
11266 -1088.502973054779
11267 -1088.499551487528
11268 -1088.50368366182
11269 -1088.500205731468
11270 -1088.503638765112
11271 -1088.499126566484
11272 -1088.502340528373
11273 -1088.497632555063
11274 -1088.499875230757
11275 -1088.496778410213
11276 -1088.501105835544
11277 -1088.497861942507
11278 -1088.501449413595
11279 -1088.4975379744
11280 -1088.501275467478
11281 -1088.496711443759
11282 -1088.498750509003
11283 -1088.495077680904
11284 -1088.498599879462
11285 -1088.495608209741
11286 -1088.500096933784
11287 -1088.497405075361
11288 -1088.501448951714
11289 -1088.497183353438
11290 -1088.500269064773
11291 -1088.496970704184
11292 -1088.500634880255
11293 -1088.497556783939
11294 -1088.501898136982
11295 -1088.498795756339
11296 -1088.5032968109
11297 -1088.499875977287
11298 -1088.503740639752
11299 -1088.500374057152
11300 -1088.504259509865
11301 -1088.500285982793
11302 -1088.503401738002
11303 -1088.500410999442
11304 -1088.505832176267
11305 -1088.50270924523
11306 -1088.50611129881
11307 -1088.502274406323
11308 -1088.50590511353
11309 -1088.501317019171
11310 -1088.504799427901
11311 -1088.501017553924
11312 -1088.505524015893
11313 -1088.501906430558
11314 -1088.50562296358
11315 -1088.502429473796
11316 -1088.50618653493
11317 -1088.502019275892
11318 -1088.505057690918
11319 -1088.50154796349
11320 -1088.505714676956
11321 -1088.502106502643
11322 -1088.506258910872
11323 -1088.503869321703
11324 -1088.507505703689
11325 -1088.503281943974
11326 -1088.505556225458
11327 -1088.501062815445
11328 -1088.504656403758
11329 -1088.501512923623
11330 -1088.505172245375
11331 -1088.502092326245
11332 -1088.505772886086
11333 -1088.501430131319
11334 -1088.504143508155
11335 -1088.500215102889
11336 -1088.504148925659
11337 -1088.500587531845
11338 -1088.502742820305
11339 -1088.499578214806
11340 -1088.50303695054
11341 -1088.49923566111
11342 -1088.501803732042
11343 -1088.497735863508
11344 -1088.500522696832
11345 -1088.496301096911
11346 -1088.498665706147
11347 -1088.494967743104
11348 -1088.498737512643
11349 -1088.494458114455
11350 -1088.497790089311
11351 -1088.493424376126
11352 -1088.497716562493
11353 -1088.494200708866
11354 -1088.497234287154
11355 -1088.493321089138
11356 -1088.496741750291
11357 -1088.492254044653
11358 -1088.496321112347
11359 -1088.493136834312
11360 -1088.497478677307
11361 -1088.49382194086
11362 -1088.497667778254
11363 -1088.494709742359
11364 -1088.49905922142
11365 -1088.49581301141
11366 -1088.499834266846
11367 -1088.496506360085
11368 -1088.500657170347
11369 -1088.496644863055
11370 -1088.500520768974
11371 -1088.497544151464
11372 -1088.502189378496
11373 -1088.498644740279
11374 -1088.501618866912
11375 -1088.498212853209
11376 -1088.503603528976
11377 -1088.500731557227
11378 -1088.504091595438
11379 -1088.500592098635
11380 -1088.504861884032
11381 -1088.500847507003
11382 -1088.503921882961
11383 -1088.500376167621
11384 -1088.504054192485
11385 -1088.500454504814
11386 -1088.503735007245
11387 -1088.500412866572
11388 -1088.50514628264
11389 -1088.501812420415
11390 -1088.504780195811
11391 -1088.500851572613
11392 -1088.504277701819
11393 -1088.500035209571
11394 -1088.502885945149
11395 -1088.499868985646
11396 -1088.504083966578
11397 -1088.500498719647
11398 -1088.503620434261
11399 -1088.499713476887
11400 -1088.503372489123
11401 -1088.499934490754
11402 -1088.502936313522
11403 -1088.49902495816
11404 -1088.502718202286
11405 -1088.498284765191
11406 -1088.501928746588
11407 -1088.498502830776
11408 -1088.502418121257
11409 -1088.498288364661
11410 -1088.501016249354
11411 -1088.496825140416
11412 -1088.500869439362
11413 -1088.496354226598
11414 -1088.499876783552
11415 -1088.495997573347
11416 -1088.498820470516
11417 -1088.493653285633
11418 -1088.49618521936
11419 -1088.493082094179
11420 -1088.497229958993
11421 -1088.492821017214
11422 -1088.496615020392
11423 -1088.493152917387
11424 -1088.497604498244
11425 -1088.493219075852
11426 -1088.49641789725
11427 -1088.49244214586
11428 -1088.495792692822
11429 -1088.491937115708
11430 -1088.495646995163
11431 -1088.492649369375
11432 -1088.497625707533
11433 -1088.494463598805
11434 -1088.497538189487
11435 -1088.49429845068
11436 -1088.497581504481
11437 -1088.494110638903
11438 -1088.497610796644
11439 -1088.494232680377
11440 -1088.498427456661
11441 -1088.495270965242
11442 -1088.499300297834
11443 -1088.497303728426
11444 -1088.500969929127
11445 -1088.498091366987
11446 -1088.501066963163
11447 -1088.497919979273
11448 -1088.5024390362
11449 -1088.49922299539
11450 -1088.502409538136
11451 -1088.499007678278
11452 -1088.502281034119
11453 -1088.499064854461
11454 -1088.50304702324
11455 -1088.500754239971
11456 -1088.505146669934
11457 -1088.501665317003
11458 -1088.504623225983
11459 -1088.501624590595
11460 -1088.505312791847
11461 -1088.502109309207
11462 -1088.505307594921
11463 -1088.502085428561
11464 -1088.505768688345
11465 -1088.502620593439
11466 -1088.506348033425
11467 -1088.503834918658
11468 -1088.507351812188
11469 -1088.503033567221
11470 -1088.505722884377
11471 -1088.501984619165
11472 -1088.505298665965
11473 -1088.501955351459
11474 -1088.505573102892
11475 -1088.501838476662
11476 -1088.50612987555
11477 -1088.501800297521
11478 -1088.503999617414
11479 -1088.499774772884
11480 -1088.502724636514
11481 -1088.497710555375
11482 -1088.50011027742
11483 -1088.496384453635
11484 -1088.50078744296
11485 -1088.496925412092
11486 -1088.500083573357
11487 -1088.496021101189
11488 -1088.498808230583
11489 -1088.493815864149
11490 -1088.496141246215
11491 -1088.492029214687
11492 -1088.49597822851
11493 -1088.492422835901
11494 -1088.4969234019
11495 -1088.4935698407
11496 -1088.498085825605
11497 -1088.493826179933
11498 -1088.496457835486
11499 -1088.49230923776
11500 -1088.49591504171
11501 -1088.492372742033
11502 -1088.496963609843
11503 -1088.494911900198
11504 -1088.500029445413
11505 -1088.496448058642
11506 -1088.49940973284
11507 -1088.495268043758
11508 -1088.498657057947
11509 -1088.49470088363
11510 -1088.499042297383
11511 -1088.496503321566
11512 -1088.501757503486
11513 -1088.498175879365
11514 -1088.501888677715
11515 -1088.497525304787
11516 -1088.501191178805
11517 -1088.496546052565
11518 -1088.499184569866
11519 -1088.49594136068
11520 -1088.50092884968
11521 -1088.498240753379
11522 -1088.502191513291
11523 -1088.499050943728
11524 -1088.502563249059
11525 -1088.49885291717
11526 -1088.501769655491
11527 -1088.499224545264
11528 -1088.504137281391
11529 -1088.500858724677
11530 -1088.504356732332
11531 -1088.500754232213
11532 -1088.504239419635
11533 -1088.500428566359
11534 -1088.503666964145
11535 -1088.500903891333
11536 -1088.505608120628
11537 -1088.502174844284
11538 -1088.506161202934
11539 -1088.502793737601
11540 -1088.505865045535
11541 -1088.501464498901
11542 -1088.503408175294
11543 -1088.499404920601
11544 -1088.504324664958
11545 -1088.501517268286
11546 -1088.504943010244
11547 -1088.501421033478
11548 -1088.504833852714
11549 -1088.500256042376
11550 -1088.502396002687
11551 -1088.497860862613
11552 -1088.50170404146
11553 -1088.49747338042
11554 -1088.500370749816
11555 -1088.496924851925
11556 -1088.500719047601
11557 -1088.496653476828
11558 -1088.499003684633
11559 -1088.494667240374
11560 -1088.498262510079
11561 -1088.49338270074
11562 -1088.495968956059
11563 -1088.492916111408
11564 -1088.497451594601
11565 -1088.493743876571
11566 -1088.49651554232
11567 -1088.492319397785
11568 -1088.497070448782
11569 -1088.492952715269
11570 -1088.496027613628
11571 -1088.492858042912
11572 -1088.49682762291
11573 -1088.49349921118
11574 -1088.497216843944
11575 -1088.493721103727
11576 -1088.498847164608
11577 -1088.495086054865
11578 -1088.498518615819
11579 -1088.49560227849
11580 -1088.50001886082
11581 -1088.496507838736
11582 -1088.499553009254
11583 -1088.495779220474
11584 -1088.499925301277
11585 -1088.495997034969
11586 -1088.499386119581
11587 -1088.496223718341
11588 -1088.500502653533
11589 -1088.496995145647
11590 -1088.500508217819
11591 -1088.496905717974
11592 -1088.501088326649
11593 -1088.497218745493
11594 -1088.500289270836
11595 -1088.496925797176
11596 -1088.500759594553
11597 -1088.497527006595
11598 -1088.50129914637
11599 -1088.497836379633
11600 -1088.502307216181
11601 -1088.498575307108
11602 -1088.50239079207
11603 -1088.499461290494
11604 -1088.503827179594
11605 -1088.500322036477
11606 -1088.504171234483
11607 -1088.500612470362
11608 -1088.504096580395
11609 -1088.499810512172
11610 -1088.502769982287
11611 -1088.49991145632
11612 -1088.504230376779
11613 -1088.500123908707
11614 -1088.502678134785
11615 -1088.498608334064
11616 -1088.502230133891
11617 -1088.497988180032
11618 -1088.501071133383
11619 -1088.497852744692
11620 -1088.502020683756
11621 -1088.497829343989
11622 -1088.501219270294
11623 -1088.497217506708
11624 -1088.501198029644
11625 -1088.496951081653
11626 -1088.499735976991
11627 -1088.496115819461
11628 -1088.500417622266
11629 -1088.496654017205
11630 -1088.499850455726
11631 -1088.495327933364
11632 -1088.499288565389
11633 -1088.495783321652
11634 -1088.499711328787
11635 -1088.497345734593
11636 -1088.501678281822
11637 -1088.497198723634
11638 -1088.499585470194
11639 -1088.495216741231
11640 -1088.499100588433
11641 -1088.495301128262
11642 -1088.498609104896
11643 -1088.496142395427
11644 -1088.500125610389
11645 -1088.496437648159
11646 -1088.500034041806
11647 -1088.496593698381
11648 -1088.500718363581
11649 -1088.496690013175
11650 -1088.500082153478
11651 -1088.497515386226
11652 -1088.501441457783
11653 -1088.498198277739
11654 -1088.502399387471
11655 -1088.498802764783
11656 -1088.503017138431
11657 -1088.499268567477
11658 -1088.503158094751
11659 -1088.500200547762
11660 -1088.504526223365
11661 -1088.500198179448
11662 -1088.503603801505
11663 -1088.500250685375
11664 -1088.505402105698
11665 -1088.502176415688
11666 -1088.504917517444
11667 -1088.501272522851
11668 -1088.504910639549
11669 -1088.500598216914
11670 -1088.503574025813
11671 -1088.499941838786
11672 -1088.504864304949
11673 -1088.501296218898
11674 -1088.504561097978
11675 -1088.501112013827
11676 -1088.50474392175
11677 -1088.500964518054
11678 -1088.503225586675
11679 -1088.499029706082
11680 -1088.502924872191
11681 -1088.499332648106
11682 -1088.503402070697
11683 -1088.50044651728
11684 -1088.504094796855
11685 -1088.499299607877
11686 -1088.501903354676
11687 -1088.497656413767
11688 -1088.500956897765
11689 -1088.497230166336
11690 -1088.501088231237
11691 -1088.497628531265
11692 -1088.500980882376
11693 -1088.496495315427
11694 -1088.499696414193
11695 -1088.495676216156
11696 -1088.499368408403
11697 -1088.495789957694
11698 -1088.498462250943
11699 -1088.495288427278
11700 -1088.499657687201
11701 -1088.496146105985
11702 -1088.499203016419
11703 -1088.495889364989
11704 -1088.499493125898
11705 -1088.495895368332
11706 -1088.498735270369
11707 -1088.495404962257
11708 -1088.499473278793
11709 -1088.495127755575
11710 -1088.497938381439
11711 -1088.494270188854
11712 -1088.498691873835
11713 -1088.495001967291
11714 -1088.49833512589
11715 -1088.495516557139
11716 -1088.499179511831
11717 -1088.494733079364
11718 -1088.497620843567
11719 -1088.494181935796
11720 -1088.498756762084
11721 -1088.49507378808
11722 -1088.498943552462
11723 -1088.496610840081
11724 -1088.501312235253
11725 -1088.498018460652
11726 -1088.501432414436
11727 -1088.496970051669
11728 -1088.501084358501
11729 -1088.496457982553
11730 -1088.500402401359
11731 -1088.498088761701
11732 -1088.503780114682
11733 -1088.501348335221
11734 -1088.505175734359
11735 -1088.500866986371
11736 -1088.504599317245
11737 -1088.500046771833
11738 -1088.50245992205
11739 -1088.49842332281
11740 -1088.502282775092
11741 -1088.499253954011
11742 -1088.503919268985
11743 -1088.5014380373
11744 -1088.506498878232
11745 -1088.501752314356
11746 -1088.503468331835
11747 -1088.498783338231
11748 -1088.502043381752
11749 -1088.497942202566
11750 -1088.501632514412
11751 -1088.497888519664
11752 -1088.502032805774
11753 -1088.498787862005
11754 -1088.502316265765
11755 -1088.498783442529
11756 -1088.502020233889
11757 -1088.49724010529
11758 -1088.49927567277
11759 -1088.494978234486
11760 -1088.499225340111
11761 -1088.496385745588
11762 -1088.500496059301
11763 -1088.497577806209
11764 -1088.501927949379
11765 -1088.497973260193
11766 -1088.500980371873
11767 -1088.497188287624
11768 -1088.500659170209
11769 -1088.497484572796
11770 -1088.500915223493
11771 -1088.49821939185
11772 -1088.502688722674
11773 -1088.499277793567
11774 -1088.502879461382
11775 -1088.498906496421
11776 -1088.502093815329
11777 -1088.497851150096
11778 -1088.501655465327
11779 -1088.498896639834
11780 -1088.503417922815
11781 -1088.49929797931
11782 -1088.502912647589
11783 -1088.499069789059
11784 -1088.502985532501
11785 -1088.498760549118
11786 -1088.501241204481
11787 -1088.497684151791
11788 -1088.501406556284
11789 -1088.497572016285
11790 -1088.501594206882
11791 -1088.498437160978
11792 -1088.502726270546
11793 -1088.498462854275
11794 -1088.501661754985
11795 -1088.498549248748
11796 -1088.502071830319
11797 -1088.49786262093
11798 -1088.501899179516
11799 -1088.498438428553
11800 -1088.503249531509
11801 -1088.499156864814
11802 -1088.502721892475
11803 -1088.499557888092
11804 -1088.503575090043
11805 -1088.499601054657
11806 -1088.502215216054
11807 -1088.497683746349
11808 -1088.501957108011
11809 -1088.498167724605
11810 -1088.502039336588
11811 -1088.499333606735
11812 -1088.50333010619
11813 -1088.499392810212
11814 -1088.502806974269
11815 -1088.498869082234
11816 -1088.502264940737
11817 -1088.498039362164
11818 -1088.500871124034
11819 -1088.497502766549
11820 -1088.50152546265
11821 -1088.497601183718
11822 -1088.501074624821
11823 -1088.497402563496
11824 -1088.501424310528
11825 -1088.497894722923
11826 -1088.501198960508
11827 -1088.498206951627
11828 -1088.502458679064
11829 -1088.498555274141
11830 -1088.501649260496
11831 -1088.497061473433
11832 -1088.500874863584
11833 -1088.497488915094
11834 -1088.501215501009
11835 -1088.498300721674
11836 -1088.502144483206
11837 -1088.498539384821
11838 -1088.501855585114
11839 -1088.497646429927
11840 -1088.500514703259
11841 -1088.495702232872
11842 -1088.498733574643
11843 -1088.496168705427
11844 -1088.500674486584
11845 -1088.497637230149
11846 -1088.501323086979
11847 -1088.497854702109
11848 -1088.501660773756
11849 -1088.497894511435
11850 -1088.501625118857
11851 -1088.498617759079
11852 -1088.503755422334
11853 -1088.49959301015
11854 -1088.502643192118
11855 -1088.499148008832
11856 -1088.503729082497
11857 -1088.499934060782
11858 -1088.503399123293
11859 -1088.500162011117
11860 -1088.504275382391
11861 -1088.500214118237
11862 -1088.503904500689
11863 -1088.500975961505
11864 -1088.505243220715
11865 -1088.500874179667
11866 -1088.503605307596
11867 -1088.500208892139
11868 -1088.503986741301
11869 -1088.500186597654
11870 -1088.502854563822
11871 -1088.499155691559
11872 -1088.503151844072
11873 -1088.498823453405
11874 -1088.502105785868
11875 -1088.49866509705
11876 -1088.502731939573
11877 -1088.498502684539
11878 -1088.501666610472
11879 -1088.498025728694
11880 -1088.502117963355
11881 -1088.497902190124
11882 -1088.50083282415
11883 -1088.497593809658
11884 -1088.501446891953
11885 -1088.49815492087
11886 -1088.501525190442
11887 -1088.497912849305
11888 -1088.500636181633
11889 -1088.495687193187
11890 -1088.498888561605
11891 -1088.494509130175
11892 -1088.498747643582
11893 -1088.495193849675
11894 -1088.499528269401
11895 -1088.496680724286
11896 -1088.500132733375
11897 -1088.495684408442
11898 -1088.497958573839
11899 -1088.493934452463
11900 -1088.498153383414
11901 -1088.494143246205
11902 -1088.498463468374
11903 -1088.496205047118
11904 -1088.501093895072
11905 -1088.497700992827
11906 -1088.500375352054
11907 -1088.495394724629
11908 -1088.498253918174
11909 -1088.493622586308
11910 -1088.49777873526
11911 -1088.495437744321
11912 -1088.501288320869
11913 -1088.4988057122
11914 -1088.502191430985
11915 -1088.498365336197
11916 -1088.501292843077
11917 -1088.496661427613
11918 -1088.498643660204
11919 -1088.495471389047
11920 -1088.499684247168
11921 -1088.497251092409
11922 -1088.501846508536
11923 -1088.500231406426
11924 -1088.504823814782
11925 -1088.500861312276
11926 -1088.503107665493
11927 -1088.498375235224
11928 -1088.501758846425
11929 -1088.498216793541
11930 -1088.502482806904
11931 -1088.500391904967
11932 -1088.505640578919
11933 -1088.502921057689
11934 -1088.506424076537
11935 -1088.502076527721
11936 -1088.505031378402
11937 -1088.499980216022
11938 -1088.502102179222
11939 -1088.498226048984
11940 -1088.502853379536
11941 -1088.499701437762
11942 -1088.50448041588
11943 -1088.501403273568
11944 -1088.50462353789
11945 -1088.500029042295
11946 -1088.502284811947
11947 -1088.497770759024
11948 -1088.500703548641
11949 -1088.496716303455
11950 -1088.500123147053
11951 -1088.497402844264
11952 -1088.502699865096
11953 -1088.499764295354
11954 -1088.503641250662
11955 -1088.499912236439
11956 -1088.503079739887
11957 -1088.498378392015
11958 -1088.501176274863
11959 -1088.497750984472
11960 -1088.502166361213
11961 -1088.498260989917
11962 -1088.501744190559
11963 -1088.498040158751
11964 -1088.501428137242
11965 -1088.496515581794
11966 -1088.499044173949
11967 -1088.494777397459
11968 -1088.498117112199
11969 -1088.493911776165
11970 -1088.498557036194
11971 -1088.495123431999
11972 -1088.499770318219
11973 -1088.495212412221
11974 -1088.498534457979
11975 -1088.494895238586
11976 -1088.49811769411
11977 -1088.494945785441
11978 -1088.498821359267
11979 -1088.495523807751
11980 -1088.500488330649
11981 -1088.49659767672
11982 -1088.500733012728
11983 -1088.497825600071
11984 -1088.501033361445
11985 -1088.496933401673
11986 -1088.499570656688
11987 -1088.496192422619
11988 -1088.500770270533
11989 -1088.497648837427
11990 -1088.501989553247
11991 -1088.498967688593
11992 -1088.502928428293
11993 -1088.499041706636
11994 -1088.501934959323
11995 -1088.498741813703
11996 -1088.502611691027
11997 -1088.499206080362
11998 -1088.502890146463
11999 -1088.499600176901
12000 -1088.504510142671
12001 -1088.500800454305
12002 -1088.504247426455
12003 -1088.500511396476
12004 -1088.503772524238
12005 -1088.499867830596
12006 -1088.502999872903
12007 -1088.4996980528
12008 -1088.504090983459
12009 -1088.499927836178
12010 -1088.503065281781
12011 -1088.499342538804
12012 -1088.502894554261
12013 -1088.498807302426
12014 -1088.501786975702
12015 -1088.49752432121
12016 -1088.50045750175
12017 -1088.496098557758
12018 -1088.499247038154
12019 -1088.495494070827
12020 -1088.499265562624
12021 -1088.494758473906
12022 -1088.497860821364
12023 -1088.494191833816
12024 -1088.498444546203
12025 -1088.494262130623
12026 -1088.497901347235
12027 -1088.494772903939
12028 -1088.498554835991
12029 -1088.495280173224
12030 -1088.498967665405
12031 -1088.496209705512
12032 -1088.501065569193
12033 -1088.49714499089
12034 -1088.50044804655
12035 -1088.497136198185
12036 -1088.501838818631
12037 -1088.498028762194
12038 -1088.500654815142
12039 -1088.4962540327
12040 -1088.499574101878
12041 -1088.49536929803
12042 -1088.499877237385
12043 -1088.497840435231
12044 -1088.503196434006
12045 -1088.499507114472
12046 -1088.503010461005
12047 -1088.498314362751
12048 -1088.501388803686
12049 -1088.496938408166
12050 -1088.5000444725
12051 -1088.497005770478
12052 -1088.501582299368
12053 -1088.498619506858
12054 -1088.503170685878
12055 -1088.500533041022
12056 -1088.50480094807
12057 -1088.500416751079
12058 -1088.502059912489
12059 -1088.498184875951
12060 -1088.501924426534
12061 -1088.499087242306
12062 -1088.502876661519
12063 -1088.50035886757
12064 -1088.505098968519
12065 -1088.50172385302
12066 -1088.504376754974
12067 -1088.500906196722
12068 -1088.504936914437
12069 -1088.500657451691
12070 -1088.503306891219
12071 -1088.499304872056
12072 -1088.504095978868
12073 -1088.500754836199
12074 -1088.503991617548
12075 -1088.50100662025
12076 -1088.504956398287
12077 -1088.501475078662
12078 -1088.504925519182
12079 -1088.501442798823
12080 -1088.505200923775
12081 -1088.499749743938
12082 -1088.502015790628
12083 -1088.498247485491
12084 -1088.50175565748
12085 -1088.497884769558
12086 -1088.501443887339
12087 -1088.497223777355
12088 -1088.500725747498
12089 -1088.495806575373
12090 -1088.498899645415
12091 -1088.49558110172
12092 -1088.499165567674
12093 -1088.495559506896
12094 -1088.498812153096
12095 -1088.494743434321
12096 -1088.498759813028
12097 -1088.494686554614
12098 -1088.497593950415
12099 -1088.494542742983
12100 -1088.498193363038
12101 -1088.494685778331
12102 -1088.498364061272
12103 -1088.49498156678
12104 -1088.499343523082
12105 -1088.495226143392
12106 -1088.49815850249
12107 -1088.494518971449
12108 -1088.498726838857
12109 -1088.495463988638
12110 -1088.500051088527
12111 -1088.497341094154
12112 -1088.501746010482
12113 -1088.498180843081
12114 -1088.501435330705
12115 -1088.498528991178
12116 -1088.502723350414
12117 -1088.498675428048
12118 -1088.502068160152
12119 -1088.498792615795
12120 -1088.50358467683
12121 -1088.500339296133
12122 -1088.503577534806
12123 -1088.50045064017
12124 -1088.504354073496
12125 -1088.500071012966
12126 -1088.503388317145
12127 -1088.499767688471
12128 -1088.503452568616
12129 -1088.5001286827
12130 -1088.503436707701
12131 -1088.499959514569
12132 -1088.503910534376
12133 -1088.500162213431
12134 -1088.503603693875
12135 -1088.499556119285
12136 -1088.502878730666
12137 -1088.498862858452
12138 -1088.502209449861
12139 -1088.500007868272
12140 -1088.504950976292
12141 -1088.501370579846
12142 -1088.504681379434
12143 -1088.500740547308
12144 -1088.5046598038
12145 -1088.501142421775
12146 -1088.504222300351
12147 -1088.501220263564
12148 -1088.505313036634
12149 -1088.502221861251
12150 -1088.506158621032
12151 -1088.503154711046
12152 -1088.50705055296
12153 -1088.502282334704
12154 -1088.504208003639
12155 -1088.500673270741
12156 -1088.504670432132
12157 -1088.501188772777
12158 -1088.504759188081
12159 -1088.501368928406
12160 -1088.505662319353
12161 -1088.501285589467
12162 -1088.503996607832
12163 -1088.500551137049
12164 -1088.504131609717
12165 -1088.499518232517
12166 -1088.502569930737
12167 -1088.498840646182
12168 -1088.503178467216
12169 -1088.499852330442
12170 -1088.503238300148
12171 -1088.499554584188
12172 -1088.502979658211
12173 -1088.499135126925
12174 -1088.50230060406
12175 -1088.498444262086
12176 -1088.501881395157
12177 -1088.497538154098
12178 -1088.500304405737
12179 -1088.496728502
12180 -1088.50181483852
12181 -1088.497775427171
12182 -1088.501412069197
12183 -1088.497492596758
12184 -1088.500626772108
12185 -1088.496217413076
12186 -1088.499579431643
12187 -1088.496553388077
12188 -1088.501509373293
12189 -1088.498345809433
12190 -1088.502006554343
12191 -1088.498912834005
12192 -1088.503627236808
12193 -1088.499756865783
12194 -1088.502241887406
12195 -1088.49819902272
12196 -1088.502073738978
12197 -1088.497597116574
12198 -1088.501243712572
12199 -1088.49783996224
12200 -1088.502505964993
12201 -1088.498706027389
12202 -1088.501817750316
12203 -1088.497867928991
12204 -1088.50160308347
12205 -1088.497911991584
12206 -1088.501215091093
12207 -1088.497446272159
12208 -1088.501954101123
12209 -1088.498710643775
12210 -1088.502670251556
12211 -1088.500299236024
12212 -1088.50455446052
12213 -1088.500681632415
12214 -1088.503606885489
12215 -1088.500082772488
12216 -1088.503971465519
12217 -1088.500474840907
12218 -1088.504001883058
12219 -1088.50109838484
12220 -1088.504581438249
12221 -1088.50108848118
12222 -1088.505185231954
12223 -1088.502141189281
12224 -1088.506455462713
12225 -1088.502679397168
12226 -1088.504980277716
12227 -1088.501901252909
12228 -1088.505842751256
12229 -1088.502575129772
12230 -1088.506820323779
12231 -1088.503677904532
12232 -1088.508236752138
12233 -1088.503940319828
12234 -1088.506538185715
12235 -1088.502662011979
12236 -1088.506147291185
12237 -1088.50198958115
12238 -1088.504632071832
12239 -1088.501041841832
12240 -1088.505523972084
12241 -1088.501311894935
12242 -1088.504118543778
12243 -1088.499887550026
12244 -1088.503340664456
12245 -1088.498651489135
12246 -1088.501235838514
12247 -1088.497046200251
12248 -1088.500096157982
12249 -1088.495494720721
12250 -1088.498401913746
12251 -1088.494729160768
12252 -1088.498921926211
12253 -1088.495689112806
12254 -1088.49883648953
12255 -1088.49532841093
12256 -1088.498539549028
12257 -1088.494395952542
12258 -1088.497661189689
12259 -1088.494650065465
12260 -1088.499381478972
12261 -1088.49578566839
12262 -1088.498885222386
12263 -1088.495391489738
12264 -1088.499349019683
12265 -1088.495553534679
12266 -1088.498469190652
12267 -1088.494651229671
12268 -1088.499108956335
12269 -1088.496454947574
12270 -1088.501062685066
12271 -1088.498219066078
12272 -1088.502799979961
12273 -1088.498726560232
12274 -1088.501380158981
12275 -1088.497744486425
12276 -1088.501926222331
12277 -1088.499214459256
12278 -1088.503597319992
12279 -1088.500829837528
12280 -1088.50550288457
12281 -1088.502085095322
12282 -1088.505817091913
12283 -1088.502640555849
12284 -1088.506370080816
12285 -1088.502285470695
12286 -1088.505953317834
12287 -1088.502922621225
12288 -1088.507396062454
12289 -1088.50424889633
12290 -1088.507643044783
12291 -1088.503976651695
12292 -1088.507350051213
12293 -1088.503219071344
12294 -1088.506188382989
12295 -1088.502620032881
12296 -1088.506633422327
12297 -1088.502372363294
12298 -1088.505488623344
12299 -1088.501408258707
12300 -1088.504925899936
12301 -1088.501252522182
12302 -1088.504991879442
12303 -1088.501513197155
12304 -1088.505424716193
12305 -1088.501308507013
12306 -1088.50406732497
12307 -1088.49970962148
12308 -1088.50315020604
12309 -1088.498815387495
12310 -1088.501984140766
12311 -1088.49800692809
12312 -1088.50230963191
12313 -1088.498943621412
12314 -1088.502022428519
12315 -1088.497117235022
12316 -1088.499962072039
12317 -1088.494962220649
12318 -1088.497116962503
12319 -1088.493106602391
12320 -1088.497179591957
12321 -1088.493485938037
12322 -1088.496853430172
12323 -1088.493090218394
12324 -1088.496856010875
12325 -1088.492549147724
12326 -1088.495398027359
12327 -1088.491548234685
12328 -1088.494707574918
12329 -1088.490844318904
12330 -1088.494944457249
12331 -1088.492253448061
12332 -1088.496530248855
12333 -1088.49361289443
12334 -1088.497182834893
12335 -1088.493805933021
12336 -1088.497546368711
12337 -1088.493846823172
12338 -1088.49731565654
12339 -1088.49441253878
12340 -1088.498576495379
12341 -1088.495269924364
12342 -1088.499314324521
12343 -1088.497047558171
12344 -1088.502390278157
12345 -1088.498824218909
12346 -1088.501739106367
12347 -1088.49898218468
12348 -1088.50320066189
12349 -1088.49964882988
12350 -1088.503654362445
12351 -1088.500653506953
12352 -1088.505304813555
12353 -1088.502079519675
12354 -1088.505910744819
12355 -1088.503846230594
12356 -1088.507823652519
12357 -1088.50401725731
12358 -1088.507148538549
12359 -1088.503548774867
12360 -1088.507600305888
12361 -1088.503971651464
12362 -1088.507687928996
12363 -1088.505226724306
12364 -1088.509357735095
12365 -1088.505555530807
12366 -1088.508447194564
12367 -1088.504948974354
12368 -1088.508464812242
12369 -1088.503767238548
12370 -1088.506094932804
12371 -1088.501343602755
12372 -1088.504473762534
12373 -1088.50064764825
12374 -1088.50465608572
12375 -1088.500182352764
12376 -1088.503808182746
12377 -1088.499140245274
12378 -1088.501419469485
12379 -1088.497481858392
12380 -1088.500833327946
12381 -1088.496480951072
12382 -1088.498826307087
12383 -1088.495253088846
12384 -1088.499490198178
12385 -1088.495069247006
12386 -1088.497126710675
12387 -1088.492957825559
12388 -1088.4954133503
12389 -1088.490969551494
12390 -1088.494048369957
12391 -1088.490925353985
12392 -1088.495888083216
12393 -1088.49194375096
12394 -1088.494590638727
12395 -1088.49093698484
12396 -1088.494354948368
12397 -1088.489830949982
12398 -1088.492937599718
12399 -1088.489892037074
12400 -1088.494409710146
12401 -1088.490863303319
12402 -1088.49536475119
12403 -1088.491939782584
12404 -1088.495980242383
12405 -1088.492056845873
12406 -1088.495059990972
12407 -1088.491196546432
12408 -1088.495317600535
12409 -1088.492327406541
12410 -1088.497465702452
12411 -1088.495235191788
12412 -1088.499320002986
12413 -1088.495005149444
12414 -1088.498357211616
12415 -1088.494616042429
12416 -1088.498971020824
12417 -1088.495642261141
12418 -1088.499859287069
12419 -1088.497396695858
12420 -1088.502280426059
12421 -1088.498906132289
12422 -1088.502041993416
12423 -1088.49805983221
12424 -1088.501393688879
12425 -1088.497609330839
12426 -1088.502177636894
12427 -1088.500312317854
12428 -1088.505547824123
12429 -1088.501982562095
12430 -1088.504982437816
12431 -1088.501035788659
12432 -1088.505191607473
12433 -1088.500957756862
12434 -1088.504757189782
12435 -1088.501960583323
12436 -1088.505860270279
12437 -1088.501772407184
12438 -1088.504735227703
12439 -1088.500819214316
12440 -1088.504773431692
12441 -1088.500308178481
12442 -1088.503283611607
12443 -1088.499910145664
12444 -1088.503458680168
12445 -1088.499824531434
12446 -1088.503621191237
12447 -1088.498775573845
12448 -1088.502457741031
12449 -1088.497815480275
12450 -1088.501329735508
12451 -1088.497608067829
12452 -1088.501216804726
12453 -1088.496973708848
12454 -1088.499055638927
12455 -1088.494875097358
12456 -1088.499645973566
12457 -1088.495669033666
12458 -1088.498475431631
12459 -1088.494723428217
12460 -1088.497973229959
12461 -1088.493048799369
12462 -1088.495996430683
12463 -1088.492881339466
12464 -1088.497299888299
12465 -1088.494516543252
12466 -1088.497826001451
12467 -1088.494220543015
12468 -1088.497848027047
12469 -1088.49381414575
12470 -1088.497178076535
12471 -1088.493365636046
12472 -1088.497167879041
12473 -1088.49483659055
12474 -1088.499440285292
12475 -1088.497174634993
12476 -1088.50080331031
12477 -1088.496465837001
12478 -1088.498880870398
12479 -1088.494603974341
12480 -1088.498718354965
12481 -1088.495459635236
12482 -1088.499339199201
12483 -1088.496933543785
12484 -1088.5009147424
12485 -1088.497222788074
12486 -1088.500490895294
12487 -1088.496222807973
12488 -1088.499114916302
12489 -1088.494587257909
12490 -1088.498184410925
12491 -1088.495506754057
12492 -1088.500299832
12493 -1088.497438602826
12494 -1088.501849056148
12495 -1088.498404857206
12496 -1088.502107711379
12497 -1088.498382043352
12498 -1088.501221840505
12499 -1088.498558400036
12500 -1088.503282119913
12501 -1088.499380746483
12502 -1088.502860783356
12503 -1088.49969274215
12504 -1088.504239176501
12505 -1088.500897977403
12506 -1088.5044037984
12507 -1088.501612701097
12508 -1088.505009670735
12509 -1088.500207386773
12510 -1088.503666434614
12511 -1088.499736347856
12512 -1088.503729092304
12513 -1088.499462703955
12514 -1088.50240799641
12515 -1088.500273358299
12516 -1088.503634098654
12517 -1088.499794412259
12518 -1088.502390692873
12519 -1088.497627280401
12520 -1088.50027149177
12521 -1088.495228704744
12522 -1088.498684558865
12523 -1088.4954284049
12524 -1088.500182960317
12525 -1088.496912357385
12526 -1088.500641441624
12527 -1088.497486433002
12528 -1088.501101987235
12529 -1088.496452299303
12530 -1088.499258522172
12531 -1088.495075523547
12532 -1088.498970152255
12533 -1088.494976693429
12534 -1088.498771536387
12535 -1088.495870113975
12536 -1088.499966168574
12537 -1088.49553044238
12538 -1088.49818543575
12539 -1088.494365698501
12540 -1088.499373494631
12541 -1088.49582431727
12542 -1088.499995055741
12543 -1088.496830592076
12544 -1088.500461552504
12545 -1088.495827871429
12546 -1088.498764937426
12547 -1088.495299736829
12548 -1088.499356083326
12549 -1088.495960869226
12550 -1088.499520135785
12551 -1088.496138397527
12552 -1088.50056379808
12553 -1088.49700288087
12554 -1088.50070576678
12555 -1088.496873202036
12556 -1088.500867727599
12557 -1088.497654481651
12558 -1088.501760381271
12559 -1088.498066687345
12560 -1088.501659436818
12561 -1088.497194143487
12562 -1088.49992575761
12563 -1088.496946035062
12564 -1088.50145778003
12565 -1088.498998353725
12566 -1088.503559519928
12567 -1088.500297761543
12568 -1088.503903053997
12569 -1088.499535282539
12570 -1088.502599096268
12571 -1088.499400660235
12572 -1088.503917714028
12573 -1088.500298814647
12574 -1088.503588344332
12575 -1088.499445154819
12576 -1088.503324909729
12577 -1088.499408051788
12578 -1088.502242841261
12579 -1088.499392401967
12580 -1088.502838202982
12581 -1088.498626865683
12582 -1088.50203980558
12583 -1088.497862285754
12584 -1088.501442164994
12585 -1088.497875373229
12586 -1088.50077026143
12587 -1088.497546691055
12588 -1088.501164150191
12589 -1088.497129546726
12590 -1088.500280191175
12591 -1088.496296113636
12592 -1088.499398802439
12593 -1088.495183408859
12594 -1088.49869818869
12595 -1088.496199834643
12596 -1088.500854805121
12597 -1088.497328837781
12598 -1088.499953101398
12599 -1088.49635429791
12600 -1088.50069505186
12601 -1088.497266300846
12602 -1088.500480977831
12603 -1088.496666138034
12604 -1088.500528176564
12605 -1088.496708618711
12606 -1088.500705172058
12607 -1088.496891712957
12608 -1088.501053514854
12609 -1088.497359344714
12610 -1088.501222588364
12611 -1088.497363810357
12612 -1088.500818979305
12613 -1088.496261693549
12614 -1088.49953260882
12615 -1088.496369265554
12616 -1088.500916296907
12617 -1088.497127961888
12618 -1088.500503888258
12619 -1088.497215504405
12620 -1088.50038645361
12621 -1088.495155339783
12622 -1088.497109884671
12623 -1088.494021308332
12624 -1088.498686540076
12625 -1088.496108730482
12626 -1088.500903235681
12627 -1088.498369905927
12628 -1088.502299828245
12629 -1088.497955095585
12630 -1088.500560061544
12631 -1088.496236337429
12632 -1088.500701102574
12633 -1088.497736140418
12634 -1088.502205951096
12635 -1088.500520258989
12636 -1088.505912186738
12637 -1088.502617225046
12638 -1088.505593140338
12639 -1088.501373815332
12640 -1088.504288489834
12641 -1088.50056681779
12642 -1088.504166548301
12643 -1088.50208476595
12644 -1088.507447845241
12645 -1088.50322775848
12646 -1088.506724130993
12647 -1088.502540323458
12648 -1088.505912556351
12649 -1088.501418959574
12650 -1088.503203560645
12651 -1088.499242619153
12652 -1088.502969382537
12653 -1088.499164286668
12654 -1088.502830467884
12655 -1088.499540458339
12656 -1088.503225423134
12657 -1088.498854756672
12658 -1088.501034391512
12659 -1088.497116219004
12660 -1088.500393699001
12661 -1088.496533229997
12662 -1088.500358698383
12663 -1088.497452247805
12664 -1088.501751803575
12665 -1088.498231020623
12666 -1088.501822456687
12667 -1088.498919719524
12668 -1088.502126906576
12669 -1088.498417271156
12670 -1088.501439215425
12671 -1088.497671301386
12672 -1088.501612364368
12673 -1088.498247472787
12674 -1088.501425962001
12675 -1088.498115235908
12676 -1088.502070268614
12677 -1088.498852648609
12678 -1088.502299828183
12679 -1088.499337361678
12680 -1088.50342091648
12681 -1088.499246911877
12682 -1088.501814915239
12683 -1088.498081173624
12684 -1088.502284829934
12685 -1088.498503076542
12686 -1088.502390670263
12687 -1088.499028446278
12688 -1088.503110795781
12689 -1088.499019478218
12690 -1088.502298900403
12691 -1088.498483237158
12692 -1088.501241656693
12693 -1088.496725872434
12694 -1088.500044293233
12695 -1088.497340594748
12696 -1088.500979328132
12697 -1088.497549345822
12698 -1088.501106965173
12699 -1088.497452470638
12700 -1088.500993680276
12701 -1088.49664575166
12702 -1088.499981320634
12703 -1088.497353728634
12704 -1088.501606606651
12705 -1088.497929479105
12706 -1088.500230843135
12707 -1088.496341134932
12708 -1088.500655261396
12709 -1088.498049828464
12710 -1088.502350569607
12711 -1088.499803282632
12712 -1088.504078265681
12713 -1088.500489569453
12714 -1088.503657493299
12715 -1088.499797775957
12716 -1088.502977850856
12717 -1088.499177537961
12718 -1088.503026387816
12719 -1088.500118466472
12720 -1088.505332081231
12721 -1088.502480195062
12722 -1088.505819758275
12723 -1088.502646075495
12724 -1088.506095005757
12725 -1088.501280519625
12726 -1088.504172478288
12727 -1088.500385998344
12728 -1088.504452312355
12729 -1088.500370424658
12730 -1088.503539413839
12731 -1088.500560173233
12732 -1088.50509298446
12733 -1088.501542674047
12734 -1088.504477871913
12735 -1088.500639014235
12736 -1088.504620377562
