"mz-rfile"
"Iteration" "mz"
("Iteration" "mz")
1 5689.841288613622
2 5681.680296500734
3 5298.988482476793
4 4780.16696999155
5 4298.417230964556
6 3815.227362194904
7 3287.574166629882
8 2787.774685125203
9 2244.187071358615
10 1659.853122857327
11 1191.254851276891
12 796.2194114426449
13 501.9497703395912
14 262.5116024643377
15 108.4345255410754
16 11.669666881401
17 -20.48161387521038
18 -10.60981940439598
19 42.90973838763353
20 127.1689193784941
21 245.4583407567448
22 376.0219681224344
23 529.614214062574
24 662.9527745404432
25 788.3639203049014
26 904.3700766530627
27 989.849586037372
28 1067.094643814544
29 1122.558922982813
30 1169.321780615767
31 1200.782860035689
32 1227.032841780149
33 1247.666601379465
34 1267.126076725264
35 1283.173735968082
36 1291.584044257396
37 1293.92948093898
38 1291.311262810804
39 1285.435083776161
40 1274.958277779636
41 1266.268923425412
42 1253.710229967959
43 1245.690144793929
44 1234.149327460055
45 1225.479379499834
46 1216.667158880745
47 1208.101584848823
48 1197.827854226488
49 1188.732986878099
50 1181.200990002144
51 1175.099823612861
52 1170.530556848372
53 1168.014764701755
54 1165.74192848376
55 1164.907246524742
56 1164.758224856914
57 1165.291773910423
58 1166.250732900297
59 1167.767424244729
60 1169.006030680772
61 1171.112833315246
62 1172.639879421714
63 1175.053918784554
64 1177.479587473335
65 1179.819577930398
66 1181.28446359038
67 1183.340126819137
68 1185.196466601025
69 1186.819637265552
70 1187.729530035128
71 1188.815433272174
72 1189.368867741734
73 1189.940694741009
74 1190.118069753123
75 1190.174378092001
76 1190.010937522816
77 1189.69698783953
78 1189.217593673066
79 1188.606362665464
80 1187.880898132933
81 1187.022590023478
82 1186.089567894108
83 1185.050775687972
84 1183.957592341652
85 1182.804609136497
86 1181.621556434829
87 1180.402364328695
88 1179.204668679256
89 1177.947944890708
90 1176.735800031724
91 1175.505451384949
92 1174.312432785225
93 1173.102672340078
94 1171.939029251306
95 1170.804788686663
96 1169.711830821695
97 1168.682106881057
98 1167.686451963248
99 1166.723212335018
100 1165.809485665522
101 1164.94512840468
102 1164.142526026784
103 1163.342494754933
104 1162.611207831584
105 1161.875553950781
106 1161.18424620775
107 1160.524504055747
108 1159.897938665622
109 1159.27812278384
110 1158.706219244482
111 1158.133984959627
112 1157.603939325439
113 1157.078056435007
114 1156.583713675775
115 1156.068201743361
116 1155.574379185102
117 1155.081155247276
118 1154.586454712235
119 1154.088242501845
120 1153.61382815922
121 1153.126192125864
122 1152.658450472063
123 1152.179166513252
124 1151.723179076104
125 1151.253290234122
126 1150.809441013873
127 1150.355943757796
128 1149.913571542083
129 1149.455852976017
130 1149.011313098401
131 1148.563428739511
132 1148.132308793384
133 1147.697499042126
134 1147.283917380897
135 1146.863330313514
136 1146.470381149655
137 1146.070324300889
138 1145.689957575996
139 1145.316160414105
140 1144.967217269102
141 1144.628715163303
142 1144.311543096933
143 1143.996301525593
144 1143.717952484431
145 1143.448685820802
146 1143.205457968939
147 1142.969453785169
148 1142.769931416626
149 1142.58376808519
150 1142.437658596517
151 1142.305641191917
152 1142.209000676257
153 1142.140684110211
154 1142.102196407919
155 1142.07363984731
156 1142.092823486249
157 1142.121730561991
158 1142.194322476984
159 1142.269869101942
160 1142.390108233574
161 1142.52648823496
162 1142.695004678666
163 1142.87438172959
164 1143.095387003542
165 1143.321286390331
166 1143.591272116365
167 1143.869642869851
168 1144.179688523425
169 1144.505420055763
170 1144.875214890174
171 1145.247624457814
172 1145.65476834917
173 1146.070437760983
174 1146.509884129615
175 1146.958004058024
176 1147.443917507351
177 1147.934405161589
178 1148.688734287239
179 1149.200863466847
180 1149.734133789053
181 1150.509671916966
182 1151.04410170443
183 1151.564264131075
184 1152.380337745047
185 1152.913832200233
186 1153.70298158515
187 1154.21720771585
188 1155.004017320801
189 1155.510188139175
190 1156.261217284686
191 1156.754444587822
192 1157.509099819542
193 1157.98619496718
194 1158.712481992226
195 1159.185686443302
196 1159.924466248883
197 1160.646716240229
198 1161.13350077542
199 1161.847303779494
200 1162.578344579159
201 1163.050461497057
202 1163.768258742537
203 1164.460128568231
204 1164.933832665508
205 1165.633607620165
206 1166.329613048335
207 1167.005152713199
208 1167.458715130552
209 1168.119972772744
210 1168.789188829611
211 1169.223357949623
212 1169.881194306876
213 1170.519525802227
214 1170.948742006714
215 1171.574149641296
216 1172.202687093095
217 1172.603160659294
218 1173.221061913971
219 1173.807062982218
220 1174.201214045415
221 1174.775125336438
222 1175.1614614187
223 1175.723062287051
224 1176.10603739722
225 1176.655547199152
226 1177.032454534738
227 1177.568957151294
228 1177.93395276189
229 1178.460085514095
230 1178.812920645998
231 1179.314971884843
232 1179.652574706806
233 1180.141785267741
234 1180.464132709838
235 1180.782089599642
236 1181.257388325605
237 1181.554361323682
238 1181.861624845154
239 1182.298419616581
240 1182.586076924983
241 1182.86740329577
242 1183.152961860904
243 1183.425945916325
244 1183.834476567202
245 1184.08975804453
246 1184.347690950199
247 1184.595573246195
248 1184.846786026617
249 1185.08481384571
250 1185.324388010086
251 1185.553168043006
252 1185.787321917973
253 1186.010961094592
254 1186.236833785672
255 1186.455668279988
256 1186.675382334636
257 1186.88496849644
258 1187.100778109879
259 1187.303283410832
260 1187.50634671971
261 1187.698443975933
262 1187.89097472304
263 1188.069349255278
264 1188.255647006907
265 1188.42766947441
266 1188.605534197229
267 1188.767125932464
268 1188.935342743508
269 1189.087484580075
270 1189.239627538076
271 1189.383153311915
272 1189.530362803127
273 1189.661235740464
274 1189.795918962234
275 1189.921266599884
276 1190.05125652176
277 1190.174964223998
278 1190.302622983425
279 1190.426501685579
280 1190.555009041719
281 1190.677171826993
282 1190.80576289912
283 1190.930228773879
284 1191.062406761546
285 1191.192562403545
286 1191.330209853
287 1191.463239223476
288 1191.604540737313
289 1191.745882147161
290 1191.891937290699
291 1192.038412894727
292 1192.188477206864
293 1192.342497836621
294 1192.49830988766
295 1192.657076485842
296 1192.822401317552
297 1192.987296784035
298 1193.159855804749
299 1193.329693169801
300 1193.505223997963
301 1193.677857420683
302 1193.857516232027
303 1194.03538129755
304 1194.218783503131
305 1194.401134286285
306 1194.591688819095
307 1194.777289848588
308 1194.967610601648
309 1195.157359314793
310 1195.354282605535
311 1195.548562178581
312 1195.746727108353
313 1195.94417063879
314 1196.146754288146
315 1196.347070230241
316 1196.549521839292
317 1196.753385066184
318 1196.958149589697
319 1197.15918207188
320 1197.360385578353
321 1197.560452589471
322 1197.764606410621
323 1197.96983562293
324 1198.173637149002
325 1198.379948094522
326 1198.58474881008
327 1198.787784100402
328 1198.991313643255
329 1199.194594105011
330 1199.399366332689
331 1199.603367468298
332 1199.808212202797
333 1200.013267581332
334 1200.219336849559
335 1200.424027972023
336 1200.633368772285
337 1200.83807629142
338 1201.047203151493
339 1201.24990592855
340 1201.454174226453
341 1201.656831720033
342 1201.864727263525
343 1202.069569826589
344 1202.275979776351
345 1202.47751566081
346 1202.682206437048
347 1202.881316838805
348 1203.084691434802
349 1203.283820405968
350 1203.484288682115
351 1203.679756613262
352 1203.876533061237
353 1204.070593211625
354 1204.267400679891
355 1204.459984929147
356 1204.654221430935
357 1204.843883879304
358 1205.038487567635
359 1205.227616178868
360 1205.418101738175
361 1205.603186706719
362 1205.793262868842
363 1205.975848070291
364 1206.165167593179
365 1206.346077862049
366 1206.532447630543
367 1206.712804864955
368 1206.897927467466
369 1207.078379064973
370 1207.262045797208
371 1207.440821193002
372 1207.625027835807
373 1207.802534318089
374 1207.985704556999
375 1208.164915345965
376 1208.34566319436
377 1208.525609002048
378 1208.708139176014
379 1208.884382711183
380 1209.062741536491
381 1209.237796997452
382 1209.413862118788
383 1209.588243114721
384 1209.763022144341
385 1209.936551811892
386 1210.109029159243
387 1210.277345097091
388 1210.448563641981
389 1210.614154040328
390 1210.782972283379
391 1210.947744349918
392 1211.115411561388
393 1211.279158353813
394 1211.446320209815
395 1211.607983764469
396 1211.773210467019
397 1211.932481759287
398 1212.095411831273
399 1212.254164354395
400 1212.414809178477
401 1212.571595479299
402 1212.731032070505
403 1212.885996130331
404 1213.044593827724
405 1213.198974552343
406 1213.355885579232
407 1213.509063777293
408 1213.66459990849
409 1213.816008550164
410 1213.970947695562
411 1214.120301762502
412 1214.275191248386
413 1214.423206861834
414 1214.575447730769
415 1214.721788836234
416 1214.873693677509
417 1215.017112964469
418 1215.163355526006
419 1215.303527458452
420 1215.449863613988
421 1215.590059016513
422 1215.733952351039
423 1215.875470818194
424 1216.017846211648
425 1216.156400597432
426 1216.294979780734
427 1216.429981732605
428 1216.567244739266
429 1216.700332103228
430 1216.8363177452
431 1216.967819054225
432 1217.101883713668
433 1217.231519048553
434 1217.364094693775
435 1217.49376219197
436 1217.625717163341
437 1217.752764021282
438 1217.885014657797
439 1218.010617644376
440 1218.141307409578
441 1218.265882686629
442 1218.394682957842
443 1218.517831285286
444 1218.646556145198
445 1218.76981429574
446 1218.895992532293
447 1219.017783167894
448 1219.143460847188
449 1219.264678047577
450 1219.386410474595
451 1219.504926821536
452 1219.625420546218
453 1219.742853771885
454 1219.862402535785
455 1219.97759666519
456 1220.093737512691
457 1220.209445202648
458 1220.327003282662
459 1220.440141154602
460 1220.555598593704
461 1220.665443812933
462 1220.775282541634
463 1220.882420720882
464 1220.99155800176
465 1221.099320544804
466 1221.207682327499
467 1221.314229512411
468 1221.420344038076
469 1221.524233942398
470 1221.630403446433
471 1221.733019803791
472 1221.835975521706
473 1221.936122869683
474 1222.038398811459
475 1222.13965824898
476 1222.241625408247
477 1222.342219627166
478 1222.443016777908
479 1222.543747721943
480 1222.642770028957
481 1222.742446114486
482 1222.839886222303
483 1222.935521538636
484 1223.031301531475
485 1223.12623842449
486 1223.220057014326
487 1223.312368074279
488 1223.407841525009
489 1223.498928358383
490 1223.590544755714
491 1223.680628043578
492 1223.771236840551
493 1223.859071783461
494 1223.946397414194
495 1224.032517754581
496 1224.119487833721
497 1224.203869076357
498 1224.288999579549
499 1224.371141596323
500 1224.45391400464
501 1224.537771566053
502 1224.620914810632
503 1224.703865598043
504 1224.785782719274
505 1224.866427945862
506 1224.949900858855
507 1225.028594918973
508 1225.109582537295
509 1225.189054687084
510 1225.269347512126
511 1225.346883237063
512 1225.425721863827
513 1225.502303515047
514 1225.580372821086
515 1225.656696927739
516 1225.732966486655
517 1225.807375764339
518 1225.882891770238
519 1225.955951143159
520 1226.029257293457
521 1226.100385354201
522 1226.174270708771
523 1226.243867983132
524 1226.315515408731
525 1226.38314472761
526 1226.452206822913
527 1226.519037116582
528 1226.588111524055
529 1226.652698126143
530 1226.720510340264
531 1226.784269473317
532 1226.850997607916
533 1226.914513052032
534 1226.97876455786
535 1227.041940642286
536 1227.106135955817
537 1227.167602211338
538 1227.231448488672
539 1227.291684837083
540 1227.35412177504
541 1227.413877501987
542 1227.474995290062
543 1227.533926364801
544 1227.594564133851
545 1227.65140112776
546 1227.711130606422
547 1227.767792097628
548 1227.825593596615
549 1227.881621786905
550 1227.938714330814
551 1227.995611243476
552 1228.053363720146
553 1228.108704526844
554 1228.165483303123
555 1228.22079962617
556 1228.276232424843
557 1228.330000771268
558 1228.38414563611
559 1228.437091492594
560 1228.490303095377
561 1228.543237594164
562 1228.596348211551
563 1228.647739572776
564 1228.698782750185
565 1228.748470962936
566 1228.798959040361
567 1228.847447358562
568 1228.895633033745
569 1228.944244807113
570 1228.991964041698
571 1229.039545074256
572 1229.086303942652
573 1229.132251843184
574 1229.17723420441
575 1229.2231914394
576 1229.266537532556
577 1229.310914249958
578 1229.355332082637
579 1229.398538117808
580 1229.440542192817
581 1229.482459716277
582 1229.52275870365
583 1229.564258621311
584 1229.605793209462
585 1229.646476585164
586 1229.688678069771
587 1229.72959850115
588 1229.770336050957
589 1229.80980062957
590 1229.851147397619
591 1229.891284161421
592 1229.931648691688
593 1229.972498877819
594 1230.015294041679
595 1230.055511864452
596 1230.095909053641
597 1230.13561000692
598 1230.176888269892
599 1230.21625782162
600 1230.255529742925
601 1230.29449759768
602 1230.333378218798
603 1230.371733812385
604 1230.409249032491
605 1230.445622701236
606 1230.482437681116
607 1230.517097320038
608 1230.553735856539
609 1230.587616063597
610 1230.623958522984
611 1230.657266535838
612 1230.691513498802
613 1230.721859693037
614 1230.755004267361
615 1230.785808950825
616 1230.817288825268
617 1230.846787644432
618 1230.878783520321
619 1230.907840645468
620 1230.938906635461
621 1230.967128858156
622 1230.998186064867
623 1231.025933142313
624 1231.056969838556
625 1231.085834358042
626 1231.117696949437
627 1231.146598617648
628 1231.177481269068
629 1231.206421891049
630 1231.23822383677
631 1231.268533630261
632 1231.300713205499
633 1231.329734584244
634 1231.363072798399
635 1231.391507983303
636 1231.424312421058
637 1231.452850754085
638 1231.484171531593
639 1231.513949044537
640 1231.545394751108
641 1231.573987910014
642 1231.604589847639
643 1231.630607383932
644 1231.658253580006
645 1231.683374283504
646 1231.709427173488
647 1231.732980453118
648 1231.75849090383
649 1231.780306970805
650 1231.804408673167
651 1231.827250490307
652 1231.850298404014
653 1231.87205421592
654 1231.894135459509
655 1231.915733028924
656 1231.937366069365
657 1231.957751323178
658 1231.980711296846
659 1232.00191877102
660 1232.024234458676
661 1232.045659774704
662 1232.06892030323
663 1232.090798589277
664 1232.114475921127
665 1232.137819200726
666 1232.163007601837
667 1232.185473442934
668 1232.2106996378
669 1232.232939440623
670 1232.257099329516
671 1232.280412608117
672 1232.303730242409
673 1232.325907779288
674 1232.350756789612
675 1232.373187875584
676 1232.396365279528
677 1232.417271991759
678 1232.440287201956
679 1232.461456788594
680 1232.483641734133
681 1232.503319403035
682 1232.526251167732
683 1232.543877248562
684 1232.563846141275
685 1232.580026191756
686 1232.597889276718
687 1232.613633257622
688 1232.630484634104
689 1232.646169653409
690 1232.663228682299
691 1232.678606859354
692 1232.694706394086
693 1232.711973585487
694 1232.728815443989
695 1232.746232217896
696 1232.763934717252
697 1232.780975642354
698 1232.800521258928
699 1232.818800329067
700 1232.837260882516
701 1232.85441654604
702 1232.87342794092
703 1232.891205581652
704 1232.910340053609
705 1232.928190510994
706 1232.947534718195
707 1232.965134082433
708 1232.983279732035
709 1232.999448519389
710 1233.016553622344
711 1233.032875513987
712 1233.050007205059
713 1233.066055738152
714 1233.083392789846
715 1233.098225415348
716 1233.113912043551
717 1233.127677086834
718 1233.142173469577
719 1233.155581155093
720 1233.170005490942
721 1233.180842988709
722 1233.195948180747
723 1233.20717161435
724 1233.21936193112
725 1233.230864757822
726 1233.243595461701
727 1233.255577589431
728 1233.270208702951
729 1233.282199824914
730 1233.29852497205
731 1233.311006369072
732 1233.326603981931
733 1233.339484729144
734 1233.355072279817
735 1233.370313791123
736 1233.386171866261
737 1233.401410551886
738 1233.418505279071
739 1233.432564058093
740 1233.449693580965
741 1233.465352581987
742 1233.479905210612
743 1233.494605602727
744 1233.509337795042
745 1233.52274264391
746 1233.539000795964
747 1233.551606893997
748 1233.564540082087
749 1233.575351482038
750 1233.587620707398
751 1233.597225114991
752 1233.608158731359
753 1233.617577729051
754 1233.628938052628
755 1233.635715927948
756 1233.644256077216
757 1233.651567453272
758 1233.660914261059
759 1233.66859906964
760 1233.677929540448
761 1233.684979146936
762 1233.69649874814
763 1233.704386958667
764 1233.713719561169
765 1233.722577589682
766 1233.733131392645
767 1233.743362341316
768 1233.755875174011
769 1233.766575954619
770 1233.780144055054
771 1233.791359280045
772 1233.804511316318
773 1233.816427140467
774 1233.830110208356
775 1233.841690802441
776 1233.854046307592
777 1233.866199429811
778 1233.879762225008
779 1233.891555815815
780 1233.903642324456
781 1233.914747942834
782 1233.926594067804
783 1233.937225912376
784 1233.94783850648
785 1233.958298224024
786 1233.968811563175
787 1233.977151275664
788 1233.985749353277
789 1233.993471104292
790 1234.002431395079
791 1234.009690340692
792 1234.016593183033
793 1234.022639452388
794 1234.030528017529
795 1234.036215389612
796 1234.042676284637
797 1234.048174135516
798 1234.054764563484
799 1234.061253711186
800 1234.067303061356
801 1234.073553816011
802 1234.081416896592
803 1234.088407684021
804 1234.0965225296
805 1234.104089289063
806 1234.11247926453
807 1234.122192171616
808 1234.130656799832
809 1234.14008329198
810 1234.14961054632
811 1234.159449736419
812 1234.16915984637
813 1234.178580517365
814 1234.187878158246
815 1234.196370320987
816 1234.205785650209
817 1234.213932816547
818 1234.223037964464
819 1234.230324182248
820 1234.237444056945
821 1234.244096260911
822 1234.250591653284
823 1234.256621015797
824 1234.262749833184
825 1234.268630122538
826 1234.275246448742
827 1234.281298890611
828 1234.286918445587
829 1234.292400753801
830 1234.298829089691
831 1234.30363146889
832 1234.309429927502
833 1234.315673062593
834 1234.323360750418
835 1234.32887218576
836 1234.336011841376
837 1234.341402612265
838 1234.348805827301
839 1234.35479122809
840 1234.36183926892
841 1234.36803555869
842 1234.376180193501
843 1234.382678889774
844 1234.39101542536
845 1234.39697763453
846 1234.404204039861
847 1234.410922427952
848 1234.417085710761
849 1234.423188580268
850 1234.429860153625
851 1234.4352370107
852 1234.440852313246
853 1234.445102352089
854 1234.449364433205
855 1234.453629932515
856 1234.457883221566
857 1234.461789361226
858 1234.468219649784
859 1234.473430632732
860 1234.478056983153
861 1234.482710705356
862 1234.489108641679
863 1234.494053766983
864 1234.499641872626
865 1234.503781577704
866 1234.510957842393
867 1234.515201272691
868 1234.520559051325
869 1234.524854346971
870 1234.530507132182
871 1234.536103223502
872 1234.542021774649
873 1234.546679113542
874 1234.55444016353
875 1234.559065892214
876 1234.565119691415
877 1234.570184487521
878 1234.576038668682
879 1234.580892938485
880 1234.585941271481
881 1234.59057465875
882 1234.597239231692
883 1234.601041512076
884 1234.604556189732
885 1234.607399898538
886 1234.611660787905
887 1234.61502201888
888 1234.618803462983
889 1234.622150950379
890 1234.626103668474
891 1234.629783418979
892 1234.633767589391
893 1234.638421219339
894 1234.641633829471
895 1234.646781231618
896 1234.649770068024
897 1234.654490192669
898 1234.65958077189
899 1234.664839460725
900 1234.669550912007
901 1234.674838955647
902 1234.67931541427
903 1234.683982704447
904 1234.688956993306
905 1234.693192799272
906 1234.698426087402
907 1234.701681551827
908 1234.70615962077
909 1234.710924333863
910 1234.714684147644
911 1234.718017128134
912 1234.720461415021
913 1234.723647517657
914 1234.727846283601
915 1234.731092234279
916 1234.734175668726
917 1234.73629444585
918 1234.740005265173
919 1234.743093469235
920 1234.745463376878
921 1234.748370598597
922 1234.752758003916
923 1234.753912113597
924 1234.75666949665
925 1234.758842981226
926 1234.761786978969
927 1234.764220407517
928 1234.767077531037
929 1234.76949881694
930 1234.774715040707
931 1234.777511683857
932 1234.782894104123
933 1234.786400489756
934 1234.792496927209
935 1234.795926601525
936 1234.801745806856
937 1234.805640302184
938 1234.811462417855
939 1234.814167745544
940 1234.819419190849
941 1234.821329577044
942 1234.82598904757
943 1234.828535822295
944 1234.832905543399
945 1234.834843542192
946 1234.839363821325
947 1234.840284670816
948 1234.843634732263
949 1234.843877370468
950 1234.847736646291
951 1234.84842356438
952 1234.849908364114
953 1234.849437348269
954 1234.852317753143
955 1234.852481447551
956 1234.85462958583
957 1234.855097555341
958 1234.858235559118
959 1234.858667426355
960 1234.862304893468
961 1234.86353364795
962 1234.867507506609
963 1234.868928108474
964 1234.872039960604
965 1234.87336181078
966 1234.876534219633
967 1234.878390237715
968 1234.883151642333
969 1234.886096871839
970 1234.891816943663
971 1234.895491028622
972 1234.899977220108
973 1234.903629252575
974 1234.908495969047
975 1234.910660960311
976 1234.91536814433
977 1234.918571795798
978 1234.923031515849
979 1234.925571647794
980 1234.928562878111
981 1234.930799083732
982 1234.933361276474
983 1234.936024807458
984 1234.937478456778
985 1234.938962587241
986 1234.940140683799
987 1234.940847165329
988 1234.941318808243
989 1234.942748554792
990 1234.941938812246
991 1234.942835685368
992 1234.942835235321
993 1234.944301973636
994 1234.9467347552
995 1234.94726062001
996 1234.948401300245
997 1234.949020208152
998 1234.949687990998
999 1234.951016190243
1000 1234.953523378628
1001 1234.954624688901
1002 1234.957457165449
1003 1234.959016126655
1004 1234.961892178051
1005 1234.964813744686
1006 1234.968735088785
1007 1234.97210056737
1008 1234.976284436218
1009 1234.978459382103
1010 1234.982486622891
1011 1234.984321146424
1012 1234.987806342695
1013 1234.989351168974
1014 1234.992930747679
1015 1234.993938603978
1016 1234.996493230712
1017 1234.998056642819
1018 1235.000680524934
1019 1235.001521294626
1020 1235.003308450621
1021 1235.003888877328
1022 1235.00606854323
1023 1235.007811139289
1024 1235.010173957978
1025 1235.010563146884
1026 1235.013249113444
1027 1235.01472506055
1028 1235.016995956164
1029 1235.017811879409
1030 1235.019544233308
1031 1235.019600393567
1032 1235.020664207953
1033 1235.020536790015
1034 1235.022531740352
1035 1235.022105863644
1036 1235.023380409256
1037 1235.022909870146
1038 1235.025230160146
1039 1235.025292125895
1040 1235.027147323008
1041 1235.027992505584
1042 1235.03059321004
1043 1235.030794292944
1044 1235.032636368634
1045 1235.032827643392
1046 1235.034300405022
1047 1235.03506468763
1048 1235.03630507652
1049 1235.036664885856
1050 1235.039831741769
1051 1235.039431602993
1052 1235.041798679468
1053 1235.040960468321
1054 1235.043526325226
1055 1235.043479305592
1056 1235.04718199553
1057 1235.047627897045
1058 1235.051311565851
1059 1235.052503422668
1060 1235.055778379948
1061 1235.056825166272
1062 1235.060049306007
1063 1235.0605330316
1064 1235.063767318157
1065 1235.064204350073
1066 1235.068155685308
1067 1235.068090300745
1068 1235.070635303277
1069 1235.072086264269
1070 1235.074538800604
1071 1235.074880909639
1072 1235.077680043657
1073 1235.077664315128
1074 1235.081007841321
1075 1235.0804931745
1076 1235.082450821454
1077 1235.081914904921
1078 1235.08233383757
1079 1235.081873698452
1080 1235.081527775085
1081 1235.079967504259
1082 1235.081357555449
1083 1235.080679329797
1084 1235.080659187839
1085 1235.078913726888
1086 1235.078512864268
1087 1235.077682389531
1088 1235.077651226258
1089 1235.077653183789
1090 1235.080324763539
1091 1235.081001674352
1092 1235.082794429563
1093 1235.083957315238
1094 1235.085717216825
1095 1235.087317475137
1096 1235.090091435907
1097 1235.090883712397
1098 1235.094283711502
1099 1235.095131152545
1100 1235.097623816536
1101 1235.098428475019
1102 1235.101376564275
1103 1235.103107858145
1104 1235.106583018317
1105 1235.107931907123
1106 1235.112131466626
1107 1235.113287250266
1108 1235.115892470977
1109 1235.116688297155
1110 1235.117950323698
1111 1235.118241972231
1112 1235.118903893365
1113 1235.118660322788
1114 1235.118609962063
1115 1235.118865388748
1116 1235.117602419187
1117 1235.11606210874
1118 1235.116321565825
1119 1235.116072035639
1120 1235.115486895299
1121 1235.11502046453
1122 1235.116230149087
1123 1235.114914320171
1124 1235.114940394457
1125 1235.114369151386
1126 1235.115356253738
1127 1235.115444057535
1128 1235.115668315871
1129 1235.11582835874
1130 1235.11672672387
1131 1235.117254786851
1132 1235.118137018824
1133 1235.119028885327
1134 1235.120521508173
1135 1235.121206944869
1136 1235.122468441011
1137 1235.123638781144
1138 1235.127157078108
1139 1235.128495873036
1140 1235.129720708243
1141 1235.131093645971
1142 1235.132459226581
1143 1235.13296916292
1144 1235.134788569631
1145 1235.135927340064
1146 1235.138509789006
1147 1235.13891100779
1148 1235.139462635395
1149 1235.139517905637
1150 1235.140834610206
1151 1235.141222915025
1152 1235.142422800047
1153 1235.142151850305
1154 1235.14377340084
1155 1235.143465202354
1156 1235.144135971162
1157 1235.143900198269
1158 1235.144364052179
1159 1235.144787162218
1160 1235.145342822972
1161 1235.144821185507
1162 1235.146420530066
1163 1235.146157017158
1164 1235.145600783715
1165 1235.145558562825
1166 1235.145793755712
1167 1235.145451088229
1168 1235.146105563135
1169 1235.146157535133
1170 1235.147961720107
1171 1235.147277503513
1172 1235.148688598728
1173 1235.148117490568
1174 1235.150207010006
1175 1235.147783509381
1176 1235.150424420778
1177 1235.149206199797
1178 1235.152568513269
1179 1235.149560510997
1180 1235.151601528102
1181 1235.148674560101
1182 1235.150736944776
1183 1235.148396569634
1184 1235.150558847157
1185 1235.148465995731
1186 1235.151349341679
1187 1235.14917294169
1188 1235.151717455121
1189 1235.150862069971
1190 1235.154047390871
1191 1235.154093102681
1192 1235.157810583821
1193 1235.158006224756
1194 1235.162352462413
1195 1235.162758554465
1196 1235.165746049403
1197 1235.16678631925
1198 1235.169106973877
1199 1235.17008472045
1200 1235.171580052432
1201 1235.173846409241
1202 1235.17568810375
1203 1235.177165776993
1204 1235.178629715405
1205 1235.179217389876
1206 1235.179791644791
1207 1235.180302295882
1208 1235.179473752089
1209 1235.179520224689
1210 1235.178969581745
1211 1235.17833580919
1212 1235.176024522601
1213 1235.175180339877
1214 1235.172044274116
1215 1235.170297375936
1216 1235.167702918251
1217 1235.165784587418
1218 1235.164327222856
1219 1235.162047942014
1220 1235.159757146554
1221 1235.157864035855
1222 1235.156579147882
1223 1235.155584667136
1224 1235.155112480932
1225 1235.155591471643
1226 1235.156710868923
1227 1235.158346526575
1228 1235.159953236664
1229 1235.161485497359
1230 1235.163911741472
1231 1235.166545653635
1232 1235.169975499187
1233 1235.171926639487
1234 1235.176777418234
1235 1235.179007875497
1236 1235.183062917054
1237 1235.185521514006
1238 1235.189171449267
1239 1235.191407023317
1240 1235.194012826201
1241 1235.195214897562
1242 1235.197598803196
1243 1235.1982100683
1244 1235.198278533013
1245 1235.197830457526
1246 1235.196409953618
1247 1235.19573577278
1248 1235.193587624854
1249 1235.192152966211
1250 1235.191394251595
1251 1235.188577891209
1252 1235.186646875692
1253 1235.183235342551
1254 1235.181253979336
1255 1235.179628610021
1256 1235.1778655633
1257 1235.174518108861
1258 1235.174605542017
1259 1235.172103125239
1260 1235.171141589982
1261 1235.168608073216
1262 1235.168926029035
1263 1235.167713816584
1264 1235.168917737506
1265 1235.167972188782
1266 1235.171371093495
1267 1235.170594226042
1268 1235.173119506471
1269 1235.171899125806
1270 1235.17576387223
1271 1235.176003340668
1272 1235.180762682434
1273 1235.1822113951
1274 1235.188103719382
1275 1235.188386093013
1276 1235.193324821246
1277 1235.19360648974
1278 1235.197737353723
1279 1235.198836794701
1280 1235.201973488425
1281 1235.202425803338
1282 1235.205895895989
1283 1235.206524584338
1284 1235.20760451436
1285 1235.206830729637
1286 1235.207076379895
1287 1235.205466387252
1288 1235.204131444822
1289 1235.202542261533
1290 1235.201639182747
1291 1235.200409395371
1292 1235.198600764734
1293 1235.197252184947
1294 1235.196085738192
1295 1235.194042875854
1296 1235.192320594719
1297 1235.190989142701
1298 1235.190938385013
1299 1235.189812383656
1300 1235.188849509175
1301 1235.187557954578
1302 1235.187473652433
1303 1235.186846757236
1304 1235.187706131474
1305 1235.187017777251
1306 1235.188894512472
1307 1235.188098159711
1308 1235.189416382361
1309 1235.188072386651
1310 1235.189425754772
1311 1235.189948988017
1312 1235.192156358276
1313 1235.191951240198
1314 1235.194285967433
1315 1235.194545900679
1316 1235.19627490279
1317 1235.196242041073
1318 1235.198557487969
1319 1235.198914865966
1320 1235.200567966603
1321 1235.201140071259
1322 1235.203203034627
1323 1235.203072248048
1324 1235.203941858436
1325 1235.20336384024
1326 1235.203947004982
1327 1235.204337153546
1328 1235.204549905536
1329 1235.203519983692
1330 1235.204734884038
1331 1235.203264785526
1332 1235.202853570845
1333 1235.201942745431
1334 1235.202447268632
1335 1235.203521553163
1336 1235.203873598417
1337 1235.204778768879
1338 1235.205394352727
1339 1235.205214450968
1340 1235.20485872232
1341 1235.205412160289
1342 1235.20463570574
1343 1235.203827863823
1344 1235.202995565849
1345 1235.201108014335
1346 1235.20144927765
1347 1235.199938205997
1348 1235.199834138491
1349 1235.197809555919
1350 1235.197077558719
1351 1235.194546274359
1352 1235.195497779415
1353 1235.193775092382
1354 1235.195893066222
1355 1235.193187889324
1356 1235.194410045477
1357 1235.193538835712
1358 1235.195248963381
1359 1235.194833639726
1360 1235.196494661943
1361 1235.1959471609
1362 1235.198916739007
1363 1235.199378710716
1364 1235.201384275229
1365 1235.202209425594
1366 1235.20434052985
1367 1235.204751839302
1368 1235.2069972661
1369 1235.208477006089
1370 1235.211096671432
1371 1235.213244770714
1372 1235.214244391047
1373 1235.215526659183
1374 1235.215604745727
1375 1235.216337403059
1376 1235.215174526068
1377 1235.215364636021
1378 1235.215577812651
1379 1235.214695681336
1380 1235.213733319253
1381 1235.212292433217
1382 1235.211215267502
1383 1235.209151762612
1384 1235.208474759444
1385 1235.206566330284
1386 1235.206253435926
1387 1235.204136390914
1388 1235.203343566832
1389 1235.201698005151
1390 1235.20160000658
1391 1235.199718466999
1392 1235.199729524069
1393 1235.198448962651
1394 1235.199621897533
1395 1235.198729761813
1396 1235.199661134611
1397 1235.198966671939
1398 1235.202094061586
1399 1235.201488919995
1400 1235.204325118782
1401 1235.203291937702
1402 1235.207498647905
1403 1235.206739037729
1404 1235.209945333056
1405 1235.208748814934
1406 1235.211737861004
1407 1235.211552318526
1408 1235.214387443952
1409 1235.214670301864
1410 1235.217335841018
1411 1235.216900520889
1412 1235.217309182678
1413 1235.217516888197
1414 1235.21798672333
1415 1235.217446719858
1416 1235.21729612792
1417 1235.216214705581
1418 1235.216203818145
1419 1235.214654181166
1420 1235.214346509985
1421 1235.21195205135
1422 1235.211792222262
1423 1235.210442762475
1424 1235.21013664273
1425 1235.208906840365
1426 1235.210161387035
1427 1235.209172329348
1428 1235.209074969237
1429 1235.207837516509
1430 1235.209246258868
1431 1235.208862695633
1432 1235.209915292241
1433 1235.209677878906
1434 1235.211187010531
1435 1235.210011097784
1436 1235.211215816706
1437 1235.210341781214
1438 1235.211027190048
1439 1235.209934868513
1440 1235.210534168406
1441 1235.209313869783
1442 1235.211000626563
1443 1235.209725084877
1444 1235.210786780784
1445 1235.209300444505
1446 1235.209591078721
1447 1235.208958102708
1448 1235.208919156881
1449 1235.208268104614
1450 1235.208792163087
1451 1235.207223651976
1452 1235.206796810538
1453 1235.205430220154
1454 1235.205630848712
1455 1235.205797305046
1456 1235.206040333273
1457 1235.206809207774
1458 1235.208480550722
1459 1235.209387322661
1460 1235.209317363076
1461 1235.21059340644
1462 1235.210673532465
1463 1235.21288609114
1464 1235.21419458127
1465 1235.215778665421
1466 1235.216650785133
1467 1235.217253335692
1468 1235.218212291479
1469 1235.219146254531
1470 1235.221094937876
1471 1235.221922999074
1472 1235.221654975776
1473 1235.221892247139
1474 1235.222647517914
1475 1235.221585616949
1476 1235.222323135952
1477 1235.219473047655
1478 1235.219850020018
1479 1235.217234852104
1480 1235.217394286987
1481 1235.214654277595
1482 1235.215239550461
1483 1235.21202639684
1484 1235.210800239876
1485 1235.208074522796
1486 1235.207844745343
1487 1235.205385888217
1488 1235.20535637849
1489 1235.202779903896
1490 1235.204418090556
1491 1235.201982540222
1492 1235.203694113494
1493 1235.203199361812
1494 1235.205959215258
1495 1235.205993328007
1496 1235.209312928832
1497 1235.209048493085
1498 1235.213187906727
1499 1235.214033582869
1500 1235.217272459075
1501 1235.218800338083
1502 1235.222170197787
1503 1235.223821670637
1504 1235.226035709632
1505 1235.226495018415
1506 1235.228500717452
1507 1235.228265078795
1508 1235.228936142779
1509 1235.228184284139
1510 1235.228390963711
1511 1235.22802825142
1512 1235.228838319427
1513 1235.227566438512
1514 1235.229006480028
1515 1235.225933136797
1516 1235.225154725941
1517 1235.221941371273
1518 1235.221361397142
1519 1235.218394436617
1520 1235.217429569829
1521 1235.213875329549
1522 1235.213356307696
1523 1235.209979671672
1524 1235.208737295807
1525 1235.205092011417
1526 1235.205194678949
1527 1235.202093774137
1528 1235.202896036734
1529 1235.201217643073
1530 1235.204086088292
1531 1235.202735467983
1532 1235.205883316117
1533 1235.204750551941
1534 1235.207836421305
1535 1235.208051544106
1536 1235.210826210036
1537 1235.212465762447
1538 1235.216231956892
1539 1235.217088473269
1540 1235.219443904513
1541 1235.220492302998
1542 1235.222009323747
1543 1235.223964052714
1544 1235.226084111629
1545 1235.227037215006
1546 1235.228961079759
1547 1235.229742023321
1548 1235.22907281535
1549 1235.228820010957
1550 1235.228261350237
1551 1235.227532109715
1552 1235.225014655306
1553 1235.223888160022
1554 1235.223111926599
1555 1235.221522685359
1556 1235.218856730791
1557 1235.218111056231
1558 1235.217065571754
1559 1235.216822188049
1560 1235.214035651756
1561 1235.213823572218
1562 1235.214660442159
1563 1235.212218229465
1564 1235.212020669406
1565 1235.210834414036
1566 1235.211219855873
1567 1235.210168910016
1568 1235.210823861319
1569 1235.209341108437
1570 1235.211291548763
1571 1235.209142218035
1572 1235.210812674526
1573 1235.210723037079
1574 1235.213391836241
1575 1235.213971327114
1576 1235.216730216753
1577 1235.217078114527
1578 1235.221018300853
1579 1235.22138316643
1580 1235.224023316577
1581 1235.223843704313
1582 1235.225982428535
1583 1235.225774819253
1584 1235.226767347553
1585 1235.226496858194
1586 1235.228568913215
1587 1235.227231564854
1588 1235.227069719173
1589 1235.22444778945
1590 1235.22361911224
1591 1235.22155502446
1592 1235.221101007847
1593 1235.219904570251
1594 1235.219982783695
1595 1235.218224857676
1596 1235.217069132069
1597 1235.215805929611
1598 1235.215604200133
1599 1235.215459423478
1600 1235.216309240931
1601 1235.214825041593
1602 1235.216664843317
1603 1235.216232222334
1604 1235.216767572376
1605 1235.217221720492
1606 1235.219015355176
1607 1235.218899537193
1608 1235.221041163502
1609 1235.220767618818
1610 1235.222567378094
1611 1235.221880014565
1612 1235.223765399389
1613 1235.222078504403
1614 1235.223931591798
1615 1235.222589531092
1616 1235.223123634178
1617 1235.221255409912
1618 1235.223160993449
1619 1235.22171099249
1620 1235.222147659886
1621 1235.220246768844
1622 1235.22102040223
1623 1235.21877391089
1624 1235.219290738302
1625 1235.21761827149
1626 1235.219303237686
1627 1235.21775348551
1628 1235.21928356927
1629 1235.216914955234
1630 1235.217213126206
1631 1235.215673163425
1632 1235.21592943861
1633 1235.214869326459
1634 1235.216000648686
1635 1235.215267515425
1636 1235.215973057408
1637 1235.214871898872
1638 1235.215129546951
1639 1235.214947596293
1640 1235.214699906263
1641 1235.214533795993
1642 1235.216686779773
1643 1235.216699609129
1644 1235.216482952975
1645 1235.216599181615
1646 1235.217076734212
1647 1235.217152990567
1648 1235.218481942078
1649 1235.218318306276
1650 1235.220537396002
1651 1235.219376968321
1652 1235.219727003606
1653 1235.217732894098
1654 1235.218261512533
1655 1235.216844701188
1656 1235.217005832383
1657 1235.215279966226
1658 1235.216949511617
1659 1235.214846327665
1660 1235.216194700423
1661 1235.214107208684
1662 1235.216161654519
1663 1235.21468132215
1664 1235.215526646634
1665 1235.214570546609
1666 1235.217339592267
1667 1235.215977844096
1668 1235.217169901181
1669 1235.216565526193
1670 1235.217868549918
1671 1235.217231274219
1672 1235.218317370017
1673 1235.217675764308
1674 1235.21964432673
1675 1235.219507580282
1676 1235.22022698286
1677 1235.219549702082
1678 1235.220770414209
1679 1235.219940230494
1680 1235.221204346043
1681 1235.220602230223
1682 1235.223029376331
1683 1235.22215290065
1684 1235.22272870625
1685 1235.222703408918
1686 1235.223039633615
1687 1235.222505063381
1688 1235.222936742665
1689 1235.223072496902
1690 1235.224735944373
1691 1235.224413935537
1692 1235.225110302336
1693 1235.223786662494
1694 1235.225513687601
1695 1235.224798050162
1696 1235.224841672931
1697 1235.223079566446
1698 1235.225169090981
1699 1235.223466010643
1700 1235.223178175762
1701 1235.221353271554
1702 1235.222423869797
1703 1235.221066733464
1704 1235.221516744464
1705 1235.220526783502
1706 1235.222267432375
1707 1235.221131043124
1708 1235.221567105262
1709 1235.220483397026
1710 1235.221152415677
1711 1235.220436048826
1712 1235.221692172881
1713 1235.220805713756
1714 1235.222148947178
1715 1235.221810070362
1716 1235.222457580612
1717 1235.221902531302
1718 1235.221750415687
1719 1235.220904695162
1720 1235.2210712733
1721 1235.22069587174
1722 1235.222034127767
1723 1235.221923532423
1724 1235.2226545264
1725 1235.222226326526
1726 1235.222813678831
1727 1235.222757871673
1728 1235.223087455005
1729 1235.223384001425
1730 1235.225765405111
1731 1235.226056616579
1732 1235.227849980708
1733 1235.226710833408
1734 1235.228892604898
1735 1235.228415496784
1736 1235.230734254712
1737 1235.229811459956
1738 1235.232408780978
1739 1235.230597576081
1740 1235.233021554115
1741 1235.231082388688
1742 1235.233465828915
1743 1235.231871082516
1744 1235.233105061259
1745 1235.230584129458
1746 1235.232035010398
1747 1235.230351925964
1748 1235.230889674861
1749 1235.228318448418
1750 1235.229229533184
1751 1235.226416404288
1752 1235.227261510661
1753 1235.224360285808
1754 1235.225645000298
1755 1235.222405724882
1756 1235.222587842773
1757 1235.220143674233
1758 1235.220475429046
1759 1235.218903272401
1760 1235.218282838268
1761 1235.217634671799
1762 1235.218398527102
1763 1235.218112273847
1764 1235.218305090539
1765 1235.218993437886
1766 1235.219192501469
1767 1235.220455137672
1768 1235.221693590752
1769 1235.222752348004
1770 1235.225093756817
1771 1235.226887857197
1772 1235.227928327397
1773 1235.228855218265
1774 1235.231259914191
1775 1235.233145376967
1776 1235.233893716785
1777 1235.235605696739
1778 1235.238741081746
1779 1235.238832197192
1780 1235.24021586351
1781 1235.238189514027
1782 1235.238969470821
1783 1235.237258235195
1784 1235.237837472715
1785 1235.235895075561
1786 1235.23717735426
1787 1235.234887279467
1788 1235.234133411455
1789 1235.231298828199
1790 1235.23124651801
1791 1235.229489802013
1792 1235.229260560217
1793 1235.226991753617
1794 1235.22760845202
1795 1235.225481731014
1796 1235.226311435286
1797 1235.224445408551
1798 1235.225290752203
1799 1235.223787851339
1800 1235.224063552264
1801 1235.222451987977
1802 1235.224087221841
1803 1235.222858409816
1804 1235.224397436865
1805 1235.223985273679
1806 1235.224340308454
1807 1235.224857262153
1808 1235.225650433035
1809 1235.226384579593
1810 1235.228591043904
1811 1235.229613295252
1812 1235.230472862554
1813 1235.231726512243
1814 1235.232847421299
1815 1235.233276680906
1816 1235.234534380134
1817 1235.23440179437
1818 1235.236019657144
1819 1235.234242660387
1820 1235.235388189229
1821 1235.233468979624
1822 1235.234859412943
1823 1235.232989489788
1824 1235.233676017518
1825 1235.231274689772
1826 1235.233922821204
1827 1235.231865195407
1828 1235.232304970271
1829 1235.229766303197
1830 1235.231328022023
1831 1235.229414442139
1832 1235.230531647711
1833 1235.22848296611
1834 1235.230339890237
1835 1235.229309251709
1836 1235.229234369354
1837 1235.227897968068
1838 1235.227894332263
1839 1235.2269305182
1840 1235.227178620596
1841 1235.226079751566
1842 1235.227739597488
1843 1235.226933021547
1844 1235.228351781307
1845 1235.227639933117
1846 1235.228963832845
1847 1235.228155464695
1848 1235.228924922959
1849 1235.229344748228
1850 1235.230727773244
1851 1235.229744649072
1852 1235.230074028659
1853 1235.22867695374
1854 1235.229289321255
1855 1235.228400987546
1856 1235.228702117687
1857 1235.228689522713
1858 1235.229958800814
1859 1235.228704420252
1860 1235.229393450322
1861 1235.229077603634
1862 1235.2304469451
1863 1235.230309642854
1864 1235.231475435731
1865 1235.23099209394
1866 1235.232600636342
1867 1235.232245337002
1868 1235.233123388833
1869 1235.232241042399
1870 1235.234032039076
1871 1235.233375821283
1872 1235.234644377604
1873 1235.234046135701
1874 1235.236129046319
1875 1235.23624875624
1876 1235.237436109209
1877 1235.237228685671
1878 1235.237798997056
1879 1235.237406190992
1880 1235.239179033326
1881 1235.237294651019
1882 1235.238765643456
1883 1235.237025864149
1884 1235.237452931401
1885 1235.235321049882
1886 1235.235185086574
1887 1235.233862329135
1888 1235.233165148267
1889 1235.231040283764
1890 1235.231041559098
1891 1235.228133790526
1892 1235.226979365425
1893 1235.223827843252
1894 1235.222934067178
1895 1235.220727980343
1896 1235.22019218837
1897 1235.2190868131
1898 1235.220263330277
1899 1235.218799838131
1900 1235.220081810377
1901 1235.219395160479
1902 1235.221234763654
1903 1235.221347328455
1904 1235.223332518303
1905 1235.224044878397
1906 1235.228403448453
1907 1235.228339011743
1908 1235.231934980099
1909 1235.232289342931
1910 1235.23566785194
1911 1235.235965939758
1912 1235.23854495969
1913 1235.238464523764
1914 1235.242237474616
1915 1235.24203299957
1916 1235.244448576002
1917 1235.244095188872
1918 1235.245909051003
1919 1235.244969609706
1920 1235.245801189954
1921 1235.244356562761
1922 1235.245014307748
1923 1235.243388014343
1924 1235.241941185183
1925 1235.239434506054
1926 1235.237446514704
1927 1235.234242674977
1928 1235.232057171599
1929 1235.228019947856
1930 1235.22737307158
1931 1235.22337052671
1932 1235.222346123983
1933 1235.219959040172
1934 1235.218596720768
1935 1235.217047698884
1936 1235.216923758975
1937 1235.216198607244
1938 1235.217525515206
1939 1235.217273999278
1940 1235.218730126838
1941 1235.21936143177
1942 1235.220673072376
1943 1235.221634847868
1944 1235.22347211556
1945 1235.224391162117
1946 1235.227608952996
1947 1235.229076633286
1948 1235.231465870448
1949 1235.233717097097
1950 1235.237216265163
1951 1235.238821139842
1952 1235.241519371447
1953 1235.241986724337
1954 1235.244176277846
1955 1235.244137823552
1956 1235.245590011397
1957 1235.24384394348
1958 1235.244693252962
1959 1235.242462024916
1960 1235.243403130432
1961 1235.240913597793
1962 1235.241637548223
1963 1235.238857074062
1964 1235.238123203998
1965 1235.235691778544
1966 1235.234359001575
1967 1235.231678171089
1968 1235.230751352648
1969 1235.228585564614
1970 1235.229981264495
1971 1235.227469878595
1972 1235.226665149218
1973 1235.224435099869
1974 1235.224342582596
1975 1235.223175946139
1976 1235.222619676917
1977 1235.222221673946
1978 1235.223831855962
1979 1235.223963656204
1980 1235.225438114231
1981 1235.226169133985
1982 1235.227104025352
1983 1235.227720987556
1984 1235.229143447321
1985 1235.229013529323
1986 1235.231872440733
1987 1235.23192694585
1988 1235.233902475562
1989 1235.23403907328
1990 1235.235360921059
1991 1235.234902904729
1992 1235.236796443727
1993 1235.235603994284
1994 1235.238323937595
1995 1235.237065888722
1996 1235.238583212345
1997 1235.237522577224
1998 1235.239336428733
1999 1235.237613957035
2000 1235.238681458497
2001 1235.236854289049
2002 1235.23967271529
2003 1235.237662668214
2004 1235.237835650218
2005 1235.236291400503
2006 1235.237799861735
2007 1235.23711428184
2008 1235.23749244184
2009 1235.236049155599
2010 1235.237721540989
2011 1235.235915243386
2012 1235.236400047538
2013 1235.23478281069
2014 1235.235979814913
2015 1235.234507832557
2016 1235.234998480391
2017 1235.233858080442
2018 1235.235349316774
2019 1235.2335192706
2020 1235.233098446781
2021 1235.229853203639
2022 1235.229571210758
2023 1235.227364016625
2024 1235.227583455941
2025 1235.226010830111
2026 1235.226719938261
2027 1235.223706460219
2028 1235.223804656537
2029 1235.222126623063
2030 1235.222040968616
2031 1235.221171207552
2032 1235.221203119217
2033 1235.221350015579
2034 1235.222920640995
2035 1235.223608383423
2036 1235.224585381685
2037 1235.224513570055
2038 1235.226218680621
2039 1235.227000359021
2040 1235.229440988632
2041 1235.231370806206
2042 1235.234254946206
2043 1235.235892926715
2044 1235.239454955622
2045 1235.240264593072
2046 1235.242995361778
2047 1235.243236254217
2048 1235.245576131238
2049 1235.245494279432
2050 1235.248520686729
2051 1235.24782590774
2052 1235.248895870401
2053 1235.247592082582
2054 1235.248322886737
2055 1235.246048042074
2056 1235.246487391737
2057 1235.242980487824
2058 1235.242070864535
2059 1235.237536433653
2060 1235.235133574485
2061 1235.230198342338
2062 1235.228316065869
2063 1235.22553237794
2064 1235.222837894445
2065 1235.219050655
2066 1235.218491272458
2067 1235.215637258315
2068 1235.215174283109
2069 1235.214019582947
2070 1235.213952594307
2071 1235.213080652012
2072 1235.214594960339
2073 1235.215354063834
2074 1235.216967857445
2075 1235.218437370371
2076 1235.219513216341
2077 1235.221624120184
2078 1235.224582046052
2079 1235.226775202672
2080 1235.229855676121
2081 1235.232485325558
2082 1235.23682714092
2083 1235.238959081404
2084 1235.242680045994
2085 1235.2434594347
2086 1235.246374453009
2087 1235.247146045973
2088 1235.248858781706
2089 1235.248164485799
2090 1235.251014206284
2091 1235.249310653009
2092 1235.249656562418
2093 1235.248421702526
2094 1235.248955502829
2095 1235.245517991028
2096 1235.246074490891
2097 1235.243126101109
2098 1235.244116394309
2099 1235.239677838207
2100 1235.238532158401
2101 1235.234766564438
2102 1235.233564807963
2103 1235.228705732721
2104 1235.226863435788
2105 1235.223221184337
2106 1235.223489439707
2107 1235.220756921039
2108 1235.220527293548
2109 1235.219391255814
2110 1235.220477770681
2111 1235.219897489162
2112 1235.220869161625
2113 1235.220392139608
2114 1235.2231716059
2115 1235.223526693158
2116 1235.224871576267
2117 1235.22642508717
2118 1235.229399283881
2119 1235.229795607983
2120 1235.232358132484
2121 1235.233032963216
2122 1235.236545488765
2123 1235.236564130661
2124 1235.23824758376
2125 1235.238302489921
2126 1235.240880643288
2127 1235.241081151586
2128 1235.243816224619
2129 1235.242355239455
2130 1235.245015237731
2131 1235.243012996196
2132 1235.243582047292
2133 1235.240386283318
2134 1235.241074745664
2135 1235.237967808012
2136 1235.238132480376
2137 1235.234932768651
2138 1235.237352174477
2139 1235.235025638533
2140 1235.236087825688
2141 1235.233761733798
2142 1235.23406408654
2143 1235.232248825577
2144 1235.232333722832
2145 1235.230252539811
2146 1235.23233203491
2147 1235.230389818959
2148 1235.230705820391
2149 1235.229037372651
2150 1235.229929766297
2151 1235.228999377289
2152 1235.229636733191
2153 1235.229265222467
2154 1235.231609463934
2155 1235.232126084324
2156 1235.233355501354
2157 1235.233368235228
2158 1235.23430682561
2159 1235.233608862726
2160 1235.233295381718
2161 1235.232268153023
2162 1235.232747656697
2163 1235.231980498867
2164 1235.232454336443
2165 1235.231540215487
2166 1235.231557327952
2167 1235.230132357429
2168 1235.230263009714
2169 1235.229412158608
2170 1235.231088165944
2171 1235.229783251811
2172 1235.230842886539
2173 1235.229411216015
2174 1235.231443231476
2175 1235.231977057064
2176 1235.233463179639
2177 1235.234358689261
2178 1235.237480682516
2179 1235.236975694118
2180 1235.238844865216
2181 1235.238672422389
2182 1235.240973862556
2183 1235.241249538701
2184 1235.242038884173
2185 1235.242094907151
2186 1235.244535732228
2187 1235.24427386718
2188 1235.244031061946
2189 1235.243862976549
2190 1235.243408931332
2191 1235.242755094599
2192 1235.241422296782
2193 1235.240022236326
2194 1235.239247878232
2195 1235.236838580894
2196 1235.235270172909
2197 1235.232057056037
2198 1235.230657497613
2199 1235.228403742716
2200 1235.227307853314
2201 1235.224779676876
2202 1235.226466632308
2203 1235.224363939012
2204 1235.224613375219
2205 1235.222576892793
2206 1235.223728128095
2207 1235.222314566498
2208 1235.223988939998
2209 1235.223265132063
2210 1235.225862987572
2211 1235.225483463173
2212 1235.227816653368
2213 1235.227993269912
2214 1235.231109925573
2215 1235.231591270319
2216 1235.234709405667
2217 1235.234865736274
2218 1235.239228030278
2219 1235.238995171831
2220 1235.241491729042
2221 1235.240852837358
2222 1235.243158214794
2223 1235.242228706118
2224 1235.243861016683
2225 1235.242582198693
2226 1235.244530252355
2227 1235.243634671508
2228 1235.244831282412
2229 1235.242805276186
2230 1235.241837114979
2231 1235.240757971389
2232 1235.239890287481
2233 1235.237233034152
2234 1235.236839099452
2235 1235.233708654501
2236 1235.231391073622
2237 1235.228746073491
2238 1235.226890287164
2239 1235.225432641069
2240 1235.224402213485
2241 1235.223233996751
2242 1235.224638191157
2243 1235.223281295248
2244 1235.224261502569
2245 1235.223434421147
2246 1235.224641431201
2247 1235.223746050088
2248 1235.225773248169
2249 1235.225948103741
2250 1235.229280295586
2251 1235.228783161881
2252 1235.231861460581
2253 1235.232536192297
2254 1235.235648603792
2255 1235.236187893245
2256 1235.238462603301
2257 1235.238814056055
2258 1235.241623417899
2259 1235.240655217631
2260 1235.242919861521
2261 1235.24249035319
2262 1235.244205126052
2263 1235.24322330838
2264 1235.244992873625
2265 1235.243317929916
2266 1235.244821353186
2267 1235.243072403993
2268 1235.241696353436
2269 1235.238738327385
2270 1235.238000200592
2271 1235.236077368726
2272 1235.23512161373
2273 1235.233176779048
2274 1235.234147690389
2275 1235.232781039805
2276 1235.231667158493
2277 1235.229863879744
2278 1235.22912665595
2279 1235.228267806206
2280 1235.228149449439
2281 1235.227079715823
2282 1235.227919015662
2283 1235.227775049413
2284 1235.22873160354
2285 1235.228535882421
2286 1235.229890575021
2287 1235.230475874346
2288 1235.230698239616
2289 1235.230688724612
2290 1235.232938359009
2291 1235.232660315168
2292 1235.234294394176
2293 1235.23494132501
2294 1235.236522835206
2295 1235.236760280769
2296 1235.237956997305
2297 1235.237910682176
2298 1235.240215451443
2299 1235.240363740099
2300 1235.2405624536
2301 1235.240363946203
2302 1235.240428419044
2303 1235.239073364157
2304 1235.238715452215
2305 1235.237870963429
2306 1235.238273280716
2307 1235.237201554432
2308 1235.237436083315
2309 1235.23682332037
2310 1235.23829062193
2311 1235.23764766672
2312 1235.239002728626
2313 1235.238251619813
2314 1235.241125173284
2315 1235.239112106121
2316 1235.239520761025
2317 1235.236724441201
2318 1235.236347411059
2319 1235.235590592303
2320 1235.235262469524
2321 1235.233755318396
2322 1235.233926263313
2323 1235.232199688262
2324 1235.231669686636
2325 1235.229885941794
2326 1235.23124380533
2327 1235.230535199616
2328 1235.230549404442
2329 1235.230251452932
2330 1235.232582736839
2331 1235.231047267298
2332 1235.232310331447
2333 1235.231038055239
2334 1235.231407045571
2335 1235.229652238815
2336 1235.231113291288
2337 1235.22986228997
2338 1235.232050588466
2339 1235.231360909464
2340 1235.233085367712
2341 1235.233010027979
2342 1235.234912436278
2343 1235.234248419563
2344 1235.236084256692
2345 1235.234784401755
2346 1235.238418389912
2347 1235.236901942551
2348 1235.239930613764
2349 1235.238518345625
2350 1235.240985612474
2351 1235.238417575368
2352 1235.240320812331
2353 1235.237187076175
2354 1235.239656611283
2355 1235.237203668885
2356 1235.238637334634
2357 1235.236573982246
2358 1235.238096569669
2359 1235.236312088676
2360 1235.235866902496
2361 1235.234658457911
2362 1235.235669751953
2363 1235.234283023333
2364 1235.235246273826
2365 1235.234299413978
2366 1235.233815543171
2367 1235.233026231264
2368 1235.233049383362
2369 1235.231517444524
2370 1235.232847483374
2371 1235.231207862003
2372 1235.231015609944
2373 1235.230809071795
2374 1235.231936952442
2375 1235.231234588972
2376 1235.231959896959
2377 1235.232373972923
2378 1235.233249983688
2379 1235.233169262494
2380 1235.234279408218
2381 1235.233631234944
2382 1235.234891961789
2383 1235.233664760633
2384 1235.234835961062
2385 1235.234030449279
2386 1235.235183449641
2387 1235.234660749037
2388 1235.234250426357
2389 1235.233977151623
2390 1235.234819398685
2391 1235.234488597093
2392 1235.234514674981
2393 1235.234614237699
2394 1235.236234170985
2395 1235.23563100561
2396 1235.236491329218
2397 1235.23577651399
2398 1235.236967471865
2399 1235.236649896484
2400 1235.237883442975
2401 1235.238235743922
2402 1235.239127681286
2403 1235.238036697239
2404 1235.238003215746
2405 1235.236988377897
2406 1235.236818223214
2407 1235.235787885275
2408 1235.234424196605
2409 1235.234148029996
2410 1235.235285519322
2411 1235.235386437504
2412 1235.23505788604
2413 1235.235137980468
2414 1235.234414454028
2415 1235.234725473004
2416 1235.234680867564
2417 1235.235049275826
2418 1235.23641798534
2419 1235.235158177943
2420 1235.235944075893
2421 1235.234725841734
2422 1235.236769999758
2423 1235.234694178933
2424 1235.235914967267
2425 1235.234641298381
2426 1235.237492032411
2427 1235.235278777209
2428 1235.236331613716
2429 1235.234322967878
2430 1235.236279166133
2431 1235.234620250516
2432 1235.235129412964
2433 1235.233032437056
2434 1235.234657177008
2435 1235.233287770407
2436 1235.234076036515
2437 1235.233350300676
2438 1235.234300321495
2439 1235.233466647229
2440 1235.234857700388
2441 1235.234331905372
2442 1235.23630336413
2443 1235.235753595861
2444 1235.236319892575
2445 1235.235511603777
2446 1235.238024374067
2447 1235.23703316105
2448 1235.238426753919
2449 1235.237279710964
2450 1235.23932210192
2451 1235.237262801829
2452 1235.237147317082
2453 1235.234213897219
2454 1235.234651098591
2455 1235.233182602709
2456 1235.233110991452
2457 1235.231970055635
2458 1235.233677484198
2459 1235.23296366607
2460 1235.233918676049
2461 1235.231600644364
2462 1235.232762653134
2463 1235.231626178092
2464 1235.232380335877
2465 1235.230991101065
2466 1235.233552955078
2467 1235.230848914923
2468 1235.232514865268
2469 1235.230460224162
2470 1235.231606667638
2471 1235.230134956783
2472 1235.230859430096
2473 1235.230046856413
2474 1235.23154728118
2475 1235.231007561952
2476 1235.232774878704
2477 1235.232434251202
2478 1235.234137824528
2479 1235.233107808684
2480 1235.234479910633
2481 1235.23343118644
2482 1235.235563228912
2483 1235.234149546011
2484 1235.235060633338
2485 1235.234839799441
2486 1235.23592356336
2487 1235.236022005746
2488 1235.236046216131
2489 1235.236063695924
2490 1235.2371354717
2491 1235.237182513093
2492 1235.237196194739
2493 1235.23641136657
2494 1235.237269601537
2495 1235.236585899131
2496 1235.23640528184
2497 1235.235642903733
2498 1235.237459037156
2499 1235.235073729703
2500 1235.235978514297
2501 1235.23390770592
2502 1235.234529946303
2503 1235.233283416543
2504 1235.233549741677
2505 1235.232086410838
2506 1235.233157832733
2507 1235.231862822853
2508 1235.232428158203
2509 1235.231588184331
2510 1235.232677068732
2511 1235.23172819826
2512 1235.2327739939
2513 1235.231806466713
2514 1235.234114573223
2515 1235.232970018585
2516 1235.234169845806
2517 1235.232589832167
2518 1235.234318107216
2519 1235.233447743549
2520 1235.233992605864
2521 1235.233658349096
2522 1235.235794053989
2523 1235.234009073313
2524 1235.234060987612
2525 1235.234620930503
2526 1235.235283843002
2527 1235.235533059524
2528 1235.235000377224
2529 1235.236332726382
2530 1235.236772925341
2531 1235.237406392186
2532 1235.235944506672
2533 1235.236132469882
2534 1235.234924674732
2535 1235.234352854715
2536 1235.233707743484
2537 1235.233634875946
2538 1235.234194005669
2539 1235.233800798886
2540 1235.233123326042
2541 1235.232099861336
2542 1235.232928614687
2543 1235.231966573865
2544 1235.232582555374
2545 1235.2324688027
2546 1235.23357346678
2547 1235.232859633568
2548 1235.234017242733
2549 1235.232615629696
2550 1235.233815352726
2551 1235.232122294942
2552 1235.233450929683
2553 1235.231371884001
2554 1235.233921574093
2555 1235.231559760429
2556 1235.232528532455
2557 1235.230284658916
2558 1235.231948618913
2559 1235.230673003762
2560 1235.233100249214
2561 1235.231134437397
2562 1235.235697384944
2563 1235.233663179142
2564 1235.236643769041
2565 1235.234523051955
2566 1235.23752040557
2567 1235.235956778185
2568 1235.237262834016
2569 1235.236485470244
2570 1235.238646453875
2571 1235.236158619606
2572 1235.23857230218
2573 1235.236034173025
2574 1235.237345737122
2575 1235.236043145317
2576 1235.236896894241
2577 1235.235563988812
2578 1235.23776318225
2579 1235.235975427052
2580 1235.236448471129
2581 1235.235908055099
2582 1235.236275855763
2583 1235.235793365196
2584 1235.236318783515
2585 1235.235996517732
2586 1235.237157195194
2587 1235.236199746755
2588 1235.23595331206
2589 1235.234637532388
2590 1235.235478198489
2591 1235.23340226119
2592 1235.234133834596
2593 1235.232773176407
2594 1235.234904186406
2595 1235.234193779398
2596 1235.235436757791
2597 1235.234609095559
2598 1235.235580187694
2599 1235.234985580767
2600 1235.235618949633
2601 1235.234675965892
2602 1235.236762063225
2603 1235.235509017183
2604 1235.236218990976
2605 1235.234949303976
2606 1235.235731900252
2607 1235.234557430146
2608 1235.235424275021
2609 1235.234429317157
2610 1235.236492626747
2611 1235.233813429983
2612 1235.235298151603
2613 1235.233629650899
2614 1235.234386006503
2615 1235.233184226375
2616 1235.233444743849
2617 1235.23314398361
2618 1235.233985922948
2619 1235.233377765874
2620 1235.232350188833
2621 1235.232746391822
2622 1235.231909602844
2623 1235.231541722082
2624 1235.229991295125
2625 1235.229979348949
2626 1235.230465646506
2627 1235.230525590347
2628 1235.231188867991
2629 1235.231585455657
2630 1235.232298017961
2631 1235.232537021628
2632 1235.23350206414
2633 1235.234292020783
2634 1235.236587290993
2635 1235.236839205009
2636 1235.238405657687
2637 1235.238832188854
2638 1235.239864755107
2639 1235.239930406324
2640 1235.240500307723
2641 1235.240047535356
2642 1235.240926848463
2643 1235.2393429019
2644 1235.239704943391
2645 1235.23762278376
2646 1235.238466769179
2647 1235.235888384344
2648 1235.236032288221
2649 1235.233985400944
2650 1235.235963649921
2651 1235.233310304778
2652 1235.233741247734
2653 1235.231039589657
2654 1235.231374741289
2655 1235.229065292979
2656 1235.230193705195
2657 1235.228128675191
2658 1235.229083861387
2659 1235.227928748828
2660 1235.228045911835
2661 1235.22809084382
2662 1235.22866377712
2663 1235.228859684711
2664 1235.230085745607
2665 1235.229637478835
2666 1235.232859318588
2667 1235.232744056284
2668 1235.234847537886
2669 1235.234469825885
2670 1235.236872947859
2671 1235.236420880963
2672 1235.238998001753
2673 1235.238867497523
2674 1235.242393131024
2675 1235.241840936435
2676 1235.244279029886
2677 1235.244340160001
2678 1235.246632683171
2679 1235.245431576878
2680 1235.247280919178
2681 1235.24491320949
2682 1235.246654215685
2683 1235.244237255019
2684 1235.244634675637
2685 1235.241552006089
2686 1235.24152449928
2687 1235.237323058849
2688 1235.236871060518
2689 1235.233654989219
2690 1235.233966973316
2691 1235.230326814792
2692 1235.229846975093
2693 1235.228143778429
2694 1235.229039809175
2695 1235.227187589846
2696 1235.227623149297
2697 1235.226202630769
2698 1235.227871668516
2699 1235.22656670037
2700 1235.227573520095
2701 1235.227545891297
2702 1235.229998654973
2703 1235.230640261583
2704 1235.232105175941
2705 1235.232961524076
2706 1235.23520383408
2707 1235.236236649104
2708 1235.236894442657
2709 1235.237844382451
2710 1235.238858309466
2711 1235.239730955378
2712 1235.241426731804
2713 1235.242321551338
2714 1235.244373825467
2715 1235.245514768058
2716 1235.246793557677
2717 1235.247262038269
2718 1235.248096573403
2719 1235.247676688113
2720 1235.248557924516
2721 1235.246806828242
2722 1235.2481268435
2723 1235.244303000221
2724 1235.244526477946
2725 1235.239872180819
2726 1235.238737811823
2727 1235.23490184488
2728 1235.233855775764
2729 1235.230992250706
2730 1235.231897590285
2731 1235.228495756369
2732 1235.228273071393
2733 1235.226655145491
2734 1235.226158094765
2735 1235.22428507173
2736 1235.224642376758
2737 1235.222939321865
2738 1235.225520770733
2739 1235.224211360931
2740 1235.227005857599
2741 1235.22601825628
2742 1235.227910595915
2743 1235.227084804142
2744 1235.228850076995
2745 1235.228925951164
2746 1235.23134635965
2747 1235.2320608831
2748 1235.233838775624
2749 1235.235018431205
2750 1235.236381775255
2751 1235.23727085363
2752 1235.238743930124
2753 1235.239674598516
2754 1235.241107709239
2755 1235.241466952129
2756 1235.240810631682
2757 1235.240939939175
2758 1235.240518523552
2759 1235.240773796382
2760 1235.240281069629
2761 1235.240012598552
2762 1235.240852893605
2763 1235.240576275203
2764 1235.240923099909
2765 1235.240330788408
2766 1235.241050112788
2767 1235.240087363353
2768 1235.240490884388
2769 1235.239095574647
2770 1235.240140080869
2771 1235.237612534011
2772 1235.236966677926
2773 1235.233564550085
2774 1235.233441262194
2775 1235.230722239185
2776 1235.230748631556
2777 1235.228315085934
2778 1235.229624795105
2779 1235.228251639056
2780 1235.22896607793
2781 1235.227229254503
2782 1235.228386244355
2783 1235.227164997848
2784 1235.228303031234
2785 1235.227361782083
2786 1235.230201722784
2787 1235.229739869959
2788 1235.231064008988
2789 1235.231136791269
2790 1235.231831274448
2791 1235.232522369412
2792 1235.233784381151
2793 1235.233842242248
2794 1235.2356037443
2795 1235.23588431413
2796 1235.236860549453
2797 1235.236947274615
2798 1235.238375329812
2799 1235.238201653216
2800 1235.239246901249
2801 1235.239238099642
2802 1235.240408081772
2803 1235.24016511841
2804 1235.240841305619
2805 1235.239379943051
2806 1235.240549522714
2807 1235.239966687846
2808 1235.240974083508
2809 1235.240385343016
2810 1235.24280821723
2811 1235.240877552167
2812 1235.242531156954
2813 1235.239826155838
2814 1235.241565677176
2815 1235.239035006389
2816 1235.238974310995
2817 1235.236182764952
2818 1235.237871715108
2819 1235.234414581385
2820 1235.235097257902
2821 1235.231827300404
2822 1235.232390772371
2823 1235.229672500086
2824 1235.230081379427
2825 1235.226384843274
2826 1235.228001567014
2827 1235.225483311893
2828 1235.226134787411
2829 1235.224296826321
2830 1235.224363960235
2831 1235.223263380088
2832 1235.22449022411
2833 1235.224534107961
2834 1235.226171008356
2835 1235.226937202107
2836 1235.22860611072
2837 1235.229076806773
2838 1235.230639518098
2839 1235.23236183276
2840 1235.23396540816
2841 1235.235117799061
2842 1235.238243103074
2843 1235.239061198894
2844 1235.240427372202
2845 1235.241038021842
2846 1235.242720386063
2847 1235.242508752006
2848 1235.242740179827
2849 1235.242696890655
2850 1235.244568855825
2851 1235.244313118073
2852 1235.245243358656
2853 1235.243278149908
2854 1235.244015169845
2855 1235.241278856771
2856 1235.241362011688
2857 1235.238923555789
2858 1235.239572274682
2859 1235.236980568588
2860 1235.235875261004
2861 1235.233185384175
2862 1235.231533887754
2863 1235.229700286192
2864 1235.228680914224
2865 1235.226772821399
2866 1235.227358399776
2867 1235.22497232273
2868 1235.226037284204
2869 1235.224227529223
2870 1235.225456547287
2871 1235.224492681262
2872 1235.224591272967
2873 1235.224132217661
2874 1235.226631643051
2875 1235.226483880376
2876 1235.22775042383
2877 1235.229010432895
2878 1235.229504325543
2879 1235.231215408588
2880 1235.231526181829
2881 1235.232783353995
2882 1235.23464047897
2883 1235.235701534909
2884 1235.236642087913
2885 1235.237280959529
2886 1235.238084212107
2887 1235.238243200452
2888 1235.238753133359
2889 1235.238043416203
2890 1235.239357639746
2891 1235.237627588866
2892 1235.239173029127
2893 1235.237895496984
2894 1235.238703493269
2895 1235.237511606032
2896 1235.238965247087
2897 1235.237178957655
2898 1235.23947421455
2899 1235.237826710052
2900 1235.23949470439
2901 1235.23769828172
2902 1235.238771731893
2903 1235.23660732541
2904 1235.237764212165
2905 1235.235278207282
2906 1235.236615202836
2907 1235.233740293122
2908 1235.234185773751
2909 1235.232437551619
2910 1235.233554577052
2911 1235.230664811912
2912 1235.232922451048
2913 1235.230381500613
2914 1235.233215656326
2915 1235.229734080393
2916 1235.231244093799
2917 1235.229138883484
2918 1235.230662659035
2919 1235.228960900688
2920 1235.229714338656
2921 1235.228520034312
2922 1235.230104716203
2923 1235.228877001842
2924 1235.228998717143
2925 1235.227774637562
2926 1235.228193768946
2927 1235.227271255236
2928 1235.227857595194
2929 1235.227476218026
2930 1235.229270594296
2931 1235.229245126864
2932 1235.230732770393
2933 1235.231604448661
2934 1235.232558295825
2935 1235.233248278158
2936 1235.233804414089
2937 1235.235015870568
2938 1235.237173554334
2939 1235.237214852287
2940 1235.238685333009
2941 1235.238744419674
2942 1235.240292762333
2943 1235.239964787648
2944 1235.241973856276
2945 1235.240739383327
2946 1235.242783838038
2947 1235.241360155742
2948 1235.241870994766
2949 1235.24071557549
2950 1235.240938558117
2951 1235.238728306323
2952 1235.238908500193
2953 1235.237163608471
2954 1235.236674079913
2955 1235.23393163444
2956 1235.233007288993
2957 1235.229890962845
2958 1235.229624982765
2959 1235.226911093585
2960 1235.226147346964
2961 1235.223914934282
2962 1235.224579432642
2963 1235.222877438597
2964 1235.223097345146
2965 1235.221239848604
2966 1235.221492168043
2967 1235.221313679464
2968 1235.222666285721
2969 1235.223300393748
2970 1235.22657978852
2971 1235.227628620597
2972 1235.230470405227
2973 1235.231427600404
2974 1235.234646783854
2975 1235.235486529527
2976 1235.239175194544
2977 1235.240438605075
2978 1235.244632133366
2979 1235.245301690363
2980 1235.247621538248
2981 1235.247301066543
2982 1235.250200811331
2983 1235.249666600291
2984 1235.251947390898
2985 1235.24958929928
2986 1235.251548481641
2987 1235.249210868388
2988 1235.248479930659
2989 1235.245016820342
2990 1235.244139305128
2991 1235.240913179317
2992 1235.238908056252
2993 1235.235332926215
2994 1235.233635597991
2995 1235.229233083382
2996 1235.227009416208
2997 1235.22412700464
2998 1235.222298159059
2999 1235.219387236653
3000 1235.219226924734
3001 1235.216948117117
3002 1235.21613343074
3003 1235.215923933378
3004 1235.216031837742
3005 1235.216047104767
3006 1235.217021210111
3007 1235.218856232238
3008 1235.220514110995
3009 1235.223906779603
3010 1235.226713301504
3011 1235.230333237985
3012 1235.232578032824
3013 1235.235791578035
3014 1235.238282049848
3015 1235.241449668098
3016 1235.243080608745
3017 1235.246097339132
3018 1235.248128661156
3019 1235.248698476423
3020 1235.249206119191
3021 1235.249349773147
3022 1235.249142259138
3023 1235.248811025176
3024 1235.247781738549
3025 1235.245865086703
3026 1235.246639790518
3027 1235.245616126555
3028 1235.245534379336
3029 1235.240623517448
3030 1235.240482316234
3031 1235.236239793389
3032 1235.235575571368
3033 1235.231453850027
3034 1235.231585907971
3035 1235.2269611504
3036 1235.227010120078
3037 1235.222712455674
3038 1235.222558183593
3039 1235.219779917478
3040 1235.220834450168
3041 1235.218218233348
3042 1235.220966781337
3043 1235.219472419966
3044 1235.221207465132
3045 1235.220776637754
3046 1235.223891802101
3047 1235.224581010311
3048 1235.228005272969
3049 1235.229562522906
3050 1235.232350570608
3051 1235.232757294115
3052 1235.234779217164
3053 1235.235089753634
3054 1235.236842281265
3055 1235.237675877092
3056 1235.239418539075
3057 1235.240002255331
3058 1235.242359132367
3059 1235.242119445602
3060 1235.243297295896
3061 1235.242767258403
3062 1235.243491368661
3063 1235.241279352424
3064 1235.241935387657
3065 1235.240428341958
3066 1235.242177766741
3067 1235.23954272779
3068 1235.240759023786
3069 1235.237535967024
3070 1235.240703535833
3071 1235.236894122239
3072 1235.237161619761
3073 1235.234394143881
3074 1235.235547363558
3075 1235.233043904088
3076 1235.234020341833
3077 1235.231764258706
3078 1235.233460260991
3079 1235.231700330653
3080 1235.232461268858
3081 1235.231064277835
3082 1235.23330468525
3083 1235.232405230202
3084 1235.23257291997
3085 1235.232048004743
3086 1235.232828807945
3087 1235.232109983333
3088 1235.233272643056
3089 1235.233434457509
3090 1235.235102839074
3091 1235.234961600108
3092 1235.234398679761
3093 1235.234828497084
3094 1235.235462965322
3095 1235.235419840111
3096 1235.235469479237
3097 1235.235610587193
3098 1235.236397953359
3099 1235.236025089336
3100 1235.236322758054
3101 1235.236846475266
3102 1235.236333340246
3103 1235.236215600606
3104 1235.23542052528
3105 1235.235779946861
3106 1235.237351297268
3107 1235.237276357987
3108 1235.236003072566
3109 1235.235134523459
3110 1235.235063584543
3111 1235.23477355722
3112 1235.235025840649
3113 1235.234537575208
3114 1235.235523166333
3115 1235.234198488226
3116 1235.236413595845
3117 1235.235306798059
3118 1235.23720069438
3119 1235.2362922362
3120 1235.237663493237
3121 1235.236509631592
3122 1235.238056132768
3123 1235.237293049762
3124 1235.238950808777
3125 1235.237085411503
3126 1235.237403730359
3127 1235.235493259357
3128 1235.236042003145
3129 1235.233637474551
3130 1235.235061774832
3131 1235.232259711247
3132 1235.232563822621
3133 1235.23100475605
3134 1235.230282587431
3135 1235.229068110551
3136 1235.228938552624
3137 1235.22785979907
3138 1235.229338117907
3139 1235.228031364553
3140 1235.228877262892
3141 1235.227657161674
3142 1235.229181536075
3143 1235.22883480486
3144 1235.230621319939
3145 1235.230249529746
3146 1235.233468322623
3147 1235.234060817275
3148 1235.235406711419
3149 1235.234490982942
3150 1235.236243437484
3151 1235.236104938755
3152 1235.237214706405
3153 1235.237278388406
3154 1235.239604726708
3155 1235.23942477583
3156 1235.241264825371
3157 1235.240520326877
3158 1235.24156420397
3159 1235.240768402886
3160 1235.241092432695
3161 1235.238965690765
3162 1235.240846692809
3163 1235.237589043455
3164 1235.238189609866
3165 1235.235003413561
3166 1235.236085765962
3167 1235.233842954049
3168 1235.235160146613
3169 1235.233062233958
3170 1235.235767726438
3171 1235.233930880269
3172 1235.234406809087
3173 1235.232770501586
3174 1235.234303015851
3175 1235.233701937117
3176 1235.233641654716
3177 1235.232413742926
3178 1235.233917594158
3179 1235.232333539668
3180 1235.232707201555
3181 1235.231796873486
3182 1235.231127459182
3183 1235.230095991499
3184 1235.230419102764
3185 1235.228964772063
3186 1235.230200039828
3187 1235.229789019834
3188 1235.230346086431
3189 1235.230218224745
3190 1235.231402075475
3191 1235.232068359067
3192 1235.233459323096
3193 1235.234736559318
3194 1235.236072927364
3195 1235.236724968109
3196 1235.237305647365
3197 1235.23782158634
3198 1235.239612445543
3199 1235.239607138935
3200 1235.240494851674
3201 1235.240837750044
3202 1235.243873620967
3203 1235.242772637729
3204 1235.244403732311
3205 1235.243962218661
3206 1235.245348849836
3207 1235.244909301575
3208 1235.245700516149
3209 1235.244067488056
3210 1235.24523830133
3211 1235.243532032286
3212 1235.242636886014
3213 1235.239733427195
3214 1235.239962054246
3215 1235.236945140979
3216 1235.236276852371
3217 1235.233570737339
3218 1235.233015194967
3219 1235.230336587521
3220 1235.229406694268
3221 1235.226753808434
3222 1235.226210433783
3223 1235.225289081748
3224 1235.225216963923
3225 1235.224920958504
3226 1235.226229908843
3227 1235.226588413833
3228 1235.227369713744
3229 1235.227557536362
3230 1235.228064758666
3231 1235.228398431222
3232 1235.229262144764
3233 1235.23074061098
3234 1235.233213304907
3235 1235.233769148705
3236 1235.236020862281
3237 1235.23669818384
3238 1235.238422992096
3239 1235.240060340287
3240 1235.241154281334
3241 1235.241780716774
3242 1235.24403896617
3243 1235.243661252857
3244 1235.244883150162
3245 1235.244260395836
3246 1235.244676446529
3247 1235.242600663325
3248 1235.242625792646
3249 1235.240190923871
3250 1235.24139886755
3251 1235.238421521278
3252 1235.23773034941
3253 1235.234716214135
3254 1235.235063028129
3255 1235.233428409594
3256 1235.232390498292
3257 1235.230867527778
3258 1235.231537521298
3259 1235.229809223496
3260 1235.230400692278
3261 1235.22897142916
3262 1235.229033097595
3263 1235.228459665664
3264 1235.227532654709
3265 1235.227204982555
3266 1235.228040305797
3267 1235.228530745988
3268 1235.229882446274
3269 1235.23027898668
3270 1235.231872657523
3271 1235.232680927705
3272 1235.234400462771
3273 1235.235329388145
3274 1235.239049150148
3275 1235.239140495394
3276 1235.241654343767
3277 1235.241599329439
3278 1235.244025217615
3279 1235.243309708736
3280 1235.244949068222
3281 1235.244064063442
3282 1235.246078425496
3283 1235.243905417485
3284 1235.243875455324
3285 1235.241103120304
3286 1235.241936161722
3287 1235.238052728488
3288 1235.237404593199
3289 1235.233717663887
3290 1235.234539494496
3291 1235.230824831342
3292 1235.231699017906
3293 1235.227453868471
3294 1235.227361031887
3295 1235.224310046433
3296 1235.226460179222
3297 1235.223834562404
3298 1235.227259858805
3299 1235.225043394466
3300 1235.228479896885
3301 1235.226525223205
3302 1235.229605641565
3303 1235.228394329035
3304 1235.230990133456
3305 1235.230406341349
3306 1235.234167187683
3307 1235.233660317801
3308 1235.235975040345
3309 1235.237001032237
3310 1235.238483605504
3311 1235.23832466199
3312 1235.238905730047
3313 1235.238501419137
3314 1235.239773867029
3315 1235.239466796945
3316 1235.238701776332
3317 1235.23798107965
3318 1235.237579633578
3319 1235.236372265184
3320 1235.235431270397
3321 1235.234018961854
3322 1235.233865724038
3323 1235.233046691461
3324 1235.232357957687
3325 1235.231932161058
3326 1235.231917430411
3327 1235.231659905
3328 1235.23149479664
3329 1235.230284649756
3330 1235.231548986508
3331 1235.230339521988
3332 1235.230547607117
3333 1235.229399988528
3334 1235.229859999563
3335 1235.229249859375
3336 1235.230026262396
3337 1235.230039327555
3338 1235.231987787156
3339 1235.231087661817
3340 1235.23313834479
3341 1235.233688843552
3342 1235.235702057788
3343 1235.236329706567
3344 1235.237766564442
3345 1235.236857089518
3346 1235.240008498201
3347 1235.240337476917
3348 1235.240650400694
3349 1235.240451637023
3350 1235.239979044906
3351 1235.239711206121
3352 1235.238698186714
3353 1235.238951134187
3354 1235.238232287546
3355 1235.237344358627
3356 1235.236127900245
3357 1235.235264133112
3358 1235.233779077859
3359 1235.233451020285
3360 1235.233279148553
3361 1235.233218367361
3362 1235.233891641082
3363 1235.233763104812
3364 1235.234936152271
3365 1235.234289237723
3366 1235.234785241553
3367 1235.2334755698
3368 1235.234362704855
3369 1235.232590045218
3370 1235.234868527692
3371 1235.23203320773
3372 1235.233296748884
3373 1235.231266994516
3374 1235.232596594205
3375 1235.231240303212
3376 1235.232677862543
3377 1235.231927487286
3378 1235.234090935983
3379 1235.232125663699
3380 1235.234065229231
3381 1235.23162807115
3382 1235.233556870961
3383 1235.231987890145
3384 1235.233881724469
3385 1235.231577229553
3386 1235.234588579604
3387 1235.232438955441
3388 1235.235702573352
3389 1235.233506358429
3390 1235.236671051662
3391 1235.236218353679
3392 1235.237964101666
3393 1235.237085530718
3394 1235.240147977238
3395 1235.23926422918
3396 1235.240112918949
3397 1235.238937635806
3398 1235.239625711661
3399 1235.239362267581
3400 1235.239215940465
3401 1235.23866000786
3402 1235.239241772799
3403 1235.238136210455
3404 1235.237695877179
3405 1235.235368184068
3406 1235.234535915474
3407 1235.233234017615
3408 1235.232936305207
3409 1235.232008733804
3410 1235.232500901453
3411 1235.2321650442
3412 1235.232858600888
3413 1235.230805975593
3414 1235.232213300233
3415 1235.23000794106
3416 1235.230546443362
3417 1235.228349831765
3418 1235.230287447893
3419 1235.228372490654
3420 1235.229830732369
3421 1235.228245786494
3422 1235.229071853644
3423 1235.228668893427
3424 1235.229413197858
3425 1235.228146919565
3426 1235.230581338244
3427 1235.230071739358
3428 1235.23226440881
3429 1235.23173612109
3430 1235.234275846514
3431 1235.23418325739
3432 1235.236786551306
3433 1235.237186899243
3434 1235.240300788819
3435 1235.240398558683
3436 1235.242206453179
3437 1235.242022602184
3438 1235.242570884701
3439 1235.241814836755
3440 1235.241578382862
3441 1235.240061184282
3442 1235.240667002223
3443 1235.239078790595
3444 1235.238065231295
3445 1235.236321641579
3446 1235.235209456558
3447 1235.234448030724
3448 1235.233353352982
3449 1235.232183153081
3450 1235.231627594646
3451 1235.229769579526
3452 1235.228756136938
3453 1235.226398219853
3454 1235.225694954118
3455 1235.22388172463
3456 1235.222565604864
3457 1235.22216879757
3458 1235.222409778521
3459 1235.222184804656
3460 1235.222617614413
3461 1235.222289212427
3462 1235.223819436781
3463 1235.225859618033
3464 1235.227915662744
3465 1235.229311322738
3466 1235.233906249194
3467 1235.235325119415
3468 1235.238869232786
3469 1235.240142968958
3470 1235.24350206439
3471 1235.243597139608
3472 1235.245668395283
3473 1235.245535969247
3474 1235.247760033806
3475 1235.247149141437
3476 1235.247963709324
3477 1235.248128168396
3478 1235.248401534299
3479 1235.247178619927
3480 1235.246132581606
3481 1235.245099468153
3482 1235.245081987425
3483 1235.24244678103
3484 1235.241182257233
3485 1235.23833057463
3486 1235.236529720428
3487 1235.233944558181
3488 1235.231190264953
3489 1235.22842605361
3490 1235.227691332317
3491 1235.225249637125
3492 1235.223948717893
3493 1235.222035263556
3494 1235.223384400845
3495 1235.223178356868
3496 1235.225237831134
3497 1235.224721442354
3498 1235.228156724251
3499 1235.227663753153
3500 1235.231102775727
3501 1235.23143371437
3502 1235.2343254285
3503 1235.233573369628
3504 1235.236466013156
3505 1235.235881769632
3506 1235.239199283978
3507 1235.238697890661
3508 1235.240561259658
3509 1235.23968282348
3510 1235.242022938223
3511 1235.242257985138
3512 1235.243350776724
3513 1235.242764257203
3514 1235.244943833171
3515 1235.241804321921
3516 1235.242912315101
3517 1235.238777670655
3518 1235.238660907196
3519 1235.235522240649
3520 1235.235661134309
3521 1235.234277504635
3522 1235.235568278145
3523 1235.234485638199
3524 1235.234289126731
3525 1235.232823738703
3526 1235.233039717377
3527 1235.231746710319
3528 1235.232345292132
3529 1235.231187832785
3530 1235.233074328564
3531 1235.231297767482
3532 1235.233598253714
3533 1235.23317311795
3534 1235.234933741878
3535 1235.234286878659
3536 1235.235048829773
3537 1235.234266786349
3538 1235.236688021839
3539 1235.235297809935
3540 1235.237042916819
3541 1235.235853997892
3542 1235.23786683598
3543 1235.236305716421
3544 1235.237584710039
3545 1235.235264842119
3546 1235.237963962119
3547 1235.236182394215
3548 1235.236948815517
3549 1235.234551855494
3550 1235.234832329879
3551 1235.232953725552
3552 1235.23275326275
3553 1235.231109589472
3554 1235.232274352995
3555 1235.230893759975
3556 1235.231311194477
3557 1235.230576500974
3558 1235.231428215334
3559 1235.231563731075
3560 1235.23187157993
3561 1235.232021035457
3562 1235.233948025732
3563 1235.234271108538
3564 1235.235900114817
3565 1235.23673633604
3566 1235.237634845621
3567 1235.239184187653
3568 1235.239709850422
3569 1235.240615440929
3570 1235.241805241574
3571 1235.241959912228
3572 1235.242186737458
3573 1235.242886239228
3574 1235.242068437543
3575 1235.242203872197
3576 1235.242732306503
3577 1235.243118517736
3578 1235.242972289726
3579 1235.242088249187
3580 1235.241784178789
3581 1235.241009617168
3582 1235.239606101383
3583 1235.237648858536
3584 1235.237470978908
3585 1235.235187909994
3586 1235.235547602084
3587 1235.232433587839
3588 1235.231886619052
3589 1235.229617581866
3590 1235.229057417391
3591 1235.226717546677
3592 1235.227180630032
3593 1235.225238809873
3594 1235.227390986865
3595 1235.22621383922
3596 1235.228142395048
3597 1235.227549920458
3598 1235.230658204491
3599 1235.229626756317
3600 1235.232545308997
3601 1235.231798942212
3602 1235.235243217433
3603 1235.23504551403
3604 1235.236932893814
3605 1235.236806260809
3606 1235.239094706489
3607 1235.240113859194
3608 1235.242075698287
3609 1235.242735789561
3610 1235.246178695705
3611 1235.246532947762
3612 1235.248372608281
3613 1235.247225166724
3614 1235.248343130667
3615 1235.247219404148
3616 1235.247486830164
3617 1235.244514519876
3618 1235.244761083992
3619 1235.240621290778
3620 1235.239793321314
3621 1235.236510099095
3622 1235.235153303006
3623 1235.232238008149
3624 1235.230830181131
3625 1235.228255731883
3626 1235.228502529674
3627 1235.226549680882
3628 1235.22750554352
3629 1235.224887630279
3630 1235.225689411998
3631 1235.224414115122
3632 1235.225852898576
3633 1235.224465516367
3634 1235.227414881816
3635 1235.226786502029
3636 1235.228476400998
3637 1235.228244300489
3638 1235.230521151358
3639 1235.230904626226
3640 1235.233799095744
3641 1235.234567921889
3642 1235.237262010168
3643 1235.237801688012
3644 1235.240381740152
3645 1235.240734759482
3646 1235.242538440374
3647 1235.24211790744
3648 1235.241488982981
3649 1235.241803533251
3650 1235.242069181416
3651 1235.241345820786
3652 1235.241056426611
3653 1235.23995089875
3654 1235.239128904456
3655 1235.238660467067
3656 1235.237712329841
3657 1235.237670941945
3658 1235.238240519442
3659 1235.237369949185
3660 1235.23795208983
3661 1235.236793693169
3662 1235.237190931811
3663 1235.237263119599
3664 1235.237304791804
3665 1235.237144702661
3666 1235.237918996708
3667 1235.236703038847
3668 1235.237074508874
3669 1235.235942475025
3670 1235.236810227063
3671 1235.235394180002
3672 1235.235545329387
3673 1235.233401045487
3674 1235.23461313137
3675 1235.233130076281
3676 1235.233434385154
3677 1235.231264743846
3678 1235.231891181374
3679 1235.23150088286
3680 1235.231577469058
3681 1235.230606880209
3682 1235.232719529203
3683 1235.231421393466
3684 1235.232394175073
3685 1235.229654610871
3686 1235.230788683626
3687 1235.22973439203
3688 1235.231543368946
3689 1235.229971155011
3690 1235.232142808598
3691 1235.231907649171
3692 1235.233281369283
3693 1235.233160897535
3694 1235.235507803391
3695 1235.236171406926
3696 1235.237613821642
3697 1235.23847774756
3698 1235.241503178491
3699 1235.24139436041
3700 1235.24307204924
3701 1235.243163349416
3702 1235.244566855448
3703 1235.244400446698
3704 1235.24468684932
3705 1235.244104202485
3706 1235.244467577458
3707 1235.243760308584
3708 1235.242835016214
3709 1235.241774773244
3710 1235.24014171915
3711 1235.239165839717
3712 1235.238300196593
3713 1235.236427455691
3714 1235.236211810309
3715 1235.23365405654
3716 1235.232078286758
3717 1235.227704339205
3718 1235.226714615381
3719 1235.224621317964
3720 1235.224409147676
3721 1235.22147922812
3722 1235.222154372512
3723 1235.219829505558
3724 1235.221422524228
3725 1235.2193756515
3726 1235.221955651158
3727 1235.220361469272
3728 1235.223677098479
3729 1235.223526316216
3730 1235.229067627741
3731 1235.229949916497
3732 1235.234477204234
3733 1235.235888212784
3734 1235.23921987475
3735 1235.240145806097
3736 1235.244282184437
3737 1235.246121710056
3738 1235.249483346508
3739 1235.249666541681
3740 1235.251727845904
3741 1235.251263132431
3742 1235.252734347266
3743 1235.252580906063
3744 1235.252881046162
3745 1235.251907899459
3746 1235.252750850591
3747 1235.250328785024
3748 1235.248826179748
3749 1235.246813014312
3750 1235.245281519599
3751 1235.241569369897
3752 1235.238846283485
3753 1235.235460228222
3754 1235.233204803268
3755 1235.229189262118
3756 1235.22688304134
3757 1235.222666761369
3758 1235.221103916696
3759 1235.218106417519
3760 1235.217802506599
3761 1235.215133706278
3762 1235.216787546239
3763 1235.214832781628
3764 1235.21739504702
3765 1235.215936059151
3766 1235.219722893901
3767 1235.220589977921
3768 1235.225380186738
3769 1235.226310074265
3770 1235.23178664414
3771 1235.233445276896
3772 1235.238616192116
3773 1235.240079270096
3774 1235.243932092095
3775 1235.24579212834
3776 1235.248296318687
3777 1235.250105996869
3778 1235.253457435197
3779 1235.254452200262
3780 1235.255026996077
3781 1235.255536047182
3782 1235.25559571371
3783 1235.254707762835
3784 1235.253191243015
3785 1235.250307650346
3786 1235.249231361761
3787 1235.246446380357
3788 1235.24429030828
3789 1235.241070522948
3790 1235.238649679205
3791 1235.235798921948
3792 1235.23330144524
3793 1235.230714380807
3794 1235.22935309895
3795 1235.227299639113
3796 1235.226147486911
3797 1235.223876514234
3798 1235.223387264827
3799 1235.222501105837
3800 1235.223431041339
3801 1235.223223759411
3802 1235.225300944188
3803 1235.224701338592
3804 1235.226447644443
3805 1235.22677928227
3806 1235.229607309412
3807 1235.229933038647
3808 1235.232529155937
3809 1235.233558313074
3810 1235.237595016473
3811 1235.238713222158
3812 1235.241580860759
3813 1235.243339380284
3814 1235.244577481031
3815 1235.244559172865
3816 1235.244894601217
3817 1235.243710797843
3818 1235.244839628912
3819 1235.243774390335
3820 1235.243945063583
3821 1235.241547681917
3822 1235.240882519117
3823 1235.238670185638
3824 1235.23710159167
3825 1235.234921592225
3826 1235.233955268215
3827 1235.231905495245
3828 1235.230946279156
3829 1235.229753946134
3830 1235.228976450439
3831 1235.228005672279
3832 1235.227754801341
3833 1235.22688883158
3834 1235.229032605826
3835 1235.227683357071
3836 1235.229900043937
3837 1235.229433135602
3838 1235.232407330273
3839 1235.23174284523
3840 1235.234793467744
3841 1235.233485283134
3842 1235.23763308556
3843 1235.23643207637
3844 1235.239210472152
3845 1235.23777620234
3846 1235.240743911143
3847 1235.237795201811
3848 1235.239224659334
3849 1235.237614855622
3850 1235.239856966608
3851 1235.237787413419
3852 1235.238876038571
3853 1235.236053940095
3854 1235.236785033387
3855 1235.233993353125
3856 1235.234138804191
3857 1235.230629858962
3858 1235.231400167652
3859 1235.229178668998
3860 1235.229180442204
3861 1235.226896124593
3862 1235.228018847129
3863 1235.227017146851
3864 1235.226689652997
3865 1235.226386898052
3866 1235.228008998648
3867 1235.228078751696
3868 1235.229134600836
3869 1235.230302100992
3870 1235.232091050859
3871 1235.233390382111
3872 1235.235893523285
3873 1235.237927568892
3874 1235.240442404674
3875 1235.242539698847
3876 1235.244674165296
3877 1235.245446633434
3878 1235.247347016493
3879 1235.247509576341
3880 1235.247865528392
3881 1235.248124733173
3882 1235.249685635083
3883 1235.248267131517
3884 1235.2480087121
3885 1235.245414165057
3886 1235.244078426598
3887 1235.241385961885
3888 1235.23936526543
3889 1235.236366390267
3890 1235.235209311998
3891 1235.230879687964
3892 1235.230407991854
3893 1235.226630788138
3894 1235.225995567381
3895 1235.222609344768
3896 1235.222006836332
3897 1235.219078566249
3898 1235.220266155369
3899 1235.218564597889
3900 1235.219629187389
3901 1235.218919577413
3902 1235.220306081011
3903 1235.220446995
3904 1235.22290771889
3905 1235.224681118422
3906 1235.228096602494
3907 1235.230775950472
3908 1235.233563236016
3909 1235.235533096082
3910 1235.237801867007
3911 1235.240010848633
3912 1235.242219647666
3913 1235.243679207833
3914 1235.245544632482
3915 1235.245512494661
3916 1235.247054980093
3917 1235.247203932665
3918 1235.247634800425
3919 1235.248092578592
3920 1235.247412071066
3921 1235.246963060949
3922 1235.247144945481
3923 1235.245603943773
3924 1235.243973301674
3925 1235.242019063027
3926 1235.24048142295
3927 1235.238657729069
3928 1235.236500894473
3929 1235.233473950901
3930 1235.233168753481
3931 1235.229397104772
3932 1235.229029192959
3933 1235.225431070996
3934 1235.225133838504
3935 1235.222028101527
3936 1235.223265166166
3937 1235.221560287048
3938 1235.223221301834
3939 1235.221735153819
3940 1235.222551899484
3941 1235.221140262678
3942 1235.223720671707
3943 1235.222654069356
3944 1235.225485765878
3945 1235.224320563461
3946 1235.228859561453
3947 1235.228204948742
3948 1235.232161191717
3949 1235.232518340712
3950 1235.23580182373
3951 1235.236269860061
3952 1235.239582008574
3953 1235.239165861148
3954 1235.242114081408
3955 1235.241649983854
3956 1235.242277691984
3957 1235.241572964982
3958 1235.241702730072
3959 1235.240530130426
3960 1235.241012194618
3961 1235.239720823183
3962 1235.241240660467
3963 1235.23989633225
3964 1235.23938809401
3965 1235.238154551207
3966 1235.238404601552
3967 1235.237067384563
3968 1235.237092084949
3969 1235.236086058391
3970 1235.237945923436
3971 1235.236239514532
3972 1235.236600760986
3973 1235.234793550313
3974 1235.235398017707
3975 1235.234384887963
3976 1235.233982318777
3977 1235.23339984699
3978 1235.232940452093
3979 1235.232076791084
3980 1235.231408992013
3981 1235.229750531743
3982 1235.229286503807
3983 1235.229206809068
3984 1235.230548600096
3985 1235.229404225459
3986 1235.231210777422
3987 1235.230924623994
3988 1235.232184686302
3989 1235.231475337458
3990 1235.232943489481
3991 1235.232854049567
3992 1235.23489324701
3993 1235.234123559211
3994 1235.236625148283
3995 1235.236263934295
3996 1235.237347151716
3997 1235.236798178698
3998 1235.237176482177
3999 1235.237230473199
4000 1235.237310951901
4001 1235.238027023433
4002 1235.239535037716
4003 1235.239633383693
4004 1235.240477106588
4005 1235.240439709743
4006 1235.241883350194
4007 1235.241648268857
4008 1235.242405419035
4009 1235.241774659432
4010 1235.242193325433
4011 1235.240861910505
4012 1235.241643569134
4013 1235.239870803508
4014 1235.240074170845
4015 1235.236992229044
4016 1235.236980315358
4017 1235.234081629518
4018 1235.2340688397
4019 1235.230270787598
4020 1235.229749892985
4021 1235.226586309919
4022 1235.226012016102
4023 1235.222916871054
4024 1235.222957556146
4025 1235.221609038729
4026 1235.222528710247
4027 1235.221295767593
4028 1235.222525956063
4029 1235.22133891076
4030 1235.22394742483
4031 1235.224449902103
4032 1235.225630853199
4033 1235.227230020806
4034 1235.231120454672
4035 1235.233573610212
4036 1235.235687110977
4037 1235.237658351476
4038 1235.239800253415
4039 1235.241413378571
4040 1235.242986566589
4041 1235.243456642381
4042 1235.245471472572
4043 1235.245577567708
4044 1235.246458904461
4045 1235.245324572366
4046 1235.245109174306
4047 1235.243236484488
4048 1235.242224724973
4049 1235.240674228563
